!@!!GADDS PLOTSO FILE: Chi integration type
!@!!Title/SampleName: map-142
!@!!Comment: ?
!@!!User: Bruker Instrument Administrator
!@!!Site: University of Illinois Chicago
!@!!Frame: map-142_01_000.gfrm
!@!!Wavelengths    1.54184   1.54056   1.54439
!@!!Frame angles: 2Theta: 63.000 Omega: 50.000 Phi: 0.000 Chi: 90.000
!@!!Integration range: 2Theta: 53.000 to 73.000  Gamma: -105.000 to -75.000
!@!!Integration method: bin normalized
!@!N
!@!SS
!@!M
!@!L 0.0 0.0 0.0 0.0
!@!XDegrees
!@!YCounts
53.000 9.619231
53.005 9.715565
53.010 9.933824
53.015 9.700036
53.020 9.563153
53.025 9.537131
53.030 9.886218
53.035 10.049417
53.040 10.067866
53.045 9.942088
53.050 10.328236
53.055 10.408558
53.060 10.190496
53.065 10.230211
53.070 9.720378
53.075 9.52951
53.080 8.800587
53.085 8.726007
53.090 9.332669
53.095 9.521011
53.100 9.593831
53.105 10.041407
53.110 10.268661
53.115 10.926234
53.120 10.780478
53.125 10.521434
53.130 10.468585
53.135 10.038936
53.140 9.92518
53.145 10.395265
53.150 10.765199
53.155 10.810776
53.160 10.917743
53.165 11.106957
53.170 11.404128
53.175 10.575608
53.180 9.716509
53.185 9.5266
53.190 9.871582
53.195 10.155585
53.200 10.333185
53.205 10.552564
53.210 11.433424
53.215 11.542983
53.220 11.662244
53.225 11.252527
53.230 11.234669
53.235 11.411558
53.240 10.918106
53.245 10.742773
53.250 10.844815
53.255 10.59872
53.260 10.211766
53.265 9.568411
53.270 9.734832
53.275 10.065207
53.280 10.088403
53.285 10.094719
53.290 10.61072
53.295 10.939981
53.300 10.818415
53.305 10.578763
53.310 10.512327
53.315 10.596572
53.320 10.873515
53.325 10.670251
53.330 10.688415
53.335 10.861736
53.340 10.997345
53.345 10.985227
53.350 10.441483
53.355 10.164147
53.360 10.113028
53.365 9.806067
53.370 9.427034
53.375 9.177811
53.380 9.090614
53.385 9.615123
53.390 9.777645
53.395 9.862718
53.400 10.170544
53.405 10.443868
53.410 10.931287
53.415 11.254565
53.420 11.810061
53.425 11.653178
53.430 11.745995
53.435 11.77448
53.440 11.562383
53.445 11.281405
53.450 10.858326
53.455 10.359805
53.460 10.699396
53.465 10.941187
53.470 11.374211
53.475 11.736813
53.480 12.032095
53.485 11.876287
53.490 11.659204
53.495 11.602982
53.500 11.080882
53.505 10.7656
53.510 10.854752
53.515 11.143586
53.520 11.397094
53.525 11.701854
53.530 11.668476
53.535 11.588566
53.540 11.591172
53.545 11.371229
53.550 10.967713
53.555 11.047764
53.560 10.64516
53.565 10.774575
53.570 10.762189
53.575 10.58445
53.580 10.610016
53.585 10.677431
53.590 11.071088
53.595 11.525796
53.600 11.714705
53.605 11.957477
53.610 11.84397
53.615 11.75525
53.620 11.724984
53.625 10.961252
53.630 11.003302
53.635 11.300973
53.640 11.282475
53.645 11.23771
53.650 11.029748
53.655 11.278399
53.660 10.977188
53.665 10.913673
53.670 10.913099
53.675 11.042937
53.680 11.158725
53.685 11.343027
53.690 11.474809
53.695 11.863113
53.700 11.456254
53.705 11.074513
53.710 11.116323
53.715 10.748683
53.720 10.933702
53.725 10.906454
53.730 10.992813
53.735 11.49125
53.740 11.562371
53.745 11.662106
53.750 11.536745
53.755 11.072437
53.760 11.037624
53.765 11.073905
53.770 10.948647
53.775 11.554425
53.780 12.017927
53.785 12.488727
53.790 12.3225
53.795 11.968503
53.800 11.697184
53.805 11.431502
53.810 11.150871
53.815 10.822621
53.820 10.578005
53.825 10.794997
53.830 10.975826
53.835 11.218716
53.840 11.00861
53.845 11.050555
53.850 11.01981
53.855 11.027121
53.860 11.291958
53.865 11.379709
53.870 11.524539
53.875 11.395448
53.880 11.011828
53.885 11.035331
53.890 11.025915
53.895 11.001425
53.900 10.649512
53.905 10.928417
53.910 11.073446
53.915 11.561898
53.920 11.751765
53.925 11.59488
53.930 11.699354
53.935 11.542692
53.940 11.300751
53.945 10.949244
53.950 10.422952
53.955 10.186967
53.960 10.467077
53.965 10.384027
53.970 10.380744
53.975 10.511065
53.980 10.97729
53.985 11.544109
53.990 11.877843
53.995 11.777429
54.000 11.818422
54.005 12.285788
54.010 12.344786
54.015 12.734483
54.020 12.896472
54.025 12.651161
54.030 12.78859
54.035 12.708756
54.040 11.980932
54.045 11.949721
54.050 11.431047
54.055 10.850884
54.060 10.843324
54.065 10.560315
54.070 10.727132
54.075 10.921167
54.080 10.520013
54.085 10.238689
54.090 10.248883
54.095 10.120671
54.100 10.039063
54.105 9.680501
54.110 9.820093
54.115 10.042778
54.120 10.126423
54.125 10.356391
54.130 10.535575
54.135 10.371273
54.140 10.345051
54.145 9.985772
54.150 10.14207
54.155 10.29567
54.160 10.46018
54.165 10.664289
54.170 10.654689
54.175 11.045844
54.180 11.293331
54.185 11.401234
54.190 11.550284
54.195 11.617269
54.200 12.036021
54.205 12.08259
54.210 12.022549
54.215 11.831859
54.220 11.235452
54.225 11.05422
54.230 10.787598
54.235 10.823551
54.240 11.02709
54.245 10.723248
54.250 11.302435
54.255 11.445022
54.260 11.437895
54.265 11.702911
54.270 12.227789
54.275 12.775748
54.280 12.696131
54.285 12.4354
54.290 12.904207
54.295 12.645611
54.300 12.278124
54.305 11.28973
54.310 11.168461
54.315 11.804825
54.320 11.619044
54.325 11.944777
54.330 12.325479
54.335 12.383071
54.340 12.453901
54.345 12.053483
54.350 11.690897
54.355 11.556744
54.360 11.292745
54.365 11.351836
54.370 11.490744
54.375 11.423573
54.380 11.00167
54.385 11.292411
54.390 11.569905
54.395 11.443113
54.400 11.286533
54.405 11.479988
54.410 12.122669
54.415 12.423853
54.420 12.147068
54.425 11.91079
54.430 12.260243
54.435 12.573746
54.440 12.682329
54.445 12.62935
54.450 12.774837
54.455 13.141191
54.460 12.847284
54.465 12.136746
54.470 11.659055
54.475 11.503742
54.480 11.574546
54.485 11.264382
54.490 11.310266
54.495 11.385423
54.500 11.391349
54.505 11.442498
54.510 10.987696
54.515 10.864505
54.520 11.267992
54.525 10.929276
54.530 11.066632
54.535 11.034321
54.540 11.200627
54.545 11.260316
54.550 11.124866
54.555 11.189986
54.560 11.396821
54.565 11.788371
54.570 11.707939
54.575 11.544307
54.580 11.723156
54.585 11.052845
54.590 10.847518
54.595 10.994416
54.600 11.369844
54.605 11.316955
54.610 11.066528
54.615 11.311524
54.620 11.836768
54.625 11.588654
54.630 11.221275
54.635 10.635434
54.640 10.92979
54.645 11.011276
54.650 10.966722
54.655 10.918363
54.660 10.844949
54.665 10.993552
54.670 11.233456
54.675 11.614782
54.680 12.096077
54.685 12.375889
54.690 12.585061
54.695 12.922108
54.700 12.759204
54.705 12.625062
54.710 12.321978
54.715 11.922214
54.720 11.594852
54.725 11.404675
54.730 11.290034
54.735 11.690117
54.740 11.947699
54.745 11.67868
54.750 11.801245
54.755 11.963424
54.760 11.953192
54.765 11.775625
54.770 11.547362
54.775 11.383575
54.780 11.674479
54.785 11.224312
54.790 10.86661
54.795 11.317264
54.800 11.256824
54.805 11.335312
54.810 11.819967
54.815 11.56151
54.820 11.908472
54.825 12.235353
54.830 12.229062
54.835 12.575197
54.840 12.499202
54.845 13.048266
54.850 13.703168
54.855 13.897755
54.860 13.753848
54.865 13.336155
54.870 13.038691
54.875 13.192121
54.880 12.934084
54.885 12.879327
54.890 12.761785
54.895 13.026982
54.900 13.564934
54.905 13.651371
54.910 13.41745
54.915 13.396348
54.920 12.825253
54.925 12.278233
54.930 11.752193
54.935 11.162921
54.940 11.231217
54.945 10.960357
54.950 11.86486
54.955 12.738142
54.960 13.003695
54.965 13.639265
54.970 14.282381
54.975 14.074282
54.980 13.790646
54.985 12.985705
54.990 12.770469
54.995 12.6699
55.000 12.166569
55.005 11.779889
55.010 12.142359
55.015 12.200996
55.020 12.055532
55.025 12.503236
55.030 12.935864
55.035 12.626092
55.040 12.231004
55.045 12.073974
55.050 12.443495
55.055 12.838078
55.060 12.349365
55.065 12.502556
55.070 12.714066
55.075 13.037488
55.080 12.990414
55.085 12.340636
55.090 11.909074
55.095 11.874952
55.100 12.224947
55.105 12.753572
55.110 13.16812
55.115 13.578598
55.120 13.462281
55.125 13.422123
55.130 13.278296
55.135 12.771166
55.140 12.499548
55.145 12.314986
55.150 12.435549
55.155 12.581005
55.160 12.607141
55.165 12.713374
55.170 12.988028
55.175 13.304915
55.180 13.054646
55.185 13.324139
55.190 13.740294
55.195 13.691593
55.200 13.716711
55.205 13.510091
55.210 13.570493
55.215 13.782306
55.220 13.617414
55.225 13.539673
55.230 13.466906
55.235 13.860864
55.240 13.820515
55.245 13.42772
55.250 13.208099
55.255 12.6928
55.260 12.775945
55.265 12.58043
55.270 12.041013
55.275 11.872241
55.280 11.970272
55.285 11.792213
55.290 12.097095
55.295 12.255797
55.300 12.269815
55.305 12.855238
55.310 13.103917
55.315 13.012167
55.320 13.137728
55.325 12.965522
55.330 12.91228
55.335 12.765121
55.340 11.822938
55.345 11.65256
55.350 11.542308
55.355 11.85712
55.360 12.346299
55.365 12.369869
55.370 12.359667
55.375 12.434661
55.380 12.591044
55.385 12.482111
55.390 12.35334
55.395 12.081063
55.400 12.268785
55.405 12.495992
55.410 12.931838
55.415 12.941765
55.420 13.046936
55.425 13.604128
55.430 14.011728
55.435 13.848558
55.440 13.825996
55.445 13.231735
55.450 12.754153
55.455 12.546984
55.460 11.591827
55.465 11.581354
55.470 11.896501
55.475 11.935553
55.480 12.188825
55.485 12.903014
55.490 12.944151
55.495 12.602654
55.500 12.847702
55.505 13.07805
55.510 13.098054
55.515 13.105622
55.520 12.643676
55.525 13.102654
55.530 13.475021
55.535 12.992298
55.540 12.715838
55.545 13.073475
55.550 13.333553
55.555 13.400571
55.560 12.867951
55.565 13.079675
55.570 12.840693
55.575 12.877173
55.580 12.832916
55.585 12.818836
55.590 12.888491
55.595 12.671544
55.600 13.004004
55.605 13.736801
55.610 14.034883
55.615 14.142923
55.620 13.871256
55.625 13.961158
55.630 14.070397
55.635 13.885005
55.640 13.672276
55.645 13.243113
55.650 13.139884
55.655 13.667206
55.660 13.910795
55.665 13.317655
55.670 12.994802
55.675 13.280608
55.680 13.448556
55.685 12.623013
55.690 12.402346
55.695 12.612806
55.700 13.237675
55.705 13.135499
55.710 12.711637
55.715 12.860448
55.720 13.442116
55.725 13.237597
55.730 13.402101
55.735 13.19611
55.740 13.096146
55.745 12.935959
55.750 12.646678
55.755 12.367655
55.760 12.426844
55.765 12.249745
55.770 12.395447
55.775 12.881481
55.780 13.15836
55.785 13.199976
55.790 13.041501
55.795 12.858466
55.800 12.770967
55.805 13.311343
55.810 13.605086
55.815 13.852283
55.820 14.187991
55.825 14.788506
55.830 14.91
55.835 15.245362
55.840 14.647626
55.845 14.290403
55.850 14.024734
55.855 13.725218
55.860 13.162859
55.865 12.865687
55.870 11.90333
55.875 11.736805
55.880 11.41782
55.885 11.524714
55.890 11.922178
55.895 12.152988
55.900 12.116896
55.905 12.337192
55.910 12.504506
55.915 12.678646
55.920 12.829425
55.925 12.984529
55.930 13.20682
55.935 13.252665
55.940 13.582554
55.945 13.796174
55.950 13.512671
55.955 13.436653
55.960 13.28707
55.965 13.32371
55.970 13.555041
55.975 13.27937
55.980 13.532002
55.985 13.988816
55.990 13.761166
55.995 13.589507
56.000 13.810119
56.005 13.759796
56.010 13.795368
56.015 13.402264
56.020 13.548274
56.025 13.582771
56.030 13.818715
56.035 14.085475
56.040 14.088686
56.045 14.223071
56.050 14.162157
56.055 13.795437
56.060 13.499944
56.065 13.500206
56.070 13.609139
56.075 14.01987
56.080 14.111691
56.085 14.459869
56.090 14.628248
56.095 14.190513
56.100 13.820856
56.105 13.276695
56.110 12.899215
56.115 13.03705
56.120 13.083482
56.125 13.479567
56.130 13.95634
56.135 14.125389
56.140 14.372136
56.145 14.303022
56.150 13.85088
56.155 14.300278
56.160 14.492858
56.165 14.478527
56.170 14.284523
56.175 13.96314
56.180 13.695217
56.185 13.895088
56.190 13.626453
56.195 12.908237
56.200 12.585183
56.205 12.525167
56.210 12.574766
56.215 13.052819
56.220 12.7294
56.225 12.973457
56.230 13.824677
56.235 14.239838
56.240 13.939547
56.245 13.757522
56.250 13.429186
56.255 13.52223
56.260 12.804641
56.265 12.302318
56.270 12.18334
56.275 12.375267
56.280 12.243727
56.285 12.230255
56.290 12.123029
56.295 12.103056
56.300 12.181986
56.305 12.439063
56.310 12.680677
56.315 12.449379
56.320 12.714913
56.325 13.06667
56.330 13.178789
56.335 13.410472
56.340 13.333215
56.345 13.910937
56.350 14.330973
56.355 13.809521
56.360 13.564135
56.365 13.343772
56.370 12.925441
56.375 12.869835
56.380 12.488465
56.385 12.380906
56.390 12.674978
56.395 12.788024
56.400 13.211564
56.405 13.5158
56.410 13.720961
56.415 13.713205
56.420 13.711756
56.425 13.416757
56.430 13.230886
56.435 13.455104
56.440 12.861868
56.445 12.916041
56.450 13.276542
56.455 13.424797
56.460 14.212522
56.465 14.443543
56.470 14.260976
56.475 14.643157
56.480 14.48349
56.485 14.396395
56.490 14.182567
56.495 13.542317
56.500 13.370499
56.505 13.573511
56.510 13.767675
56.515 13.828215
56.520 14.163308
56.525 14.714618
56.530 15.717464
56.535 15.884759
56.540 15.565324
56.545 15.445943
56.550 15.282122
56.555 14.710174
56.560 13.978298
56.565 13.643111
56.570 14.051796
56.575 14.377841
56.580 14.441288
56.585 14.154609
56.590 14.283952
56.595 14.513408
56.600 14.482342
56.605 14.609417
56.610 14.674728
56.615 14.577469
56.620 15.030736
56.625 15.575399
56.630 15.29107
56.635 14.836553
56.640 14.334003
56.645 14.230309
56.650 14.204014
56.655 13.569475
56.660 13.828298
56.665 14.050516
56.670 14.331438
56.675 14.860849
56.680 14.931445
56.685 15.26862
56.690 15.823865
56.695 15.209255
56.700 15.438465
56.705 15.268767
56.710 15.323839
56.715 15.332335
56.720 15.046211
56.725 15.478983
56.730 15.882609
56.735 15.976165
56.740 16.214445
56.745 16.191267
56.750 16.060146
56.755 16.012638
56.760 15.55324
56.765 15.24868
56.770 14.858467
56.775 14.562942
56.780 14.707597
56.785 14.93508
56.790 14.776582
56.795 14.499001
56.800 13.896933
56.805 13.981779
56.810 13.810167
56.815 13.750659
56.820 13.671172
56.825 14.000505
56.830 13.855044
56.835 14.28264
56.840 14.350349
56.845 13.936721
56.850 13.194071
56.855 12.955675
56.860 12.638769
56.865 13.184444
56.870 13.025982
56.875 12.659656
56.880 13.526877
56.885 14.159731
56.890 14.360232
56.895 14.18389
56.900 14.243237
56.905 13.94382
56.910 13.695122
56.915 13.463831
56.920 13.509648
56.925 13.52605
56.930 13.661959
56.935 13.892516
56.940 14.378239
56.945 14.768267
56.950 14.165797
56.955 13.555346
56.960 13.244794
56.965 13.172226
56.970 12.921024
56.975 12.965864
56.980 13.758151
56.985 13.948841
56.990 13.990466
56.995 14.305457
57.000 14.717612
57.005 14.866344
57.010 14.657171
57.015 14.097889
57.020 14.346657
57.025 14.674004
57.030 14.310163
57.035 13.596758
57.040 13.640475
57.045 13.488929
57.050 13.662625
57.055 13.721861
57.060 13.847301
57.065 13.766599
57.070 14.115618
57.075 14.502846
57.080 14.695359
57.085 14.687099
57.090 14.693438
57.095 14.804777
57.100 15.364561
57.105 15.571816
57.110 15.205521
57.115 14.710713
57.120 14.68924
57.125 14.986689
57.130 15.140531
57.135 14.750445
57.140 14.684109
57.145 15.616909
57.150 16.36648
57.155 15.821473
57.160 15.52115
57.165 16.137655
57.170 16.559956
57.175 15.701479
57.180 14.699331
57.185 13.988849
57.190 13.766793
57.195 13.458163
57.200 12.813439
57.205 12.840113
57.210 13.248466
57.215 13.562978
57.220 14.066951
57.225 15.219946
57.230 15.226484
57.235 15.469071
57.240 15.277689
57.245 14.908617
57.250 14.866912
57.255 15.427176
57.260 15.328129
57.265 15.067113
57.270 15.171454
57.275 15.375807
57.280 16.058783
57.285 15.906188
57.290 15.865397
57.295 16.028757
57.300 16.338127
57.305 16.335119
57.310 16.274904
57.315 16.088461
57.320 16.161547
57.325 15.699551
57.330 15.321755
57.335 14.882819
57.340 14.586803
57.345 14.041385
57.350 14.379139
57.355 14.440665
57.360 14.584375
57.365 14.426939
57.370 15.370886
57.375 15.560784
57.380 15.748793
57.385 15.677294
57.390 15.643991
57.395 15.998958
57.400 16.430225
57.405 16.575485
57.410 16.56583
57.415 16.52166
57.420 16.878784
57.425 16.614908
57.430 16.473724
57.435 15.998773
57.440 15.072005
57.445 14.773153
57.450 14.299231
57.455 13.702182
57.460 13.482359
57.465 13.091543
57.470 13.25326
57.475 13.454201
57.480 13.858953
57.485 14.04934
57.490 13.585864
57.495 13.980113
57.500 14.067528
57.505 13.95474
57.510 13.683155
57.515 13.677562
57.520 13.747069
57.525 14.198248
57.530 14.193793
57.535 14.723636
57.540 15.336767
57.545 15.64164
57.550 15.755994
57.555 15.933885
57.560 16.097343
57.565 15.240562
57.570 14.615354
57.575 14.508338
57.580 14.632846
57.585 14.433361
57.590 14.900407
57.595 15.560647
57.600 16.116661
57.605 16.229319
57.610 16.046049
57.615 16.071157
57.620 15.982329
57.625 15.546562
57.630 14.826322
57.635 14.371103
57.640 14.03793
57.645 13.939553
57.650 14.273536
57.655 14.55704
57.660 13.837342
57.665 13.666983
57.670 13.861285
57.675 14.455753
57.680 14.633749
57.685 14.414756
57.690 14.478661
57.695 15.179519
57.700 15.099504
57.705 15.427606
57.710 15.590538
57.715 15.739221
57.720 15.356219
57.725 15.204248
57.730 15.032194
57.735 15.283562
57.740 15.095533
57.745 14.484326
57.750 14.411383
57.755 14.833286
57.760 14.893172
57.765 14.837308
57.770 14.642651
57.775 15.342744
57.780 15.855811
57.785 16.205709
57.790 16.364859
57.795 16.729877
57.800 17.240931
57.805 17.284233
57.810 16.492132
57.815 16.175133
57.820 15.783952
57.825 15.862512
57.830 15.841933
57.835 15.59098
57.840 15.197634
57.845 15.139348
57.850 15.625669
57.855 15.68752
57.860 15.2832
57.865 14.908267
57.870 15.013062
57.875 15.312452
57.880 15.323551
57.885 14.862034
57.890 14.501401
57.895 14.526691
57.900 14.531374
57.905 14.104196
57.910 13.683799
57.915 13.449524
57.920 13.384582
57.925 13.843196
57.930 14.018026
57.935 14.542259
57.940 15.333495
57.945 15.654189
57.950 16.234844
57.955 16.468098
57.960 16.53451
57.965 16.590324
57.970 15.806413
57.975 15.334891
57.980 15.302102
57.985 14.711246
57.990 14.154151
57.995 13.886521
58.000 13.909888
58.005 14.053214
58.010 14.349508
58.015 14.972617
58.020 15.122065
58.025 15.855201
58.030 15.908829
58.035 15.745438
58.040 15.929029
58.045 16.130625
58.050 15.99338
58.055 15.469217
58.060 15.238317
58.065 15.420789
58.070 15.984965
58.075 16.308981
58.080 15.661443
58.085 15.888942
58.090 16.693272
58.095 16.543255
58.100 16.17882
58.105 15.672277
58.110 15.444575
58.115 15.477081
58.120 14.94134
58.125 14.824203
58.130 15.169211
58.135 15.275146
58.140 15.88892
58.145 16.586092
58.150 17.053791
58.155 17.629078
58.160 17.247869
58.165 17.197449
58.170 16.829668
58.175 16.12615
58.180 15.775217
58.185 15.736429
58.190 15.289367
58.195 15.333083
58.200 15.512427
58.205 15.796277
58.210 16.016426
58.215 16.010586
58.220 15.66342
58.225 15.67405
58.230 16.100367
58.235 15.71943
58.240 15.82937
58.245 15.702044
58.250 15.672632
58.255 15.86599
58.260 16.164431
58.265 15.544427
58.270 16.174267
58.275 15.83278
58.280 15.804864
58.285 15.676403
58.290 15.665795
58.295 15.728354
58.300 15.716194
58.305 15.441888
58.310 16.162401
58.315 15.554273
58.320 15.61522
58.325 15.445666
58.330 15.449455
58.335 15.688279
58.340 16.145063
58.345 16.312841
58.350 16.990692
58.355 17.21525
58.360 17.308197
58.365 17.307842
58.370 17.369528
58.375 16.875275
58.380 16.148628
58.385 15.751806
58.390 15.854468
58.395 16.280983
58.400 16.725727
58.405 16.894073
58.410 16.865807
58.415 16.947582
58.420 17.098803
58.425 17.091343
58.430 16.524918
58.435 16.091457
58.440 16.210478
58.445 16.586929
58.450 16.778368
58.455 16.496098
58.460 16.726206
58.465 16.88039
58.470 16.795403
58.475 15.970407
58.480 15.55336
58.485 15.546004
58.490 16.152925
58.495 16.174179
58.500 15.542345
58.505 15.643206
58.510 16.418251
58.515 16.633392
58.520 16.819071
58.525 16.750198
58.530 16.391418
58.535 16.750071
58.540 16.533379
58.545 15.974783
58.550 16.109653
58.555 16.122824
58.560 15.886692
58.565 15.707714
58.570 15.01893
58.575 14.730397
58.580 14.838229
58.585 14.921051
58.590 15.244186
58.595 14.971731
58.600 15.439552
58.605 16.682541
58.610 17.205654
58.615 17.339108
58.620 17.00738
58.625 16.542429
58.630 16.693701
58.635 16.728735
58.640 16.651913
58.645 16.619776
58.650 16.024647
58.655 16.160271
58.660 16.3813
58.665 16.701124
58.670 16.905725
58.675 17.211544
58.680 17.304062
58.685 17.568605
58.690 17.452005
58.695 17.570459
58.700 17.724691
58.705 17.59005
58.710 17.081223
58.715 16.864927
58.720 16.570568
58.725 16.43092
58.730 15.749123
58.735 15.111614
58.740 15.379724
58.745 15.586458
58.750 16.14743
58.755 16.598724
58.760 16.541634
58.765 16.993069
58.770 17.247625
58.775 16.56916
58.780 16.763559
58.785 16.840532
58.790 16.726414
58.795 16.644281
58.800 16.763449
58.805 17.085989
58.810 17.065346
58.815 16.633997
58.820 16.575338
58.825 17.014954
58.830 17.12031
58.835 16.984716
58.840 16.906176
58.845 17.03562
58.850 17.138969
58.855 17.028393
58.860 16.602076
58.865 16.519567
58.870 16.773706
58.875 16.632015
58.880 16.173641
58.885 16.046074
58.890 16.344118
58.895 16.770172
58.900 16.766169
58.905 16.672167
58.910 17.300745
58.915 17.854778
58.920 17.94405
58.925 17.826822
58.930 17.688988
58.935 17.703218
58.940 17.079102
58.945 16.862495
58.950 17.212305
58.955 16.853065
58.960 16.419296
58.965 16.478722
58.970 17.095217
58.975 17.765997
58.980 17.49976
58.985 17.165016
58.990 17.338547
58.995 17.769865
59.000 17.482821
59.005 17.052309
59.010 16.766438
59.015 16.435034
59.020 16.707163
59.025 16.709578
59.030 16.983644
59.035 17.232147
59.040 17.345884
59.045 16.948132
59.050 17.321651
59.055 17.500916
59.060 17.292948
59.065 17.338902
59.070 17.734905
59.075 17.87538
59.080 18.032423
59.085 17.56707
59.090 17.766514
59.095 18.225008
59.100 17.961332
59.105 17.498528
59.110 17.548498
59.115 17.785007
59.120 17.693991
59.125 17.146467
59.130 16.910246
59.135 16.974171
59.140 17.109476
59.145 17.112995
59.150 17.632687
59.155 17.678181
59.160 17.547171
59.165 17.351908
59.170 17.137205
59.175 16.742725
59.180 16.972761
59.185 17.056877
59.190 17.279198
59.195 17.216921
59.200 17.414793
59.205 18.31144
59.210 18.858389
59.215 18.461931
59.220 18.280951
59.225 18.329191
59.230 18.651085
59.235 18.501461
59.240 18.498604
59.245 18.504057
59.250 18.737165
59.255 19.246733
59.260 19.318817
59.265 19.288458
59.270 19.335939
59.275 18.53096
59.280 18.109512
59.285 17.263025
59.290 16.828402
59.295 16.746422
59.300 16.716133
59.305 16.640091
59.310 16.478998
59.315 17.317825
59.320 17.463686
59.325 17.241673
59.330 17.834805
59.335 18.173332
59.340 17.599428
59.345 17.539644
59.350 16.465498
59.355 16.830868
59.360 17.078375
59.365 16.502462
59.370 16.427174
59.375 16.672419
59.380 16.838303
59.385 17.358772
59.390 17.708475
59.395 18.084454
59.400 18.498674
59.405 18.510969
59.410 18.409966
59.415 18.356096
59.420 18.358938
59.425 17.672384
59.430 17.298426
59.435 17.032925
59.440 17.540771
59.445 18.440338
59.450 18.893408
59.455 19.237114
59.460 21.179995
59.465 21.89304
59.470 21.804682
59.475 21.525496
59.480 21.2642
59.485 20.736542
59.490 20.47084
59.495 19.124563
59.500 18.39365
59.505 18.079111
59.510 18.120411
59.515 17.959137
59.520 18.175148
59.525 17.944576
59.530 17.97624
59.535 17.978001
59.540 18.002096
59.545 18.317808
59.550 18.689362
59.555 18.911343
59.560 19.438692
59.565 19.162422
59.570 18.759321
59.575 19.295731
59.580 19.345564
59.585 18.994272
59.590 19.766665
59.595 20.445496
59.600 21.008364
59.605 20.919527
59.610 20.28965
59.615 19.745295
59.620 19.457733
59.625 18.413616
59.630 17.657738
59.635 18.336458
59.640 19.519749
59.645 19.953613
59.650 20.509905
59.655 20.394104
59.660 20.429153
59.665 20.750015
59.670 20.260206
59.675 20.435131
59.680 21.09355
59.685 21.545212
59.690 22.550516
59.695 23.115095
59.700 23.40395
59.705 23.81455
59.710 23.584982
59.715 23.201578
59.720 23.076115
59.725 23.074017
59.730 23.086077
59.735 22.959976
59.740 22.731741
59.745 22.738441
59.750 22.404999
59.755 22.239031
59.760 22.106676
59.765 21.6255
59.770 21.430967
59.775 21.188278
59.780 20.780184
59.785 20.246136
59.790 20.365095
59.795 20.36422
59.800 20.340902
59.805 20.663715
59.810 21.262564
59.815 21.799652
59.820 22.41555
59.825 22.987244
59.830 22.511362
59.835 22.430021
59.840 21.753098
59.845 21.824738
59.850 21.447311
59.855 21.489605
59.860 21.321129
59.865 21.232445
59.870 21.188454
59.875 21.104277
59.880 20.191376
59.885 20.309732
59.890 19.707863
59.895 19.549595
59.900 19.539501
59.905 19.476513
59.910 20.198694
59.915 20.407948
59.920 20.977098
59.925 21.60092
59.930 22.257669
59.935 22.663784
59.940 22.814756
59.945 22.746721
59.950 22.913197
59.955 22.265543
59.960 22.104208
59.965 21.702318
59.970 21.52479
59.975 21.630714
59.980 20.985001
59.985 20.338985
59.990 20.398487
59.995 20.287064
60.000 20.901552
60.005 21.833179
60.010 22.137575
60.015 22.763536
60.020 23.59516
60.025 23.841915
60.030 23.74855
60.035 23.367435
60.040 22.985502
60.045 22.945889
60.050 22.993216
60.055 22.878672
60.060 23.055347
60.065 22.910444
60.070 22.604183
60.075 22.417055
60.080 22.413383
60.085 23.194416
60.090 22.65951
60.095 22.921444
60.100 23.275572
60.105 23.970116
60.110 24.427752
60.115 24.50407
60.120 23.971663
60.125 24.064039
60.130 23.434793
60.135 23.149376
60.140 22.408915
60.145 21.848345
60.150 21.040136
60.155 20.562424
60.160 21.436592
60.165 21.947199
60.170 22.132484
60.175 22.179045
60.180 22.192696
60.185 22.431055
60.190 22.865938
60.195 22.93487
60.200 22.756002
60.205 22.667374
60.210 22.5511
60.215 22.725307
60.220 22.7486
60.225 22.346539
60.230 21.944979
60.235 21.483784
60.240 20.966843
60.245 20.522017
60.250 20.596745
60.255 20.620207
60.260 20.764042
60.265 20.664331
60.270 20.963511
60.275 21.758614
60.280 22.749628
60.285 22.889446
60.290 22.862036
60.295 21.631546
60.300 20.892904
60.305 20.453056
60.310 20.144842
60.315 19.45298
60.320 19.004833
60.325 19.362867
60.330 20.416588
60.335 20.703329
60.340 20.872295
60.345 21.375835
60.350 21.783104
60.355 22.385473
60.360 22.157036
60.365 21.943363
60.370 22.127947
60.375 22.48085
60.380 22.38834
60.385 22.153162
60.390 22.013878
60.395 22.455738
60.400 21.856037
60.405 21.64053
60.410 21.05471
60.415 20.442324
60.420 20.792732
60.425 20.555922
60.430 20.908161
60.435 21.94713
60.440 21.761324
60.445 21.848608
60.450 21.76482
60.455 21.027962
60.460 20.483078
60.465 19.900501
60.470 19.768255
60.475 20.353834
60.480 20.539612
60.485 20.927855
60.490 21.208109
60.495 21.144777
60.500 20.28826
60.505 19.762573
60.510 19.565525
60.515 19.105101
60.520 18.629536
60.525 18.72509
60.530 18.570719
60.535 19.380156
60.540 19.559156
60.545 19.463383
60.550 19.496147
60.555 19.824141
60.560 20.137985
60.565 19.818014
60.570 19.165169
60.575 19.189714
60.580 19.073111
60.585 18.721937
60.590 18.248055
60.595 18.118334
60.600 18.407087
60.605 18.702555
60.610 18.850189
60.615 18.989258
60.620 19.294394
60.625 19.117792
60.630 18.9373
60.635 18.794123
60.640 18.398811
60.645 18.119598
60.650 17.89488
60.655 17.722488
60.660 17.726782
60.665 17.966106
60.670 18.492039
60.675 18.599874
60.680 18.261635
60.685 18.057709
60.690 18.537344
60.695 19.103983
60.700 18.979763
60.705 18.922541
60.710 18.621887
60.715 19.025965
60.720 19.65028
60.725 19.206533
60.730 18.736465
60.735 18.760021
60.740 18.365597
60.745 18.503078
60.750 18.839203
60.755 18.438204
60.760 18.868536
60.765 18.960281
60.770 18.928949
60.775 18.764826
60.780 18.419872
60.785 17.801769
60.790 17.955183
60.795 18.055653
60.800 17.753155
60.805 17.774422
60.810 18.255312
60.815 19.008333
60.820 19.022871
60.825 19.263178
60.830 19.04941
60.835 19.133423
60.840 19.031572
60.845 18.738203
60.850 18.644882
60.855 19.11664
60.860 18.544334
60.865 18.491243
60.870 18.562267
60.875 18.349075
60.880 17.683973
60.885 17.231949
60.890 16.791527
60.895 16.453306
60.900 15.966052
60.905 15.993462
60.910 16.134417
60.915 16.741854
60.920 16.563839
60.925 16.718082
60.930 17.093575
60.935 17.529932
60.940 17.511713
60.945 17.947294
60.950 17.476591
60.955 17.368204
60.960 16.968342
60.965 17.073402
60.970 16.941841
60.975 16.632776
60.980 15.776625
60.985 16.495865
60.990 16.945026
60.995 17.291203
61.000 17.129541
61.005 16.838982
61.010 17.169155
61.015 17.53233
61.020 17.770016
61.025 17.66239
61.030 17.490744
61.035 17.247147
61.040 17.407061
61.045 17.324804
61.050 17.481733
61.055 16.784763
61.060 16.597559
61.065 16.875938
61.070 17.061852
61.075 17.447762
61.080 17.57498
61.085 17.894171
61.090 17.984852
61.095 17.971117
61.100 18.118944
61.105 18.190302
61.110 17.913363
61.115 17.795979
61.120 17.219828
61.125 17.018599
61.130 16.961496
61.135 16.390305
61.140 16.137615
61.145 16.603554
61.150 16.587212
61.155 16.284023
61.160 16.743687
61.165 16.757666
61.170 17.423752
61.175 17.405457
61.180 16.758068
61.185 16.362406
61.190 16.746483
61.195 16.895023
61.200 17.124325
61.205 17.621162
61.210 18.00909
61.215 18.437733
61.220 18.697199
61.225 19.131556
61.230 19.627285
61.235 19.327221
61.240 18.884459
61.245 18.697678
61.250 18.781796
61.255 18.992188
61.260 18.426786
61.265 18.113014
61.270 18.549959
61.275 18.146994
61.280 18.178843
61.285 18.552927
61.290 18.495213
61.295 18.159889
61.300 17.874701
61.305 17.751984
61.310 17.866165
61.315 17.996073
61.320 17.620003
61.325 17.457333
61.330 17.609135
61.335 17.490463
61.340 17.264965
61.345 16.967573
61.350 16.710794
61.355 16.788633
61.360 16.784019
61.365 17.04624
61.370 17.114235
61.375 17.599724
61.380 18.455301
61.385 18.132645
61.390 17.732798
61.395 17.693571
61.400 17.531837
61.405 17.639154
61.410 17.193571
61.415 16.589474
61.420 16.378315
61.425 16.424324
61.430 16.92881
61.435 16.452415
61.440 16.370413
61.445 16.477137
61.450 16.721743
61.455 17.313084
61.460 17.314516
61.465 17.286175
61.470 17.882421
61.475 17.575497
61.480 17.277647
61.485 16.814106
61.490 16.557138
61.495 16.446323
61.500 16.188993
61.505 16.196638
61.510 16.709089
61.515 16.561016
61.520 16.870939
61.525 17.522003
61.530 18.357983
61.535 18.911261
61.540 18.590261
61.545 18.137741
61.550 19.050732
61.555 19.485716
61.560 19.040169
61.565 18.472281
61.570 18.436007
61.575 19.797106
61.580 20.37335
61.585 19.907724
61.590 19.397917
61.595 18.96756
61.600 18.634796
61.605 18.274933
61.610 16.835293
61.615 16.066122
61.620 16.059811
61.625 15.694456
61.630 15.900438
61.635 16.47963
61.640 16.53854
61.645 16.678396
61.650 16.381111
61.655 16.204544
61.660 16.753651
61.665 16.950562
61.670 16.475616
61.675 16.602602
61.680 17.131348
61.685 17.783413
61.690 18.435659
61.695 18.007387
61.700 17.272106
61.705 17.213938
61.710 17.071688
61.715 16.741131
61.720 16.371853
61.725 16.179087
61.730 16.608147
61.735 17.221621
61.740 17.315765
61.745 17.221123
61.750 17.725863
61.755 17.796379
61.760 17.523348
61.765 17.822462
61.770 17.640503
61.775 17.38656
61.780 17.659138
61.785 17.460745
61.790 17.45558
61.795 17.051771
61.800 16.782963
61.805 16.867722
61.810 16.770796
61.815 16.232147
61.820 16.372156
61.825 17.228151
61.830 17.859972
61.835 18.014584
61.840 18.294647
61.845 18.78874
61.850 18.641804
61.855 18.938959
61.860 18.37509
61.865 17.742254
61.870 17.517
61.875 17.625517
61.880 18.329838
61.885 18.574345
61.890 18.256632
61.895 18.603968
61.900 19.060341
61.905 19.07691
61.910 18.88726
61.915 18.236015
61.920 18.575586
61.925 18.041004
61.930 17.94162
61.935 18.170715
61.940 18.468559
61.945 18.438833
61.950 18.349596
61.955 17.832161
61.960 18.294714
61.965 18.303171
61.970 18.140055
61.975 17.368364
61.980 17.190014
61.985 17.519196
61.990 18.132952
61.995 17.832485
62.000 17.585354
62.005 17.609682
62.010 18.449429
62.015 18.694258
62.020 18.603483
62.025 18.508615
62.030 18.355211
62.035 17.900314
62.040 17.41375
62.045 17.127729
62.050 16.918154
62.055 16.253166
62.060 16.051701
62.065 16.624126
62.070 17.159981
62.075 17.513367
62.080 17.447844
62.085 17.012356
62.090 17.657372
62.095 17.625292
62.100 17.4091
62.105 17.426785
62.110 17.368967
62.115 17.424141
62.120 17.774956
62.125 17.819775
62.130 18.209398
62.135 18.675177
62.140 18.562567
62.145 18.920023
62.150 19.344336
62.155 19.927454
62.160 20.140669
62.165 19.9011
62.170 19.909967
62.175 20.321203
62.180 20.602245
62.185 20.350773
62.190 20.095877
62.195 19.807486
62.200 19.991632
62.205 19.66296
62.210 19.415508
62.215 19.280975
62.220 19.023584
62.225 18.894072
62.230 18.560997
62.235 18.644117
62.240 19.017307
62.245 18.944283
62.250 18.485199
62.255 18.700848
62.260 19.000648
62.265 19.621424
62.270 19.031023
62.275 18.314545
62.280 18.021563
62.285 17.779421
62.290 17.432938
62.295 16.606836
62.300 16.302652
62.305 16.228268
62.310 16.095985
62.315 16.334702
62.320 16.470272
62.325 16.344223
62.330 16.384504
62.335 15.850947
62.340 15.897994
62.345 15.685037
62.350 15.885656
62.355 16.433807
62.360 16.873295
62.365 16.98662
62.370 17.393587
62.375 17.293804
62.380 17.72904
62.385 17.913424
62.390 17.14723
62.395 16.88546
62.400 17.347557
62.405 17.478472
62.410 18.155638
62.415 18.23506
62.420 17.727957
62.425 18.271904
62.430 17.950771
62.435 17.561831
62.440 17.376539
62.445 17.049599
62.450 16.92001
62.455 17.506634
62.460 18.135296
62.465 18.808413
62.470 19.092571
62.475 18.878046
62.480 19.013428
62.485 18.820761
62.490 18.365774
62.495 17.682323
62.500 17.45924
62.505 17.475784
62.510 17.805399
62.515 17.801607
62.520 17.424599
62.525 17.167732
62.530 16.631207
62.535 16.211891
62.540 15.81045
62.545 15.582332
62.550 15.312508
62.555 16.068943
62.560 16.489462
62.565 16.779953
62.570 16.856812
62.575 17.017467
62.580 17.323929
62.585 17.476934
62.590 16.974407
62.595 16.421276
62.600 16.499638
62.605 16.697721
62.610 16.750511
62.615 16.059532
62.620 15.663102
62.625 15.297867
62.630 15.756427
62.635 15.786222
62.640 15.847014
62.645 15.917258
62.650 16.749039
62.655 17.849314
62.660 18.933395
62.665 19.138519
62.670 19.252405
62.675 19.911896
62.680 19.895967
62.685 19.340027
62.690 18.709686
62.695 18.257401
62.700 18.316647
62.705 18.337149
62.710 17.602285
62.715 17.614027
62.720 17.854305
62.725 18.099499
62.730 18.130814
62.735 17.737635
62.740 17.555975
62.745 18.17462
62.750 18.640799
62.755 18.639641
62.760 18.81938
62.765 19.21912
62.770 19.66123
62.775 19.388903
62.780 19.119272
62.785 18.753922
62.790 19.16947
62.795 18.911446
62.800 18.686384
62.805 18.848131
62.810 19.017031
62.815 18.567707
62.820 18.392406
62.825 18.071745
62.830 18.122255
62.835 18.36331
62.840 18.495409
62.845 18.034273
62.850 18.666281
62.855 18.715076
62.860 18.757816
62.865 18.610903
62.870 18.269375
62.875 17.972252
62.880 18.742352
62.885 18.697689
62.890 18.645151
62.895 18.606394
62.900 18.335373
62.905 17.946814
62.910 17.904259
62.915 17.970066
62.920 17.696234
62.925 17.616978
62.930 17.558903
62.935 17.736336
62.940 17.96228
62.945 17.88678
62.950 17.428461
62.955 17.404928
62.960 17.522354
62.965 18.150339
62.970 18.476667
62.975 19.788345
62.980 20.577692
62.985 20.655748
62.990 21.19042
62.995 21.474909
63.000 21.322727
63.005 21.048412
63.010 19.890932
63.015 19.384619
63.020 19.384558
63.025 18.660494
63.030 17.921692
63.035 18.298275
63.040 18.698139
63.045 18.92095
63.050 19.046175
63.055 19.415495
63.060 19.072033
63.065 19.438803
63.070 19.162922
63.075 18.583885
63.080 18.529387
63.085 17.823887
63.090 17.586075
63.095 18.054676
63.100 17.806696
63.105 17.34861
63.110 16.859661
63.115 16.898178
63.120 17.465725
63.125 17.575216
63.130 17.749355
63.135 17.642862
63.140 17.902777
63.145 18.994215
63.150 19.093975
63.155 19.378119
63.160 18.999817
63.165 18.955406
63.170 18.602331
63.175 18.362177
63.180 17.96274
63.185 17.925236
63.190 17.579712
63.195 18.123081
63.200 18.486303
63.205 18.719378
63.210 18.695038
63.215 18.26265
63.220 17.636822
63.225 17.74444
63.230 17.219641
63.235 16.982639
63.240 17.461361
63.245 17.560558
63.250 17.610722
63.255 17.587362
63.260 17.188183
63.265 17.271416
63.270 17.012486
63.275 16.964754
63.280 17.046568
63.285 17.315063
63.290 17.660099
63.295 18.057081
63.300 18.367886
63.305 18.448942
63.310 18.156475
63.315 18.59586
63.320 18.741388
63.325 19.045973
63.330 18.62298
63.335 18.185095
63.340 18.492924
63.345 18.626549
63.350 18.120861
63.355 17.970179
63.360 18.187471
63.365 18.754164
63.370 19.437979
63.375 19.644854
63.380 20.205715
63.385 19.926771
63.390 19.293882
63.395 19.031538
63.400 18.952625
63.405 18.558846
63.410 18.135817
63.415 17.845127
63.420 17.732946
63.425 17.833246
63.430 17.944778
63.435 17.929466
63.440 17.56988
63.445 17.482853
63.450 17.541241
63.455 18.083612
63.460 18.491495
63.465 18.458807
63.470 18.406036
63.475 18.313181
63.480 17.78809
63.485 17.574913
63.490 17.128778
63.495 17.560308
63.500 17.988722
63.505 18.187332
63.510 18.96685
63.515 19.674778
63.520 20.011951
63.525 20.110683
63.530 19.281528
63.535 18.5413
63.540 18.355232
63.545 17.698771
63.550 16.996206
63.555 16.20256
63.560 16.16794
63.565 16.464216
63.570 16.828978
63.575 17.182096
63.580 17.852839
63.585 18.1738
63.590 18.817743
63.595 18.895918
63.600 18.703354
63.605 18.81002
63.610 18.28373
63.615 18.043928
63.620 18.631332
63.625 18.234289
63.630 18.0291
63.635 17.714424
63.640 17.184996
63.645 17.463655
63.650 17.348686
63.655 17.335934
63.660 17.883337
63.665 18.364466
63.670 19.045378
63.675 18.951241
63.680 18.294144
63.685 18.144619
63.690 17.833212
63.695 17.740456
63.700 17.307669
63.705 17.078665
63.710 17.314066
63.715 17.536343
63.720 17.825542
63.725 17.927416
63.730 18.023247
63.735 18.785152
63.740 19.611233
63.745 20.247826
63.750 20.399584
63.755 20.043724
63.760 19.710566
63.765 19.498877
63.770 19.518871
63.775 18.742006
63.780 18.672321
63.785 18.867018
63.790 19.112864
63.795 18.731358
63.800 18.626488
63.805 17.884909
63.810 17.853277
63.815 17.631443
63.820 17.605192
63.825 17.81748
63.830 18.562145
63.835 19.333963
63.840 19.841785
63.845 20.022327
63.850 19.94438
63.855 19.718979
63.860 19.69297
63.865 19.716391
63.870 19.273001
63.875 19.616692
63.880 19.66419
63.885 19.909182
63.890 19.840904
63.895 19.827217
63.900 19.581121
63.905 19.106525
63.910 18.629992
63.915 18.550838
63.920 18.217295
63.925 18.230062
63.930 18.087143
63.935 18.404589
63.940 18.683964
63.945 18.232689
63.950 18.751383
63.955 18.867622
63.960 18.876802
63.965 18.784288
63.970 18.246918
63.975 17.852781
63.980 17.974897
63.985 17.633581
63.990 17.562244
63.995 17.494024
64.000 17.602163
64.005 18.088985
64.010 18.416622
64.015 18.728537
64.020 19.170729
64.025 20.451777
64.030 21.116201
64.035 21.219439
64.040 20.656462
64.045 20.852327
64.050 21.183941
64.055 20.956337
64.060 19.778301
64.065 19.452175
64.070 19.497374
64.075 19.457747
64.080 18.87895
64.085 18.670593
64.090 18.10416
64.095 18.007555
64.100 17.754278
64.105 18.043894
64.110 19.229326
64.115 19.774244
64.120 19.819366
64.125 20.025099
64.130 19.829954
64.135 20.278465
64.140 20.127888
64.145 19.786783
64.150 19.841948
64.155 19.996258
64.160 20.190651
64.165 21.010897
64.170 20.679813
64.175 20.097668
64.180 19.657719
64.185 19.504944
64.190 19.469976
64.195 19.90897
64.200 19.739573
64.205 19.499075
64.210 19.787285
64.215 19.785944
64.220 20.06225
64.225 19.482426
64.230 19.387745
64.235 19.725523
64.240 20.359676
64.245 20.411957
64.250 20.673407
64.255 20.534309
64.260 20.365009
64.265 20.042805
64.270 19.820745
64.275 19.12191
64.280 18.862282
64.285 18.885311
64.290 19.035324
64.295 19.514225
64.300 19.756674
64.305 19.544029
64.310 19.83325
64.315 19.660946
64.320 19.5278
64.325 19.229292
64.330 19.066061
64.335 18.345358
64.340 17.932333
64.345 18.191498
64.350 18.979391
64.355 18.854996
64.360 18.645203
64.365 19.134823
64.370 19.756451
64.375 20.166414
64.380 19.838785
64.385 19.621325
64.390 19.800594
64.395 20.079557
64.400 20.398178
64.405 20.360064
64.410 20.541744
64.415 21.120785
64.420 21.131422
64.425 21.260487
64.430 21.089924
64.435 20.33326
64.440 20.234196
64.445 19.901472
64.450 19.17173
64.455 18.979801
64.460 18.877777
64.465 19.157951
64.470 19.731602
64.475 19.837576
64.480 20.365587
64.485 20.735821
64.490 21.016872
64.495 21.220888
64.500 21.047497
64.505 20.722816
64.510 20.57193
64.515 19.886145
64.520 19.58062
64.525 18.518539
64.530 18.339975
64.535 18.055986
64.540 17.853415
64.545 17.97419
64.550 18.503523
64.555 18.707798
64.560 19.492147
64.565 20.110962
64.570 20.13361
64.575 19.80934
64.580 19.506857
64.585 19.575241
64.590 19.659151
64.595 19.620913
64.600 18.803375
64.605 19.259012
64.610 19.407799
64.615 20.138741
64.620 20.45392
64.625 20.75358
64.630 20.491468
64.635 20.451256
64.640 19.964312
64.645 19.947786
64.650 19.404444
64.655 19.690363
64.660 20.097122
64.665 20.54442
64.670 20.681709
64.675 20.950989
64.680 20.702282
64.685 20.803192
64.690 20.148125
64.695 19.560085
64.700 19.383921
64.705 19.010025
64.710 19.41297
64.715 19.919153
64.720 19.812115
64.725 19.762674
64.730 20.101166
64.735 19.713594
64.740 20.021317
64.745 20.449757
64.750 20.553022
64.755 20.492928
64.760 20.086685
64.765 19.836241
64.770 20.106686
64.775 19.729191
64.780 19.185841
64.785 19.317795
64.790 19.916676
64.795 20.315241
64.800 20.652763
64.805 21.137852
64.810 21.5984
64.815 21.99938
64.820 22.099998
64.825 22.137789
64.830 22.248089
64.835 22.443331
64.840 22.304029
64.845 22.645061
64.850 22.727543
64.855 22.941841
64.860 23.344912
64.865 23.56669
64.870 23.634724
64.875 23.83452
64.880 23.317265
64.885 23.237417
64.890 23.353853
64.895 22.86084
64.900 22.774424
64.905 22.647585
64.910 22.157436
64.915 21.983513
64.920 22.015528
64.925 21.825565
64.930 22.256916
64.935 22.257732
64.940 22.278362
64.945 22.413471
64.950 22.646854
64.955 22.858366
64.960 23.239607
64.965 23.876268
64.970 24.515169
64.975 25.005817
64.980 25.359356
64.985 26.147678
64.990 25.992352
64.995 24.917198
65.000 24.48159
65.005 24.675911
65.010 25.078644
65.015 25.445875
65.020 25.961664
65.025 26.172979
65.030 26.77817
65.035 26.974287
65.040 26.959379
65.045 26.855833
65.050 27.177151
65.055 26.815207
65.060 27.383919
65.065 27.678799
65.070 27.748779
65.075 27.821852
65.080 28.095333
65.085 28.139811
65.090 27.857792
65.095 27.65819
65.100 27.265051
65.105 26.967812
65.110 26.582531
65.115 26.579454
65.120 26.409348
65.125 26.529341
65.130 26.722359
65.135 26.79546
65.140 27.31266
65.145 27.939583
65.150 28.251373
65.155 28.031681
65.160 27.114557
65.165 26.739685
65.170 26.313368
65.175 25.529232
65.180 24.856565
65.185 24.289976
65.190 24.347639
65.195 24.90579
65.200 25.272453
65.205 25.734463
65.210 26.174927
65.215 25.910284
65.220 26.126486
65.225 26.283012
65.230 26.552258
65.235 26.347353
65.240 26.237415
65.245 26.199087
65.250 26.020773
65.255 25.782688
65.260 25.946917
65.265 25.716799
65.270 25.875793
65.275 25.64399
65.280 25.955698
65.285 26.408428
65.290 26.284449
65.295 26.533419
65.300 26.706909
65.305 26.351557
65.310 26.409798
65.315 25.791176
65.320 25.593157
65.325 25.070515
65.330 24.91576
65.335 24.579443
65.340 24.872299
65.345 25.302876
65.350 25.745634
65.355 26.324121
65.360 26.659689
65.365 26.121609
65.370 25.915806
65.375 25.916021
65.380 26.178312
65.385 25.71686
65.390 24.974386
65.395 25.09461
65.400 25.068899
65.405 25.171646
65.410 25.00197
65.415 25.04237
65.420 26.035902
65.425 26.366138
65.430 26.275257
65.435 26.305
65.440 26.753235
65.445 26.916849
65.450 26.625669
65.455 26.230116
65.460 26.607283
65.465 26.502125
65.470 26.654135
65.475 26.716532
65.480 27.186619
65.485 27.841259
65.490 27.468475
65.495 26.88826
65.500 27.411129
65.505 27.335754
65.510 27.286154
65.515 26.691769
65.520 26.234467
65.525 27.064718
65.530 28.159023
65.535 29.006569
65.540 30.044138
65.545 30.2488
65.550 30.395252
65.555 30.367233
65.560 29.990631
65.565 29.062353
65.570 28.894737
65.575 28.834738
65.580 29.603022
65.585 29.74695
65.590 30.173927
65.595 30.481695
65.600 30.53866
65.605 30.049175
65.610 29.642607
65.615 29.72764
65.620 30.236818
65.625 30.296579
65.630 30.19684
65.635 30.438601
65.640 30.578348
65.645 30.203352
65.650 30.113113
65.655 30.251301
65.660 30.275934
65.665 30.893974
65.670 31.173779
65.675 31.354202
65.680 32.31562
65.685 31.956118
65.690 31.643248
65.695 31.82023
65.700 31.766785
65.705 32.154209
65.710 32.548248
65.715 32.924225
65.720 33.675728
65.725 34.110676
65.730 34.565533
65.735 34.750114
65.740 34.454781
65.745 33.975986
65.750 34.779301
65.755 34.818794
65.760 35.437164
65.765 36.171127
65.770 36.310696
65.775 35.925613
65.780 36.040916
65.785 35.344261
65.790 34.827747
65.795 34.507561
65.800 34.152466
65.805 34.760357
65.810 35.785439
65.815 36.49601
65.820 36.934036
65.825 37.248386
65.830 37.099293
65.835 37.104355
65.840 36.376553
65.845 36.111153
65.850 35.819481
65.855 35.705116
65.860 35.846004
65.865 35.797146
65.870 36.088448
65.875 37.336662
65.880 38.308781
65.885 38.599937
65.890 38.81699
65.895 38.660313
65.900 39.253922
65.905 39.680332
65.910 38.802338
65.915 38.316109
65.920 38.100258
65.925 37.796055
65.930 37.921669
65.935 36.871101
65.940 35.844891
65.945 36.326927
65.950 35.934502
65.955 35.72855
65.960 35.345421
65.965 36.037289
65.970 36.864693
65.975 37.45586
65.980 37.130959
65.985 37.81126
65.990 39.038177
65.995 39.844131
66.000 40.099621
66.005 40.841831
66.010 40.401516
66.015 40.644428
66.020 39.990421
66.025 39.454178
66.030 38.627293
66.035 37.924797
66.040 37.144939
66.045 37.32679
66.050 37.257679
66.055 37.307034
66.060 37.239735
66.065 37.397491
66.070 37.001637
66.075 36.883797
66.080 37.379211
66.085 38.419434
66.090 39.395443
66.095 39.505676
66.100 39.88623
66.105 40.657883
66.110 41.261673
66.115 41.187481
66.120 40.47757
66.125 40.318672
66.130 40.381737
66.135 39.763466
66.140 38.887032
66.145 38.022736
66.150 37.511711
66.155 36.986519
66.160 36.315125
66.165 36.885288
66.170 37.229801
66.175 37.624176
66.180 37.507118
66.185 37.057789
66.190 37.145054
66.195 37.124344
66.200 36.176464
66.205 35.800518
66.210 35.50531
66.215 35.642181
66.220 35.858906
66.225 36.669338
66.230 36.493938
66.235 36.515087
66.240 36.372902
66.245 36.405674
66.250 36.103294
66.255 35.648167
66.260 35.005306
66.265 34.556744
66.270 33.987152
66.275 33.861511
66.280 34.009857
66.285 34.804512
66.290 35.612122
66.295 35.505001
66.300 35.749878
66.305 36.831825
66.310 37.031742
66.315 36.818966
66.320 36.041946
66.325 34.859081
66.330 34.594746
66.335 34.201633
66.340 33.406662
66.345 33.039192
66.350 33.113571
66.355 32.953014
66.360 33.481331
66.365 34.329113
66.370 33.870388
66.375 33.012684
66.380 32.048897
66.385 31.18627
66.390 31.260138
66.395 30.415197
66.400 29.528561
66.405 30.178177
66.410 31.10775
66.415 31.675797
66.420 31.307434
66.425 30.917482
66.430 31.078098
66.435 30.811989
66.440 30.882519
66.445 30.196457
66.450 29.968943
66.455 30.076845
66.460 30.198092
66.465 29.544489
66.470 30.004187
66.475 29.457491
66.480 29.878071
66.485 29.676767
66.490 29.802963
66.495 29.593931
66.500 29.962038
66.505 29.290627
66.510 28.643305
66.515 28.226158
66.520 27.810068
66.525 27.892267
66.530 28.233131
66.535 28.230955
66.540 28.773771
66.545 29.306805
66.550 29.362307
66.555 29.798826
66.560 29.135208
66.565 28.329832
66.570 28.114979
66.575 27.043921
66.580 26.440617
66.585 25.409445
66.590 25.327293
66.595 25.598637
66.600 25.398861
66.605 25.38203
66.610 26.282415
66.615 26.012522
66.620 26.078684
66.625 25.794113
66.630 25.901014
66.635 26.538704
66.640 26.634748
66.645 26.010683
66.650 25.94763
66.655 25.741911
66.660 25.798708
66.665 25.675444
66.670 25.120779
66.675 24.835211
66.680 24.850376
66.685 25.065922
66.690 25.542665
66.695 25.454426
66.700 25.444157
66.705 25.883263
66.710 26.417048
66.715 26.788115
66.720 26.344702
66.725 25.472788
66.730 24.650427
66.735 24.09416
66.740 23.300552
66.745 23.069172
66.750 22.989716
66.755 22.492144
66.760 22.649975
66.765 23.194025
66.770 23.834633
66.775 23.864321
66.780 23.483189
66.785 23.866335
66.790 24.665213
66.795 24.645784
66.800 24.727467
66.805 24.367405
66.810 24.142746
66.815 23.676056
66.820 23.19026
66.825 23.048521
66.830 23.596378
66.835 23.484137
66.840 23.903017
66.845 24.000832
66.850 23.685331
66.855 23.987038
66.860 23.977274
66.865 23.196518
66.870 22.750994
66.875 22.324276
66.880 21.927221
66.885 21.678246
66.890 21.142254
66.895 20.851925
66.900 21.180681
66.905 21.234768
66.910 21.862968
66.915 23.141165
66.920 23.746576
66.925 24.202829
66.930 23.823429
66.935 24.47496
66.940 24.95195
66.945 24.527262
66.950 24.24794
66.955 23.843618
66.960 23.951555
66.965 24.607279
66.970 23.892471
66.975 23.279905
66.980 22.564434
66.985 22.346094
66.990 22.502628
66.995 21.931046
67.000 21.144562
67.005 20.919725
67.010 21.223808
67.015 20.987585
67.020 21.112404
67.025 21.946274
67.030 22.206274
67.035 22.792124
67.040 23.019415
67.045 23.434874
67.050 23.813566
67.055 23.031134
67.060 22.267347
67.065 22.131489
67.070 23.005219
67.075 23.259468
67.080 23.047035
67.085 23.055138
67.090 23.659616
67.095 23.886362
67.100 24.505728
67.105 23.44422
67.110 22.523594
67.115 22.535854
67.120 22.558985
67.125 22.232071
67.130 21.644156
67.135 21.153296
67.140 21.005964
67.145 21.41271
67.150 21.56531
67.155 21.375011
67.160 21.435781
67.165 22.23126
67.170 21.835928
67.175 22.043772
67.180 21.851404
67.185 22.125193
67.190 22.362347
67.195 22.233179
67.200 22.044643
67.205 22.445093
67.210 23.406488
67.215 23.431519
67.220 23.408508
67.225 23.144253
67.230 23.393114
67.235 22.89842
67.240 21.916697
67.245 20.820719
67.250 20.500151
67.255 20.190191
67.260 20.636185
67.265 20.742027
67.270 20.848335
67.275 20.826385
67.280 21.061829
67.285 21.838531
67.290 21.795111
67.295 20.932692
67.300 21.090303
67.305 21.686247
67.310 22.202671
67.315 21.836843
67.320 21.048063
67.325 20.985941
67.330 21.230837
67.335 21.26737
67.340 20.81856
67.345 21.401796
67.350 21.640409
67.355 21.254189
67.360 21.480352
67.365 21.576881
67.370 21.25185
67.375 21.638174
67.380 21.253222
67.385 21.630358
67.390 22.407001
67.395 22.544138
67.400 22.509491
67.405 22.266289
67.410 21.918045
67.415 21.963762
67.420 21.246902
67.425 20.908634
67.430 20.892191
67.435 21.074699
67.440 21.477694
67.445 21.726234
67.450 21.480865
67.455 22.262178
67.460 22.457159
67.465 21.863441
67.470 21.385912
67.475 20.964996
67.480 20.83099
67.485 21.619833
67.490 21.367151
67.495 21.450184
67.500 22.606409
67.505 22.908598
67.510 22.762043
67.515 22.808359
67.520 22.304413
67.525 22.290161
67.530 22.989061
67.535 22.427338
67.540 22.835482
67.545 23.470791
67.550 23.447672
67.555 23.662041
67.560 23.049591
67.565 22.074242
67.570 22.050083
67.575 21.791601
67.580 21.086029
67.585 20.783737
67.590 20.330627
67.595 20.283684
67.600 20.717701
67.605 20.876518
67.610 20.537918
67.615 20.258076
67.620 20.651306
67.625 20.6127
67.630 20.873646
67.635 20.423676
67.640 20.190166
67.645 20.365067
67.650 20.752136
67.655 20.546055
67.660 21.170498
67.665 21.263571
67.670 21.241573
67.675 21.353384
67.680 21.301165
67.685 21.783104
67.690 21.748634
67.695 21.443083
67.700 21.306957
67.705 21.757387
67.710 22.20615
67.715 22.431875
67.720 22.217911
67.725 22.722132
67.730 23.157106
67.735 22.718702
67.740 22.116341
67.745 22.041761
67.750 22.150496
67.755 22.667187
67.760 21.952932
67.765 21.618143
67.770 21.86973
67.775 22.182207
67.780 21.731096
67.785 21.279625
67.790 20.308735
67.795 20.469822
67.800 20.688425
67.805 20.981922
67.810 21.117119
67.815 21.134581
67.820 21.414837
67.825 21.49687
67.830 21.515202
67.835 21.63427
67.840 20.720642
67.845 19.990673
67.850 19.957867
67.855 19.227825
67.860 19.241251
67.865 19.483524
67.870 19.495722
67.875 19.978123
67.880 20.808731
67.885 21.127111
67.890 21.646864
67.895 21.458347
67.900 20.964697
67.905 20.861952
67.910 20.61301
67.915 20.537605
67.920 20.950785
67.925 21.368797
67.930 21.683031
67.935 21.525354
67.940 21.509394
67.945 21.773743
67.950 21.404747
67.955 21.269354
67.960 20.960814
67.965 21.656168
67.970 22.260864
67.975 22.715765
67.980 23.267309
67.985 23.265982
67.990 22.671633
67.995 22.348585
68.000 21.707531
68.005 21.739586
68.010 21.688547
68.015 21.132195
68.020 20.807316
68.025 21.781061
68.030 22.378841
68.035 22.294197
68.040 21.793533
68.045 21.2286
68.050 21.419355
68.055 21.176626
68.060 20.923006
68.065 20.941013
68.070 20.538452
68.075 20.130714
68.080 20.270096
68.085 20.339388
68.090 20.276747
68.095 19.45302
68.100 19.33802
68.105 20.152122
68.110 21.050802
68.115 21.463135
68.120 21.380997
68.125 21.865896
68.130 22.006981
68.135 21.931581
68.140 21.741188
68.145 21.418182
68.150 21.372879
68.155 21.684679
68.160 20.970144
68.165 20.931873
68.170 21.383471
68.175 21.305033
68.180 21.098909
68.185 20.464205
68.190 20.442627
68.195 20.862637
68.200 20.674179
68.205 20.497639
68.210 20.25111
68.215 21.070744
68.220 21.394695
68.225 20.878574
68.230 20.76573
68.235 20.718225
68.240 20.606794
68.245 20.707867
68.250 20.291061
68.255 19.854994
68.260 20.099615
68.265 20.308918
68.270 20.517643
68.275 20.570675
68.280 20.298925
68.285 20.349537
68.290 20.779062
68.295 21.630423
68.300 21.541441
68.305 21.759937
68.310 21.643675
68.315 21.390675
68.320 21.012011
68.325 20.777021
68.330 20.039221
68.335 20.402956
68.340 19.91679
68.345 19.765614
68.350 19.556126
68.355 20.122478
68.360 20.971859
68.365 21.554024
68.370 21.399038
68.375 21.178202
68.380 21.599323
68.385 21.96899
68.390 22.59267
68.395 22.15167
68.400 21.200871
68.405 20.836033
68.410 21.372192
68.415 21.000586
68.420 20.992519
68.425 20.144138
68.430 19.832779
68.435 20.314934
68.440 20.713385
68.445 20.45892
68.450 20.459314
68.455 20.042538
68.460 20.250605
68.465 20.673115
68.470 20.623142
68.475 20.530329
68.480 20.593031
68.485 20.115314
68.490 20.244324
68.495 20.115101
68.500 19.992517
68.505 19.8368
68.510 19.701033
68.515 20.273298
68.520 21.337223
68.525 20.976578
68.530 21.55616
68.535 21.912296
68.540 22.06451
68.545 22.079407
68.550 21.980545
68.555 21.215879
68.560 21.487835
68.565 21.061855
68.570 20.794981
68.575 20.400661
68.580 19.944704
68.585 19.543764
68.590 20.323114
68.595 19.913746
68.600 19.946365
68.605 20.258747
68.610 20.104828
68.615 20.723091
68.620 21.285818
68.625 21.693325
68.630 21.673048
68.635 21.844475
68.640 22.313469
68.645 23.107983
68.650 23.271902
68.655 22.796406
68.660 22.259165
68.665 22.586653
68.670 22.639835
68.675 22.328142
68.680 21.831772
68.685 21.986273
68.690 21.967777
68.695 22.369537
68.700 22.070408
68.705 21.749645
68.710 21.580503
68.715 21.418783
68.720 21.055927
68.725 21.160843
68.730 20.921297
68.735 21.375818
68.740 21.259539
68.745 21.28635
68.750 21.336731
68.755 21.218735
68.760 21.68288
68.765 22.205072
68.770 21.780298
68.775 21.588831
68.780 21.593149
68.785 21.614309
68.790 21.068338
68.795 20.293461
68.800 19.695341
68.805 20.293772
68.810 21.006981
68.815 21.177727
68.820 21.236265
68.825 21.489529
68.830 22.107687
68.835 23.04689
68.840 23.137098
68.845 23.338757
68.850 23.592716
68.855 23.628242
68.860 23.932577
68.865 23.752537
68.870 23.158609
68.875 22.473797
68.880 21.798012
68.885 21.510958
68.890 21.598158
68.895 21.361013
68.900 21.141792
68.905 21.408075
68.910 21.791014
68.915 22.464394
68.920 22.508097
68.925 22.670027
68.930 23.421179
68.935 23.623964
68.940 23.470608
68.945 24.112494
68.950 24.426027
68.955 24.98053
68.960 24.675505
68.965 23.966505
68.970 24.158377
68.975 23.918726
68.980 23.715633
68.985 23.598438
68.990 23.589382
68.995 24.174171
69.000 24.234554
69.005 25.005568
69.010 24.883221
69.015 24.213396
69.020 23.769405
69.025 23.839399
69.030 23.891384
69.035 24.241943
69.040 23.553066
69.045 23.697155
69.050 24.385527
69.055 24.671415
69.060 24.810411
69.065 25.20792
69.070 25.693382
69.075 25.72068
69.080 26.345488
69.085 26.53772
69.090 26.765959
69.095 27.79611
69.100 28.2409
69.105 28.467871
69.110 28.493404
69.115 28.526596
69.120 27.85391
69.125 27.265625
69.130 26.367348
69.135 25.021214
69.140 24.746883
69.145 24.655304
69.150 24.242664
69.155 24.682693
69.160 24.571341
69.165 24.859142
69.170 25.908758
69.175 26.397198
69.180 26.411762
69.185 26.795038
69.190 27.266672
69.195 27.838362
69.200 27.302813
69.205 26.506037
69.210 25.951033
69.215 25.865236
69.220 25.804741
69.225 25.567905
69.230 25.546946
69.235 25.869205
69.240 26.270918
69.245 26.435205
69.250 26.415201
69.255 26.103794
69.260 25.885683
69.265 25.737036
69.270 25.611217
69.275 25.998789
69.280 26.85865
69.285 26.957504
69.290 28.056934
69.295 28.165857
69.300 28.165684
69.305 28.343384
69.310 27.938869
69.315 27.568441
69.320 27.348106
69.325 27.229889
69.330 27.484579
69.335 27.368301
69.340 26.942709
69.345 27.220999
69.350 27.36157
69.355 27.325527
69.360 26.869812
69.365 27.024769
69.370 27.420851
69.375 27.527124
69.380 27.723034
69.385 28.57431
69.390 29.364565
69.395 29.450291
69.400 30.336838
69.405 30.129509
69.410 30.130527
69.415 29.649799
69.420 29.631359
69.425 29.76502
69.430 30.375246
69.435 30.962641
69.440 32.140335
69.445 32.926655
69.450 33.651905
69.455 32.829002
69.460 32.73843
69.465 31.463938
69.470 30.776684
69.475 30.299166
69.480 30.270662
69.485 30.822424
69.490 31.48959
69.495 32.400219
69.500 33.332779
69.505 33.008236
69.510 33.001335
69.515 33.0471
69.520 32.382206
69.525 31.623585
69.530 30.765463
69.535 30.194817
69.540 30.315769
69.545 29.755808
69.550 28.846857
69.555 28.482895
69.560 28.658901
69.565 28.624884
69.570 29.458555
69.575 30.249475
69.580 30.236938
69.585 31.149069
69.590 31.25841
69.595 31.297546
69.600 31.239857
69.605 30.413893
69.610 29.570065
69.615 29.688799
69.620 28.817924
69.625 28.890362
69.630 29.450039
69.635 29.579865
69.640 29.788296
69.645 29.981064
69.650 29.834963
69.655 30.343636
69.660 29.706537
69.665 29.317823
69.670 29.047577
69.675 29.015184
69.680 29.43371
69.685 29.734138
69.690 30.4855
69.695 31.021128
69.700 30.898457
69.705 30.024025
69.710 29.601847
69.715 29.271765
69.720 29.467831
69.725 29.668304
69.730 30.242287
69.735 30.267187
69.740 30.904528
69.745 30.818844
69.750 30.230558
69.755 29.831511
69.760 28.74782
69.765 27.687706
69.770 27.763308
69.775 28.112612
69.780 28.348726
69.785 28.454893
69.790 27.883608
69.795 27.748331
69.800 27.936611
69.805 27.899675
69.810 27.674934
69.815 27.387121
69.820 27.414061
69.825 26.997112
69.830 26.596115
69.835 26.057304
69.840 25.438261
69.845 25.367731
69.850 25.770876
69.855 25.299814
69.860 25.272875
69.865 24.927979
69.870 24.913168
69.875 25.147343
69.880 25.032425
69.885 24.340658
69.890 24.248421
69.895 23.839245
69.900 24.135418
69.905 24.109062
69.910 23.725193
69.915 23.071316
69.920 22.831024
69.925 23.361835
69.930 23.859179
69.935 23.867249
69.940 23.674406
69.945 24.247633
69.950 24.72587
69.955 24.860203
69.960 25.00205
69.965 24.417467
69.970 23.241102
69.975 22.556225
69.980 21.886803
69.985 21.419592
69.990 21.454344
69.995 21.124281
70.000 20.654718
70.005 21.269791
70.010 21.589487
70.015 21.824741
70.020 22.022486
70.025 21.790144
70.030 21.923756
70.035 22.362385
70.040 22.564232
70.045 22.372337
70.050 21.715429
70.055 21.636965
70.060 21.518011
70.065 21.462912
70.070 21.421028
70.075 21.611572
70.080 20.994253
70.085 21.333706
70.090 21.253611
70.095 20.965469
70.100 21.100872
70.105 20.956699
70.110 21.661362
70.115 22.357294
70.120 22.265329
70.125 22.310904
70.130 22.583088
70.135 22.699217
70.140 22.445009
70.145 22.169767
70.150 22.568407
70.155 22.388378
70.160 22.055704
70.165 21.944376
70.170 22.083557
70.175 21.692408
70.180 21.091915
70.185 20.972834
70.190 21.420883
70.195 21.473246
70.200 21.323393
70.205 21.560963
70.210 22.469601
70.215 22.287691
70.220 21.95657
70.225 21.592991
70.230 21.081223
70.235 20.503775
70.240 19.738787
70.245 19.175552
70.250 19.048065
70.255 19.209913
70.260 19.602386
70.265 19.879967
70.270 20.144321
70.275 20.435951
70.280 21.127071
70.285 22.008659
70.290 21.710464
70.295 21.346914
70.300 21.301939
70.305 20.837885
70.310 20.313801
70.315 19.355534
70.320 19.113346
70.325 19.700109
70.330 20.505405
70.335 20.731812
70.340 20.734234
70.345 20.587742
70.350 21.158897
70.355 20.854239
70.360 20.484627
70.365 20.152172
70.370 19.867525
70.375 19.913477
70.380 19.674587
70.385 19.372095
70.390 19.234636
70.395 18.740522
70.400 18.524214
70.405 18.750185
70.410 19.060417
70.415 19.398314
70.420 19.153488
70.425 19.806284
70.430 20.241367
70.435 20.224951
70.440 20.118647
70.445 20.303112
70.450 20.698597
70.455 20.265421
70.460 20.04365
70.465 20.223692
70.470 20.178728
70.475 20.333769
70.480 20.140009
70.485 19.331688
70.490 19.759645
70.495 19.700922
70.500 19.895229
70.505 19.66185
70.510 19.537634
70.515 19.161982
70.520 19.876614
70.525 19.4981
70.530 19.656439
70.535 19.984186
70.540 20.445065
70.545 19.465994
70.550 19.22743
70.555 18.571325
70.560 18.536314
70.565 18.251375
70.570 17.997652
70.575 17.915003
70.580 19.297085
70.585 19.475044
70.590 19.678497
70.595 19.808084
70.600 19.092686
70.605 18.860561
70.610 19.170031
70.615 19.083212
70.620 19.895496
70.625 19.999577
70.630 20.573423
70.635 20.661894
70.640 20.854095
70.645 20.091772
70.650 20.263916
70.655 20.316586
70.660 20.396709
70.665 20.518805
70.670 20.872137
70.675 20.701073
70.680 20.817825
70.685 20.734404
70.690 21.073269
70.695 21.053659
70.700 20.61359
70.705 20.879583
70.710 21.290831
70.715 21.025562
70.720 20.267162
70.725 19.383717
70.730 19.005852
70.735 18.817425
70.740 19.150995
70.745 18.920601
70.750 19.125259
70.755 19.00116
70.760 19.040689
70.765 19.551361
70.770 19.252153
70.775 19.123001
70.780 19.263037
70.785 19.4512
70.790 20.189831
70.795 19.940796
70.800 19.471115
70.805 19.069607
70.810 18.218781
70.815 17.707695
70.820 17.346468
70.825 16.911995
70.830 16.634848
70.835 17.262877
70.840 17.653095
70.845 18.356346
70.850 19.295132
70.855 19.554171
70.860 19.313974
70.865 19.523283
70.870 18.997932
70.875 18.68084
70.880 18.807323
70.885 18.539255
70.890 19.031183
70.895 19.40122
70.900 19.596119
70.905 19.541908
70.910 19.845867
70.915 19.470074
70.920 19.198597
70.925 19.022686
70.930 19.07185
70.935 19.255117
70.940 19.193432
70.945 19.367439
70.950 20.143408
70.955 20.56662
70.960 20.465876
70.965 20.913128
70.970 21.102283
70.975 21.203447
70.980 20.581566
70.985 20.010374
70.990 19.997297
70.995 19.77433
71.000 19.440924
71.005 19.385483
71.010 19.582281
71.015 19.673487
71.020 19.300083
71.025 18.869186
71.030 18.772367
71.035 18.497599
71.040 18.178411
71.045 18.166353
71.050 18.271519
71.055 18.526257
71.060 18.631336
71.065 18.397346
71.070 18.681025
71.075 19.022636
71.080 18.722754
71.085 18.737377
71.090 18.863012
71.095 19.403713
71.100 19.582182
71.105 19.391813
71.110 19.310926
71.115 19.295179
71.120 19.004574
71.125 18.66308
71.130 18.326794
71.135 18.207701
71.140 18.401344
71.145 18.544197
71.150 18.579567
71.155 18.958847
71.160 18.412964
71.165 18.20948
71.170 18.469322
71.175 18.405403
71.180 18.53323
71.185 18.6546
71.190 18.573521
71.195 19.140921
71.200 19.243608
71.205 19.505747
71.210 19.958069
71.215 20.067747
71.220 19.981056
71.225 20.55443
71.230 21.551004
71.235 21.612808
71.240 20.772041
71.245 20.817127
71.250 20.825897
71.255 20.737148
71.260 19.966063
71.265 19.414194
71.270 19.282465
71.275 19.227953
71.280 18.169949
71.285 18.470827
71.290 18.855732
71.295 18.962868
71.300 18.518742
71.305 18.591404
71.310 18.943428
71.315 19.453119
71.320 19.331165
71.325 19.116879
71.330 18.859879
71.335 19.511812
71.340 19.850203
71.345 20.426298
71.350 20.057747
71.355 20.083895
71.360 20.663013
71.365 21.152834
71.370 20.678823
71.375 20.434315
71.380 20.179113
71.385 20.286837
71.390 19.999105
71.395 19.71212
71.400 19.806095
71.405 19.835142
71.410 19.564159
71.415 20.323172
71.420 20.531403
71.425 20.482065
71.430 20.207798
71.435 19.741865
71.440 19.979977
71.445 20.276289
71.450 20.097746
71.455 19.805534
71.460 19.775557
71.465 19.513424
71.470 19.037783
71.475 19.274664
71.480 18.848949
71.485 18.68903
71.490 18.6523
71.495 18.805883
71.500 19.326618
71.505 19.561337
71.510 18.831507
71.515 18.496262
71.520 18.966137
71.525 19.070164
71.530 19.045862
71.535 19.182575
71.540 19.09857
71.545 19.098566
71.550 19.453798
71.555 18.811722
71.560 18.518982
71.565 18.217375
71.570 18.586714
71.575 18.527279
71.580 18.183683
71.585 17.658142
71.590 17.720833
71.595 18.267336
71.600 17.673157
71.605 17.592916
71.610 17.704422
71.615 17.791481
71.620 17.709229
71.625 18.044657
71.630 17.98757
71.635 18.766457
71.640 18.578106
71.645 18.757486
71.650 19.056063
71.655 18.847641
71.660 18.20335
71.665 18.198191
71.670 17.574869
71.675 18.110212
71.680 18.216446
71.685 18.654619
71.690 19.158049
71.695 19.372747
71.700 18.858952
71.705 18.958727
71.710 18.632181
71.715 18.382368
71.720 18.0895
71.725 17.985968
71.730 17.811653
71.735 18.116253
71.740 18.393221
71.745 18.086485
71.750 18.038866
71.755 18.201693
71.760 18.629969
71.765 19.45656
71.770 19.502443
71.775 19.505951
71.780 19.402393
71.785 19.281303
71.790 19.31662
71.795 19.370729
71.800 19.252598
71.805 19.021656
71.810 19.557175
71.815 20.0571
71.820 19.771816
71.825 18.999592
71.830 18.411314
71.835 17.994568
71.840 18.09828
71.845 17.365629
71.850 17.002947
71.855 17.13039
71.860 17.873686
71.865 18.798309
71.870 19.129456
71.875 19.194233
71.880 19.792395
71.885 20.745686
71.890 20.84059
71.895 20.559914
71.900 20.475195
71.905 20.200056
71.910 20.550631
71.915 20.788294
71.920 20.745522
71.925 20.430475
71.930 20.079899
71.935 19.734182
71.940 19.880985
71.945 19.857239
71.950 19.374529
71.955 19.579155
71.960 19.641241
71.965 19.753935
71.970 19.340307
71.975 19.442682
71.980 19.518591
71.985 19.250677
71.990 18.672859
71.995 18.098368
72.000 17.588381
72.005 17.157957
72.010 16.517471
72.015 16.513441
72.020 16.835016
72.025 17.10363
72.030 17.812292
72.035 18.370102
72.040 18.955883
72.045 18.855986
72.050 18.503704
72.055 19.088314
72.060 19.038595
72.065 19.139187
72.070 19.199291
72.075 19.296316
72.080 19.122555
72.085 18.810156
72.090 18.067869
72.095 17.875608
72.100 17.680937
72.105 17.448994
72.110 17.725523
72.115 18.535339
72.120 18.900156
72.125 19.089897
72.130 19.454966
72.135 19.487179
72.140 19.375118
72.145 19.448259
72.150 19.424242
72.155 19.472874
72.160 19.51512
72.165 19.079191
72.170 19.487108
72.175 19.487074
72.180 18.912697
72.185 19.14662
72.190 18.767179
72.195 19.298559
72.200 19.946192
72.205 19.347815
72.210 19.933523
72.215 19.003569
72.220 18.360327
72.225 18.441114
72.230 17.602915
72.235 17.569498
72.240 17.848274
72.245 17.479216
72.250 18.196489
72.255 18.322966
72.260 18.536367
72.265 19.014111
72.270 18.671106
72.275 18.971775
72.280 19.029556
72.285 18.789209
72.290 19.159111
72.295 18.900696
72.300 18.600552
72.305 18.492163
72.310 17.927149
72.315 18.557503
72.320 18.735468
72.325 18.479654
72.330 18.843441
72.335 18.847425
72.340 18.875481
72.345 18.8946
72.350 19.034334
72.355 18.89307
72.360 18.490299
72.365 17.915888
72.370 18.163858
72.375 18.294659
72.380 18.379068
72.385 18.338024
72.390 18.482237
72.395 18.695671
72.400 19.117535
72.405 18.887222
72.410 18.392384
72.415 18.50437
72.420 17.620674
72.425 17.717443
72.430 17.731272
72.435 17.942667
72.440 18.358627
72.445 18.912903
72.450 19.064657
72.455 19.492352
72.460 19.285391
72.465 18.988621
72.470 18.566164
72.475 18.424347
72.480 18.216295
72.485 17.341681
72.490 16.880014
72.495 16.881023
72.500 16.800314
72.505 16.667702
72.510 16.140017
72.515 15.99244
72.520 16.343916
72.525 16.7584
72.530 16.648445
72.535 16.500032
72.540 16.833605
72.545 17.562458
72.550 18.309273
72.555 18.506287
72.560 18.497257
72.565 19.157141
72.570 19.61949
72.575 19.595978
72.580 18.974396
72.585 18.360447
72.590 18.399929
72.595 17.796007
72.600 17.662703
72.605 16.947523
72.610 16.686243
72.615 16.880297
72.620 17.448275
72.625 18.135605
72.630 18.355438
72.635 18.152576
72.640 18.957151
72.645 18.999241
72.650 18.689245
72.655 18.176432
72.660 18.035379
72.665 18.152908
72.670 18.450365
72.675 18.717928
72.680 18.492235
72.685 18.381073
72.690 18.601328
72.695 18.502796
72.700 18.085705
72.705 17.280172
72.710 16.734678
72.715 17.048727
72.720 17.021215
72.725 17.627092
72.730 17.920336
72.735 18.210505
72.740 17.903233
72.745 17.824368
72.750 17.916033
72.755 18.098984
72.760 16.969091
72.765 16.534658
72.770 17.023563
72.775 16.982283
72.780 16.918697
72.785 16.721457
72.790 16.292171
72.795 16.30583
72.800 16.016973
72.805 15.553041
72.810 15.785055
72.815 16.030806
72.820 16.196602
72.825 16.538237
72.830 16.964705
72.835 17.414
72.840 18.222279
72.845 18.379938
72.850 18.222815
72.855 17.528437
72.860 17.644638
72.865 17.489012
72.870 17.311556
72.875 17.135979
72.880 17.102251
72.885 17.372028
72.890 17.652143
72.895 17.972343
72.900 17.818333
72.905 17.910398
72.910 17.518019
72.915 16.9624
72.920 17.104233
72.925 16.649824
72.930 16.752361
72.935 16.701538
72.940 17.137367
72.945 17.629745
72.950 17.677128
72.955 17.62059
72.960 17.466887
72.965 16.758705
72.970 16.536654
72.975 16.001083
72.980 16.455921
72.985 17.038931
72.990 17.365917
72.995 18.267557
73.000 18.964005
