!@!!GADDS PLOTSO FILE: Chi integration type
!@!!Title/SampleName: map-aa
!@!!Comment: ?
!@!!User: Bruker Instrument Administrator
!@!!Site: University of Illinois Chicago
!@!!Frame: map-aa_01_000.gfrm
!@!!Wavelengths    1.54184   1.54056   1.54439
!@!!Frame angles: 2Theta: 63.000 Omega: 50.000 Phi: 0.000 Chi: 90.000
!@!!Integration range: 2Theta: 53.000 to 73.000  Gamma: -105.000 to -75.000
!@!!Integration method: bin normalized
!@!N
!@!SS
!@!M
!@!L 0.0 0.0 0.0 0.0
!@!XDegrees
!@!YCounts
53.000 9.364743
53.005 8.991049
53.010 8.880483
53.015 8.507047
53.020 8.891399
53.025 8.992129
53.030 8.801073
53.035 8.803667
53.040 9.170318
53.045 9.498477
53.050 9.63658
53.055 9.713075
53.060 9.432111
53.065 9.347879
53.070 9.137181
53.075 8.986795
53.080 9.281949
53.085 9.643258
53.090 9.458726
53.095 9.721276
53.100 9.96176
53.105 10.091806
53.110 10.322175
53.115 10.364778
53.120 10.26247
53.125 10.385118
53.130 10.100094
53.135 10.419253
53.140 10.435699
53.145 10.493995
53.150 10.665004
53.155 11.395353
53.160 11.303775
53.165 10.883986
53.170 10.336678
53.175 10.463693
53.180 10.386337
53.185 10.124632
53.190 9.486999
53.195 9.516684
53.200 9.564531
53.205 9.518147
53.210 9.272684
53.215 8.99242
53.220 9.042129
53.225 8.971611
53.230 8.915405
53.235 9.208185
53.240 9.736707
53.245 9.870011
53.250 9.829325
53.255 9.892955
53.260 10.515337
53.265 10.730069
53.270 10.354409
53.275 9.744678
53.280 9.64951
53.285 9.451477
53.290 9.35657
53.295 8.884995
53.300 8.897041
53.305 9.342976
53.310 9.97575
53.315 10.802934
53.320 11.157034
53.325 11.101974
53.330 11.371343
53.335 11.146912
53.340 10.498226
53.345 9.748216
53.350 8.770888
53.355 8.524992
53.360 8.459765
53.365 8.3538
53.370 8.416601
53.375 8.759778
53.380 9.087907
53.385 9.439081
53.390 9.856184
53.395 10.011293
53.400 10.274582
53.405 10.395622
53.410 9.933392
53.415 9.809171
53.420 9.720779
53.425 9.506097
53.430 9.369198
53.435 9.096841
53.440 8.899386
53.445 9.248574
53.450 9.173064
53.455 8.821492
53.460 8.859642
53.465 9.012772
53.470 9.508407
53.475 9.688199
53.480 9.636586
53.485 10.05159
53.490 10.569864
53.495 10.834157
53.500 10.773957
53.505 10.381121
53.510 10.829537
53.515 11.143264
53.520 11.143918
53.525 11.343771
53.530 11.106941
53.535 11.036352
53.540 11.435183
53.545 11.233068
53.550 10.959583
53.555 10.692658
53.560 10.384727
53.565 10.460227
53.570 10.846343
53.575 10.591743
53.580 10.498532
53.585 10.490792
53.590 10.582426
53.595 10.86445
53.600 10.750741
53.605 10.616323
53.610 10.804101
53.615 10.835356
53.620 10.980485
53.625 11.095279
53.630 11.151921
53.635 11.13784
53.640 10.880636
53.645 10.769555
53.650 11.178214
53.655 11.241955
53.660 11.489956
53.665 11.545978
53.670 11.471741
53.675 11.887545
53.680 11.718349
53.685 11.543279
53.690 11.498421
53.695 11.18768
53.700 11.089101
53.705 11.198471
53.710 11.150334
53.715 11.217319
53.720 12.036393
53.725 12.174147
53.730 12.577211
53.735 12.928544
53.740 12.720494
53.745 12.774298
53.750 12.615567
53.755 11.958189
53.760 11.286365
53.765 10.531356
53.770 10.164853
53.775 11.005866
53.780 10.95735
53.785 11.094055
53.790 10.846695
53.795 10.736755
53.800 10.936553
53.805 11.051743
53.810 10.415298
53.815 10.10561
53.820 9.681953
53.825 10.049648
53.830 10.35716
53.835 10.20872
53.840 10.12888
53.845 10.17763
53.850 10.415522
53.855 10.744133
53.860 10.453805
53.865 10.116874
53.870 9.602118
53.875 9.213419
53.880 8.999283
53.885 8.815492
53.890 8.845188
53.895 9.633508
53.900 10.644887
53.905 11.044216
53.910 11.530246
53.915 12.012281
53.920 12.424125
53.925 12.196631
53.930 11.402589
53.935 11.188928
53.940 11.047958
53.945 11.012481
53.950 10.941101
53.955 10.883851
53.960 10.80308
53.965 10.770264
53.970 10.786139
53.975 11.258839
53.980 11.373794
53.985 11.329181
53.990 11.282668
53.995 10.984209
54.000 10.907462
54.005 10.710818
54.010 10.393968
54.015 10.798035
54.020 11.019686
54.025 11.39134
54.030 12.094137
54.035 12.335958
54.040 12.518129
54.045 12.388227
54.050 11.993134
54.055 11.908084
54.060 11.62668
54.065 11.281677
54.070 11.332068
54.075 11.371126
54.080 11.557908
54.085 11.834279
54.090 11.932454
54.095 11.579073
54.100 11.461462
54.105 11.065446
54.110 10.444945
54.115 9.944984
54.120 9.905379
54.125 10.174731
54.130 10.613054
54.135 10.547318
54.140 11.229484
54.145 11.842078
54.150 11.580255
54.155 11.521782
54.160 11.517481
54.165 11.273057
54.170 11.21279
54.175 10.754319
54.180 10.265551
54.185 10.250419
54.190 10.133645
54.195 9.994178
54.200 10.53943
54.205 10.686363
54.210 10.722734
54.215 11.212943
54.220 11.422268
54.225 11.427766
54.230 12.115777
54.235 12.384716
54.240 12.371196
54.245 12.377078
54.250 12.093675
54.255 12.093605
54.260 12.329223
54.265 11.646385
54.270 11.180075
54.275 10.982833
54.280 11.399783
54.285 12.011359
54.290 11.812192
54.295 11.455108
54.300 11.27133
54.305 11.432943
54.310 11.40397
54.315 10.890315
54.320 10.336679
54.325 10.117658
54.330 10.247843
54.335 10.296585
54.340 10.077831
54.345 10.18116
54.350 10.230936
54.355 10.638783
54.360 10.664145
54.365 10.835598
54.370 11.358966
54.375 11.890965
54.380 12.104649
54.385 11.972719
54.390 11.880863
54.395 11.888512
54.400 11.130915
54.405 10.639348
54.410 10.309909
54.415 9.991509
54.420 10.109464
54.425 10.240631
54.430 10.239725
54.435 10.851981
54.440 10.984217
54.445 11.375815
54.450 11.676541
54.455 11.789596
54.460 11.848925
54.465 11.784914
54.470 11.878967
54.475 12.022926
54.480 11.522852
54.485 11.375417
54.490 11.150421
54.495 11.160617
54.500 10.820557
54.505 10.524542
54.510 10.332118
54.515 10.760788
54.520 11.086136
54.525 11.040161
54.530 11.456457
54.535 11.706764
54.540 11.76977
54.545 11.558103
54.550 11.154969
54.555 10.852154
54.560 10.515233
54.565 10.202108
54.570 9.966789
54.575 10.063132
54.580 10.05938
54.585 10.114191
54.590 10.458392
54.595 10.707103
54.600 10.973316
54.605 10.967649
54.610 10.848125
54.615 10.91959
54.620 11.198659
54.625 11.014169
54.630 11.335752
54.635 11.165715
54.640 11.489151
54.645 11.644661
54.650 11.509375
54.655 11.503813
54.660 11.970489
54.665 11.784592
54.670 11.946342
54.675 12.330355
54.680 12.712779
54.685 12.615829
54.690 12.717266
54.695 12.807824
54.700 12.813283
54.705 12.427644
54.710 12.014579
54.715 11.971617
54.720 12.151749
54.725 12.077023
54.730 12.151706
54.735 12.397227
54.740 12.927238
54.745 12.596625
54.750 12.442855
54.755 12.143726
54.760 11.810785
54.765 11.706806
54.770 11.73937
54.775 11.250469
54.780 11.181811
54.785 11.311292
54.790 11.205241
54.795 10.926501
54.800 10.987469
54.805 11.332428
54.810 12.315161
54.815 12.638255
54.820 12.857697
54.825 12.860834
54.830 12.820979
54.835 13.062111
54.840 12.738888
54.845 12.584335
54.850 12.852408
54.855 12.857975
54.860 13.515741
54.865 13.630921
54.870 13.488191
54.875 13.609245
54.880 13.542403
54.885 13.030354
54.890 13.109654
54.895 12.736274
54.900 12.358785
54.905 11.829047
54.910 11.747893
54.915 11.369847
54.920 11.375401
54.925 10.832738
54.930 10.941076
54.935 11.095368
54.940 11.444278
54.945 11.07093
54.950 11.409932
54.955 11.629145
54.960 12.142017
54.965 12.128867
54.970 12.101289
54.975 11.702105
54.980 11.867032
54.985 11.886331
54.990 12.100502
54.995 11.850424
55.000 11.695911
55.005 12.038682
55.010 12.098022
55.015 11.91941
55.020 12.045967
55.025 11.735323
55.030 11.67275
55.035 12.018806
55.040 11.930106
55.045 12.253839
55.050 12.214204
55.055 12.246985
55.060 12.498155
55.065 12.543951
55.070 12.102102
55.075 12.374739
55.080 12.66316
55.085 12.603228
55.090 12.390993
55.095 12.236465
55.100 12.520434
55.105 12.446374
55.110 12.456892
55.115 12.72643
55.120 13.104179
55.125 13.685957
55.130 14.060279
55.135 14.438242
55.140 14.847403
55.145 14.605061
55.150 13.972602
55.155 13.689793
55.160 13.315041
55.165 13.149512
55.170 12.691903
55.175 12.12887
55.180 12.340259
55.185 12.423727
55.190 12.632401
55.195 12.867245
55.200 13.170543
55.205 13.525206
55.210 13.686378
55.215 13.850908
55.220 14.203827
55.225 14.261375
55.230 13.463995
55.235 12.638817
55.240 12.796982
55.245 12.910378
55.250 12.733545
55.255 12.719898
55.260 12.93269
55.265 13.550272
55.270 13.95947
55.275 13.48311
55.280 13.599119
55.285 14.146002
55.290 14.573586
55.295 14.178283
55.300 14.169175
55.305 14.374258
55.310 14.566764
55.315 14.249979
55.320 13.731523
55.325 13.581509
55.330 13.800688
55.335 13.607514
55.340 13.034787
55.345 13.16891
55.350 13.294841
55.355 13.115804
55.360 13.060924
55.365 12.785196
55.370 13.142514
55.375 13.126592
55.380 13.140343
55.385 13.306093
55.390 13.414525
55.395 13.455444
55.400 13.648361
55.405 13.597465
55.410 13.658012
55.415 13.466943
55.420 13.015509
55.425 12.712752
55.430 12.921764
55.435 12.812124
55.440 12.633994
55.445 12.619457
55.450 12.593417
55.455 12.677382
55.460 12.830824
55.465 12.840425
55.470 13.048814
55.475 13.588712
55.480 13.830021
55.485 13.593974
55.490 13.388494
55.495 13.284177
55.500 13.086645
55.505 13.163649
55.510 12.76363
55.515 12.747365
55.520 13.272805
55.525 13.767941
55.530 13.624923
55.535 13.671753
55.540 13.534452
55.545 13.375154
55.550 13.485595
55.555 13.098437
55.560 13.007027
55.565 13.500992
55.570 13.533653
55.575 13.423768
55.580 13.522747
55.585 13.407954
55.590 13.314
55.595 13.302073
55.600 13.35224
55.605 13.369699
55.610 13.596381
55.615 13.325698
55.620 13.210374
55.625 12.96753
55.630 12.077353
55.635 10.890971
55.640 10.756523
55.645 10.938289
55.650 11.173411
55.655 11.599481
55.660 11.791783
55.665 11.932469
55.670 12.59405
55.675 12.41409
55.680 12.391217
55.685 12.874743
55.690 13.175659
55.695 13.453945
55.700 13.571863
55.705 13.396021
55.710 13.792087
55.715 13.638577
55.720 13.239693
55.725 12.665295
55.730 12.461971
55.735 12.346682
55.740 11.91041
55.745 11.480431
55.750 11.845347
55.755 12.639653
55.760 13.344623
55.765 13.616738
55.770 13.951919
55.775 14.304758
55.780 14.906647
55.785 14.785626
55.790 14.03904
55.795 13.566651
55.800 13.488415
55.805 13.582574
55.810 13.822368
55.815 13.087419
55.820 12.903733
55.825 13.329607
55.830 13.723768
55.835 14.116622
55.840 14.173642
55.845 14.376016
55.850 14.654774
55.855 14.335654
55.860 14.554055
55.865 14.644574
55.870 14.608797
55.875 14.554212
55.880 13.75797
55.885 13.989207
55.890 13.741018
55.895 13.317086
55.900 12.468047
55.905 12.353692
55.910 12.546614
55.915 13.65606
55.920 13.995544
55.925 13.924149
55.930 14.186374
55.935 14.691579
55.940 14.488339
55.945 14.217756
55.950 13.564942
55.955 13.836739
55.960 14.282539
55.965 14.172203
55.970 14.223684
55.975 14.274907
55.980 13.762913
55.985 13.396778
55.990 13.32802
55.995 12.797545
56.000 13.346027
56.005 13.518285
56.010 13.925998
56.015 14.249268
56.020 13.816087
56.025 13.458263
56.030 13.714995
56.035 13.704585
56.040 14.128719
56.045 14.285353
56.050 14.620393
56.055 14.734261
56.060 14.327416
56.065 13.44019
56.070 12.922835
56.075 12.02078
56.080 11.357647
56.085 11.004231
56.090 11.488659
56.095 12.352648
56.100 13.053626
56.105 12.705113
56.110 12.678492
56.115 13.018662
56.120 13.738842
56.125 13.493885
56.130 13.315084
56.135 13.404814
56.140 13.95102
56.145 14.012592
56.150 13.427354
56.155 12.877662
56.160 12.967285
56.165 12.666995
56.170 12.520256
56.175 12.354389
56.180 12.055264
56.185 11.997372
56.190 11.686067
56.195 11.362317
56.200 11.523568
56.205 11.436105
56.210 11.667036
56.215 12.361511
56.220 12.765003
56.225 12.964255
56.230 13.082104
56.235 13.32841
56.240 13.756178
56.245 14.330754
56.250 14.182352
56.255 14.401328
56.260 14.420164
56.265 14.76059
56.270 14.714913
56.275 14.263721
56.280 13.1695
56.285 12.843601
56.290 12.840858
56.295 12.902024
56.300 13.037616
56.305 13.256811
56.310 13.658938
56.315 14.612016
56.320 15.353444
56.325 15.394781
56.330 15.322292
56.335 14.880925
56.340 14.506668
56.345 14.260573
56.350 13.589253
56.355 13.20402
56.360 13.349853
56.365 13.684173
56.370 13.677354
56.375 13.917193
56.380 14.074906
56.385 14.532875
56.390 14.584753
56.395 14.214364
56.400 13.857498
56.405 14.065779
56.410 14.074537
56.415 13.70605
56.420 13.753199
56.425 13.856112
56.430 13.835615
56.435 13.565391
56.440 13.549035
56.445 13.228762
56.450 13.402267
56.455 12.974537
56.460 12.684011
56.465 13.249912
56.470 13.672222
56.475 13.900805
56.480 14.079967
56.485 13.616243
56.490 14.181883
56.495 14.798302
56.500 14.834052
56.505 14.558867
56.510 14.476847
56.515 14.502257
56.520 14.831761
56.525 14.807323
56.530 14.628407
56.535 14.968377
56.540 15.114483
56.545 14.68429
56.550 14.860088
56.555 14.451992
56.560 14.263227
56.565 13.867576
56.570 12.900096
56.575 12.739387
56.580 13.192581
56.585 13.507549
56.590 13.914268
56.595 13.579385
56.600 13.455636
56.605 13.855473
56.610 14.167606
56.615 14.123452
56.620 13.494459
56.625 13.183821
56.630 13.222951
56.635 13.395302
56.640 13.942677
56.645 13.861114
56.650 13.611357
56.655 13.771295
56.660 14.208724
56.665 14.497239
56.670 14.810322
56.675 14.314253
56.680 15.000543
56.685 15.76412
56.690 16.148911
56.695 15.699471
56.700 15.715661
56.705 15.393014
56.710 15.332178
56.715 14.958521
56.720 14.811018
56.725 14.480664
56.730 14.19558
56.735 13.616107
56.740 13.735308
56.745 14.089252
56.750 14.487997
56.755 14.262312
56.760 14.77537
56.765 14.903767
56.770 15.502526
56.775 15.689868
56.780 15.362303
56.785 14.566793
56.790 14.744999
56.795 15.107376
56.800 15.517589
56.805 15.170709
56.810 14.815337
56.815 14.768698
56.820 14.838244
56.825 14.591882
56.830 14.360722
56.835 14.071896
56.840 14.190477
56.845 14.135665
56.850 14.484904
56.855 14.304467
56.860 13.830935
56.865 13.394836
56.870 13.972862
56.875 14.11725
56.880 13.362005
56.885 12.714081
56.890 12.589691
56.895 13.071075
56.900 13.086812
56.905 12.169638
56.910 11.509511
56.915 11.887976
56.920 12.092076
56.925 12.416485
56.930 12.627442
56.935 12.688928
56.940 13.424921
56.945 13.958244
56.950 14.423958
56.955 14.67735
56.960 14.454676
56.965 14.098644
56.970 14.324846
56.975 14.465496
56.980 14.277462
56.985 14.053986
56.990 14.248308
56.995 14.227087
57.000 14.653632
57.005 14.781716
57.010 14.927411
57.015 15.087219
57.020 15.233103
57.025 15.403402
57.030 15.811502
57.035 15.904409
57.040 15.524457
57.045 15.28802
57.050 15.132475
57.055 15.110015
57.060 14.717533
57.065 14.064267
57.070 13.757951
57.075 14.15036
57.080 14.444544
57.085 14.617433
57.090 14.588771
57.095 14.528834
57.100 15.123566
57.105 15.037633
57.110 14.635143
57.115 14.326571
57.120 14.585801
57.125 14.281541
57.130 14.111821
57.135 13.883507
57.140 14.191913
57.145 14.714963
57.150 14.917665
57.155 14.788328
57.160 15.01537
57.165 15.343996
57.170 14.868006
57.175 14.672003
57.180 14.860577
57.185 15.215456
57.190 15.353099
57.195 15.526993
57.200 16.080471
57.205 16.472738
57.210 16.525135
57.215 16.275431
57.220 15.827743
57.225 15.892817
57.230 15.711914
57.235 15.1646
57.240 15.038889
57.245 14.779284
57.250 14.678113
57.255 14.955062
57.260 14.822655
57.265 14.855263
57.270 15.020141
57.275 14.754528
57.280 14.727535
57.285 14.523714
57.290 14.088783
57.295 14.090074
57.300 13.797889
57.305 13.688082
57.310 13.98719
57.315 14.65731
57.320 14.604886
57.325 14.419081
57.330 14.304129
57.335 14.749499
57.340 14.785444
57.345 14.562482
57.350 14.519326
57.355 14.998672
57.360 15.203928
57.365 15.689658
57.370 15.508448
57.375 15.316859
57.380 15.343663
57.385 15.220747
57.390 14.936966
57.395 14.782635
57.400 14.461467
57.405 14.546004
57.410 14.820062
57.415 14.341696
57.420 14.137977
57.425 14.552251
57.430 14.482449
57.435 13.99979
57.440 13.510987
57.445 13.372175
57.450 13.556796
57.455 12.966221
57.460 12.719131
57.465 13.433137
57.470 13.901456
57.475 14.441179
57.480 14.507902
57.485 14.426417
57.490 14.929529
57.495 15.320207
57.500 15.439495
57.505 15.437942
57.510 15.146652
57.515 15.297905
57.520 15.722552
57.525 15.009974
57.530 14.370104
57.535 14.090096
57.540 14.369066
57.545 14.698598
57.550 14.618251
57.555 14.187168
57.560 14.528559
57.565 14.6855
57.570 15.184288
57.575 15.321016
57.580 15.569592
57.585 15.95908
57.590 16.40803
57.595 16.249483
57.600 16.334055
57.605 15.598012
57.610 15.102283
57.615 14.982975
57.620 15.309999
57.625 15.55783
57.630 16.283613
57.635 16.5525
57.640 16.79393
57.645 16.672434
57.650 16.258898
57.655 16.200907
57.660 15.781503
57.665 15.55891
57.670 15.09778
57.675 15.165226
57.680 15.752453
57.685 16.04418
57.690 15.843989
57.695 16.019285
57.700 15.73845
57.705 15.420394
57.710 15.359228
57.715 15.190909
57.720 14.978727
57.725 14.966343
57.730 15.083191
57.735 15.384372
57.740 15.891859
57.745 15.805318
57.750 15.482776
57.755 15.041792
57.760 14.634027
57.765 14.555551
57.770 14.26568
57.775 14.528289
57.780 14.856208
57.785 14.833134
57.790 15.411988
57.795 15.183549
57.800 15.045249
57.805 14.852477
57.810 14.316346
57.815 14.092587
57.820 14.048748
57.825 14.27263
57.830 13.94462
57.835 13.349712
57.840 13.43231
57.845 13.56085
57.850 13.967294
57.855 14.101492
57.860 14.21056
57.865 15.07791
57.870 15.461761
57.875 16.172974
57.880 16.546333
57.885 16.38707
57.890 15.973691
57.895 15.572726
57.900 15.285098
57.905 15.324591
57.910 14.452432
57.915 14.037976
57.920 14.265501
57.925 14.348633
57.930 14.255064
57.935 13.79365
57.940 13.628328
57.945 13.642523
57.950 13.571319
57.955 13.446714
57.960 13.701548
57.965 14.067389
57.970 15.178166
57.975 15.362443
57.980 15.610598
57.985 15.580607
57.990 15.550564
57.995 15.038094
58.000 15.011706
58.005 14.701345
58.010 15.262922
58.015 15.430978
58.020 15.334592
58.025 15.317845
58.030 15.81425
58.035 16.021053
58.040 16.161572
58.045 16.020855
58.050 15.985953
58.055 16.246418
58.060 15.880799
58.065 15.256789
58.070 15.08409
58.075 14.918264
58.080 14.777078
58.085 14.854316
58.090 14.984266
58.095 15.565767
58.100 15.807591
58.105 15.799759
58.110 15.548827
58.115 15.091236
58.120 15.044842
58.125 15.29348
58.130 15.213029
58.135 15.104349
58.140 15.130789
58.145 15.497464
58.150 15.69381
58.155 15.622364
58.160 15.415907
58.165 15.41633
58.170 16.073832
58.175 16.181383
58.180 16.084234
58.185 15.895938
58.190 15.790145
58.195 15.628713
58.200 15.149808
58.205 14.432199
58.210 14.175118
58.215 14.55801
58.220 14.431509
58.225 14.63018
58.230 14.839327
58.235 15.163818
58.240 14.958155
58.245 14.576184
58.250 14.457254
58.255 14.380745
58.260 13.986949
58.265 14.085917
58.270 14.351479
58.275 15.148356
58.280 15.809867
58.285 16.134136
58.290 16.95635
58.295 17.772831
58.300 18.369658
58.305 18.221859
58.310 17.608545
58.315 17.264721
58.320 17.050507
58.325 17.035686
58.330 16.440546
58.335 16.157635
58.340 16.660568
58.345 16.794121
58.350 17.449059
58.355 17.352997
58.360 16.675764
58.365 16.302553
58.370 16.047041
58.375 15.164704
58.380 14.92419
58.385 14.193218
58.390 14.183138
58.395 14.514835
58.400 14.536094
58.405 14.598664
58.410 14.837241
58.415 15.057568
58.420 14.967525
58.425 14.678347
58.430 14.057713
58.435 13.805171
58.440 13.773306
58.445 14.204338
58.450 13.800643
58.455 13.784611
58.460 14.357964
58.465 15.594578
58.470 15.977895
58.475 15.855503
58.480 15.905175
58.485 16.559088
58.490 17.151466
58.495 16.68634
58.500 15.848951
58.505 15.427485
58.510 15.407928
58.515 15.234215
58.520 14.620623
58.525 14.096798
58.530 14.146909
58.535 14.412138
58.540 15.139974
58.545 15.345212
58.550 15.445917
58.555 15.67832
58.560 16.133833
58.565 16.252207
58.570 16.511713
58.575 16.964043
58.580 16.608646
58.585 16.518686
58.590 16.582523
58.595 16.927773
58.600 16.715981
58.605 16.688747
58.610 16.638855
58.615 16.501198
58.620 16.257835
58.625 16.056343
58.630 16.087961
58.635 16.07756
58.640 15.25053
58.645 15.209448
58.650 15.60006
58.655 15.953174
58.660 16.142143
58.665 15.827989
58.670 16.244183
58.675 16.584064
58.680 16.571306
58.685 16.316851
58.690 16.183569
58.695 16.52334
58.700 16.507774
58.705 15.707597
58.710 15.086114
58.715 15.127338
58.720 15.555856
58.725 16.355209
58.730 16.337576
58.735 16.186579
58.740 16.688614
58.745 16.949783
58.750 16.897038
58.755 16.861578
58.760 16.329542
58.765 15.814019
58.770 16.077333
58.775 16.974764
58.780 17.153688
58.785 17.035955
58.790 16.799686
58.795 17.163424
58.800 17.371119
58.805 17.268877
58.810 16.809311
58.815 16.85886
58.820 17.052183
58.825 16.914501
58.830 16.878929
58.835 16.837942
58.840 17.196791
58.845 17.313627
58.850 17.275341
58.855 17.289099
58.860 16.881651
58.865 16.116308
58.870 15.992176
58.875 15.256505
58.880 14.98316
58.885 15.125506
58.890 14.671112
58.895 14.440339
58.900 14.622448
58.905 14.99894
58.910 14.836272
58.915 14.93658
58.920 14.983601
58.925 15.621529
58.930 16.748709
58.935 17.372108
58.940 17.479269
58.945 17.571268
58.950 17.747416
58.955 17.399887
58.960 17.201418
58.965 17.072227
58.970 16.53793
58.975 16.591818
58.980 16.738817
58.985 16.454926
58.990 16.734776
58.995 16.710978
59.000 16.723209
59.005 17.029718
59.010 16.295925
59.015 16.436972
59.020 16.397787
59.025 16.025705
59.030 15.823466
59.035 15.582483
59.040 15.621351
59.045 16.567089
59.050 16.795532
59.055 17.656218
59.060 18.658482
59.065 19.118172
59.070 19.362576
59.075 19.325089
59.080 19.195669
59.085 19.428543
59.090 18.89076
59.095 18.409687
59.100 18.402328
59.105 17.893009
59.110 18.114662
59.115 17.906689
59.120 17.59446
59.125 17.372934
59.130 17.605833
59.135 17.559393
59.140 17.641161
59.145 17.874043
59.150 17.771803
59.155 17.209074
59.160 16.674097
59.165 16.369244
59.170 15.901258
59.175 15.689698
59.180 16.084045
59.185 16.204563
59.190 16.202583
59.195 16.348276
59.200 16.552734
59.205 16.929005
59.210 16.957214
59.215 16.333996
59.220 16.491009
59.225 16.835377
59.230 16.749968
59.235 16.10293
59.240 16.2106
59.245 16.722624
59.250 16.592693
59.255 16.335041
59.260 16.547735
59.265 16.805771
59.270 17.489779
59.275 17.587227
59.280 16.966833
59.285 17.057213
59.290 17.330194
59.295 17.221684
59.300 16.766319
59.305 16.072739
59.310 15.702016
59.315 15.67069
59.320 15.424053
59.325 15.139112
59.330 15.332593
59.335 16.010935
59.340 16.494431
59.345 16.608696
59.350 16.627735
59.355 17.360399
59.360 17.676056
59.365 17.701759
59.370 17.564817
59.375 17.362259
59.380 17.356239
59.385 17.824993
59.390 18.624229
59.395 19.266174
59.400 19.622671
59.405 19.805584
59.410 20.426224
59.415 20.740076
59.420 19.901985
59.425 18.457253
59.430 17.477943
59.435 17.045303
59.440 16.946045
59.445 16.682808
59.450 16.977005
59.455 17.251766
59.460 17.263157
59.465 17.376421
59.470 17.783115
59.475 17.671316
59.480 17.153069
59.485 16.87464
59.490 17.001663
59.495 17.512522
59.500 17.754602
59.505 17.661196
59.510 17.956604
59.515 18.198523
59.520 18.000086
59.525 18.355396
59.530 18.881269
59.535 18.639032
59.540 18.186668
59.545 17.938829
59.550 17.537338
59.555 17.947821
59.560 17.836756
59.565 17.692276
59.570 18.308363
59.575 18.742546
59.580 19.107161
59.585 19.724075
59.590 19.629505
59.595 19.722734
59.600 19.803339
59.605 19.664289
59.610 19.83366
59.615 20.190357
59.620 20.08671
59.625 19.956829
59.630 19.490921
59.635 19.261951
59.640 19.302208
59.645 18.568064
59.650 18.094622
59.655 18.603437
59.660 18.916977
59.665 19.262678
59.670 19.007193
59.675 18.85372
59.680 18.962961
59.685 18.853905
59.690 18.796568
59.695 18.906462
59.700 19.335163
59.705 19.695957
59.710 19.439814
59.715 19.470318
59.720 19.772984
59.725 19.545372
59.730 19.271198
59.735 18.64197
59.740 18.39316
59.745 18.691116
59.750 18.864319
59.755 18.273537
59.760 18.131033
59.765 18.032404
59.770 17.647861
59.775 17.821917
59.780 18.770483
59.785 18.889679
59.790 18.881563
59.795 19.150623
59.800 19.19796
59.805 20.340418
59.810 20.208191
59.815 19.517771
59.820 19.80558
59.825 20.06344
59.830 19.875261
59.835 19.934734
59.840 19.964437
59.845 20.653255
59.850 20.440363
59.855 20.078672
59.860 20.0842
59.865 20.538149
59.870 20.467112
59.875 20.286283
59.880 20.315113
59.885 20.886295
59.890 21.179552
59.895 21.563437
59.900 21.382421
59.905 21.337189
59.910 20.874788
59.915 19.811745
59.920 19.597876
59.925 19.354685
59.930 19.096313
59.935 19.16712
59.940 19.318171
59.945 19.742662
59.950 19.872015
59.955 20.237331
59.960 20.575474
59.965 21.663347
59.970 21.968636
59.975 22.201199
59.980 21.628363
59.985 22.002693
59.990 21.790152
59.995 21.622936
60.000 21.421431
60.005 21.394815
60.010 21.105358
60.015 21.532356
60.020 21.772675
60.025 21.229755
60.030 21.052353
60.035 20.567049
60.040 20.542433
60.045 20.962751
60.050 21.467649
60.055 22.018227
60.060 22.460476
60.065 21.728506
60.070 21.834112
60.075 22.060001
60.080 21.815149
60.085 21.507519
60.090 20.969252
60.095 21.956165
60.100 22.41254
60.105 22.520859
60.110 22.519304
60.115 22.859867
60.120 23.456232
60.125 23.635883
60.130 24.079687
60.135 24.685978
60.140 24.551193
60.145 23.883856
60.150 23.332191
60.155 23.208328
60.160 23.304178
60.165 22.600462
60.170 22.321632
60.175 22.41457
60.180 22.458321
60.185 22.465061
60.190 22.755049
60.195 22.694443
60.200 22.433258
60.205 22.577888
60.210 22.077454
60.215 21.809008
60.220 21.925837
60.225 21.607788
60.230 21.089745
60.235 20.874737
60.240 20.821222
60.245 21.251465
60.250 21.945736
60.255 21.62591
60.260 21.101563
60.265 21.570208
60.270 21.942869
60.275 22.589962
60.280 22.939531
60.285 23.224604
60.290 23.823465
60.295 24.093365
60.300 24.046637
60.305 23.439089
60.310 22.620203
60.315 22.913815
60.320 22.639517
60.325 23.29476
60.330 23.211422
60.335 22.944309
60.340 22.756348
60.345 22.940008
60.350 22.207712
60.355 21.614355
60.360 21.262825
60.365 21.282261
60.370 21.553492
60.375 21.9806
60.380 22.312393
60.385 23.019913
60.390 24.081865
60.395 23.899456
60.400 23.732758
60.405 24.032333
60.410 23.622206
60.415 22.689777
60.420 21.877134
60.425 21.728565
60.430 22.54414
60.435 23.011448
60.440 22.773729
60.445 23.154818
60.450 23.690611
60.455 23.634043
60.460 22.880236
60.465 22.681658
60.470 22.77022
60.475 22.742594
60.480 22.776808
60.485 23.175768
60.490 24.153778
60.495 23.683134
60.500 22.685974
60.505 22.714542
60.510 22.961323
60.515 22.953705
60.520 22.502567
60.525 21.775309
60.530 22.21925
60.535 22.323008
60.540 21.814756
60.545 21.746704
60.550 21.697773
60.555 21.604929
60.560 21.625738
60.565 21.831522
60.570 22.545082
60.575 23.059008
60.580 23.178207
60.585 23.13615
60.590 23.299292
60.595 23.695667
60.600 22.967861
60.605 22.069391
60.610 21.728703
60.615 21.324677
60.620 21.251049
60.625 20.854805
60.630 20.498047
60.635 20.050573
60.640 20.064404
60.645 20.185572
60.650 20.174305
60.655 20.638157
60.660 20.929447
60.665 20.769527
60.670 20.915291
60.675 20.258192
60.680 19.895073
60.685 19.722532
60.690 19.357847
60.695 19.695951
60.700 19.997816
60.705 20.662666
60.710 21.043495
60.715 20.721338
60.720 20.789875
60.725 20.057415
60.730 19.643736
60.735 19.469372
60.740 19.365166
60.745 19.550152
60.750 19.752188
60.755 19.788696
60.760 20.314678
60.765 20.259121
60.770 20.369215
60.775 20.194216
60.780 20.384621
60.785 20.643021
60.790 20.318377
60.795 20.329742
60.800 20.242117
60.805 20.205229
60.810 20.112936
60.815 19.871006
60.820 19.735275
60.825 20.134073
60.830 19.905779
60.835 19.763462
60.840 19.337502
60.845 19.3566
60.850 19.118372
60.855 18.854486
60.860 18.76915
60.865 18.562464
60.870 18.124487
60.875 17.895048
60.880 18.02434
60.885 18.821886
60.890 19.138662
60.895 19.222765
60.900 19.408072
60.905 19.907309
60.910 20.019001
60.915 19.801582
60.920 19.231054
60.925 19.011038
60.930 18.455606
60.935 18.377666
60.940 18.335299
60.945 18.380547
60.950 17.886816
60.955 18.00391
60.960 18.204529
60.965 18.201015
60.970 18.184624
60.975 18.182264
60.980 18.094416
60.985 17.814201
60.990 17.046967
60.995 17.093067
61.000 17.401072
61.005 17.494469
61.010 17.903591
61.015 18.310059
61.020 18.53566
61.025 18.311073
61.030 17.903107
61.035 18.212378
61.040 17.86125
61.045 17.479275
61.050 17.477911
61.055 18.036646
61.060 18.556389
61.065 18.382668
61.070 18.20153
61.075 18.558641
61.080 18.867464
61.085 18.912586
61.090 18.220034
61.095 17.607977
61.100 18.166807
61.105 17.336149
61.110 17.301113
61.115 16.972748
61.120 16.580538
61.125 17.180546
61.130 17.270187
61.135 17.39599
61.140 17.647491
61.145 17.054443
61.150 17.078945
61.155 16.882513
61.160 16.521421
61.165 16.750528
61.170 17.179348
61.175 17.100569
61.180 17.255751
61.185 17.160166
61.190 17.64562
61.195 18.386919
61.200 18.492722
61.205 18.540249
61.210 19.329115
61.215 19.760138
61.220 20.205112
61.225 20.141781
61.230 20.100845
61.235 19.606354
61.240 19.028822
61.245 19.181639
61.250 19.231665
61.255 18.764482
61.260 19.182436
61.265 19.498241
61.270 19.577049
61.275 19.941132
61.280 19.69611
61.285 19.601681
61.290 19.750967
61.295 20.057962
61.300 20.466238
61.305 20.416597
61.310 19.933786
61.315 19.921854
61.320 20.012148
61.325 19.830038
61.330 18.946054
61.335 18.370907
61.340 18.767569
61.345 19.096331
61.350 19.628469
61.355 19.750206
61.360 19.671652
61.365 19.45166
61.370 18.839911
61.375 18.287792
61.380 18.227798
61.385 17.58153
61.390 17.071306
61.395 17.178787
61.400 17.817245
61.405 18.394545
61.410 18.542599
61.415 18.22706
61.420 18.103973
61.425 18.114513
61.430 17.484655
61.435 17.146887
61.440 17.181734
61.445 17.029585
61.450 17.089746
61.455 17.391674
61.460 17.707211
61.465 18.060287
61.470 17.662649
61.475 17.310152
61.480 17.459908
61.485 17.473684
61.490 16.97233
61.495 16.93648
61.500 16.89411
61.505 17.198994
61.510 16.901155
61.515 16.872032
61.520 16.970078
61.525 17.134489
61.530 17.189741
61.535 17.270971
61.540 18.038515
61.545 19.19795
61.550 19.462536
61.555 19.885973
61.560 20.090353
61.565 19.954142
61.570 19.524231
61.575 19.351503
61.580 19.046282
61.585 19.220699
61.590 18.570679
61.595 18.216419
61.600 18.726883
61.605 18.587748
61.610 17.826952
61.615 17.145836
61.620 16.934088
61.625 16.940523
61.630 17.49452
61.635 17.372314
61.640 17.49477
61.645 17.567661
61.650 17.973829
61.655 17.904228
61.660 18.053057
61.665 17.620918
61.670 17.476294
61.675 17.645641
61.680 17.838043
61.685 17.602428
61.690 17.601595
61.695 17.319719
61.700 16.988518
61.705 16.943239
61.710 16.405516
61.715 15.73965
61.720 15.357081
61.725 15.153216
61.730 15.287951
61.735 15.528489
61.740 15.495932
61.745 15.978525
61.750 15.901136
61.755 15.784469
61.760 15.911237
61.765 15.919956
61.770 15.790586
61.775 15.93672
61.780 15.926838
61.785 16.534798
61.790 16.894888
61.795 17.014513
61.800 17.305429
61.805 17.479086
61.810 17.403229
61.815 17.258993
61.820 17.196615
61.825 17.840151
61.830 18.268438
61.835 17.993834
61.840 17.913496
61.845 17.989862
61.850 18.407215
61.855 19.008053
61.860 19.054983
61.865 18.64282
61.870 18.728516
61.875 18.765459
61.880 18.612936
61.885 18.429415
61.890 17.51368
61.895 17.267218
61.900 17.823519
61.905 18.207029
61.910 17.993198
61.915 18.21228
61.920 18.562199
61.925 19.260618
61.930 19.195223
61.935 19.274073
61.940 19.042854
61.945 18.722225
61.950 18.18047
61.955 17.31076
61.960 16.932775
61.965 16.347141
61.970 15.344783
61.975 15.505815
61.980 15.98243
61.985 16.753954
61.990 16.791502
61.995 16.742031
62.000 17.170511
62.005 17.407059
62.010 16.779146
62.015 16.335499
62.020 16.544014
62.025 17.039667
62.030 16.951258
62.035 16.95467
62.040 17.372757
62.045 18.111746
62.050 18.54203
62.055 18.32872
62.060 18.646666
62.065 19.172909
62.070 19.268362
62.075 18.995178
62.080 18.861052
62.085 18.614054
62.090 18.257837
62.095 17.483627
62.100 17.136358
62.105 16.829201
62.110 16.931192
62.115 17.139019
62.120 17.700008
62.125 17.765198
62.130 17.85681
62.135 17.760948
62.140 17.81665
62.145 17.999466
62.150 17.80537
62.155 17.59903
62.160 18.6856
62.165 18.961323
62.170 19.234865
62.175 20.081274
62.180 20.663408
62.185 20.912863
62.190 20.827883
62.195 19.942059
62.200 19.499722
62.205 18.488255
62.210 17.161194
62.215 16.475012
62.220 16.202738
62.225 16.071758
62.230 15.667553
62.235 16.26458
62.240 16.956015
62.245 17.435333
62.250 17.076607
62.255 16.389458
62.260 16.27957
62.265 17.042137
62.270 17.414839
62.275 17.363964
62.280 17.046383
62.285 17.349195
62.290 17.737881
62.295 17.520632
62.300 16.843817
62.305 16.160538
62.310 15.948895
62.315 15.963394
62.320 15.507453
62.325 15.559708
62.330 15.741261
62.335 16.292717
62.340 16.771557
62.345 17.180202
62.350 17.450686
62.355 17.971718
62.360 18.055386
62.365 18.635658
62.370 18.21455
62.375 18.004303
62.380 17.860485
62.385 17.511087
62.390 17.524567
62.395 17.500061
62.400 17.444118
62.405 17.408806
62.410 17.453262
62.415 17.691753
62.420 17.660475
62.425 17.684696
62.430 17.572945
62.435 16.954784
62.440 17.18487
62.445 17.905449
62.450 18.659279
62.455 19.259012
62.460 19.761959
62.465 20.110785
62.470 20.229959
62.475 20.173958
62.480 19.7857
62.485 18.918863
62.490 19.03565
62.495 18.606222
62.500 18.398724
62.505 18.286638
62.510 18.186834
62.515 17.919477
62.520 17.732084
62.525 17.355301
62.530 17.354546
62.535 17.30772
62.540 17.294386
62.545 17.4468
62.550 17.523329
62.555 17.756977
62.560 17.281403
62.565 16.888744
62.570 16.904503
62.575 16.447399
62.580 16.086412
62.585 15.923841
62.590 15.934845
62.595 16.420185
62.600 17.00157
62.605 17.10771
62.610 17.258533
62.615 17.454412
62.620 17.225758
62.625 17.280918
62.630 17.186304
62.635 16.729044
62.640 16.189068
62.645 16.080982
62.650 15.797976
62.655 16.235165
62.660 16.366737
62.665 16.845003
62.670 17.470049
62.675 18.307583
62.680 19.065735
62.685 19.259052
62.690 19.122086
62.695 19.270508
62.700 18.84833
62.705 18.536818
62.710 18.195827
62.715 18.212864
62.720 18.820332
62.725 18.805643
62.730 18.670219
62.735 18.287596
62.740 18.070488
62.745 17.81032
62.750 17.518307
62.755 17.168537
62.760 17.035147
62.765 16.531092
62.770 16.611937
62.775 16.51812
62.780 16.720446
62.785 16.306358
62.790 16.01103
62.795 16.253361
62.800 16.801617
62.805 16.900696
62.810 16.912603
62.815 16.899454
62.820 17.360281
62.825 17.552694
62.830 17.533665
62.835 17.122084
62.840 17.308409
62.845 17.049719
62.850 16.903143
62.855 16.893097
62.860 17.171091
62.865 17.141701
62.870 17.324997
62.875 17.481882
62.880 18.415941
62.885 18.636072
62.890 18.346075
62.895 17.905272
62.900 18.094347
62.905 17.53529
62.910 16.845352
62.915 16.461769
62.920 16.938601
62.925 17.22208
62.930 17.526331
62.935 17.23978
62.940 17.782532
62.945 18.114054
62.950 17.460068
62.955 16.571869
62.960 15.913869
62.965 15.78056
62.970 15.839491
62.975 15.736919
62.980 15.443893
62.985 16.018806
62.990 16.250929
62.995 16.989349
63.000 17.83894
63.005 17.861086
63.010 17.830294
63.015 18.719505
63.020 19.00186
63.025 19.21487
63.030 18.813379
63.035 18.8008
63.040 18.593847
63.045 19.110085
63.050 19.234116
63.055 19.283274
63.060 18.971233
63.065 18.784472
63.070 18.68799
63.075 18.72266
63.080 18.656254
63.085 18.104998
63.090 17.97257
63.095 18.083132
63.100 17.69327
63.105 17.105318
63.110 17.755928
63.115 17.517986
63.120 18.207897
63.125 18.565939
63.130 19.100737
63.135 19.206896
63.140 19.162815
63.145 18.568571
63.150 18.065777
63.155 17.004032
63.160 16.96398
63.165 16.609585
63.170 17.354446
63.175 17.979933
63.180 18.320236
63.185 18.592167
63.190 19.32316
63.195 19.067924
63.200 18.892769
63.205 18.33128
63.210 18.126858
63.215 17.970261
63.220 18.265501
63.225 18.001328
63.230 17.9993
63.235 17.715231
63.240 17.652872
63.245 17.669884
63.250 18.161201
63.255 18.114061
63.260 18.160727
63.265 18.201431
63.270 18.320147
63.275 18.104193
63.280 18.346342
63.285 18.11286
63.290 18.604239
63.295 19.11521
63.300 19.412683
63.305 19.867695
63.310 19.905146
63.315 19.510698
63.320 19.573782
63.325 18.80476
63.330 18.33662
63.335 18.311861
63.340 18.185011
63.345 18.351038
63.350 17.819714
63.355 17.203941
63.360 17.365664
63.365 17.249821
63.370 17.732437
63.375 18.34057
63.380 18.469902
63.385 18.671225
63.390 18.915697
63.395 18.947742
63.400 19.037296
63.405 18.564728
63.410 18.090204
63.415 17.583456
63.420 18.261366
63.425 18.320303
63.430 18.565931
63.435 18.828886
63.440 19.090818
63.445 19.223623
63.450 19.496813
63.455 18.859156
63.460 18.856556
63.465 18.632763
63.470 18.603506
63.475 18.556973
63.480 18.227823
63.485 18.28668
63.490 18.784279
63.495 18.792246
63.500 19.22098
63.505 19.029152
63.510 18.534246
63.515 18.614624
63.520 17.754627
63.525 17.131929
63.530 17.516491
63.535 16.955376
63.540 16.836981
63.545 17.515881
63.550 17.889608
63.555 18.34387
63.560 18.742802
63.565 18.454966
63.570 18.095957
63.575 18.043398
63.580 17.738972
63.585 17.424519
63.590 17.85465
63.595 18.198868
63.600 18.222839
63.605 18.679604
63.610 18.887533
63.615 18.872921
63.620 18.783436
63.625 18.206135
63.630 17.940109
63.635 18.380239
63.640 18.308624
63.645 18.500055
63.650 18.466568
63.655 18.570648
63.660 18.710178
63.665 18.588751
63.670 17.970089
63.675 17.817915
63.680 17.410139
63.685 17.322124
63.690 17.282114
63.695 17.005583
63.700 16.488741
63.705 16.751005
63.710 16.661528
63.715 16.783512
63.720 16.815653
63.725 17.294947
63.730 17.755507
63.735 18.225485
63.740 18.125383
63.745 18.425583
63.750 18.805428
63.755 19.196854
63.760 18.976734
63.765 18.846989
63.770 18.784378
63.775 18.846786
63.780 18.728413
63.785 18.076548
63.790 17.586184
63.795 17.844797
63.800 18.100275
63.805 18.310553
63.810 18.190456
63.815 18.560656
63.820 19.337673
63.825 19.334581
63.830 18.997591
63.835 18.8043
63.840 18.796967
63.845 19.223516
63.850 19.06436
63.855 19.191963
63.860 19.717791
63.865 19.97303
63.870 19.853308
63.875 20.141697
63.880 20.197105
63.885 19.660301
63.890 19.572119
63.895 19.597815
63.900 19.603254
63.905 20.105541
63.910 19.963322
63.915 19.895309
63.920 20.226158
63.925 20.378929
63.930 20.857975
63.935 20.941189
63.940 20.495766
63.945 20.053768
63.950 19.719606
63.955 19.578781
63.960 19.192783
63.965 18.460855
63.970 18.066326
63.975 17.669125
63.980 17.714346
63.985 17.512489
63.990 17.094822
63.995 17.965666
64.000 18.30208
64.005 19.101149
64.010 19.714272
64.015 20.010767
64.020 19.850424
64.025 20.260729
64.030 20.012678
64.035 19.782764
64.040 19.226631
64.045 18.889967
64.050 19.492191
64.055 20.207117
64.060 20.493547
64.065 20.118076
64.070 20.085897
64.075 20.295719
64.080 20.121836
64.085 18.928955
64.090 19.003017
64.095 18.802546
64.100 18.569626
64.105 19.016314
64.110 19.742981
64.115 20.150517
64.120 20.978973
64.125 20.778883
64.130 20.455379
64.135 20.454033
64.140 19.969904
64.145 19.087612
64.150 18.91717
64.155 18.44519
64.160 18.143192
64.165 18.702267
64.170 18.971985
64.175 18.810606
64.180 18.775631
64.185 18.658968
64.190 18.704943
64.195 19.357687
64.200 19.029467
64.205 18.935236
64.210 19.068022
64.215 19.385548
64.220 19.578438
64.225 19.88113
64.230 19.397657
64.235 18.945887
64.240 18.667789
64.245 18.471123
64.250 18.593946
64.255 19.020811
64.260 19.179832
64.265 19.052198
64.270 19.598644
64.275 19.901197
64.280 19.957306
64.285 19.580555
64.290 18.360853
64.295 18.018726
64.300 17.935362
64.305 18.383499
64.310 18.649265
64.315 18.340122
64.320 18.303837
64.325 18.106287
64.330 17.493227
64.335 17.494192
64.340 17.011116
64.345 16.653458
64.350 16.726351
64.355 17.325878
64.360 18.146414
64.365 18.868448
64.370 18.76247
64.375 18.675879
64.380 19.249735
64.385 19.301771
64.390 19.090048
64.395 19.204214
64.400 19.436008
64.405 19.75635
64.410 19.639645
64.415 19.388239
64.420 19.441067
64.425 19.391899
64.430 18.83733
64.435 18.550673
64.440 18.620182
64.445 18.996359
64.450 19.70134
64.455 20.097698
64.460 20.236427
64.465 20.756668
64.470 20.867855
64.475 20.841162
64.480 20.786869
64.485 20.105686
64.490 19.935371
64.495 20.25915
64.500 20.908371
64.505 21.165974
64.510 20.692974
64.515 20.299421
64.520 20.421097
64.525 20.254269
64.530 19.498772
64.535 18.680834
64.540 18.907753
64.545 19.62302
64.550 20.186899
64.555 20.507675
64.560 20.684259
64.565 20.99535
64.570 20.603739
64.575 20.120758
64.580 19.948376
64.585 19.518208
64.590 18.886219
64.595 18.183245
64.600 18.206999
64.605 18.775911
64.610 19.019907
64.615 19.515537
64.620 19.935904
64.625 20.483984
64.630 21.192327
64.635 20.898994
64.640 20.315487
64.645 20.270851
64.650 19.967737
64.655 19.315897
64.660 19.204231
64.665 19.149572
64.670 19.800386
64.675 20.375092
64.680 20.233877
64.685 20.307255
64.690 20.801708
64.695 20.872728
64.700 20.938702
64.705 20.702656
64.710 20.452522
64.715 20.224384
64.720 19.95248
64.725 20.131468
64.730 20.231253
64.735 20.213102
64.740 20.264778
64.745 20.285973
64.750 20.650459
64.755 21.183441
64.760 20.874311
64.765 20.657717
64.770 20.550102
64.775 20.722527
64.780 20.805355
64.785 20.772009
64.790 20.954248
64.795 20.626118
64.800 20.996698
64.805 21.716177
64.810 21.841372
64.815 21.737206
64.820 21.245026
64.825 20.534288
64.830 20.492971
64.835 20.399487
64.840 19.960033
64.845 20.01689
64.850 20.212664
64.855 19.886055
64.860 19.886469
64.865 19.900707
64.870 20.233816
64.875 20.283682
64.880 20.327143
64.885 20.075968
64.890 20.360304
64.895 20.674225
64.900 20.811981
64.905 20.870495
64.910 21.047531
64.915 20.534674
64.920 20.118233
64.925 20.488476
64.930 20.687265
64.935 20.79579
64.940 20.394833
64.945 20.198771
64.950 20.5639
64.955 21.17807
64.960 20.879814
64.965 20.583393
64.970 20.721931
64.975 21.355484
64.980 22.115828
64.985 22.247595
64.990 22.523615
64.995 22.553621
65.000 23.057344
65.005 23.062305
65.010 22.321043
65.015 21.556097
65.020 21.753883
65.025 22.124073
65.030 21.535501
65.035 21.236137
65.040 21.777637
65.045 22.290857
65.050 22.666302
65.055 22.022991
65.060 21.708834
65.065 22.105419
65.070 22.392984
65.075 22.552315
65.080 22.364462
65.085 22.882597
65.090 23.305906
65.095 23.511717
65.100 23.772726
65.105 23.77051
65.110 23.380592
65.115 23.433678
65.120 23.215693
65.125 23.70108
65.130 23.968994
65.135 24.131235
65.140 24.358311
65.145 24.236111
65.150 24.228346
65.155 24.09465
65.160 23.769928
65.165 23.885506
65.170 24.18977
65.175 24.554205
65.180 24.502377
65.185 25.283073
65.190 25.241016
65.195 25.464962
65.200 25.559877
65.205 24.688234
65.210 24.314465
65.215 24.30876
65.220 23.82856
65.225 23.910152
65.230 23.570534
65.235 22.975285
65.240 22.383209
65.245 21.97121
65.250 22.091927
65.255 21.526855
65.260 21.487364
65.265 20.99835
65.270 21.287548
65.275 22.258963
65.280 22.452135
65.285 21.970915
65.290 21.713602
65.295 22.14402
65.300 22.805626
65.305 22.853876
65.310 22.636158
65.315 22.26609
65.320 22.3279
65.325 22.800322
65.330 22.907511
65.335 22.773039
65.340 22.812189
65.345 22.754303
65.350 23.237103
65.355 24.058405
65.360 23.806044
65.365 23.572655
65.370 23.833717
65.375 24.256847
65.380 24.676846
65.385 24.526875
65.390 24.264521
65.395 24.931301
65.400 24.889711
65.405 24.462229
65.410 23.896244
65.415 23.903137
65.420 24.183409
65.425 24.116287
65.430 23.922598
65.435 24.126921
65.440 24.639345
65.445 24.689081
65.450 24.525005
65.455 24.53824
65.460 24.702356
65.465 25.184587
65.470 25.849072
65.475 25.395685
65.480 25.474129
65.485 25.487223
65.490 25.912907
65.495 25.628668
65.500 24.658428
65.505 24.332596
65.510 24.848787
65.515 25.692347
65.520 25.98527
65.525 25.904289
65.530 26.368792
65.535 26.634951
65.540 27.180878
65.545 27.799934
65.550 27.861923
65.555 28.95039
65.560 29.276165
65.565 29.172132
65.570 29.416607
65.575 29.351982
65.580 29.507277
65.585 29.881145
65.590 29.187103
65.595 29.156641
65.600 29.775877
65.605 30.052036
65.610 29.778769
65.615 29.593529
65.620 29.297153
65.625 29.289213
65.630 29.596518
65.635 29.678123
65.640 30.08569
65.645 30.820379
65.650 30.409235
65.655 30.608789
65.660 30.888031
65.665 30.644491
65.670 30.420864
65.675 30.091948
65.680 29.994143
65.685 31.059206
65.690 30.622421
65.695 30.111574
65.700 29.856344
65.705 30.751684
65.710 31.51491
65.715 32.220718
65.720 32.825546
65.725 33.944126
65.730 35.162788
65.735 36.112816
65.740 36.594612
65.745 37.715508
65.750 38.766537
65.755 39.586494
65.760 39.450649
65.765 39.549648
65.770 39.782673
65.775 39.393147
65.780 38.45816
65.785 37.54361
65.790 36.838257
65.795 37.550255
65.800 37.670795
65.805 37.811756
65.810 37.626057
65.815 37.972038
65.820 38.775639
65.825 39.57616
65.830 39.613148
65.835 39.395294
65.840 39.186813
65.845 39.181229
65.850 38.802353
65.855 37.810314
65.860 37.542824
65.865 37.40205
65.870 37.571743
65.875 37.322243
65.880 37.784004
65.885 38.61998
65.890 40.075626
65.895 40.389782
65.900 40.503731
65.905 40.966469
65.910 41.481491
65.915 41.796894
65.920 41.781696
65.925 41.745018
65.930 41.650276
65.935 41.938793
65.940 41.377804
65.945 41.394012
65.950 41.413731
65.955 40.916
65.960 41.047981
65.965 40.6105
65.970 40.778759
65.975 41.374004
65.980 40.529625
65.985 39.667816
65.990 39.283264
65.995 39.391464
66.000 39.511238
66.005 39.270218
66.010 38.880707
66.015 38.783672
66.020 39.329857
66.025 39.214561
66.030 38.206207
66.035 37.461197
66.040 37.319607
66.045 37.951649
66.050 38.395241
66.055 37.396393
66.060 37.785442
66.065 38.248837
66.070 38.752827
66.075 38.584084
66.080 38.214905
66.085 38.549751
66.090 38.971939
66.095 38.452541
66.100 38.469879
66.105 37.552578
66.110 37.715622
66.115 37.496922
66.120 36.896484
66.125 37.393345
66.130 37.656956
66.135 38.777149
66.140 39.764389
66.145 39.867294
66.150 39.730034
66.155 40.041237
66.160 39.131153
66.165 38.373341
66.170 37.078686
66.175 36.838272
66.180 36.807156
66.185 36.518757
66.190 36.25
66.195 36.543152
66.200 36.130676
66.205 36.565845
66.210 36.335487
66.215 36.026962
66.220 36.342319
66.225 35.695873
66.230 35.929462
66.235 35.796291
66.240 35.016499
66.245 34.789185
66.250 34.873928
66.255 34.756805
66.260 35.340038
66.265 35.195629
66.270 35.049969
66.275 35.234543
66.280 35.295269
66.285 35.243042
66.290 34.776096
66.295 34.661133
66.300 34.850201
66.305 35.090549
66.310 34.330948
66.315 33.766899
66.320 33.694027
66.325 33.278843
66.330 32.983067
66.335 32.903126
66.340 33.700039
66.345 33.951382
66.350 33.239941
66.355 33.066277
66.360 33.305561
66.365 33.045811
66.370 32.168575
66.375 31.136854
66.380 30.887592
66.385 30.829893
66.390 29.541485
66.395 28.872341
66.400 28.955212
66.405 28.70713
66.410 29.074112
66.415 28.961988
66.420 28.897308
66.425 29.790924
66.430 30.275177
66.435 30.210976
66.440 30.960791
66.445 31.138119
66.450 31.678385
66.455 31.417727
66.460 30.869415
66.465 31.282103
66.470 31.394903
66.475 30.854584
66.480 30.063454
66.485 30.042356
66.490 31.131367
66.495 31.187893
66.500 29.914253
66.505 29.13043
66.510 28.77565
66.515 28.140852
66.520 27.404068
66.525 27.084255
66.530 27.178669
66.535 27.684893
66.540 27.831362
66.545 27.509466
66.550 27.999033
66.555 28.094574
66.560 27.892555
66.565 27.810623
66.570 27.357939
66.575 27.594786
66.580 27.636969
66.585 27.468891
66.590 27.45746
66.595 27.288401
66.600 26.906801
66.605 26.341774
66.610 26.366016
66.615 26.568565
66.620 25.833612
66.625 25.604313
66.630 25.728399
66.635 25.926928
66.640 25.951771
66.645 25.542166
66.650 25.720407
66.655 26.397764
66.660 26.155001
66.665 25.835733
66.670 26.077156
66.675 26.551554
66.680 26.19626
66.685 25.410929
66.690 25.267538
66.695 25.469788
66.700 25.522928
66.705 25.490801
66.710 25.100849
66.715 25.356049
66.720 25.639431
66.725 25.330988
66.730 24.901344
66.735 24.314152
66.740 23.697853
66.745 23.577845
66.750 23.657194
66.755 24.102211
66.760 24.442619
66.765 24.726318
66.770 25.240269
66.775 25.868708
66.780 26.005886
66.785 25.70821
66.790 24.914076
66.795 24.699829
66.800 24.845516
66.805 25.035118
66.810 24.504618
66.815 24.669588
66.820 24.835186
66.825 25.360214
66.830 25.034899
66.835 24.735746
66.840 24.902782
66.845 25.56089
66.850 25.710312
66.855 25.926369
66.860 25.571617
66.865 25.687866
66.870 25.722403
66.875 25.300491
66.880 24.690611
66.885 24.339701
66.890 24.085878
66.895 24.202471
66.900 23.998423
66.905 23.798115
66.910 23.868074
66.915 24.047644
66.920 23.969498
66.925 23.582117
66.930 23.292105
66.935 23.244621
66.940 23.262081
66.945 23.108206
66.950 22.811163
66.955 22.389814
66.960 22.52976
66.965 23.17445
66.970 23.520611
66.975 23.468519
66.980 23.209909
66.985 23.529242
66.990 23.348223
66.995 23.05463
67.000 23.246746
67.005 23.39255
67.010 22.954306
67.015 23.323671
67.020 23.40802
67.025 23.87962
67.030 23.703337
67.035 22.126232
67.040 22.048689
67.045 22.414248
67.050 22.019215
67.055 21.456331
67.060 21.190731
67.065 21.661308
67.070 22.358643
67.075 22.330002
67.080 22.743469
67.085 23.393202
67.090 23.725475
67.095 24.141289
67.100 24.058418
67.105 24.478033
67.110 24.213758
67.115 24.335978
67.120 24.200478
67.125 24.082243
67.130 24.216415
67.135 23.781952
67.140 23.163502
67.145 23.102741
67.150 22.72788
67.155 22.83972
67.160 22.899538
67.165 23.006552
67.170 22.666754
67.175 22.899105
67.180 23.095861
67.185 22.922041
67.190 22.850695
67.195 22.333517
67.200 21.833946
67.205 22.487238
67.210 22.327604
67.215 22.252451
67.220 22.047091
67.225 21.827581
67.230 22.438805
67.235 22.42589
67.240 22.017426
67.245 21.812635
67.250 21.46273
67.255 21.56411
67.260 21.973129
67.265 21.682636
67.270 21.611277
67.275 21.801582
67.280 21.870087
67.285 22.755871
67.290 23.387159
67.295 23.831148
67.300 23.867357
67.305 24.162584
67.310 23.609667
67.315 23.139032
67.320 22.273506
67.325 21.482246
67.330 20.935822
67.335 21.452629
67.340 21.529657
67.345 21.99279
67.350 22.712093
67.355 22.749743
67.360 22.613581
67.365 22.681299
67.370 22.008032
67.375 21.738014
67.380 21.814709
67.385 21.553881
67.390 21.607801
67.395 21.9897
67.400 22.597532
67.405 22.883158
67.410 22.816141
67.415 21.823912
67.420 22.09186
67.425 21.71834
67.430 21.053694
67.435 20.634117
67.440 21.019308
67.445 21.627041
67.450 22.002815
67.455 21.434843
67.460 21.520113
67.465 21.513235
67.470 21.056822
67.475 20.681871
67.480 20.810846
67.485 21.165297
67.490 21.303989
67.495 22.065523
67.500 22.371189
67.505 22.325899
67.510 22.160746
67.515 22.125664
67.520 23.076281
67.525 23.005259
67.530 22.344492
67.535 21.875961
67.540 22.331125
67.545 22.36949
67.550 21.791473
67.555 21.608507
67.560 21.823595
67.565 22.444241
67.570 22.754494
67.575 21.977787
67.580 21.766857
67.585 22.235727
67.590 22.447433
67.595 22.110781
67.600 21.655958
67.605 21.47282
67.610 21.874903
67.615 22.143152
67.620 21.995977
67.625 21.632137
67.630 22.523041
67.635 22.8016
67.640 23.066942
67.645 22.929857
67.650 22.917757
67.655 22.547777
67.660 22.013908
67.665 21.448057
67.670 21.364338
67.675 20.92906
67.680 21.579767
67.685 21.543358
67.690 20.67379
67.695 20.541573
67.700 20.518372
67.705 20.592691
67.710 20.929747
67.715 20.558113
67.720 20.278088
67.725 20.777163
67.730 21.503687
67.735 21.794775
67.740 21.818237
67.745 21.495827
67.750 21.716949
67.755 22.605265
67.760 22.538395
67.765 21.803377
67.770 21.672247
67.775 21.433632
67.780 21.744577
67.785 20.907593
67.790 20.293034
67.795 20.089031
67.800 20.305269
67.805 20.610668
67.810 21.169752
67.815 21.280617
67.820 22.245564
67.825 22.080858
67.830 22.740759
67.835 23.296953
67.840 23.173882
67.845 22.721411
67.850 22.413158
67.855 22.295454
67.860 22.701178
67.865 22.233278
67.870 21.884277
67.875 22.19692
67.880 22.605459
67.885 22.653418
67.890 22.702555
67.895 22.518633
67.900 23.228985
67.905 22.615595
67.910 22.27096
67.915 22.153784
67.920 21.988737
67.925 21.645338
67.930 21.399744
67.935 20.718124
67.940 21.195654
67.945 21.458332
67.950 21.173037
67.955 21.297073
67.960 21.877407
67.965 22.485842
67.970 22.998718
67.975 22.556063
67.980 22.13335
67.985 22.220018
67.990 21.713652
67.995 21.326319
68.000 21.143744
68.005 21.607517
68.010 22.17984
68.015 22.41394
68.020 22.581728
68.025 23.159687
68.030 23.400063
68.035 23.252598
68.040 22.500862
68.045 21.932837
68.050 21.937958
68.055 22.23591
68.060 22.047949
68.065 21.309778
68.070 21.04497
68.075 21.213734
68.080 21.619574
68.085 22.132303
68.090 21.92211
68.095 22.079149
68.100 22.625959
68.105 22.226664
68.110 21.880613
68.115 21.399862
68.120 20.859324
68.125 20.914093
68.130 20.846493
68.135 20.695133
68.140 21.465298
68.145 22.061823
68.150 21.949181
68.155 21.906799
68.160 21.576471
68.165 21.832098
68.170 22.09543
68.175 21.468122
68.180 20.965855
68.185 21.040564
68.190 21.013977
68.195 20.800695
68.200 20.232208
68.205 20.412586
68.210 20.516996
68.215 20.630585
68.220 20.194674
68.225 20.916454
68.230 21.368803
68.235 21.189682
68.240 20.262527
68.245 19.9972
68.250 20.214592
68.255 20.401476
68.260 20.161818
68.265 20.59968
68.270 21.698633
68.275 21.983746
68.280 22.655617
68.285 23.283632
68.290 22.989525
68.295 22.878288
68.300 22.381117
68.305 21.879452
68.310 21.997633
68.315 22.047665
68.320 21.933563
68.325 21.981848
68.330 22.121231
68.335 22.315582
68.340 22.584454
68.345 22.529905
68.350 22.148193
68.355 22.341124
68.360 22.516838
68.365 21.579336
68.370 21.351484
68.375 20.993439
68.380 21.079245
68.385 20.47477
68.390 19.72007
68.395 19.04891
68.400 18.892412
68.405 19.267008
68.410 19.862829
68.415 20.108347
68.420 20.405098
68.425 20.722399
68.430 21.327911
68.435 21.749493
68.440 21.672169
68.445 21.901897
68.450 22.278645
68.455 22.632219
68.460 22.910263
68.465 23.224634
68.470 23.111261
68.475 22.759846
68.480 22.459496
68.485 22.32202
68.490 22.040199
68.495 21.753046
68.500 21.744631
68.505 22.677074
68.510 22.721123
68.515 22.565565
68.520 23.124914
68.525 23.014559
68.530 23.284998
68.535 23.504927
68.540 22.423443
68.545 22.683764
68.550 22.819292
68.555 22.824041
68.560 23.210619
68.565 22.901133
68.570 23.062483
68.575 23.427298
68.580 23.124735
68.585 22.795034
68.590 22.483004
68.595 22.177149
68.600 21.868313
68.605 22.035765
68.610 22.006876
68.615 22.303753
68.620 21.756266
68.625 21.62804
68.630 22.069162
68.635 22.371532
68.640 22.244122
68.645 22.71858
68.650 22.895752
68.655 23.430298
68.660 23.349655
68.665 23.016552
68.670 22.94305
68.675 22.536221
68.680 22.333071
68.685 22.51252
68.690 22.594059
68.695 22.311464
68.700 22.304268
68.705 22.447399
68.710 22.540667
68.715 22.134851
68.720 21.726917
68.725 21.929743
68.730 22.366089
68.735 22.667175
68.740 22.641369
68.745 22.728243
68.750 23.048813
68.755 22.744638
68.760 23.109735
68.765 23.651062
68.770 23.475887
68.775 23.141708
68.780 22.687046
68.785 22.171843
68.790 22.350016
68.795 21.627407
68.800 20.873928
68.805 21.413376
68.810 21.490719
68.815 21.748398
68.820 22.171808
68.825 21.979237
68.830 22.834248
68.835 22.752529
68.840 22.644686
68.845 22.626163
68.850 23.06999
68.855 23.538568
68.860 23.886894
68.865 23.901558
68.870 23.896172
68.875 23.661699
68.880 23.835497
68.885 23.424332
68.890 22.723051
68.895 22.588142
68.900 21.754061
68.905 22.013449
68.910 22.061529
68.915 21.847218
68.920 22.088369
68.925 21.664402
68.930 21.823797
68.935 22.280016
68.940 22.919176
68.945 23.031404
68.950 22.479866
68.955 22.613949
68.960 23.384571
68.965 23.397932
68.970 23.242546
68.975 23.132231
68.980 23.696894
68.985 24.271566
68.990 24.876528
68.995 24.573849
69.000 24.764927
69.005 24.431366
69.010 23.737692
69.015 23.153044
69.020 23.015718
69.025 22.830441
69.030 22.714231
69.035 22.030664
69.040 22.28611
69.045 23.427588
69.050 23.785513
69.055 23.535025
69.060 23.397615
69.065 23.837374
69.070 25.237364
69.075 24.988396
69.080 25.269392
69.085 25.924686
69.090 26.121853
69.095 26.896412
69.100 27.343479
69.105 27.147715
69.110 27.256578
69.115 26.797729
69.120 26.465092
69.125 26.765764
69.130 26.681679
69.135 26.468796
69.140 26.785378
69.145 26.839771
69.150 26.682747
69.155 26.356359
69.160 26.320698
69.165 26.446724
69.170 26.172817
69.175 26.041981
69.180 25.990398
69.185 26.433498
69.190 27.663567
69.195 27.394493
69.200 26.820429
69.205 27.324926
69.210 27.853718
69.215 28.389061
69.220 28.403912
69.225 28.428143
69.230 29.155849
69.235 30.071981
69.240 30.28414
69.245 30.240431
69.250 29.504654
69.255 29.078897
69.260 28.211636
69.265 27.753902
69.270 26.796511
69.275 26.332886
69.280 26.560682
69.285 26.78425
69.290 26.624434
69.295 26.363178
69.300 26.386642
69.305 27.205395
69.310 27.438053
69.315 27.92095
69.320 28.894371
69.325 29.948101
69.330 30.830093
69.335 31.286562
69.340 30.742052
69.345 30.216318
69.350 29.718769
69.355 29.250931
69.360 28.918964
69.365 28.469374
69.370 27.661398
69.375 28.069107
69.380 29.153923
69.385 28.994276
69.390 28.635017
69.395 28.556297
69.400 28.400536
69.405 28.656507
69.410 28.337326
69.415 28.007952
69.420 28.958694
69.425 28.947018
69.430 29.161957
69.435 30.125853
69.440 30.577364
69.445 30.555073
69.450 29.56032
69.455 28.391068
69.460 28.619207
69.465 28.078293
69.470 27.731733
69.475 27.10244
69.480 27.605305
69.485 28.267433
69.490 29.045115
69.495 29.372158
69.500 29.817924
69.505 30.126696
69.510 30.688433
69.515 30.63628
69.520 30.46497
69.525 30.542107
69.530 30.902533
69.535 30.808519
69.540 30.739836
69.545 30.736897
69.550 30.829151
69.555 31.066986
69.560 30.398075
69.565 29.803782
69.570 30.301462
69.575 30.68821
69.580 30.409166
69.585 30.315582
69.590 30.18705
69.595 30.1332
69.600 29.878624
69.605 29.139919
69.610 29.122305
69.615 29.128496
69.620 28.4142
69.625 28.718267
69.630 28.440338
69.635 28.007883
69.640 28.016529
69.645 26.788523
69.650 26.764359
69.655 26.652103
69.660 26.650719
69.665 27.442242
69.670 27.871157
69.675 28.513399
69.680 29.456318
69.685 29.694517
69.690 30.800837
69.695 30.739798
69.700 30.330624
69.705 30.363424
69.710 29.627455
69.715 29.157789
69.720 28.751081
69.725 27.414391
69.730 27.477728
69.735 27.158348
69.740 26.557901
69.745 26.719131
69.750 26.475599
69.755 26.129059
69.760 26.26281
69.765 25.972355
69.770 26.03425
69.775 25.916487
69.780 25.861292
69.785 25.612156
69.790 24.83865
69.795 24.000244
69.800 24.266104
69.805 24.175388
69.810 23.823669
69.815 23.866566
69.820 24.628254
69.825 25.522169
69.830 25.478846
69.835 25.271072
69.840 25.11894
69.845 24.885164
69.850 25.001703
69.855 24.999029
69.860 24.941135
69.865 25.286198
69.870 25.228767
69.875 25.260708
69.880 25.453968
69.885 25.009827
69.890 24.849085
69.895 24.676039
69.900 24.865232
69.905 24.906956
69.910 24.743019
69.915 24.454876
69.920 24.032032
69.925 23.56422
69.930 22.949329
69.935 22.775528
69.940 22.771692
69.945 22.74925
69.950 22.342304
69.955 22.48238
69.960 22.783823
69.965 23.082043
69.970 22.615488
69.975 22.063503
69.980 22.537584
69.985 22.637508
69.990 22.473387
69.995 22.332993
70.000 21.768345
70.005 21.445646
70.010 21.53491
70.015 20.971418
70.020 21.188135
70.025 21.108603
70.030 21.327076
70.035 21.588169
70.040 21.460178
70.045 21.108292
70.050 21.096628
70.055 21.651625
70.060 22.330315
70.065 22.623758
70.070 23.13335
70.075 23.396852
70.080 23.637205
70.085 23.304455
70.090 22.245903
70.095 21.488918
70.100 20.831732
70.105 20.597767
70.110 21.273291
70.115 21.714481
70.120 22.09791
70.125 22.813692
70.130 23.160461
70.135 23.401508
70.140 23.550436
70.145 23.180733
70.150 22.80336
70.155 22.945396
70.160 22.493721
70.165 22.070425
70.170 21.846672
70.175 21.529486
70.180 21.584475
70.185 21.603365
70.190 21.578848
70.195 21.432962
70.200 21.03021
70.205 20.859592
70.210 20.585238
70.215 20.765265
70.220 20.490715
70.225 20.337263
70.230 20.781841
70.235 21.636793
70.240 21.785648
70.245 21.674667
70.250 21.361986
70.255 21.513498
70.260 21.200989
70.265 20.395153
70.270 20.105963
70.275 20.592848
70.280 20.647984
70.285 20.506433
70.290 21.034826
70.295 21.699116
70.300 21.756874
70.305 21.753721
70.310 21.795088
70.315 22.132681
70.320 21.926796
70.325 21.297001
70.330 21.202702
70.335 21.014996
70.340 20.819048
70.345 20.285883
70.350 19.887627
70.355 19.48666
70.360 19.167669
70.365 18.9909
70.370 19.221226
70.375 18.896305
70.380 19.025877
70.385 18.654074
70.390 19.316643
70.395 19.557236
70.400 19.551474
70.405 19.85046
70.410 19.912552
70.415 20.464287
70.420 20.784807
70.425 19.942358
70.430 19.563486
70.435 19.352896
70.440 18.823324
70.445 18.667355
70.450 18.13051
70.455 18.319153
70.460 18.791454
70.465 19.661711
70.470 19.383692
70.475 19.339533
70.480 19.070183
70.485 19.082529
70.490 19.518389
70.495 19.516291
70.500 19.636915
70.505 20.362112
70.510 21.065699
70.515 21.51564
70.520 21.156469
70.525 20.961941
70.530 20.691872
70.535 20.170038
70.540 19.534689
70.545 19.949722
70.550 19.635944
70.555 19.958853
70.560 20.093382
70.565 20.385513
70.570 20.58523
70.575 20.088366
70.580 19.440458
70.585 20.310045
70.590 20.78051
70.595 20.519751
70.600 20.076643
70.605 19.864851
70.610 19.999666
70.615 20.058598
70.620 19.689041
70.625 19.504169
70.630 19.51008
70.635 19.546186
70.640 19.910883
70.645 19.704908
70.650 19.659582
70.655 19.451151
70.660 19.602797
70.665 20.251928
70.670 20.57251
70.675 20.689955
70.680 21.061705
70.685 20.869711
70.690 21.004257
70.695 20.735209
70.700 19.713734
70.705 19.691423
70.710 19.606419
70.715 20.104559
70.720 20.297836
70.725 20.713491
70.730 21.027872
70.735 21.500883
70.740 21.876638
70.745 21.847021
70.750 21.232531
70.755 21.033951
70.760 20.498348
70.765 20.876553
70.770 21.11986
70.775 20.957539
70.780 20.852716
70.785 20.613411
70.790 20.523199
70.795 19.999655
70.800 19.823254
70.805 19.453848
70.810 18.972263
70.815 19.038197
70.820 19.34206
70.825 19.665173
70.830 19.708607
70.835 19.276875
70.840 19.200777
70.845 19.604496
70.850 20.062759
70.855 20.304762
70.860 19.912682
70.865 20.169449
70.870 20.607733
70.875 20.364025
70.880 20.579842
70.885 20.517897
70.890 20.148268
70.895 20.326809
70.900 20.06181
70.905 20.335691
70.910 20.823479
70.915 20.232384
70.920 19.613768
70.925 19.224651
70.930 19.013441
70.935 18.508085
70.940 18.164467
70.945 17.954956
70.950 17.651175
70.955 17.97769
70.960 18.800121
70.965 18.735209
70.970 18.948704
70.975 18.892452
70.980 18.651396
70.985 18.67024
70.990 18.450823
70.995 17.72094
71.000 18.025139
71.005 17.928453
71.010 18.770123
71.015 19.410345
71.020 19.957514
71.025 20.087337
71.030 19.737558
71.035 19.42687
71.040 19.319914
71.045 18.373968
71.050 18.065157
71.055 18.180784
71.060 18.502542
71.065 18.808153
71.070 18.640919
71.075 18.633774
71.080 18.844391
71.085 18.985144
71.090 18.587332
71.095 18.67869
71.100 19.168539
71.105 19.501936
71.110 20.126816
71.115 20.214939
71.120 20.023415
71.125 20.466017
71.130 21.097612
71.135 20.840199
71.140 21.256069
71.145 20.66481
71.150 20.285748
71.155 20.400843
71.160 19.878248
71.165 19.466589
71.170 19.806675
71.175 19.778347
71.180 20.427082
71.185 20.719412
71.190 20.694881
71.195 20.623001
71.200 20.112328
71.205 19.804285
71.210 19.083641
71.215 18.519424
71.220 18.605177
71.225 18.38702
71.230 18.94376
71.235 19.092205
71.240 19.109777
71.245 19.264889
71.250 19.384781
71.255 19.338604
71.260 19.089981
71.265 18.634876
71.270 18.167259
71.275 18.35813
71.280 18.310802
71.285 17.965534
71.290 17.466267
71.295 17.474089
71.300 18.183289
71.305 18.211639
71.310 18.357409
71.315 18.694963
71.320 19.026363
71.325 19.675034
71.330 19.389254
71.335 19.061123
71.340 18.914217
71.345 18.938868
71.350 18.573271
71.355 18.389446
71.360 17.873053
71.365 18.118578
71.370 18.26071
71.375 18.536734
71.380 18.705326
71.385 19.130276
71.390 19.570402
71.395 19.599499
71.400 19.298475
71.405 19.46954
71.410 19.445555
71.415 18.789146
71.420 19.179996
71.425 19.530716
71.430 19.447781
71.435 19.58124
71.440 19.689674
71.445 20.087379
71.450 20.276518
71.455 19.02692
71.460 18.824467
71.465 19.163731
71.470 19.136497
71.475 18.180264
71.480 18.221296
71.485 18.277969
71.490 18.627476
71.495 18.631058
71.500 18.547178
71.505 18.922533
71.510 19.189964
71.515 19.507469
71.520 19.40538
71.525 19.423344
71.530 19.617563
71.535 19.573797
71.540 18.916374
71.545 18.412407
71.550 17.61821
71.555 17.523323
71.560 17.534325
71.565 17.354301
71.570 17.982733
71.575 18.102762
71.580 18.155636
71.585 18.992033
71.590 19.083649
71.595 19.181576
71.600 18.672483
71.605 18.665201
71.610 19.468098
71.615 18.973967
71.620 18.255953
71.625 17.931835
71.630 17.719137
71.635 18.028606
71.640 18.161428
71.645 17.798954
71.650 18.315384
71.655 18.786011
71.660 18.783392
71.665 19.355877
71.670 19.051317
71.675 18.764025
71.680 18.951094
71.685 19.608488
71.690 19.774225
71.695 19.919464
71.700 19.4221
71.705 19.873081
71.710 20.232611
71.715 19.928747
71.720 20.013042
71.725 20.097673
71.730 20.538937
71.735 20.914835
71.740 20.532606
71.745 20.710541
71.750 20.426622
71.755 19.422749
71.760 18.676077
71.765 18.170227
71.770 17.911076
71.775 18.024851
71.780 18.068386
71.785 17.997421
71.790 18.544722
71.795 19.200848
71.800 18.580549
71.805 18.803322
71.810 18.998205
71.815 19.30888
71.820 19.305687
71.825 19.961226
71.830 19.502831
71.835 19.671499
71.840 19.628029
71.845 19.531752
71.850 19.517862
71.855 18.926826
71.860 18.209814
71.865 18.639799
71.870 19.084064
71.875 19.627386
71.880 19.734291
71.885 19.691322
71.890 20.237762
71.895 20.054129
71.900 19.271358
71.905 19.16329
71.910 18.52323
71.915 18.068005
71.920 17.812166
71.925 17.983709
71.930 18.4067
71.935 18.651291
71.940 18.375017
71.945 18.107016
71.950 18.178118
71.955 18.553822
71.960 18.48423
71.965 18.456861
71.970 18.522324
71.975 18.429312
71.980 18.111609
71.985 18.32556
71.990 18.213726
71.995 17.975336
72.000 18.097561
72.005 18.543139
72.010 19.562901
72.015 20.342638
72.020 19.944523
72.025 20.411924
72.030 20.390654
72.035 19.948826
72.040 19.612013
72.045 18.866148
72.050 18.834009
72.055 19.449474
72.060 19.399841
72.065 20.628214
72.070 20.913355
72.075 21.050898
72.080 20.515184
72.085 20.445307
72.090 20.135496
72.095 19.972998
72.100 19.43586
72.105 19.286198
72.110 19.519188
72.115 19.709425
72.120 19.916878
72.125 19.966026
72.130 19.842072
72.135 19.983849
72.140 20.355696
72.145 20.438862
72.150 20.08271
72.155 19.624525
72.160 19.324152
72.165 19.00769
72.170 18.342533
72.175 17.523087
72.180 17.753504
72.185 17.989777
72.190 18.343414
72.195 18.78017
72.200 18.958841
72.205 19.596117
72.210 20.20047
72.215 19.257143
72.220 19.396975
72.225 19.533924
72.230 19.58041
72.235 19.644552
72.240 19.664806
72.245 20.030756
72.250 21.303402
72.255 21.354006
72.260 20.808622
72.265 20.066019
72.270 19.800718
72.275 19.568907
72.280 19.227011
72.285 18.532001
72.290 18.755011
72.295 19.430025
72.300 19.951254
72.305 19.86492
72.310 19.697725
72.315 20.102455
72.320 20.54883
72.325 20.587526
72.330 20.630699
72.335 20.783712
72.340 20.83856
72.345 20.512415
72.350 19.940483
72.355 19.517323
72.360 19.178654
72.365 18.824461
72.370 18.737074
72.375 18.521603
72.380 18.876957
72.385 18.716145
72.390 18.390533
72.395 17.912146
72.400 17.871624
72.405 17.656527
72.410 17.568069
72.415 17.326563
72.420 16.999779
72.425 17.052919
72.430 17.159863
72.435 16.769859
72.440 17.067629
72.445 17.574242
72.450 17.903534
72.455 18.205135
72.460 18.325119
72.465 18.290857
72.470 18.559505
72.475 18.221962
72.480 17.990107
72.485 18.209953
72.490 17.868624
72.495 18.001713
72.500 18.331161
72.505 18.6639
72.510 19.126568
72.515 19.383068
72.520 19.432581
72.525 19.786493
72.530 19.762131
72.535 19.475094
72.540 19.070433
72.545 18.618486
72.550 18.92219
72.555 19.228634
72.560 19.136675
72.565 19.08786
72.570 19.407475
72.575 19.717394
72.580 19.90715
72.585 19.720358
72.590 19.613371
72.595 19.188919
72.600 19.125813
72.605 18.646675
72.610 18.766199
72.615 18.219923
72.620 18.328018
72.625 18.328074
72.630 18.460817
72.635 18.60327
72.640 18.978416
72.645 18.291344
72.650 17.688288
72.655 17.588242
72.660 17.947226
72.665 18.122206
72.670 17.716192
72.675 17.340218
72.680 17.816036
72.685 18.246977
72.690 18.586884
72.695 18.896715
72.700 19.128273
72.705 19.282312
72.710 19.237276
72.715 19.159054
72.720 18.940344
72.725 18.507492
72.730 17.647491
72.735 17.730261
72.740 17.638744
72.745 17.540726
72.750 17.287779
72.755 17.080557
72.760 17.140459
72.765 18.016731
72.770 18.445608
72.775 18.833887
72.780 18.797667
72.785 18.921221
72.790 19.497526
72.795 19.329597
72.800 19.300474
72.805 18.829739
72.810 18.41247
72.815 18.627401
72.820 18.397491
72.825 17.986641
72.830 17.05126
72.835 16.202103
72.840 16.188942
72.845 15.854891
72.850 16.107904
72.855 15.203346
72.860 15.532751
72.865 15.979322
72.870 16.658016
72.875 16.808851
72.880 17.21896
72.885 17.329172
72.890 17.933592
72.895 17.59277
72.900 17.551065
72.905 17.847744
72.910 18.059435
72.915 18.0487
72.920 17.703516
72.925 18.051857
72.930 17.913265
72.935 17.847685
72.940 17.581018
72.945 18.414036
72.950 17.834333
72.955 17.832275
72.960 17.996422
72.965 18.001507
72.970 17.903728
72.975 17.576963
72.980 16.883915
72.985 17.617817
72.990 18.212812
72.995 17.979023
73.000 18.645697
