!@!!GADDS PLOTSO FILE: Chi integration type
!@!!Title/SampleName: map-d7
!@!!Comment: ?
!@!!User: Bruker Instrument Administrator
!@!!Site: University of Illinois Chicago
!@!!Frame: map-d7_01_000.gfrm
!@!!Wavelengths    1.54184   1.54056   1.54439
!@!!Frame angles: 2Theta: 63.000 Omega: 50.000 Phi: 0.000 Chi: 90.000
!@!!Integration range: 2Theta: 53.000 to 73.000  Gamma: -105.000 to -75.000
!@!!Integration method: bin normalized
!@!N
!@!SS
!@!M
!@!L 0.0 0.0 0.0 0.0
!@!XDegrees
!@!YCounts
53.000 11.484974
53.005 11.052563
53.010 10.681415
53.015 10.596043
53.020 10.3106
53.025 9.954628
53.030 9.901927
53.035 10.154774
53.040 9.809499
53.045 9.524214
53.050 9.427123
53.055 9.49399
53.060 9.87866
53.065 9.551552
53.070 9.809044
53.075 10.292047
53.080 10.712223
53.085 11.082184
53.090 11.042332
53.095 10.920043
53.100 10.711508
53.105 10.54488
53.110 11.115182
53.115 11.652195
53.120 11.75015
53.125 11.583222
53.130 11.470111
53.135 11.821406
53.140 12.00401
53.145 11.417238
53.150 11.348156
53.155 11.405924
53.160 11.283511
53.165 11.177418
53.170 10.58285
53.175 9.97226
53.180 9.527773
53.185 8.927912
53.190 9.207712
53.195 9.078008
53.200 8.954771
53.205 9.253786
53.210 9.123289
53.215 8.860872
53.220 9.119112
53.225 8.718383
53.230 8.670735
53.235 8.853086
53.240 8.89198
53.245 9.259939
53.250 9.62723
53.255 9.717856
53.260 10.524979
53.265 10.631376
53.270 10.617121
53.275 10.510116
53.280 10.627378
53.285 10.955041
53.290 10.602036
53.295 10.161798
53.300 9.859879
53.305 9.579293
53.310 10.052129
53.315 9.858899
53.320 9.584354
53.325 9.74961
53.330 10.041803
53.335 10.5626
53.340 10.662222
53.345 10.458689
53.350 10.600344
53.355 10.55273
53.360 10.212428
53.365 10.188307
53.370 10.401465
53.375 10.459595
53.380 10.012914
53.385 10.040919
53.390 9.858824
53.395 9.882732
53.400 9.512667
53.405 9.327004
53.410 9.46055
53.415 9.583934
53.420 9.450944
53.425 9.979756
53.430 9.912242
53.435 9.569127
53.440 9.477604
53.445 9.209485
53.450 9.377098
53.455 9.40061
53.460 9.14968
53.465 9.513193
53.470 10.365533
53.475 10.645362
53.480 11.065424
53.485 11.079853
53.490 11.148882
53.495 10.908051
53.500 10.862448
53.505 10.589653
53.510 10.267735
53.515 9.745291
53.520 9.790335
53.525 9.718988
53.530 9.879297
53.535 9.713719
53.540 9.909133
53.545 9.864214
53.550 9.78932
53.555 9.792508
53.560 10.13627
53.565 10.006778
53.570 9.527084
53.575 9.722622
53.580 10.125524
53.585 10.039124
53.590 10.516443
53.595 10.727581
53.600 11.16687
53.605 11.496923
53.610 11.062589
53.615 11.256007
53.620 11.316279
53.625 10.35025
53.630 10.055937
53.635 10.50655
53.640 11.099201
53.645 11.461224
53.650 11.307775
53.655 11.607976
53.660 12.453347
53.665 12.17485
53.670 11.462633
53.675 10.845567
53.680 11.005384
53.685 11.311485
53.690 11.367054
53.695 10.72223
53.700 10.730487
53.705 11.073543
53.710 11.57269
53.715 11.209929
53.720 10.949463
53.725 10.795989
53.730 10.899943
53.735 10.892339
53.740 10.887371
53.745 10.538333
53.750 10.925137
53.755 11.397408
53.760 11.85178
53.765 12.404291
53.770 12.539285
53.775 12.239148
53.780 12.186349
53.785 12.07346
53.790 11.848166
53.795 11.940413
53.800 12.317314
53.805 12.516759
53.810 12.735928
53.815 12.781359
53.820 12.345933
53.825 12.036929
53.830 11.287214
53.835 10.727469
53.840 10.363124
53.845 10.364844
53.850 10.356229
53.855 10.831603
53.860 10.655654
53.865 11.022861
53.870 11.389745
53.875 11.4203
53.880 11.309907
53.885 11.366991
53.890 11.075276
53.895 10.8446
53.900 10.773121
53.905 10.881815
53.910 11.036159
53.915 11.257205
53.920 11.558295
53.925 12.116214
53.930 12.889709
53.935 13.083765
53.940 12.639524
53.945 12.512564
53.950 12.004919
53.955 11.660767
53.960 11.782913
53.965 11.851029
53.970 11.383537
53.975 11.207937
53.980 11.270992
53.985 11.823753
53.990 11.844478
53.995 11.648294
54.000 11.298189
54.005 11.431061
54.010 11.78775
54.015 11.906862
54.020 11.535937
54.025 11.392399
54.030 11.40733
54.035 11.814893
54.040 12.272881
54.045 12.167167
54.050 12.254167
54.055 12.186002
54.060 12.082353
54.065 12.186646
54.070 12.043077
54.075 11.962052
54.080 12.35331
54.085 12.436071
54.090 12.495327
54.095 12.343192
54.100 12.324298
54.105 12.168867
54.110 12.045299
54.115 12.125096
54.120 12.043878
54.125 12.22446
54.130 11.965556
54.135 12.010866
54.140 12.549152
54.145 12.835221
54.150 12.572027
54.155 12.96346
54.160 12.897071
54.165 12.773055
54.170 12.078735
54.175 11.816817
54.180 11.438177
54.185 11.395892
54.190 11.170065
54.195 11.018413
54.200 11.113129
54.205 11.357081
54.210 11.331081
54.215 11.722159
54.220 12.21738
54.225 12.461947
54.230 12.73712
54.235 13.324215
54.240 12.950865
54.245 12.822326
54.250 11.982153
54.255 11.181784
54.260 10.897084
54.265 10.548388
54.270 10.89896
54.275 11.110927
54.280 10.762847
54.285 10.718099
54.290 11.187582
54.295 11.726619
54.300 11.854535
54.305 11.379403
54.310 11.542487
54.315 11.671474
54.320 11.742591
54.325 11.650686
54.330 11.059228
54.335 10.998158
54.340 10.989902
54.345 11.134048
54.350 11.292106
54.355 11.480973
54.360 11.807454
54.365 12.193096
54.370 12.263018
54.375 12.218509
54.380 12.299389
54.385 12.101018
54.390 11.661979
54.395 11.422544
54.400 11.44272
54.405 11.226049
54.410 10.876238
54.415 10.902873
54.420 11.366247
54.425 11.454325
54.430 10.801019
54.435 10.601614
54.440 11.345957
54.445 11.462668
54.450 10.965182
54.455 10.656895
54.460 10.991394
54.465 11.354818
54.470 11.461206
54.475 11.435333
54.480 11.37594
54.485 11.306551
54.490 11.372089
54.495 11.698607
54.500 11.347601
54.505 10.487432
54.510 10.695929
54.515 11.074888
54.520 11.420047
54.525 11.145611
54.530 10.67359
54.535 10.868696
54.540 10.985675
54.545 10.421193
54.550 10.397544
54.555 10.190999
54.560 10.365704
54.565 10.768782
54.570 11.241528
54.575 11.712939
54.580 11.933604
54.585 11.620162
54.590 11.467968
54.595 11.522542
54.600 11.445154
54.605 10.97823
54.610 10.492193
54.615 10.597767
54.620 10.972425
54.625 11.209681
54.630 11.451222
54.635 11.704771
54.640 12.133769
54.645 12.232412
54.650 12.706886
54.655 13.013904
54.660 13.088295
54.665 12.703382
54.670 12.762761
54.675 13.134686
54.680 13.130072
54.685 12.602158
54.690 12.616289
54.695 12.27971
54.700 12.363327
54.705 11.681518
54.710 11.381353
54.715 11.897965
54.720 11.423462
54.725 11.148985
54.730 11.320835
54.735 11.353231
54.740 12.021341
54.745 12.59992
54.750 12.707847
54.755 13.665252
54.760 14.563703
54.765 15.066907
54.770 15.110819
54.775 14.430636
54.780 13.493803
54.785 12.718995
54.790 12.025346
54.795 11.939042
54.800 12.142485
54.805 12.313055
54.810 12.354491
54.815 12.508403
54.820 12.383723
54.825 12.128075
54.830 11.632231
54.835 11.519605
54.840 11.503724
54.845 11.787667
54.850 12.657549
54.855 13.545576
54.860 13.683866
54.865 13.726369
54.870 13.789158
54.875 13.726535
54.880 13.597537
54.885 13.243819
54.890 12.920022
54.895 13.220616
54.900 13.244871
54.905 13.030905
54.910 13.100809
54.915 12.887733
54.920 12.751478
54.925 12.817034
54.930 12.458787
54.935 12.335094
54.940 12.883279
54.945 13.244795
54.950 13.693741
54.955 13.692065
54.960 13.769977
54.965 13.347938
54.970 12.837198
54.975 12.237991
54.980 11.910541
54.985 11.705857
54.990 11.912941
54.995 12.071517
55.000 12.54495
55.005 12.803358
55.010 12.884383
55.015 13.621489
55.020 13.970812
55.025 13.620733
55.030 13.614374
55.035 13.787216
55.040 13.997168
55.045 14.019631
55.050 12.921357
55.055 12.768983
55.060 13.407478
55.065 12.980503
55.070 13.076899
55.075 13.095301
55.080 13.016056
55.085 13.06236
55.090 12.404102
55.095 11.877557
55.100 12.107116
55.105 11.985445
55.110 11.837108
55.115 11.77984
55.120 11.955266
55.125 12.272632
55.130 12.048289
55.135 12.009357
55.140 11.994726
55.145 12.278202
55.150 12.459354
55.155 12.028595
55.160 11.966341
55.165 12.098042
55.170 11.79824
55.175 11.426648
55.180 10.775934
55.185 10.808206
55.190 11.863195
55.195 11.863086
55.200 12.093626
55.205 12.923238
55.210 13.385025
55.215 13.739715
55.220 13.859751
55.225 13.542035
55.230 13.912627
55.235 13.966452
55.240 13.51897
55.245 13.84917
55.250 14.007831
55.255 14.449383
55.260 14.766792
55.265 14.993938
55.270 15.405011
55.275 15.688155
55.280 15.494426
55.285 14.952385
55.290 13.943129
55.295 13.502497
55.300 13.090691
55.305 12.34997
55.310 11.960921
55.315 11.836035
55.320 11.442133
55.325 11.520582
55.330 11.427267
55.335 11.263929
55.340 11.300389
55.345 11.648851
55.350 11.707745
55.355 12.691372
55.360 13.180165
55.365 12.749637
55.370 12.674347
55.375 12.254751
55.380 12.069799
55.385 11.95741
55.390 11.978074
55.395 12.193981
55.400 12.601034
55.405 12.935043
55.410 13.153376
55.415 13.407579
55.420 13.446393
55.425 12.668172
55.430 13.113437
55.435 13.440007
55.440 13.5874
55.445 13.667567
55.450 13.862473
55.455 14.005223
55.460 13.741935
55.465 13.251211
55.470 13.825799
55.475 13.378648
55.480 13.34611
55.485 13.61864
55.490 14.020163
55.495 13.937531
55.500 13.767725
55.505 13.285277
55.510 13.827818
55.515 13.740396
55.520 13.015364
55.525 13.000268
55.530 13.20216
55.535 12.77824
55.540 12.530812
55.545 11.948528
55.550 11.640212
55.555 11.980558
55.560 11.783324
55.565 11.842986
55.570 12.115407
55.575 12.025953
55.580 12.438316
55.585 12.737915
55.590 12.358715
55.595 12.581105
55.600 12.523964
55.605 12.765506
55.610 13.2328
55.615 13.461544
55.620 13.428628
55.625 13.479207
55.630 14.070593
55.635 14.014706
55.640 14.037695
55.645 13.928213
55.650 14.223722
55.655 14.478877
55.660 14.352628
55.665 14.266992
55.670 14.92082
55.675 15.14687
55.680 14.766652
55.685 14.474484
55.690 14.474044
55.695 14.35964
55.700 13.656286
55.705 13.175365
55.710 13.199608
55.715 13.524873
55.720 13.434834
55.725 13.797766
55.730 14.23499
55.735 13.993113
55.740 13.593053
55.745 12.896557
55.750 12.203604
55.755 11.824877
55.760 11.038884
55.765 11.125062
55.770 11.711811
55.775 12.132203
55.780 12.9223
55.785 12.986393
55.790 13.239765
55.795 13.273017
55.800 12.835998
55.805 12.592229
55.810 12.144835
55.815 12.515701
55.820 13.414077
55.825 13.337344
55.830 13.682442
55.835 14.34208
55.840 14.535607
55.845 14.955497
55.850 14.468049
55.855 14.492649
55.860 14.707912
55.865 14.322525
55.870 13.790994
55.875 13.735415
55.880 13.300204
55.885 13.582262
55.890 13.012599
55.895 12.917967
55.900 12.849282
55.905 12.706617
55.910 12.839842
55.915 12.871877
55.920 12.552307
55.925 12.950058
55.930 13.29224
55.935 13.390926
55.940 13.560042
55.945 13.597512
55.950 13.408222
55.955 13.323818
55.960 13.488701
55.965 13.421987
55.970 13.492645
55.975 13.444206
55.980 13.294635
55.985 13.313206
55.990 12.808159
55.995 12.480172
56.000 12.119783
56.005 12.134233
56.010 12.524347
56.015 12.638735
56.020 12.946804
56.025 14.10354
56.030 14.115814
56.035 14.033289
56.040 13.660345
56.045 12.951429
56.050 12.670024
56.055 12.364381
56.060 11.702659
56.065 11.459036
56.070 11.903289
56.075 12.049012
56.080 12.116721
56.085 11.820124
56.090 11.889092
56.095 12.141828
56.100 12.367658
56.105 12.854073
56.110 12.945462
56.115 12.879889
56.120 13.063855
56.125 12.815393
56.130 12.792925
56.135 12.468984
56.140 11.966393
56.145 12.201041
56.150 12.204967
56.155 12.227346
56.160 11.931815
56.165 12.252743
56.170 13.431129
56.175 13.440364
56.180 12.988729
56.185 13.75642
56.190 13.953819
56.195 14.933311
56.200 15.214815
56.205 15.043102
56.210 15.450368
56.215 16.452875
56.220 16.01259
56.225 16.380667
56.230 16.362394
56.235 15.999929
56.240 15.8237
56.245 15.637462
56.250 14.940465
56.255 14.61885
56.260 13.620969
56.265 12.921532
56.270 13.125184
56.275 13.219846
56.280 13.009664
56.285 13.206753
56.290 13.903991
56.295 14.528852
56.300 14.399158
56.305 13.959276
56.310 13.530268
56.315 13.697379
56.320 13.848861
56.325 13.735085
56.330 13.752151
56.335 14.159863
56.340 13.61917
56.345 13.658342
56.350 13.422201
56.355 13.209874
56.360 12.963844
56.365 12.588183
56.370 12.757005
56.375 13.443116
56.380 13.806557
56.385 13.878178
56.390 13.63956
56.395 13.67384
56.400 13.983524
56.405 13.576322
56.410 13.659276
56.415 13.712653
56.420 14.21903
56.425 14.453135
56.430 14.84117
56.435 14.85189
56.440 15.102913
56.445 15.201822
56.450 15.225757
56.455 14.766239
56.460 15.049899
56.465 14.633665
56.470 14.672403
56.475 14.475336
56.480 14.253628
56.485 14.09835
56.490 14.94324
56.495 14.901205
56.500 15.088563
56.505 14.923741
56.510 14.49836
56.515 14.363587
56.520 14.81992
56.525 14.305519
56.530 13.915018
56.535 13.774477
56.540 13.871708
56.545 13.685066
56.550 13.808903
56.555 13.450993
56.560 13.17969
56.565 13.268349
56.570 13.310667
56.575 13.39537
56.580 13.686647
56.585 13.482316
56.590 13.581214
56.595 13.554536
56.600 13.955973
56.605 13.799748
56.610 13.957509
56.615 14.119206
56.620 13.834589
56.625 13.446319
56.630 13.165171
56.635 12.491953
56.640 12.433676
56.645 12.42914
56.650 12.412528
56.655 12.445432
56.660 13.089568
56.665 13.956044
56.670 14.25817
56.675 14.50038
56.680 14.729651
56.685 14.537313
56.690 14.515954
56.695 14.07678
56.700 14.034997
56.705 14.637931
56.710 14.870516
56.715 14.67673
56.720 15.562294
56.725 16.032413
56.730 16.507021
56.735 16.892851
56.740 16.638363
56.745 16.599033
56.750 16.589911
56.755 16.058197
56.760 16.073486
56.765 15.341947
56.770 14.757903
56.775 14.738738
56.780 15.185812
56.785 15.13798
56.790 14.367136
56.795 14.216279
56.800 14.775032
56.805 14.787204
56.810 14.860207
56.815 14.870995
56.820 15.201528
56.825 15.428219
56.830 14.988285
56.835 14.954268
56.840 15.156074
56.845 14.921545
56.850 14.33195
56.855 14.329449
56.860 14.460213
56.865 14.528122
56.870 14.444462
56.875 13.826121
56.880 13.577205
56.885 13.797567
56.890 13.683882
56.895 14.003889
56.900 14.127505
56.905 14.32951
56.910 14.404693
56.915 14.196354
56.920 14.049113
56.925 13.995926
56.930 13.536507
56.935 12.929913
56.940 12.344215
56.945 12.507027
56.950 12.96839
56.955 13.449265
56.960 13.788867
56.965 14.179702
56.970 14.599024
56.975 15.299293
56.980 15.406646
56.985 14.870037
56.990 14.615515
56.995 14.801478
57.000 14.758219
57.005 14.840212
57.010 14.263413
57.015 14.484953
57.020 14.627234
57.025 15.126386
57.030 14.903091
57.035 15.050852
57.040 14.916204
57.045 14.832658
57.050 14.805346
57.055 14.245666
57.060 14.228493
57.065 14.251134
57.070 14.632397
57.075 14.802497
57.080 15.557762
57.085 15.873795
57.090 16.387691
57.095 15.528683
57.100 15.087532
57.105 15.023363
57.110 14.665462
57.115 14.105818
57.120 13.904829
57.125 13.458398
57.130 13.65082
57.135 13.871794
57.140 13.568487
57.145 13.845375
57.150 14.114675
57.155 14.419897
57.160 14.747969
57.165 15.059558
57.170 15.186069
57.175 15.273871
57.180 14.905437
57.185 14.241172
57.190 13.862542
57.195 13.970098
57.200 13.996362
57.205 14.088878
57.210 14.527539
57.215 14.837994
57.220 15.133614
57.225 15.05225
57.230 14.548016
57.235 14.352555
57.240 14.185312
57.245 14.017694
57.250 14.595722
57.255 15.161737
57.260 15.787513
57.265 16.108099
57.270 16.095697
57.275 15.955816
57.280 15.593956
57.285 15.506245
57.290 14.749759
57.295 14.432295
57.300 15.148301
57.305 15.380989
57.310 15.855662
57.315 16.921854
57.320 17.20326
57.325 17.841505
57.330 17.742634
57.335 17.157051
57.340 16.9181
57.345 16.689421
57.350 15.504986
57.355 14.643946
57.360 14.497682
57.365 14.687964
57.370 14.694343
57.375 14.854073
57.380 15.062075
57.385 15.564495
57.390 15.885274
57.395 15.78091
57.400 15.5907
57.405 15.644237
57.410 15.610924
57.415 15.271979
57.420 15.020281
57.425 15.011987
57.430 14.451066
57.435 14.590645
57.440 15.056196
57.445 15.156276
57.450 15.473951
57.455 15.349643
57.460 15.041484
57.465 15.322048
57.470 14.864682
57.475 14.52895
57.480 14.421676
57.485 14.274691
57.490 14.6097
57.495 14.818504
57.500 14.56452
57.505 13.970082
57.510 13.718191
57.515 13.841018
57.520 13.82481
57.525 13.79195
57.530 13.726135
57.535 14.283473
57.540 15.129916
57.545 15.41223
57.550 15.406581
57.555 15.475261
57.560 15.698566
57.565 15.844127
57.570 16.109838
57.575 16.104237
57.580 15.943962
57.585 15.810954
57.590 15.821633
57.595 16.030416
57.600 16.341408
57.605 16.386049
57.610 16.424492
57.615 16.695486
57.620 16.921728
57.625 17.152586
57.630 16.985912
57.635 17.141277
57.640 16.871195
57.645 16.275209
57.650 15.678098
57.655 15.408455
57.660 15.24186
57.665 14.937399
57.670 14.478085
57.675 14.779255
57.680 15.253186
57.685 15.768932
57.690 16.088943
57.695 15.784124
57.700 15.443555
57.705 15.207586
57.710 14.50647
57.715 14.434308
57.720 14.086563
57.725 13.933573
57.730 14.385835
57.735 14.556279
57.740 14.355009
57.745 14.236334
57.750 14.135109
57.755 14.148396
57.760 13.827864
57.765 13.312199
57.770 13.580181
57.775 14.034005
57.780 14.217785
57.785 14.466514
57.790 14.421749
57.795 14.332743
57.800 14.225805
57.805 14.091644
57.810 14.566466
57.815 14.764817
57.820 14.648708
57.825 14.319657
57.830 14.456118
57.835 14.544866
57.840 14.078247
57.845 13.703825
57.850 13.889018
57.855 13.963931
57.860 13.994636
57.865 13.803176
57.870 14.147992
57.875 14.539708
57.880 14.297097
57.885 14.276206
57.890 13.926246
57.895 14.479696
57.900 14.665705
57.905 14.398931
57.910 14.34371
57.915 14.720278
57.920 15.222925
57.925 15.77187
57.930 15.680138
57.935 16.318977
57.940 16.896801
57.945 17.179798
57.950 16.594671
57.955 16.106737
57.960 15.916908
57.965 15.550508
57.970 15.763085
57.975 15.77707
57.980 15.407948
57.985 15.55083
57.990 15.473165
57.995 16.076378
58.000 16.407143
58.005 15.733088
58.010 15.57031
58.015 15.899735
58.020 15.838212
58.025 15.869421
58.030 15.86672
58.035 16.539669
58.040 16.72443
58.045 17.196125
58.050 17.648119
58.055 18.079605
58.060 18.348747
58.065 17.725388
58.070 17.294758
58.075 17.785704
58.080 17.649845
58.085 17.411386
58.090 17.27943
58.095 16.629044
58.100 16.757715
58.105 16.457775
58.110 16.315943
58.115 16.307451
58.120 16.440214
58.125 16.082096
58.130 16.205894
58.135 16.264765
58.140 16.64381
58.145 16.15489
58.150 15.528435
58.155 15.157875
58.160 15.261018
58.165 15.39653
58.170 15.628674
58.175 15.291875
58.180 14.845587
58.185 15.207541
58.190 15.92021
58.195 16.839149
58.200 17.152493
58.205 16.985092
58.210 16.96385
58.215 16.906162
58.220 16.64637
58.225 16.106901
58.230 15.839286
58.235 15.659912
58.240 15.633574
58.245 15.39975
58.250 15.417102
58.255 15.494505
58.260 15.161412
58.265 14.993546
58.270 14.820315
58.275 14.55666
58.280 14.865712
58.285 14.90653
58.290 14.618009
58.295 15.166816
58.300 15.457631
58.305 15.783462
58.310 16.100016
58.315 16.030226
58.320 16.33231
58.325 16.689922
58.330 16.582861
58.335 16.254223
58.340 15.745416
58.345 15.617887
58.350 15.996822
58.355 16.153252
58.360 16.366346
58.365 16.044863
58.370 15.569484
58.375 15.586579
58.380 15.314966
58.385 15.082598
58.390 15.57806
58.395 15.576562
58.400 15.232968
58.405 16.036995
58.410 16.250853
58.415 16.324472
58.420 16.004786
58.425 15.898116
58.430 15.835982
58.435 16.668325
58.440 17.091196
58.445 17.041592
58.450 17.136454
58.455 16.851133
58.460 16.873495
58.465 16.989403
58.470 16.537888
58.475 16.235497
58.480 16.237013
58.485 16.301521
58.490 16.493809
58.495 16.582167
58.500 16.919655
58.505 16.99309
58.510 17.033184
58.515 17.163311
58.520 17.419043
58.525 17.471317
58.530 17.068247
58.535 16.853216
58.540 16.456701
58.545 15.952906
58.550 16.272352
58.555 16.063797
58.560 16.002026
58.565 15.979523
58.570 16.62678
58.575 17.397457
58.580 18.12969
58.585 17.972351
58.590 18.233431
58.595 17.659481
58.600 17.061405
58.605 16.141228
58.610 15.274295
58.615 14.818175
58.620 15.066069
58.625 15.515704
58.630 16.655878
58.635 17.077272
58.640 17.289425
58.645 17.414343
58.650 17.184145
58.655 16.95203
58.660 16.644276
58.665 16.125059
58.670 16.255283
58.675 16.513121
58.680 16.383545
58.685 15.998242
58.690 16.279343
58.695 16.647926
58.700 16.923626
58.705 16.339832
58.710 15.941052
58.715 16.725012
58.720 16.863148
58.725 16.414768
58.730 15.717853
58.735 15.375665
58.740 15.923457
58.745 16.130533
58.750 15.939913
58.755 16.139288
58.760 16.189468
58.765 16.557875
58.770 16.837656
58.775 16.538593
58.780 16.595419
58.785 16.882048
58.790 16.880661
58.795 17.126436
58.800 17.450399
58.805 17.59174
58.810 17.544579
58.815 17.113276
58.820 17.081219
58.825 17.665634
58.830 17.700308
58.835 17.487995
58.840 17.215689
58.845 16.980673
58.850 17.107958
58.855 16.878609
58.860 15.93435
58.865 15.742275
58.870 15.699909
58.875 15.603843
58.880 15.767734
58.885 15.705028
58.890 15.670047
58.895 16.347492
58.900 16.540615
58.905 16.321667
58.910 16.294386
58.915 16.13199
58.920 16.053362
58.925 16.205299
58.930 15.681276
58.935 15.889243
58.940 15.83042
58.945 15.908609
58.950 15.986204
58.955 15.796273
58.960 16.2735
58.965 16.673204
58.970 16.547218
58.975 17.537054
58.980 17.929054
58.985 17.790419
58.990 17.648243
58.995 17.131432
59.000 16.709314
59.005 16.4575
59.010 16.201546
59.015 16.117836
59.020 16.520821
59.025 16.987909
59.030 16.948092
59.035 17.14142
59.040 17.637314
59.045 17.862123
59.050 17.731501
59.055 18.198408
59.060 18.128223
59.065 18.187706
59.070 18.412634
59.075 18.19206
59.080 18.172112
59.085 18.389296
59.090 17.738035
59.095 17.545738
59.100 17.157766
59.105 16.693476
59.110 16.903477
59.115 16.80253
59.120 16.643215
59.125 16.330667
59.130 16.397381
59.135 16.93329
59.140 16.955498
59.145 16.406282
59.150 15.66465
59.155 15.42015
59.160 15.738193
59.165 15.540191
59.170 15.259219
59.175 15.447687
59.180 16.158148
59.185 16.833191
59.190 17.043238
59.195 17.524008
59.200 18.099636
59.205 18.055529
59.210 17.994627
59.215 17.720009
59.220 17.774069
59.225 17.820522
59.230 17.872536
59.235 18.031673
59.240 18.373465
59.245 18.287882
59.250 17.939692
59.255 17.532345
59.260 16.954489
59.265 16.316877
59.270 16.308794
59.275 16.522587
59.280 16.745239
59.285 16.975994
59.290 17.033333
59.295 17.490252
59.300 17.79117
59.305 17.806826
59.310 17.275974
59.315 17.109423
59.320 17.920609
59.325 18.601614
59.330 18.162712
59.335 17.991894
59.340 17.583344
59.345 17.736252
59.350 17.306776
59.355 16.177223
59.360 15.942651
59.365 16.346399
59.370 16.828388
59.375 16.938372
59.380 16.428919
59.385 16.942663
59.390 17.568624
59.395 17.747873
59.400 17.736725
59.405 16.901871
59.410 17.035664
59.415 17.55311
59.420 17.219465
59.425 16.999203
59.430 16.975275
59.435 16.908422
59.440 18.253233
59.445 18.441019
59.450 18.172857
59.455 18.088575
59.460 18.291372
59.465 18.37355
59.470 18.313772
59.475 17.821596
59.480 18.328646
59.485 18.77297
59.490 18.886467
59.495 18.539091
59.500 18.68075
59.505 18.432755
59.510 17.731937
59.515 17.323412
59.520 17.271557
59.525 17.623608
59.530 17.796041
59.535 17.751724
59.540 17.907339
59.545 18.347975
59.550 18.529011
59.555 18.562351
59.560 18.290333
59.565 18.370733
59.570 18.662497
59.575 18.518345
59.580 18.190414
59.585 18.411551
59.590 18.504622
59.595 18.89477
59.600 19.35006
59.605 18.933479
59.610 19.356882
59.615 20.07793
59.620 20.028412
59.625 20.027599
59.630 20.260889
59.635 20.414063
59.640 20.634109
59.645 20.482265
59.650 19.939686
59.655 19.543501
59.660 19.619492
59.665 19.223955
59.670 18.955406
59.675 19.039787
59.680 18.779261
59.685 18.671072
59.690 18.591511
59.695 18.470655
59.700 18.229252
59.705 18.326881
59.710 18.370352
59.715 18.842903
59.720 19.230806
59.725 19.730459
59.730 20.31567
59.735 20.361897
59.740 20.04916
59.745 20.354418
59.750 20.666613
59.755 20.363932
59.760 20.606812
59.765 20.429533
59.770 20.899395
59.775 21.304131
59.780 21.241436
59.785 21.28166
59.790 21.276911
59.795 20.781761
59.800 20.460997
59.805 19.853642
59.810 19.220444
59.815 19.173153
59.820 19.451128
59.825 19.729963
59.830 19.961552
59.835 19.975956
59.840 20.302971
59.845 20.869785
59.850 20.917891
59.855 20.872173
59.860 20.118158
59.865 19.878599
59.870 20.053381
59.875 20.737728
59.880 21.058939
59.885 20.847342
59.890 20.781631
59.895 21.818848
59.900 22.368864
59.905 22.576019
59.910 21.742062
59.915 21.580143
59.920 21.661633
59.925 21.446445
59.930 20.896576
59.935 20.63619
59.940 20.194887
59.945 19.92905
59.950 19.796904
59.955 19.826502
59.960 20.16231
59.965 20.147621
59.970 19.932058
59.975 20.064142
59.980 20.505772
59.985 20.737642
59.990 21.151518
59.995 21.214546
60.000 21.234087
60.005 21.850483
60.010 22.060099
60.015 21.793804
60.020 21.433985
60.025 20.683065
60.030 20.707438
60.035 20.797758
60.040 20.094858
60.045 19.801794
60.050 20.154924
60.055 20.330404
60.060 20.692326
60.065 20.645672
60.070 21.174568
60.075 22.418449
60.080 22.524363
60.085 22.370487
60.090 22.627811
60.095 22.780046
60.100 23.013416
60.105 22.895657
60.110 21.954168
60.115 21.855938
60.120 22.497383
60.125 22.598835
60.130 22.345936
60.135 22.174007
60.140 22.519579
60.145 22.780313
60.150 22.82007
60.155 22.830811
60.160 22.842384
60.165 22.911507
60.170 22.887976
60.175 23.037605
60.180 23.504354
60.185 23.891146
60.190 23.786274
60.195 23.746035
60.200 23.934277
60.205 24.077967
60.210 23.715822
60.215 23.134666
60.220 22.956287
60.225 22.933619
60.230 22.911568
60.235 22.880707
60.240 22.863516
60.245 23.203341
60.250 23.433458
60.255 22.675833
60.260 21.90159
60.265 21.965731
60.270 22.395885
60.275 22.236996
60.280 21.833897
60.285 21.727997
60.290 22.270496
60.295 22.477251
60.300 22.199373
60.305 22.269335
60.310 22.651297
60.315 22.967936
60.320 23.055012
60.325 23.615519
60.330 24.210812
60.335 24.272936
60.340 23.966925
60.345 23.73114
60.350 24.261576
60.355 24.532244
60.360 24.383183
60.365 24.391577
60.370 23.92906
60.375 23.622772
60.380 23.490187
60.385 23.293575
60.390 23.49383
60.395 24.286646
60.400 24.062109
60.405 24.660925
60.410 24.669662
60.415 24.101547
60.420 23.891485
60.425 23.457823
60.430 22.616741
60.435 22.064539
60.440 21.603758
60.445 21.618052
60.450 22.000748
60.455 21.724102
60.460 21.84026
60.465 21.66267
60.470 21.79067
60.475 22.088104
60.480 22.17358
60.485 22.099865
60.490 22.113979
60.495 22.352976
60.500 22.921503
60.505 23.263941
60.510 23.377056
60.515 23.234957
60.520 22.656385
60.525 22.234528
60.530 22.043556
60.535 21.81638
60.540 21.146299
60.545 20.645626
60.550 20.496155
60.555 20.96566
60.560 21.070305
60.565 20.775652
60.570 20.384251
60.575 20.870359
60.580 21.190027
60.585 21.187653
60.590 21.101046
60.595 21.104441
60.600 20.869631
60.605 21.40188
60.610 21.19301
60.615 20.799704
60.620 20.917133
60.625 20.702593
60.630 20.54628
60.635 20.635784
60.640 20.226013
60.645 20.390041
60.650 20.424047
60.655 19.901127
60.660 20.02354
60.665 20.51622
60.670 20.116333
60.675 19.766336
60.680 19.288303
60.685 19.621891
60.690 20.26572
60.695 20.141665
60.700 20.189714
60.705 20.861271
60.710 21.008327
60.715 21.07486
60.720 20.670504
60.725 20.860916
60.730 20.886744
60.735 20.676193
60.740 20.562504
60.745 20.702209
60.750 21.14819
60.755 21.611582
60.760 20.894161
60.765 20.375439
60.770 20.141794
60.775 20.06883
60.780 19.977831
60.785 19.559443
60.790 18.713274
60.795 19.071577
60.800 19.229567
60.805 19.144474
60.810 18.941313
60.815 18.932631
60.820 19.034309
60.825 19.106758
60.830 18.798643
60.835 18.85713
60.840 18.721237
60.845 18.627748
60.850 18.138092
60.855 17.675131
60.860 17.685513
60.865 17.90736
60.870 17.92112
60.875 17.743927
60.880 17.330107
60.885 17.183393
60.890 17.441849
60.895 17.73955
60.900 17.286873
60.905 17.026075
60.910 17.440512
60.915 18.129488
60.920 18.417204
60.925 18.269045
60.930 18.735537
60.935 19.978203
60.940 20.538532
60.945 20.477015
60.950 20.384708
60.955 20.77162
60.960 21.434662
60.965 21.012102
60.970 20.290968
60.975 19.861
60.980 20.060093
60.985 20.476404
60.990 20.00115
60.995 18.977036
61.000 18.42667
61.005 18.361473
61.010 17.909321
61.015 17.722467
61.020 17.042095
61.025 17.035908
61.030 17.263763
61.035 17.27548
61.040 16.927773
61.045 17.131512
61.050 17.000505
61.055 16.74711
61.060 17.17436
61.065 17.727812
61.070 17.957668
61.075 17.806467
61.080 17.833048
61.085 17.927834
61.090 17.856377
61.095 17.042093
61.100 15.923361
61.105 16.04995
61.110 16.532888
61.115 16.580635
61.120 16.518148
61.125 16.784719
61.130 17.501734
61.135 18.276245
61.140 18.213379
61.145 17.685802
61.150 17.260914
61.155 17.6045
61.160 17.994761
61.165 17.557806
61.170 17.234821
61.175 17.469151
61.180 17.877346
61.185 18.400839
61.190 18.521042
61.195 18.548611
61.200 19.041597
61.205 19.316221
61.210 19.278091
61.215 19.096468
61.220 18.452639
61.225 19.020367
61.230 19.185448
61.235 19.128891
61.240 18.711432
61.245 18.583477
61.250 19.148987
61.255 19.310371
61.260 18.63711
61.265 18.865503
61.270 18.786348
61.275 18.96579
61.280 18.677298
61.285 18.390915
61.290 18.319836
61.295 17.924133
61.300 17.550611
61.305 17.579422
61.310 17.78816
61.315 18.119225
61.320 18.000399
61.325 18.507624
61.330 18.736635
61.335 18.337114
61.340 17.987503
61.345 17.98888
61.350 17.550934
61.355 17.869606
61.360 17.854431
61.365 17.832222
61.370 18.311596
61.375 18.178259
61.380 17.562706
61.385 17.913986
61.390 17.603079
61.395 17.237867
61.400 17.07235
61.405 17.184708
61.410 17.790989
61.415 17.582144
61.420 17.558254
61.425 17.320665
61.430 16.998537
61.435 16.924923
61.440 16.277193
61.445 16.311609
61.450 16.81978
61.455 16.507025
61.460 16.710577
61.465 16.79302
61.470 16.452429
61.475 17.154232
61.480 17.260166
61.485 17.505981
61.490 18.004639
61.495 18.057844
61.500 18.309063
61.505 18.633236
61.510 18.423607
61.515 18.619871
61.520 19.021019
61.525 18.902401
61.530 18.532602
61.535 18.511114
61.540 18.746727
61.545 18.538033
61.550 18.865791
61.555 19.087713
61.560 19.134048
61.565 19.783421
61.570 20.324141
61.575 20.38666
61.580 20.65683
61.585 19.690113
61.590 19.084497
61.595 18.925508
61.600 18.256958
61.605 17.716591
61.610 17.786005
61.615 18.029613
61.620 18.056244
61.625 17.737995
61.630 18.155144
61.635 18.236801
61.640 18.012953
61.645 17.543533
61.650 16.911158
61.655 17.625961
61.660 18.063911
61.665 18.197714
61.670 18.544924
61.675 18.432854
61.680 18.120071
61.685 18.30744
61.690 17.525293
61.695 16.723358
61.700 16.169811
61.705 15.894995
61.710 16.485792
61.715 17.601763
61.720 17.75915
61.725 18.354105
61.730 19.137259
61.735 19.722685
61.740 19.703127
61.745 19.309818
61.750 18.584093
61.755 18.618353
61.760 18.824495
61.765 18.550535
61.770 18.742556
61.775 18.911554
61.780 19.235952
61.785 19.415194
61.790 19.029295
61.795 19.11355
61.800 18.982931
61.805 18.192472
61.810 18.072697
61.815 17.421349
61.820 17.620485
61.825 18.411617
61.830 18.11459
61.835 18.310558
61.840 18.635435
61.845 18.899992
61.850 19.368505
61.855 18.970339
61.860 18.216204
61.865 17.798725
61.870 17.971516
61.875 18.178539
61.880 17.895563
61.885 18.03441
61.890 18.326458
61.895 18.389086
61.900 18.718029
61.905 18.365099
61.910 18.219423
61.915 18.289261
61.920 17.89819
61.925 17.408995
61.930 17.462641
61.935 16.96772
61.940 16.798769
61.945 16.862886
61.950 17.001389
61.955 17.180138
61.960 17.316195
61.965 16.6064
61.970 16.560879
61.975 16.527622
61.980 15.977683
61.985 15.916661
61.990 16.205685
61.995 16.330164
62.000 16.851728
62.005 16.770027
62.010 17.244343
62.015 17.513258
62.020 17.371977
62.025 16.766571
62.030 16.929665
62.035 17.0993
62.040 17.453281
62.045 17.13929
62.050 16.953091
62.055 17.197681
62.060 17.036598
62.065 16.071829
62.070 15.791967
62.075 16.359028
62.080 16.623896
62.085 16.641064
62.090 16.895678
62.095 17.581909
62.100 17.94463
62.105 18.198477
62.110 17.660511
62.115 17.767412
62.120 18.01363
62.125 17.574337
62.130 17.68327
62.135 17.816603
62.140 17.774511
62.145 17.717571
62.150 17.879641
62.155 17.81686
62.160 17.458925
62.165 17.126057
62.170 17.493557
62.175 17.622614
62.180 18.125521
62.185 17.993391
62.190 17.908802
62.195 18.303495
62.200 18.40942
62.205 17.653118
62.210 17.045355
62.215 16.782244
62.220 16.618418
62.225 16.636604
62.230 16.610107
62.235 16.111502
62.240 16.440105
62.245 16.838062
62.250 16.502573
62.255 16.323879
62.260 16.300556
62.265 16.289345
62.270 16.984159
62.275 17.410023
62.280 17.692163
62.285 17.942606
62.290 17.807621
62.295 17.592789
62.300 16.913454
62.305 16.410881
62.310 15.513203
62.315 14.698844
62.320 14.746976
62.325 15.242762
62.330 15.608935
62.335 16.105953
62.340 16.22616
62.345 17.277468
62.350 18.052305
62.355 18.205212
62.360 18.405624
62.365 18.829416
62.370 19.104385
62.375 19.030977
62.380 18.038568
62.385 17.916967
62.390 17.740229
62.395 17.596516
62.400 16.935011
62.405 16.531813
62.410 16.666344
62.415 16.865622
62.420 16.471012
62.425 16.49152
62.430 16.300159
62.435 16.817894
62.440 17.347549
62.445 17.674494
62.450 18.431423
62.455 19.149559
62.460 18.889662
62.465 18.939835
62.470 19.216047
62.475 19.212187
62.480 18.670467
62.485 18.232994
62.490 17.839479
62.495 18.193895
62.500 17.817104
62.505 17.34823
62.510 16.705885
62.515 16.706234
62.520 16.638519
62.525 16.239811
62.530 16.415602
62.535 16.565273
62.540 16.887424
62.545 17.203007
62.550 17.395613
62.555 17.130951
62.560 17.024319
62.565 16.694843
62.570 16.453621
62.575 16.146423
62.580 15.83488
62.585 15.541739
62.590 16.098743
62.595 16.444277
62.600 16.8556
62.605 17.38343
62.610 17.029085
62.615 17.313473
62.620 17.924084
62.625 17.457111
62.630 17.656349
62.635 17.020081
62.640 16.884056
62.645 17.345316
62.650 17.826422
62.655 17.458578
62.660 17.594427
62.665 17.706457
62.670 18.032825
62.675 17.852617
62.680 17.967356
62.685 17.921286
62.690 18.068556
62.695 18.139359
62.700 18.003181
62.705 17.844538
62.710 17.739443
62.715 17.497879
62.720 17.719011
62.725 17.747681
62.730 17.303375
62.735 17.483368
62.740 17.956387
62.745 18.027063
62.750 18.166275
62.755 17.441763
62.760 17.858162
62.765 18.474487
62.770 18.081768
62.775 17.407333
62.780 17.260695
62.785 17.200853
62.790 17.736338
62.795 17.642698
62.800 17.595945
62.805 17.709332
62.810 17.696014
62.815 17.219875
62.820 17.526682
62.825 17.342371
62.830 17.371033
62.835 18.10574
62.840 18.04952
62.845 18.519264
62.850 18.964731
62.855 18.669449
62.860 18.685455
62.865 17.691303
62.870 16.749714
62.875 17.277256
62.880 17.259157
62.885 17.099478
62.890 16.774019
62.895 16.881813
62.900 18.010509
62.905 18.180161
62.910 17.99279
62.915 17.981239
62.920 18.729998
62.925 19.082844
62.930 18.598133
62.935 18.273825
62.940 17.682249
62.945 17.528004
62.950 17.335434
62.955 16.764227
62.960 16.791468
62.965 16.845884
62.970 16.96204
62.975 17.542759
62.980 17.248297
62.985 17.744797
62.990 18.027748
62.995 18.05731
63.000 18.195257
63.005 18.329239
63.010 18.25202
63.015 18.44891
63.020 18.104359
63.025 18.276392
63.030 18.054632
63.035 18.022667
63.040 17.628195
63.045 17.713915
63.050 18.178497
63.055 18.272146
63.060 17.924713
63.065 18.281954
63.070 18.59296
63.075 18.907751
63.080 19.486887
63.085 19.626595
63.090 19.603813
63.095 19.432316
63.100 19.597486
63.105 19.698088
63.110 19.661072
63.115 19.15506
63.120 19.011776
63.125 18.97072
63.130 19.469395
63.135 19.609032
63.140 19.487335
63.145 19.239803
63.150 19.07275
63.155 18.845167
63.160 18.865856
63.165 18.419495
63.170 17.76656
63.175 17.80579
63.180 18.033524
63.185 18.256842
63.190 18.718212
63.195 18.662338
63.200 18.898716
63.205 19.26115
63.210 19.166468
63.215 18.788391
63.220 18.308353
63.225 17.889494
63.230 18.09149
63.235 17.823311
63.240 17.849701
63.245 17.787683
63.250 17.92742
63.255 18.115238
63.260 18.708624
63.265 19.09128
63.270 19.105633
63.275 18.904881
63.280 19.190437
63.285 19.43833
63.290 19.042833
63.295 18.445347
63.300 18.378033
63.305 18.263811
63.310 18.05147
63.315 18.434834
63.320 18.52343
63.325 19.005178
63.330 19.107508
63.335 18.864548
63.340 18.741516
63.345 19.054487
63.350 18.881189
63.355 19.190401
63.360 19.034067
63.365 18.781687
63.370 19.018955
63.375 19.653259
63.380 19.604584
63.385 19.054878
63.390 18.656702
63.395 19.011879
63.400 19.145407
63.405 18.963936
63.410 18.38596
63.415 17.826954
63.420 18.232088
63.425 18.301765
63.430 18.64613
63.435 18.80864
63.440 18.641272
63.445 18.975071
63.450 19.950495
63.455 20.711498
63.460 20.740976
63.465 20.649847
63.470 20.904726
63.475 21.156172
63.480 20.347042
63.485 19.786865
63.490 18.748411
63.495 18.165087
63.500 17.550184
63.505 17.204851
63.510 17.156736
63.515 17.784393
63.520 17.533386
63.525 18.099157
63.530 18.409985
63.535 18.709545
63.540 18.47035
63.545 18.261965
63.550 17.970881
63.555 17.873285
63.560 17.240685
63.565 17.422987
63.570 16.870119
63.575 17.748642
63.580 18.709023
63.585 18.7001
63.590 19.132864
63.595 20.32267
63.600 20.183411
63.605 20.159555
63.610 19.541592
63.615 19.144979
63.620 19.730745
63.625 19.522722
63.630 18.527306
63.635 18.539057
63.640 18.567074
63.645 18.576111
63.650 18.690292
63.655 18.400759
63.660 18.018368
63.665 18.162573
63.670 18.876118
63.675 19.273273
63.680 19.159819
63.685 18.903166
63.690 19.013203
63.695 19.295212
63.700 19.199699
63.705 18.961012
63.710 18.971142
63.715 19.134289
63.720 19.369091
63.725 19.092979
63.730 19.099588
63.735 19.664534
63.740 19.978086
63.745 20.196899
63.750 19.658491
63.755 18.794106
63.760 18.799908
63.765 18.415932
63.770 17.208736
63.775 16.627714
63.780 16.8043
63.785 17.0931
63.790 17.311075
63.795 17.349659
63.800 17.298409
63.805 17.275131
63.810 16.717545
63.815 15.87991
63.820 15.53739
63.825 15.910481
63.830 16.152308
63.835 16.616116
63.840 16.912735
63.845 17.185017
63.850 17.666508
63.855 17.768703
63.860 17.886757
63.865 17.679094
63.870 17.68465
63.875 17.870483
63.880 17.611309
63.885 17.400602
63.890 17.887966
63.895 18.047352
63.900 18.438986
63.905 18.393303
63.910 18.586411
63.915 18.8564
63.920 18.683659
63.925 17.890001
63.930 17.651047
63.935 17.7327
63.940 17.995846
63.945 17.993639
63.950 18.506992
63.955 18.7348
63.960 18.993778
63.965 19.012878
63.970 18.720339
63.975 18.97154
63.980 19.01812
63.985 17.985821
63.990 18.042603
63.995 18.096661
64.000 17.688725
64.005 17.736431
64.010 17.609852
64.015 18.122801
64.020 18.594147
64.025 19.336075
64.030 19.670731
64.035 20.279846
64.040 20.343712
64.045 20.5893
64.050 20.234686
64.055 20.251595
64.060 19.494473
64.065 19.337393
64.070 19.312742
64.075 19.482647
64.080 18.911171
64.085 18.413246
64.090 17.693398
64.095 17.412197
64.100 17.996449
64.105 17.708254
64.110 17.4981
64.115 17.610424
64.120 18.03195
64.125 18.389799
64.130 18.265121
64.135 17.426302
64.140 17.348394
64.145 17.361322
64.150 17.272949
64.155 16.81024
64.160 16.534292
64.165 16.926752
64.170 16.939644
64.175 17.143099
64.180 16.892258
64.185 17.479378
64.190 18.761744
64.195 19.292236
64.200 18.925547
64.205 19.270401
64.210 19.490902
64.215 19.730242
64.220 19.567785
64.225 19.200142
64.230 19.457479
64.235 19.768051
64.240 19.615713
64.245 19.973703
64.250 20.053415
64.255 19.817434
64.260 20.074505
64.265 20.179199
64.270 20.251776
64.275 20.504749
64.280 19.929346
64.285 20.507261
64.290 20.898754
64.295 20.831556
64.300 21.221493
64.305 21.518795
64.310 21.190546
64.315 21.139826
64.320 20.908892
64.325 20.086164
64.330 19.618599
64.335 19.298052
64.340 19.39073
64.345 19.674133
64.350 19.678999
64.355 19.77063
64.360 20.893639
64.365 20.841206
64.370 20.68824
64.375 20.634577
64.380 20.997875
64.385 21.332598
64.390 21.487593
64.395 21.127222
64.400 21.243534
64.405 20.967474
64.410 21.162714
64.415 20.77001
64.420 20.249287
64.425 19.642744
64.430 19.561077
64.435 19.560495
64.440 20.03043
64.445 20.035482
64.450 19.413036
64.455 19.750486
64.460 19.966114
64.465 20.71417
64.470 20.94207
64.475 20.501766
64.480 20.222878
64.485 20.845453
64.490 21.036194
64.495 21.718922
64.500 21.573883
64.505 21.919186
64.510 22.134628
64.515 22.330116
64.520 22.306999
64.525 22.301895
64.530 21.850782
64.535 20.925196
64.540 20.346436
64.545 20.280823
64.550 20.162695
64.555 19.974148
64.560 19.117599
64.565 18.599659
64.570 19.109694
64.575 19.05916
64.580 18.516649
64.585 18.902365
64.590 18.954472
64.595 19.436731
64.600 19.418554
64.605 19.677553
64.610 19.966904
64.615 20.168112
64.620 20.349901
64.625 19.746758
64.630 19.369009
64.635 19.364252
64.640 19.176813
64.645 19.604471
64.650 19.767176
64.655 19.338297
64.660 20.325006
64.665 20.910168
64.670 21.056534
64.675 20.41918
64.680 19.825008
64.685 19.608398
64.690 19.506952
64.695 19.168055
64.700 19.247133
64.705 19.46805
64.710 19.639713
64.715 19.997501
64.720 20.172554
64.725 20.535955
64.730 20.088722
64.735 19.432125
64.740 19.915159
64.745 20.547523
64.750 21.211157
64.755 21.052805
64.760 20.392193
64.765 21.009518
64.770 21.26366
64.775 20.095224
64.780 19.205236
64.785 18.811251
64.790 18.470007
64.795 18.661791
64.800 18.609037
64.805 18.347383
64.810 19.274021
64.815 19.723888
64.820 19.32411
64.825 19.739569
64.830 20.291954
64.835 20.466284
64.840 21.227257
64.845 20.582048
64.850 19.895721
64.855 20.27215
64.860 20.086536
64.865 19.149233
64.870 18.994482
64.875 18.889585
64.880 19.725101
64.885 19.560404
64.890 19.526173
64.895 20.009598
64.900 20.472504
64.905 20.567949
64.910 20.706921
64.915 20.693466
64.920 21.110216
64.925 21.711235
64.930 22.020351
64.935 22.082672
64.940 22.076769
64.945 21.933302
64.950 22.130655
64.955 22.776272
64.960 22.635578
64.965 22.603003
64.970 23.030046
64.975 23.192345
64.980 23.484241
64.985 23.607149
64.990 23.196245
64.995 23.030825
65.000 22.406422
65.005 21.707729
65.010 21.419029
65.015 21.07543
65.020 21.270464
65.025 21.804916
65.030 21.79707
65.035 21.932304
65.040 22.282082
65.045 22.658461
65.050 22.871294
65.055 22.390957
65.060 22.262497
65.065 22.657089
65.070 22.583374
65.075 23.145672
65.080 23.545479
65.085 23.334175
65.090 24.143703
65.095 24.259518
65.100 23.838276
65.105 24.115164
65.110 23.957989
65.115 23.420242
65.120 23.145882
65.125 22.581121
65.130 23.101788
65.135 23.306606
65.140 23.151894
65.145 22.898193
65.150 23.326742
65.155 23.786123
65.160 23.706022
65.165 23.532984
65.170 23.705025
65.175 24.324055
65.180 24.891485
65.185 24.418755
65.190 23.982706
65.195 24.099813
65.200 23.755846
65.205 23.803726
65.210 23.595165
65.215 23.60359
65.220 23.258568
65.225 23.576302
65.230 23.341206
65.235 23.424969
65.240 23.308014
65.245 23.393091
65.250 22.893974
65.255 23.426832
65.260 22.888409
65.265 22.558094
65.270 22.517319
65.275 22.770073
65.280 23.094774
65.285 23.282711
65.290 24.154306
65.295 24.639902
65.300 24.94544
65.305 24.56147
65.310 24.63983
65.315 24.260754
65.320 24.004053
65.325 23.232807
65.330 23.339319
65.335 23.792568
65.340 24.122391
65.345 24.552874
65.350 25.05525
65.355 25.118418
65.360 25.51363
65.365 25.53343
65.370 25.502596
65.375 26.243376
65.380 25.784971
65.385 25.816896
65.390 25.53834
65.395 24.998116
65.400 25.140516
65.405 25.176628
65.410 24.407061
65.415 24.413761
65.420 23.586618
65.425 23.991896
65.430 24.496529
65.435 25.223667
65.440 25.005085
65.445 25.349741
65.450 24.992874
65.455 25.578251
65.460 25.862225
65.465 25.661547
65.470 25.53335
65.475 25.534859
65.480 25.504587
65.485 25.905144
65.490 25.845303
65.495 25.828669
65.500 25.618298
65.505 24.92358
65.510 24.751352
65.515 24.962622
65.520 25.463505
65.525 25.779707
65.530 25.928236
65.535 26.491549
65.540 27.108496
65.545 28.214214
65.550 28.473518
65.555 28.485401
65.560 28.950565
65.565 28.905388
65.570 28.617739
65.575 28.867853
65.580 28.911308
65.585 29.218395
65.590 29.135073
65.595 28.733732
65.600 29.149532
65.605 30.293402
65.610 30.668394
65.615 30.443977
65.620 31.514549
65.625 32.031307
65.630 32.955086
65.635 33.153423
65.640 32.59145
65.645 33.083424
65.650 33.109058
65.655 32.373974
65.660 32.949265
65.665 32.953712
65.670 32.94849
65.675 32.851753
65.680 33.564892
65.685 34.260414
65.690 34.154598
65.695 34.15937
65.700 34.487518
65.705 34.890217
65.710 34.944595
65.715 34.361881
65.720 34.559742
65.725 34.352325
65.730 33.394558
65.735 32.925026
65.740 32.404182
65.745 32.349884
65.750 33.014004
65.755 33.453671
65.760 34.292294
65.765 34.875366
65.770 34.923473
65.775 35.375069
65.780 35.649426
65.785 34.923656
65.790 35.106316
65.795 34.885918
65.800 35.912323
65.805 36.681889
65.810 37.217346
65.815 37.637966
65.820 37.90836
65.825 37.461327
65.830 37.235847
65.835 36.527409
65.840 35.998894
65.845 35.989487
65.850 35.900829
65.855 35.191757
65.860 35.111954
65.865 35.081318
65.870 35.014565
65.875 36.054226
65.880 36.154869
65.885 36.18177
65.890 37.536102
65.895 38.259159
65.900 38.663631
65.905 38.530594
65.910 37.922516
65.915 37.302017
65.920 36.991817
65.925 36.929951
65.930 36.687061
65.935 36.743397
65.940 36.750988
65.945 37.215797
65.950 37.671078
65.955 38.437244
65.960 38.610867
65.965 38.926998
65.970 40.030834
65.975 41.069542
65.980 41.389557
65.985 41.305145
65.990 40.691116
65.995 40.887863
66.000 40.906582
66.005 40.722015
66.010 40.085091
66.015 40.326214
66.020 40.846737
66.025 40.954567
66.030 40.412117
66.035 39.947083
66.040 38.620762
66.045 37.829281
66.050 37.464809
66.055 37.427883
66.060 38.00375
66.065 37.66629
66.070 37.732899
66.075 38.155815
66.080 38.29171
66.085 37.646267
66.090 36.949337
66.095 36.646011
66.100 36.187885
66.105 35.577328
66.110 35.200775
66.115 35.125618
66.120 35.229137
66.125 35.116795
66.130 35.239941
66.135 35.412445
66.140 35.923038
66.145 36.590626
66.150 36.455551
66.155 36.580708
66.160 37.152203
66.165 37.292152
66.170 37.103767
66.175 37.070568
66.180 36.720554
66.185 36.569744
66.190 36.17514
66.195 36.02758
66.200 35.968349
66.205 36.743622
66.210 37.062042
66.215 37.072361
66.220 36.721916
66.225 36.209564
66.230 35.270878
66.235 34.587803
66.240 33.746803
66.245 33.553623
66.250 33.539764
66.255 33.601643
66.260 33.774612
66.265 33.523159
66.270 33.314487
66.275 32.738098
66.280 31.770466
66.285 31.200241
66.290 31.710539
66.295 32.24575
66.300 32.165096
66.305 31.550873
66.310 31.357677
66.315 31.774225
66.320 31.546566
66.325 30.849682
66.330 30.619659
66.335 31.128006
66.340 31.18935
66.345 31.03813
66.350 31.532261
66.355 32.066547
66.360 32.453358
66.365 32.131111
66.370 31.888796
66.375 32.498249
66.380 32.646389
66.385 31.73716
66.390 31.492599
66.395 31.415306
66.400 31.324184
66.405 31.730776
66.410 31.860521
66.415 31.759605
66.420 32.2295
66.425 31.740011
66.430 31.13472
66.435 30.985237
66.440 30.100651
66.445 29.165627
66.450 28.437452
66.455 28.228304
66.460 28.443716
66.465 28.471199
66.470 27.899149
66.475 28.087679
66.480 28.452459
66.485 28.20854
66.490 27.73011
66.495 27.897169
66.500 28.039183
66.505 28.254257
66.510 28.193199
66.515 28.221405
66.520 28.405544
66.525 28.240034
66.530 27.762568
66.535 27.879316
66.540 27.282957
66.545 26.938805
66.550 26.536068
66.555 26.559175
66.560 26.855595
66.565 27.127966
66.570 26.927645
66.575 27.044577
66.580 26.783894
66.585 27.086256
66.590 27.629969
66.595 27.692938
66.600 27.585379
66.605 27.210684
66.610 27.69104
66.615 28.043648
66.620 27.484888
66.625 26.92804
66.630 26.231228
66.635 26.333691
66.640 26.910877
66.645 26.910622
66.650 27.054277
66.655 26.94207
66.660 27.291864
66.665 27.384527
66.670 27.356359
66.675 26.920555
66.680 26.848745
66.685 26.450094
66.690 26.752623
66.695 26.300001
66.700 26.098082
66.705 25.616385
66.710 25.210676
66.715 24.357849
66.720 24.52318
66.725 24.640905
66.730 25.212736
66.735 25.332821
66.740 25.186068
66.745 25.676096
66.750 26.157452
66.755 25.713854
66.760 25.22508
66.765 24.652781
66.770 25.014526
66.775 25.245377
66.780 25.201185
66.785 25.27734
66.790 25.187553
66.795 25.409361
66.800 25.422678
66.805 24.774242
66.810 25.159796
66.815 25.953447
66.820 25.782228
66.825 26.017365
66.830 26.014439
66.835 26.717142
66.840 26.819361
66.845 26.033678
66.850 25.129816
66.855 25.043011
66.860 25.61392
66.865 25.411556
66.870 24.970282
66.875 25.17223
66.880 25.490597
66.885 25.148487
66.890 25.041145
66.895 23.571032
66.900 23.191484
66.905 23.719303
66.910 23.508642
66.915 23.016546
66.920 23.566021
66.925 23.91432
66.930 24.981686
66.935 25.489552
66.940 25.332226
66.945 25.220377
66.950 25.122454
66.955 24.394461
66.960 23.674448
66.965 22.766415
66.970 21.973915
66.975 21.76918
66.980 22.199999
66.985 22.648727
66.990 23.289139
66.995 24.242252
67.000 24.460089
67.005 24.43277
67.010 23.641451
67.015 22.979387
67.020 22.908117
67.025 22.273787
67.030 21.795055
67.035 21.36483
67.040 21.571245
67.045 22.405888
67.050 22.757412
67.055 22.603954
67.060 22.372211
67.065 22.297117
67.070 22.664173
67.075 22.32827
67.080 22.14542
67.085 22.646753
67.090 22.840015
67.095 22.707022
67.100 22.386696
67.105 23.238752
67.110 23.057354
67.115 22.29085
67.120 21.802446
67.125 21.48432
67.130 21.847963
67.135 21.46961
67.140 20.812658
67.145 21.316729
67.150 22.083242
67.155 22.313599
67.160 22.824371
67.165 23.136896
67.170 23.618927
67.175 23.557327
67.180 23.62332
67.185 23.57745
67.190 22.866131
67.195 22.172729
67.200 22.204304
67.205 21.657423
67.210 21.267382
67.215 20.899691
67.220 20.619637
67.225 21.416977
67.230 22.053299
67.235 21.921881
67.240 21.695028
67.245 22.433172
67.250 22.230318
67.255 22.15572
67.260 21.820217
67.265 21.060961
67.270 20.81542
67.275 21.703711
67.280 21.723902
67.285 22.37784
67.290 22.584873
67.295 22.583485
67.300 23.600849
67.305 24.27463
67.310 24.148825
67.315 23.888292
67.320 23.56867
67.325 23.30584
67.330 23.017117
67.335 22.879271
67.340 22.931229
67.345 22.318546
67.350 22.180069
67.355 22.345877
67.360 22.309044
67.365 22.139294
67.370 21.483408
67.375 21.197632
67.380 21.345165
67.385 21.18292
67.390 20.436657
67.395 20.48551
67.400 20.985472
67.405 20.872715
67.410 20.80735
67.415 20.902178
67.420 20.988295
67.425 22.041864
67.430 22.275103
67.435 22.147667
67.440 22.35313
67.445 22.397074
67.450 22.207119
67.455 22.348146
67.460 21.667776
67.465 21.708895
67.470 22.191813
67.475 22.24703
67.480 22.632683
67.485 23.084721
67.490 22.722445
67.495 22.58753
67.500 22.590282
67.505 22.474205
67.510 22.996868
67.515 22.325867
67.520 22.092781
67.525 22.269773
67.530 22.776873
67.535 22.4916
67.540 22.152632
67.545 22.112
67.550 22.201048
67.555 22.127144
67.560 22.640387
67.565 22.485315
67.570 22.188265
67.575 22.116974
67.580 21.913528
67.585 22.144094
67.590 21.900848
67.595 21.58807
67.600 21.678034
67.605 21.955318
67.610 22.451088
67.615 22.689627
67.620 22.661024
67.625 23.215742
67.630 23.94648
67.635 24.789036
67.640 24.148645
67.645 23.760403
67.650 23.749256
67.655 23.700628
67.660 22.926792
67.665 22.059395
67.670 21.164074
67.675 21.721367
67.680 21.921476
67.685 22.188908
67.690 21.920732
67.695 22.235693
67.700 22.052954
67.705 22.24119
67.710 22.340801
67.715 22.38447
67.720 22.102732
67.725 22.304937
67.730 22.659517
67.735 22.587929
67.740 22.854557
67.745 22.247478
67.750 21.724621
67.755 21.396931
67.760 21.229567
67.765 21.064697
67.770 20.799965
67.775 20.358074
67.780 20.488853
67.785 20.254406
67.790 20.52018
67.795 20.419571
67.800 20.38999
67.805 21.104866
67.810 21.188366
67.815 21.709579
67.820 22.403635
67.825 22.821354
67.830 22.787647
67.835 23.064108
67.840 22.323092
67.845 21.775522
67.850 21.175406
67.855 20.985699
67.860 20.916094
67.865 21.17399
67.870 21.017025
67.875 21.17804
67.880 20.899694
67.885 20.262672
67.890 20.353758
67.895 20.871462
67.900 21.181004
67.905 20.993549
67.910 21.069296
67.915 22.06926
67.920 22.937767
67.925 22.363092
67.930 22.204256
67.935 22.185226
67.940 23.064789
67.945 23.325378
67.950 22.94722
67.955 22.333839
67.960 21.859846
67.965 21.700876
67.970 21.344748
67.975 21.210899
67.980 21.430916
67.985 22.038866
67.990 22.350315
67.995 22.285856
68.000 22.082417
68.005 21.503418
68.010 20.936552
68.015 20.304399
68.020 20.588797
68.025 21.116705
68.030 21.474745
68.035 21.543221
68.040 21.535328
68.045 21.769308
68.050 21.978853
68.055 21.584093
68.060 21.393211
68.065 21.798002
68.070 22.252285
68.075 22.822145
68.080 23.129854
68.085 23.737694
68.090 23.488134
68.095 23.283882
68.100 23.010458
68.105 22.845892
68.110 22.641735
68.115 22.128633
68.120 21.354656
68.125 21.640961
68.130 21.842972
68.135 21.787092
68.140 21.502073
68.145 21.758453
68.150 21.931046
68.155 22.503059
68.160 22.799057
68.165 22.937937
68.170 22.996922
68.175 23.215376
68.180 22.857822
68.185 22.437757
68.190 21.681547
68.195 21.191179
68.200 20.522524
68.205 19.925791
68.210 19.68115
68.215 20.368361
68.220 20.608974
68.225 21.094324
68.230 21.119411
68.235 20.994802
68.240 21.522545
68.245 21.65424
68.250 20.730713
68.255 20.857265
68.260 21.031393
68.265 21.035786
68.270 21.252054
68.275 20.946129
68.280 21.071577
68.285 22.174236
68.290 22.039482
68.295 21.40209
68.300 21.238039
68.305 21.399715
68.310 21.418293
68.315 20.873053
68.320 20.31175
68.325 20.09906
68.330 20.716749
68.335 21.135593
68.340 21.358604
68.345 21.231894
68.350 21.474253
68.355 21.72559
68.360 22.117052
68.365 21.597818
68.370 21.530766
68.375 21.360828
68.380 21.311651
68.385 21.148657
68.390 20.686707
68.395 20.248308
68.400 19.974806
68.405 19.590086
68.410 19.577719
68.415 19.610775
68.420 20.264275
68.425 20.481079
68.430 20.774878
68.435 21.718678
68.440 21.416733
68.445 21.568127
68.450 21.902367
68.455 21.734688
68.460 22.174913
68.465 22.265978
68.470 21.843819
68.475 22.108997
68.480 21.747416
68.485 22.017771
68.490 21.903765
68.495 21.812105
68.500 21.634438
68.505 21.774166
68.510 22.41732
68.515 22.394434
68.520 22.139128
68.525 21.601246
68.530 22.04916
68.535 22.715559
68.540 22.761431
68.545 22.314028
68.550 22.254822
68.555 22.294468
68.560 22.914045
68.565 22.599045
68.570 21.942593
68.575 21.884165
68.580 21.822044
68.585 21.357267
68.590 20.663958
68.595 19.820902
68.600 19.726772
68.605 20.211075
68.610 20.233286
68.615 20.706913
68.620 21.104349
68.625 22.025629
68.630 22.559433
68.635 22.541311
68.640 22.377834
68.645 22.317389
68.650 22.205637
68.655 22.277975
68.660 22.07284
68.665 22.547583
68.670 22.512424
68.675 22.783073
68.680 23.069515
68.685 23.411987
68.690 23.842861
68.695 23.476688
68.700 23.104656
68.705 22.564024
68.710 21.494471
68.715 21.345669
68.720 21.257607
68.725 21.562038
68.730 22.258598
68.735 22.076609
68.740 22.219507
68.745 22.899759
68.750 22.410019
68.755 22.320591
68.760 22.058578
68.765 22.472023
68.770 23.291239
68.775 23.915901
68.780 24.261997
68.785 24.597643
68.790 24.913647
68.795 25.819572
68.800 25.383823
68.805 25.009041
68.810 24.908091
68.815 24.871716
68.820 24.732496
68.825 24.37731
68.830 23.997221
68.835 23.824671
68.840 23.788189
68.845 23.678251
68.850 23.927048
68.855 23.551939
68.860 23.187635
68.865 22.697069
68.870 22.686478
68.875 22.757027
68.880 22.956209
68.885 22.864935
68.890 23.724623
68.895 24.441854
68.900 24.721376
68.905 24.619493
68.910 23.958822
68.915 23.920332
68.920 24.274282
68.925 23.608011
68.930 22.666182
68.935 22.547653
68.940 23.011406
68.945 24.095596
68.950 24.066713
68.955 23.883293
68.960 23.917982
68.965 24.775747
68.970 24.730906
68.975 24.831158
68.980 24.186745
68.985 24.290457
68.990 24.621796
68.995 24.7246
69.000 24.174841
69.005 24.253736
69.010 24.144508
69.015 24.007574
69.020 23.725233
69.025 23.474808
69.030 23.30707
69.035 22.907305
69.040 22.564075
69.045 23.152525
69.050 23.239082
69.055 23.749504
69.060 24.1222
69.065 24.50676
69.070 25.208498
69.075 25.335995
69.080 25.620237
69.085 26.337563
69.090 26.308846
69.095 26.728687
69.100 26.733328
69.105 27.06469
69.110 27.827118
69.115 27.617599
69.120 27.109509
69.125 27.070303
69.130 26.84963
69.135 26.67905
69.140 27.030439
69.145 26.679098
69.150 26.618633
69.155 26.798391
69.160 26.512924
69.165 25.915516
69.170 26.316193
69.175 26.872732
69.180 27.170372
69.185 27.379807
69.190 27.531906
69.195 27.915472
69.200 28.05755
69.205 27.680111
69.210 27.25523
69.215 27.812363
69.220 27.407215
69.225 27.512794
69.230 27.444767
69.235 27.190149
69.240 27.044449
69.245 27.096571
69.250 26.694866
69.255 27.444691
69.260 27.533998
69.265 27.741489
69.270 28.126081
69.275 28.24691
69.280 28.00021
69.285 28.129839
69.290 27.502499
69.295 27.200232
69.300 27.076775
69.305 26.978867
69.310 26.562355
69.315 26.633049
69.320 26.301125
69.325 26.774548
69.330 27.581745
69.335 27.66176
69.340 28.081249
69.345 28.149529
69.350 27.494488
69.355 27.465134
69.360 27.419739
69.365 27.887474
69.370 27.87628
69.375 27.563482
69.380 27.728029
69.385 28.804865
69.390 29.452944
69.395 29.130753
69.400 28.658356
69.405 28.329777
69.410 28.393463
69.415 28.553463
69.420 28.076269
69.425 27.813524
69.430 28.208181
69.435 28.325459
69.440 29.197506
69.445 30.170578
69.450 30.545095
69.455 30.598194
69.460 30.594513
69.465 30.307816
69.470 29.821953
69.475 29.134584
69.480 29.500973
69.485 29.399902
69.490 29.469707
69.495 29.709597
69.500 29.642118
69.505 30.386034
69.510 30.87808
69.515 30.433701
69.520 30.636427
69.525 30.776649
69.530 30.1626
69.535 29.819305
69.540 29.113413
69.545 28.751461
69.550 29.017838
69.555 28.597612
69.560 28.51128
69.565 29.213909
69.570 29.698666
69.575 30.73698
69.580 30.116581
69.585 29.260777
69.590 29.243622
69.595 28.764811
69.600 28.243389
69.605 27.90074
69.610 27.182549
69.615 27.981413
69.620 28.412247
69.625 28.649479
69.630 28.814428
69.635 29.6588
69.640 30.272387
69.645 30.192183
69.650 29.514378
69.655 28.5728
69.660 28.172148
69.665 28.276279
69.670 28.423925
69.675 28.358126
69.680 28.438368
69.685 28.26972
69.690 28.881281
69.695 29.027979
69.700 28.729532
69.705 27.963322
69.710 27.890923
69.715 27.662701
69.720 27.809
69.725 27.746347
69.730 27.454641
69.735 27.42897
69.740 27.43186
69.745 27.300591
69.750 27.037886
69.755 26.470865
69.760 26.479574
69.765 25.825161
69.770 25.729179
69.775 25.198364
69.780 25.865322
69.785 26.385653
69.790 26.391354
69.795 26.120417
69.800 26.726049
69.805 26.259762
69.810 26.426069
69.815 25.872395
69.820 25.550554
69.825 25.758812
69.830 25.784363
69.835 25.275429
69.840 25.281195
69.845 25.368204
69.850 25.248749
69.855 25.200918
69.860 24.01696
69.865 23.958544
69.870 24.749947
69.875 24.736795
69.880 24.870491
69.885 25.338398
69.890 25.546303
69.895 25.560738
69.900 24.685972
69.905 23.756611
69.910 23.767891
69.915 22.87624
69.920 22.398029
69.925 22.716677
69.930 22.636091
69.935 22.763536
69.940 22.824047
69.945 23.095484
69.950 23.153931
69.955 23.016632
69.960 22.864515
69.965 23.548471
69.970 23.566601
69.975 23.260485
69.980 22.790176
69.985 23.237793
69.990 23.537163
69.995 23.4685
70.000 23.410656
70.005 23.278393
70.010 23.337385
70.015 23.149321
70.020 22.783787
70.025 22.398418
70.030 22.903275
70.035 23.425257
70.040 23.497385
70.045 23.581402
70.050 23.322836
70.055 22.793139
70.060 22.765917
70.065 22.263939
70.070 21.39468
70.075 21.034006
70.080 20.561556
70.085 20.616396
70.090 20.824665
70.095 20.888624
70.100 20.578632
70.105 20.353491
70.110 20.642324
70.115 20.32428
70.120 19.657715
70.125 19.62542
70.130 20.137966
70.135 20.866899
70.140 20.746983
70.145 21.685312
70.150 23.178886
70.155 23.107649
70.160 23.272646
70.165 22.842224
70.170 23.176868
70.175 23.699209
70.180 23.15147
70.185 22.907143
70.190 22.94783
70.195 22.479294
70.200 22.283079
70.205 22.31625
70.210 21.49361
70.215 21.337902
70.220 21.499889
70.225 21.919319
70.230 21.99448
70.235 21.860516
70.240 21.491076
70.245 21.569473
70.250 21.498373
70.255 21.499525
70.260 21.895929
70.265 21.932564
70.270 21.457043
70.275 20.927511
70.280 20.473078
70.285 20.151543
70.290 19.59712
70.295 19.416698
70.300 19.198868
70.305 19.62779
70.310 19.620283
70.315 19.61964
70.320 19.710093
70.325 19.872236
70.330 20.158302
70.335 20.046589
70.340 20.271112
70.345 21.235086
70.350 21.68622
70.355 21.510611
70.360 20.988234
70.365 20.796066
70.370 21.106859
70.375 20.543083
70.380 19.861181
70.385 19.565641
70.390 19.725378
70.395 19.543337
70.400 19.661476
70.405 19.607803
70.410 20.441986
70.415 20.345186
70.420 20.590359
70.425 21.414898
70.430 21.992662
70.435 22.042822
70.440 21.888834
70.445 21.767229
70.450 22.433905
70.455 22.4547
70.460 21.800724
70.465 21.505709
70.470 21.25271
70.475 21.148897
70.480 20.5397
70.485 19.303329
70.490 19.273104
70.495 19.412262
70.500 19.514612
70.505 19.433321
70.510 19.451797
70.515 19.98761
70.520 20.628792
70.525 20.259459
70.530 20.313122
70.535 19.9554
70.540 20.326214
70.545 20.955563
70.550 20.838047
70.555 21.226702
70.560 21.422264
70.565 21.193089
70.570 21.080727
70.575 20.387812
70.580 19.135145
70.585 18.278959
70.590 17.796173
70.595 17.539351
70.600 17.727625
70.605 18.039042
70.610 18.737728
70.615 19.814131
70.620 20.033342
70.625 20.434107
70.630 21.069757
70.635 20.955278
70.640 21.128962
70.645 20.730665
70.650 20.38645
70.655 20.357805
70.660 20.438877
70.665 20.119585
70.670 20.294821
70.675 19.96747
70.680 19.987804
70.685 20.156145
70.690 20.096895
70.695 19.795328
70.700 19.730448
70.705 19.219301
70.710 19.101095
70.715 19.080046
70.720 19.37258
70.725 19.525091
70.730 18.688498
70.735 18.251713
70.740 18.164804
70.745 18.299225
70.750 18.476784
70.755 18.317188
70.760 18.635038
70.765 19.415632
70.770 19.755798
70.775 19.914623
70.780 20.207508
70.785 19.951077
70.790 20.65626
70.795 20.770987
70.800 20.333101
70.805 19.935961
70.810 20.134016
70.815 20.08843
70.820 20.502499
70.825 19.836027
70.830 20.172441
70.835 20.392803
70.840 20.565971
70.845 20.756634
70.850 20.329107
70.855 20.33124
70.860 20.069218
70.865 19.687849
70.870 20.103439
70.875 20.210913
70.880 20.345005
70.885 20.439663
70.890 20.191355
70.895 19.867779
70.900 19.987324
70.905 19.720236
70.910 19.166323
70.915 18.642481
70.920 18.762966
70.925 19.156843
70.930 19.448048
70.935 19.704681
70.940 19.651445
70.945 19.647594
70.950 19.543287
70.955 19.480093
70.960 19.605406
70.965 19.578295
70.970 19.726324
70.975 20.039808
70.980 20.323195
70.985 20.467409
70.990 19.77153
70.995 19.598085
71.000 18.837032
71.005 17.778368
71.010 17.612778
71.015 17.533207
71.020 18.187586
71.025 18.558098
71.030 18.934103
71.035 19.984957
71.040 20.83934
71.045 21.207428
71.050 21.124187
71.055 20.564783
71.060 20.701021
71.065 20.331264
71.070 20.289076
71.075 19.861658
71.080 19.868351
71.085 19.76713
71.090 19.991068
71.095 19.591757
71.100 20.112806
71.105 20.409916
71.110 20.797939
71.115 21.088491
71.120 20.949062
71.125 20.910608
71.130 21.533636
71.135 20.856182
71.140 21.210697
71.145 20.242674
71.150 20.029863
71.155 20.42285
71.160 19.90242
71.165 20.153917
71.170 20.010441
71.175 19.777477
71.180 20.053562
71.185 19.99239
71.190 20.067438
71.195 19.861181
71.200 19.882492
71.205 19.914995
71.210 20.203814
71.215 20.65947
71.220 20.303967
71.225 20.20993
71.230 20.617659
71.235 20.381983
71.240 19.777575
71.245 19.072729
71.250 18.863346
71.255 19.181747
71.260 19.293625
71.265 19.744577
71.270 19.736044
71.275 20.651033
71.280 20.799877
71.285 21.091782
71.290 20.851095
71.295 20.379
71.300 19.60581
71.305 19.033779
71.310 18.565666
71.315 18.760786
71.320 18.11348
71.325 18.237898
71.330 17.96236
71.335 17.950237
71.340 18.674746
71.345 18.647263
71.350 18.202267
71.355 18.470955
71.360 19.088985
71.365 19.334898
71.370 20.059645
71.375 20.025219
71.380 19.90102
71.385 20.311991
71.390 20.373312
71.395 19.902948
71.400 19.891705
71.405 19.836105
71.410 19.761272
71.415 20.296692
71.420 19.771784
71.425 19.933645
71.430 19.783407
71.435 19.529018
71.440 19.342621
71.445 18.726721
71.450 18.61429
71.455 18.797268
71.460 18.460135
71.465 18.474894
71.470 19.571802
71.475 19.448885
71.480 19.721209
71.485 19.930479
71.490 20.37368
71.495 21.006039
71.500 21.012215
71.505 19.92238
71.510 20.25873
71.515 20.258011
71.520 19.949879
71.525 19.464176
71.530 18.819458
71.535 18.262184
71.540 18.735996
71.545 18.558737
71.550 18.563112
71.555 18.683899
71.560 18.726118
71.565 18.444824
71.570 18.73403
71.575 18.831482
71.580 19.161013
71.585 19.295179
71.590 19.108143
71.595 19.20673
71.600 19.415155
71.605 18.775869
71.610 18.26321
71.615 18.203999
71.620 18.075933
71.625 18.37887
71.630 19.273857
71.635 19.575195
71.640 20.379068
71.645 20.257139
71.650 19.442329
71.655 19.277014
71.660 19.082525
71.665 18.77636
71.670 18.735792
71.675 18.23867
71.680 19.235579
71.685 19.72032
71.690 19.623201
71.695 19.001369
71.700 18.985035
71.705 19.127195
71.710 19.461142
71.715 18.669647
71.720 18.814007
71.725 18.655672
71.730 19.122177
71.735 19.251543
71.740 18.380966
71.745 17.817406
71.750 18.005154
71.755 17.955008
71.760 18.400587
71.765 18.101177
71.770 18.38443
71.775 18.437872
71.780 19.048126
71.785 18.873188
71.790 18.723883
71.795 18.734962
71.800 18.315687
71.805 18.209061
71.810 18.353544
71.815 17.523857
71.820 17.417831
71.825 17.754068
71.830 17.378267
71.835 17.548265
71.840 17.900806
71.845 18.509588
71.850 19.208479
71.855 19.568281
71.860 19.073841
71.865 19.183001
71.870 19.024427
71.875 18.978525
71.880 18.61017
71.885 18.358511
71.890 18.498262
71.895 18.633389
71.900 18.527233
71.905 18.416887
71.910 18.028015
71.915 18.282753
71.920 18.110949
71.925 17.888325
71.930 17.835232
71.935 17.954971
71.940 17.74877
71.945 18.160585
71.950 17.965069
71.955 17.674294
71.960 17.467125
71.965 17.496479
71.970 17.895449
71.975 17.965797
71.980 17.878588
71.985 18.18774
71.990 18.933029
71.995 19.072409
72.000 19.532162
72.005 19.242569
72.010 19.294159
72.015 19.368584
72.020 19.149218
72.025 18.96035
72.030 18.625706
72.035 18.107206
72.040 17.907604
72.045 17.089642
72.050 17.295246
72.055 17.249311
72.060 17.188498
72.065 17.732374
72.070 17.879047
72.075 18.057793
72.080 18.062214
72.085 17.916704
72.090 18.487034
72.095 18.567047
72.100 18.597498
72.105 18.42231
72.110 18.421074
72.115 18.597425
72.120 19.112598
72.125 18.838379
72.130 19.348225
72.135 19.552742
72.140 19.570839
72.145 19.764549
72.150 19.808825
72.155 19.677668
72.160 19.600016
72.165 19.491888
72.170 19.63221
72.175 19.441334
72.180 19.214729
72.185 18.83238
72.190 17.974419
72.195 18.103619
72.200 17.87405
72.205 17.89197
72.210 18.141369
72.215 17.85417
72.220 17.703011
72.225 18.26226
72.230 17.966215
72.235 18.158627
72.240 18.207523
72.245 18.42798
72.250 19.736542
72.255 20.019917
72.260 20.107447
72.265 20.030937
72.270 19.534998
72.275 19.404104
72.280 19.165863
72.285 18.047754
72.290 18.113569
72.295 18.485867
72.300 18.375175
72.305 18.723576
72.310 18.619209
72.315 18.766685
72.320 18.537506
72.325 18.256273
72.330 18.216642
72.335 18.799414
72.340 19.291952
72.345 19.376087
72.350 19.877079
72.355 20.316317
72.360 20.354685
72.365 20.097923
72.370 19.940361
72.375 19.560234
72.380 19.298555
72.385 18.468105
72.390 18.5144
72.395 18.368183
72.400 18.19356
72.405 18.269447
72.410 18.38612
72.415 19.035116
72.420 18.914232
72.425 18.486012
72.430 18.282841
72.435 18.305094
72.440 17.925358
72.445 17.999062
72.450 18.06465
72.455 18.51136
72.460 18.850882
72.465 19.115208
72.470 19.074913
72.475 19.185061
72.480 19.362213
72.485 19.372381
72.490 19.397589
72.495 19.652079
72.500 19.439949
72.505 18.971071
72.510 18.446041
72.515 18.133322
72.520 18.134489
72.525 17.713982
72.530 17.516737
72.535 17.911968
72.540 18.257875
72.545 18.440195
72.550 18.385967
72.555 18.459433
72.560 18.629913
72.565 18.814159
72.570 18.36569
72.575 18.311798
72.580 18.012066
72.585 18.198708
72.590 17.939785
72.595 17.938301
72.600 17.294462
72.605 17.122858
72.610 16.871296
72.615 16.758198
72.620 17.217506
72.625 17.30991
72.630 17.119995
72.635 17.206743
72.640 17.24777
72.645 17.578001
72.650 17.566635
72.655 16.910135
72.660 17.147181
72.665 17.499474
72.670 18.246971
72.675 18.68548
72.680 18.634291
72.685 18.516119
72.690 18.762499
72.695 18.820024
72.700 18.66116
72.705 18.360519
72.710 18.087301
72.715 17.950851
72.720 18.606813
72.725 18.241037
72.730 17.911247
72.735 17.999664
72.740 18.13653
72.745 18.768778
72.750 18.798086
72.755 18.63975
72.760 18.934772
72.765 19.273254
72.770 19.249578
72.775 18.862389
72.780 18.55282
72.785 18.153152
72.790 17.864977
72.795 17.503977
72.800 17.29763
72.805 16.93894
72.810 17.158913
72.815 17.973204
72.820 18.017906
72.825 18.701206
72.830 18.718889
72.835 18.677605
72.840 18.800684
72.845 18.298386
72.850 17.536749
72.855 16.573345
72.860 15.969543
72.865 15.904489
72.870 15.698341
72.875 15.772538
72.880 15.414068
72.885 15.570354
72.890 15.469063
72.895 15.280802
72.900 15.458173
72.905 15.247113
72.910 15.60979
72.915 16.397982
72.920 16.630182
72.925 17.398726
72.930 17.761274
72.935 17.885822
72.940 17.841002
72.945 17.592081
72.950 17.123293
72.955 17.829557
72.960 17.618975
72.965 17.33852
72.970 17.466625
72.975 17.780815
72.980 17.949654
72.985 17.776686
72.990 17.158401
72.995 17.341846
73.000 17.519514
