!@!!GADDS PLOTSO FILE: Chi integration type
!@!!Title/SampleName: map-fc
!@!!Comment: ?
!@!!User: Bruker Instrument Administrator
!@!!Site: University of Illinois Chicago
!@!!Frame: map-fc_01_000.gfrm
!@!!Wavelengths    1.54184   1.54056   1.54439
!@!!Frame angles: 2Theta: 63.000 Omega: 50.000 Phi: 0.000 Chi: 90.000
!@!!Integration range: 2Theta: 53.000 to 73.000  Gamma: -105.000 to -75.000
!@!!Integration method: bin normalized
!@!N
!@!SS
!@!M
!@!L 0.0 0.0 0.0 0.0
!@!XDegrees
!@!YCounts
53.000 5.20599
53.005 5.213133
53.010 5.251801
53.015 5.088392
53.020 4.656575
53.025 5.040986
53.030 5.358756
53.035 5.202676
53.040 4.979945
53.045 4.787374
53.050 4.708752
53.055 4.761367
53.060 4.474194
53.065 4.206343
53.070 4.442279
53.075 4.697231
53.080 4.755622
53.085 4.585349
53.090 4.278844
53.095 4.337449
53.100 4.635356
53.105 4.512525
53.110 4.399571
53.115 4.740377
53.120 4.858675
53.125 4.896741
53.130 4.816187
53.135 4.691209
53.140 4.534491
53.145 4.376576
53.150 4.081547
53.155 4.194311
53.160 4.698704
53.165 4.722083
53.170 4.873973
53.175 4.675525
53.180 4.652534
53.185 4.818436
53.190 4.870989
53.195 4.675244
53.200 4.680198
53.205 5.114918
53.210 5.685702
53.215 5.812734
53.220 5.642909
53.225 5.303301
53.230 5.201376
53.235 4.93086
53.240 4.427937
53.245 4.275629
53.250 4.114087
53.255 4.3887
53.260 4.543683
53.265 4.879992
53.270 5.131174
53.275 5.239979
53.280 5.407178
53.285 5.905685
53.290 6.068296
53.295 6.164927
53.300 6.183598
53.305 6.134907
53.310 6.200052
53.315 5.805762
53.320 5.225696
53.325 5.037448
53.330 4.979836
53.335 4.953886
53.340 4.843882
53.345 5.16504
53.350 5.523383
53.355 5.547988
53.360 5.307572
53.365 5.170537
53.370 5.027403
53.375 5.46197
53.380 5.335713
53.385 5.220427
53.390 5.148781
53.395 5.273188
53.400 5.605952
53.405 5.666913
53.410 5.193449
53.415 4.936268
53.420 5.219907
53.425 5.453552
53.430 5.12386
53.435 5.02354
53.440 5.047005
53.445 5.241375
53.450 5.362502
53.455 5.278598
53.460 5.389206
53.465 5.630005
53.470 5.823629
53.475 6.160966
53.480 6.188931
53.485 6.525669
53.490 6.590189
53.495 6.536405
53.500 6.324396
53.505 5.822762
53.510 5.509529
53.515 5.478562
53.520 5.288783
53.525 5.076007
53.530 5.098324
53.535 5.66142
53.540 6.040149
53.545 6.013514
53.550 5.875246
53.555 5.896302
53.560 6.125868
53.565 6.26053
53.570 5.577975
53.575 5.373556
53.580 5.64332
53.585 5.681551
53.590 5.233999
53.595 5.236558
53.600 5.017317
53.605 5.065885
53.610 5.075366
53.615 5.231902
53.620 5.250576
53.625 5.427049
53.630 5.144228
53.635 5.650541
53.640 5.785667
53.645 5.744062
53.650 5.727365
53.655 5.934031
53.660 6.260181
53.665 6.394659
53.670 5.94842
53.675 6.021667
53.680 6.03464
53.685 5.855165
53.690 5.781368
53.695 5.381602
53.700 5.307808
53.705 5.368905
53.710 5.23456
53.715 5.175622
53.720 5.255983
53.725 5.507516
53.730 5.807271
53.735 5.726619
53.740 5.773173
53.745 5.928338
53.750 5.917756
53.755 5.852128
53.760 5.832134
53.765 5.797368
53.770 5.77546
53.775 5.811999
53.780 6.011723
53.785 5.937724
53.790 5.848132
53.795 5.763085
53.800 6.055107
53.805 6.259963
53.810 5.958763
53.815 5.764231
53.820 5.911595
53.825 5.696084
53.830 5.534225
53.835 5.463866
53.840 5.671309
53.845 5.935155
53.850 5.840828
53.855 6.088321
53.860 6.208182
53.865 6.0042
53.870 6.071368
53.875 6.007742
53.880 5.889159
53.885 5.753163
53.890 5.882226
53.895 5.868619
53.900 5.924387
53.905 5.471909
53.910 5.210012
53.915 5.134463
53.920 5.100589
53.925 4.661641
53.930 4.973176
53.935 5.135979
53.940 5.793007
53.945 6.084718
53.950 6.29374
53.955 6.325506
53.960 6.252644
53.965 6.431321
53.970 6.682706
53.975 6.081124
53.980 5.850769
53.985 5.718856
53.990 5.90089
53.995 6.034309
54.000 5.569942
54.005 5.28304
54.010 5.433941
54.015 5.786229
54.020 5.98812
54.025 5.949213
54.030 5.833076
54.035 6.195281
54.040 6.092896
54.045 6.324802
54.050 6.328731
54.055 6.175938
54.060 6.509667
54.065 6.027952
54.070 5.842613
54.075 6.251967
54.080 6.157976
54.085 5.779328
54.090 5.306239
54.095 5.000901
54.100 5.032811
54.105 4.853233
54.110 4.432824
54.115 4.218834
54.120 4.81627
54.125 4.889067
54.130 5.15014
54.135 5.425969
54.140 5.467469
54.145 5.766993
54.150 6.066198
54.155 5.843583
54.160 6.107147
54.165 6.136036
54.170 6.191401
54.175 6.30627
54.180 6.244537
54.185 6.177543
54.190 6.351024
54.195 6.461494
54.200 6.238712
54.205 6.230565
54.210 5.927594
54.215 5.461157
54.220 5.158876
54.225 4.801545
54.230 4.715281
54.235 4.976086
54.240 5.029627
54.245 5.219111
54.250 5.219139
54.255 5.23153
54.260 5.396726
54.265 5.75192
54.270 5.700196
54.275 5.73554
54.280 5.956734
54.285 6.825743
54.290 7.200595
54.295 7.379251
54.300 7.233173
54.305 7.39029
54.310 7.574319
54.315 7.585201
54.320 7.321712
54.325 7.19771
54.330 7.03316
54.335 6.912343
54.340 6.416493
54.345 6.16149
54.350 6.26475
54.355 6.328912
54.360 6.417386
54.365 6.437233
54.370 6.477644
54.375 6.787199
54.380 7.011746
54.385 6.810028
54.390 6.71087
54.395 6.359241
54.400 6.1347
54.405 6.151007
54.410 6.173657
54.415 6.025753
54.420 5.989651
54.425 6.210256
54.430 6.621393
54.435 6.931472
54.440 7.13463
54.445 6.980936
54.450 6.857158
54.455 6.902177
54.460 6.580283
54.465 6.531035
54.470 6.542862
54.475 6.330387
54.480 6.322112
54.485 6.293674
54.490 6.233681
54.495 6.496533
54.500 6.541446
54.505 6.664296
54.510 6.658306
54.515 6.940356
54.520 6.825211
54.525 6.564655
54.530 6.151493
54.535 5.966558
54.540 5.737565
54.545 5.751914
54.550 5.610256
54.555 5.767786
54.560 6.028386
54.565 6.362156
54.570 6.704024
54.575 6.835648
54.580 6.615988
54.585 6.599883
54.590 6.561445
54.595 6.421377
54.600 6.236835
54.605 6.285079
54.610 6.594806
54.615 6.727722
54.620 6.800807
54.625 7.271487
54.630 7.564403
54.635 7.354776
54.640 6.736296
54.645 6.303438
54.650 6.149465
54.655 5.89348
54.660 5.641742
54.665 5.750135
54.670 5.953066
54.675 6.499347
54.680 6.715898
54.685 6.968805
54.690 7.540194
54.695 7.428021
54.700 7.301641
54.705 7.292513
54.710 7.228782
54.715 7.380779
54.720 7.318666
54.725 6.902902
54.730 6.930198
54.735 6.889918
54.740 7.203705
54.745 7.636803
54.750 7.134492
54.755 6.984487
54.760 7.080079
54.765 7.310719
54.770 7.286131
54.775 6.772214
54.780 6.367206
54.785 6.536665
54.790 6.482929
54.795 6.692373
54.800 6.713837
54.805 6.776331
54.810 6.857244
54.815 6.838699
54.820 7.100581
54.825 7.006692
54.830 6.524558
54.835 6.340574
54.840 6.058099
54.845 5.991233
54.850 6.293083
54.855 6.305835
54.860 6.512019
54.865 6.501158
54.870 6.764582
54.875 6.821835
54.880 7.238256
54.885 7.439536
54.890 7.364635
54.895 7.194079
54.900 7.181567
54.905 7.272965
54.910 7.46368
54.915 6.873488
54.920 6.861639
54.925 6.646856
54.930 6.571372
54.935 6.752595
54.940 6.740103
54.945 6.593034
54.950 6.23627
54.955 6.185297
54.960 6.421379
54.965 6.405995
54.970 6.317032
54.975 6.357023
54.980 6.329645
54.985 6.787559
54.990 6.796275
54.995 6.951027
55.000 6.743434
55.005 6.531093
55.010 6.555911
55.015 6.93071
55.020 6.961581
55.025 6.740897
55.030 6.96096
55.035 7.202728
55.040 7.128941
55.045 7.081632
55.050 6.685971
55.055 6.510743
55.060 6.719319
55.065 6.449748
55.070 6.584447
55.075 6.274855
55.080 6.334059
55.085 6.624232
55.090 6.33035
55.095 6.134211
55.100 6.272372
55.105 6.203121
55.110 6.30392
55.115 6.301085
55.120 5.89838
55.125 5.868859
55.130 5.766039
55.135 5.818621
55.140 5.472361
55.145 5.64514
55.150 5.776038
55.155 6.577087
55.160 6.932862
55.165 6.857918
55.170 7.026995
55.175 7.438797
55.180 7.209948
55.185 7.061244
55.190 6.917667
55.195 6.917208
55.200 7.298651
55.205 7.215787
55.210 7.473956
55.215 7.772337
55.220 7.765898
55.225 7.470162
55.230 7.386766
55.235 6.791585
55.240 7.031632
55.245 6.921662
55.250 7.000359
55.255 6.723393
55.260 6.757299
55.265 7.038254
55.270 7.398765
55.275 7.497998
55.280 7.472199
55.285 7.319293
55.290 7.480663
55.295 7.232937
55.300 6.940922
55.305 6.62261
55.310 6.697259
55.315 6.555377
55.320 6.709473
55.325 6.753453
55.330 6.827308
55.335 7.187226
55.340 7.314744
55.345 6.9616
55.350 7.408492
55.355 7.582149
55.360 7.998972
55.365 8.449238
55.370 8.081382
55.375 7.897014
55.380 7.92744
55.385 7.735017
55.390 7.42051
55.395 7.556251
55.400 7.272484
55.405 7.622484
55.410 7.911326
55.415 7.755621
55.420 7.487661
55.425 8.024916
55.430 7.584685
55.435 7.562278
55.440 7.621222
55.445 7.472465
55.450 7.744514
55.455 7.817606
55.460 7.557692
55.465 7.703126
55.470 7.974473
55.475 7.87951
55.480 7.649762
55.485 7.422312
55.490 7.22212
55.495 7.513775
55.500 8.127715
55.505 7.837366
55.510 7.759842
55.515 8.328074
55.520 8.589594
55.525 8.71985
55.530 8.00782
55.535 7.29689
55.540 7.07247
55.545 6.911545
55.550 6.332999
55.555 6.465077
55.560 6.993791
55.565 7.395316
55.570 7.841903
55.575 8.274706
55.580 8.664895
55.585 8.807737
55.590 8.438529
55.595 7.754427
55.600 7.791176
55.605 7.227455
55.610 6.878977
55.615 6.649745
55.620 6.776548
55.625 6.952313
55.630 7.154549
55.635 7.341414
55.640 7.950205
55.645 8.029521
55.650 8.349648
55.655 8.185944
55.660 7.910022
55.665 7.524079
55.670 7.162169
55.675 6.820582
55.680 6.958341
55.685 7.107873
55.690 7.076095
55.695 7.061893
55.700 7.500178
55.705 7.698174
55.710 7.632705
55.715 7.425228
55.720 7.666687
55.725 7.775529
55.730 7.900981
55.735 7.551174
55.740 7.304496
55.745 7.406912
55.750 7.450022
55.755 7.021392
55.760 7.197368
55.765 7.260271
55.770 7.593317
55.775 8.111463
55.780 8.101929
55.785 8.305872
55.790 8.644827
55.795 8.277162
55.800 8.380699
55.805 8.108027
55.810 7.982223
55.815 8.235113
55.820 7.469061
55.825 7.291289
55.830 7.549948
55.835 7.526365
55.840 7.777579
55.845 7.467302
55.850 7.816476
55.855 8.055276
55.860 7.791893
55.865 7.655343
55.870 7.335963
55.875 7.302054
55.880 7.287388
55.885 6.911871
55.890 7.30737
55.895 7.842366
55.900 7.999624
55.905 8.200843
55.910 8.051171
55.915 7.792252
55.920 7.264751
55.925 6.696786
55.930 6.421699
55.935 6.423476
55.940 6.498479
55.945 6.927238
55.950 7.680496
55.955 8.528476
55.960 8.800708
55.965 9.108878
55.970 9.159581
55.975 9.103186
55.980 8.946301
55.985 8.645247
55.990 8.17694
55.995 8.192009
56.000 8.620076
56.005 8.461051
56.010 8.41297
56.015 8.266275
56.020 8.296229
56.025 8.864344
56.030 8.569533
56.035 8.472943
56.040 8.794145
56.045 8.957055
56.050 9.015111
56.055 8.856861
56.060 8.69797
56.065 9.116097
56.070 8.860049
56.075 8.516501
56.080 8.386421
56.085 8.387761
56.090 8.373753
56.095 8.389473
56.100 7.797966
56.105 7.75986
56.110 8.310499
56.115 8.54248
56.120 8.413407
56.125 8.48655
56.130 8.603418
56.135 8.860852
56.140 9.193001
56.145 8.730058
56.150 8.708652
56.155 9.008335
56.160 9.01131
56.165 8.704973
56.170 8.572527
56.175 8.385018
56.180 8.067924
56.185 7.822932
56.190 7.861841
56.195 7.546033
56.200 7.555483
56.205 7.896193
56.210 7.614055
56.215 7.613909
56.220 7.57018
56.225 7.305981
56.230 7.732613
56.235 7.483562
56.240 7.171237
56.245 7.609585
56.250 7.276093
56.255 7.243461
56.260 7.048575
56.265 7.113139
56.270 7.424699
56.275 7.770727
56.280 8.342477
56.285 8.819223
56.290 8.944231
56.295 9.184695
56.300 9.26004
56.305 8.791436
56.310 8.252667
56.315 7.757379
56.320 7.846657
56.325 7.596961
56.330 7.302571
56.335 7.296041
56.340 7.399433
56.345 7.558054
56.350 8.020336
56.355 8.251801
56.360 8.418674
56.365 8.411064
56.370 8.623158
56.375 8.524785
56.380 8.538375
56.385 8.013395
56.390 7.803822
56.395 7.773902
56.400 7.608116
56.405 7.226946
56.410 7.149123
56.415 7.190259
56.420 7.181018
56.425 7.13417
56.430 7.37469
56.435 7.393282
56.440 7.494842
56.445 7.129687
56.450 6.785218
56.455 7.006342
56.460 7.389688
56.465 7.417225
56.470 7.528659
56.475 7.760032
56.480 8.026252
56.485 8.147478
56.490 8.482327
56.495 8.86341
56.500 8.565708
56.505 8.211426
56.510 8.481465
56.515 8.686548
56.520 9.009265
56.525 8.659554
56.530 8.098846
56.535 8.506865
56.540 8.673648
56.545 8.747063
56.550 8.935404
56.555 8.862694
56.560 9.105473
56.565 9.329634
56.570 9.44
56.575 9.469086
56.580 9.005198
56.585 8.786756
56.590 8.523027
56.595 8.317644
56.600 8.348797
56.605 8.314165
56.610 8.334267
56.615 8.704155
56.620 8.883682
56.625 9.130838
56.630 8.965073
56.635 8.388303
56.640 8.149818
56.645 8.40765
56.650 8.170384
56.655 8.281383
56.660 8.061968
56.665 8.189401
56.670 8.574185
56.675 8.531863
56.680 8.978917
56.685 8.878071
56.690 8.991101
56.695 9.225272
56.700 9.000907
56.705 9.330464
56.710 9.711128
56.715 9.181611
56.720 9.504721
56.725 9.3939
56.730 9.170095
56.735 9.662599
56.740 9.699004
56.745 9.220614
56.750 9.269563
56.755 9.261473
56.760 9.156862
56.765 9.213721
56.770 8.980044
56.775 8.911191
56.780 9.096713
56.785 9.239805
56.790 9.571065
56.795 9.786277
56.800 9.811738
56.805 9.652557
56.810 9.479524
56.815 9.557119
56.820 8.919998
56.825 8.669437
56.830 8.482905
56.835 8.802978
56.840 8.836314
56.845 8.923499
56.850 9.043842
56.855 9.249489
56.860 8.956208
56.865 8.824608
56.870 8.788151
56.875 9.094457
56.880 8.74203
56.885 8.306821
56.890 8.098261
56.895 8.293748
56.900 7.89522
56.905 7.558977
56.910 7.526133
56.915 7.854279
56.920 7.93542
56.925 8.149859
56.930 8.501657
56.935 9.027171
56.940 9.324024
56.945 9.064496
56.950 8.965981
56.955 9.588324
56.960 9.751983
56.965 9.566362
56.970 9.109264
56.975 9.790598
56.980 10.614409
56.985 10.861704
56.990 10.449774
56.995 10.372613
57.000 10.32875
57.005 10.73402
57.010 9.545684
57.015 9.180015
57.020 8.68688
57.025 8.931817
57.030 8.798742
57.035 8.697783
57.040 8.684296
57.045 8.965032
57.050 9.055589
57.055 9.105475
57.060 9.021385
57.065 9.125075
57.070 9.208657
57.075 9.077092
57.080 9.170448
57.085 8.902407
57.090 8.910552
57.095 8.503613
57.100 8.389916
57.105 8.164976
57.110 8.269082
57.115 8.256714
57.120 8.483037
57.125 8.327106
57.130 8.678988
57.135 8.569641
57.140 8.34902
57.145 7.778914
57.150 7.995358
57.155 8.305209
57.160 8.945509
57.165 9.084131
57.170 9.246742
57.175 9.848419
57.180 10.170403
57.185 9.77335
57.190 9.537906
57.195 9.240394
57.200 8.977926
57.205 9.011086
57.210 8.81299
57.215 8.928143
57.220 8.842619
57.225 8.703817
57.230 8.93808
57.235 9.556113
57.240 9.893624
57.245 9.969271
57.250 9.921091
57.255 10.093776
57.260 10.272431
57.265 10.563897
57.270 10.203697
57.275 10.101089
57.280 10.161619
57.285 9.957215
57.290 9.701053
57.295 9.918027
57.300 9.930374
57.305 10.043074
57.310 10.184464
57.315 10.725201
57.320 10.928176
57.325 10.969845
57.330 10.623379
57.335 10.241472
57.340 10.111493
57.345 9.578411
57.350 8.996622
57.355 8.977129
57.360 9.297494
57.365 9.417355
57.370 8.985652
57.375 8.771147
57.380 8.702953
57.385 8.676297
57.390 8.772344
57.395 9.134486
57.400 8.952971
57.405 9.173063
57.410 9.508848
57.415 9.58908
57.420 9.481083
57.425 9.406668
57.430 8.790258
57.435 8.999171
57.440 9.073499
57.445 9.318303
57.450 9.614425
57.455 9.58034
57.460 9.41567
57.465 9.66623
57.470 9.771966
57.475 9.36481
57.480 9.114422
57.485 9.304529
57.490 9.306849
57.495 9.228918
57.500 9.175283
57.505 9.305475
57.510 9.668112
57.515 9.813149
57.520 9.204402
57.525 9.304037
57.530 9.26862
57.535 9.061932
57.540 9.019502
57.545 8.881998
57.550 8.774885
57.555 9.126122
57.560 9.269461
57.565 9.61142
57.570 9.679196
57.575 9.745467
57.580 9.624541
57.585 9.664326
57.590 9.973538
57.595 9.78995
57.600 9.801737
57.605 9.797635
57.610 9.772164
57.615 9.798211
57.620 9.865141
57.625 9.469365
57.630 9.993823
57.635 9.734844
57.640 9.368346
57.645 9.255124
57.650 9.637219
57.655 10.071587
57.660 10.151569
57.665 9.672641
57.670 9.954037
57.675 10.436288
57.680 10.834991
57.685 10.835381
57.690 10.656198
57.695 11.07165
57.700 11.314058
57.705 11.367229
57.710 11.109564
57.715 10.976459
57.720 10.612051
57.725 10.116442
57.730 9.826739
57.735 9.497574
57.740 9.232358
57.745 9.215703
57.750 9.298824
57.755 9.50088
57.760 9.980917
57.765 10.091563
57.770 10.386509
57.775 10.540972
57.780 10.608568
57.785 10.241027
57.790 10.351009
57.795 10.179804
57.800 10.231072
57.805 10.440107
57.810 10.322368
57.815 10.541971
57.820 10.996383
57.825 11.118998
57.830 11.121044
57.835 10.961112
57.840 10.735414
57.845 10.759696
57.850 10.727025
57.855 10.546161
57.860 10.376863
57.865 10.283565
57.870 10.188972
57.875 10.277101
57.880 10.774148
57.885 10.669991
57.890 10.56393
57.895 10.585988
57.900 11.092924
57.905 11.331714
57.910 10.846944
57.915 10.598711
57.920 10.594096
57.925 10.632536
57.930 10.873931
57.935 10.646305
57.940 10.898448
57.945 11.423531
57.950 11.703361
57.955 11.789687
57.960 11.448966
57.965 11.264465
57.970 10.979569
57.975 10.528583
57.980 10.479255
57.985 9.882162
57.990 9.845724
57.995 10.326751
58.000 10.290886
58.005 10.877939
58.010 11.066449
58.015 11.106086
58.020 11.514812
58.025 11.821319
58.030 11.496835
58.035 11.262683
58.040 11.075954
58.045 11.22449
58.050 11.262076
58.055 11.283161
58.060 10.782272
58.065 10.667417
58.070 10.767609
58.075 10.706963
58.080 10.563666
58.085 10.157532
58.090 9.948959
58.095 10.096295
58.100 10.259115
58.105 10.139298
58.110 9.973536
58.115 10.213769
58.120 10.200944
58.125 10.156537
58.130 9.69269
58.135 10.051802
58.140 10.388282
58.145 11.027653
58.150 10.683597
58.155 10.604349
58.160 11.104094
58.165 11.591979
58.170 11.567932
58.175 11.276477
58.180 10.595812
58.185 10.965806
58.190 11.409739
58.195 11.268844
58.200 11.472415
58.205 11.475207
58.210 11.81937
58.215 12.116694
58.220 12.32641
58.225 12.087188
58.230 12.23225
58.235 12.140014
58.240 11.937798
58.245 11.930984
58.250 11.926683
58.255 11.71295
58.260 12.053452
58.265 12.079276
58.270 12.091839
58.275 12.255789
58.280 12.152555
58.285 12.385327
58.290 12.482333
58.295 12.134275
58.300 11.746951
58.305 12.201468
58.310 12.508799
58.315 12.093858
58.320 11.847688
58.325 12.046952
58.330 11.897754
58.335 11.770542
58.340 11.539022
58.345 11.724721
58.350 12.313017
58.355 12.320697
58.360 12.357141
58.365 13.14891
58.370 13.467168
58.375 14.001685
58.380 13.958245
58.385 13.802116
58.390 14.129132
58.395 14.597706
58.400 14.235912
58.405 14.440656
58.410 14.166414
58.415 14.175509
58.420 14.416142
58.425 14.492007
58.430 14.57958
58.435 14.865101
58.440 14.825149
58.445 14.534533
58.450 14.906242
58.455 15.004462
58.460 15.165852
58.465 15.453344
58.470 16.044912
58.475 16.430836
58.480 16.910583
58.485 17.052999
58.490 17.137667
58.495 17.36381
58.500 17.62816
58.505 18.177061
58.510 18.556261
58.515 18.970089
58.520 19.342169
58.525 19.601845
58.530 19.495407
58.535 19.334616
58.540 18.995838
58.545 18.596992
58.550 18.400629
58.555 19.021557
58.560 19.262489
58.565 19.779997
58.570 20.669502
58.575 21.494352
58.580 21.845819
58.585 22.019321
58.590 22.277529
58.595 22.885414
58.600 22.733326
58.605 22.176439
58.610 21.692539
58.615 21.84379
58.620 21.572832
58.625 21.224848
58.630 20.924925
58.635 20.568058
58.640 20.943588
58.645 21.198473
58.650 22.433165
58.655 23.168003
58.660 24.171202
58.665 24.343376
58.670 25.044516
58.675 25.198614
58.680 25.164202
58.685 24.365971
58.690 23.966787
58.695 24.030083
58.700 24.594234
58.705 24.10779
58.710 23.879206
58.715 23.717558
58.720 23.538578
58.725 23.532288
58.730 22.545218
58.735 22.322178
58.740 22.931147
58.745 23.26092
58.750 23.800406
58.755 24.154425
58.760 23.861633
58.765 24.026247
58.770 23.603485
58.775 22.492594
58.780 21.702858
58.785 21.381676
58.790 20.539948
58.795 20.198637
58.800 19.785093
58.805 19.502438
58.810 19.316748
58.815 19.083794
58.820 18.908159
58.825 19.116629
58.830 18.850113
58.835 18.029951
58.840 17.888414
58.845 18.322596
58.850 18.091431
58.855 17.335592
58.860 17.326378
58.865 17.559448
58.870 17.756878
58.875 17.601732
58.880 16.646742
58.885 16.245045
58.890 16.19095
58.895 15.547207
58.900 15.21184
58.905 14.685768
58.910 14.870249
58.915 15.275449
58.920 14.765591
58.925 14.580115
58.930 14.564418
58.935 15.015441
58.940 15.276421
58.945 14.48778
58.950 14.249084
58.955 14.650578
58.960 14.661748
58.965 14.510029
58.970 13.848323
58.975 13.925664
58.980 13.723625
58.985 13.228152
58.990 12.85829
58.995 12.577065
59.000 12.5483
59.005 12.448994
59.010 11.755622
59.015 11.972668
59.020 12.259194
59.025 12.488187
59.030 12.814351
59.035 13.11348
59.040 12.988955
59.045 13.07434
59.050 13.313068
59.055 12.952613
59.060 12.77145
59.065 12.878846
59.070 12.741611
59.075 12.502621
59.080 12.425115
59.085 12.242433
59.090 12.425518
59.095 12.348639
59.100 12.145161
59.105 12.162343
59.110 12.156083
59.115 11.993291
59.120 12.013878
59.125 12.322115
59.130 12.346152
59.135 11.886915
59.140 11.801329
59.145 11.848434
59.150 11.696594
59.155 11.098971
59.160 10.875581
59.165 10.466007
59.170 10.464791
59.175 10.521287
59.180 10.820399
59.185 11.121189
59.190 11.545419
59.195 10.927874
59.200 11.440251
59.205 12.150366
59.210 12.302625
59.215 12.095564
59.220 12.408802
59.225 12.482885
59.230 12.995626
59.235 13.02776
59.240 12.335467
59.245 11.937667
59.250 11.353803
59.255 10.539352
59.260 10.112365
59.265 9.868672
59.270 9.723606
59.275 9.862931
59.280 9.817585
59.285 9.930464
59.290 10.443715
59.295 10.699727
59.300 10.330445
59.305 10.255569
59.310 10.130659
59.315 10.298832
59.320 9.928689
59.325 9.300397
59.330 9.401803
59.335 9.75173
59.340 9.777518
59.345 9.732165
59.350 9.471811
59.355 9.757619
59.360 9.85052
59.365 9.951534
59.370 10.262301
59.375 10.357398
59.380 10.436621
59.385 10.874716
59.390 11.681811
59.395 11.947162
59.400 12.138859
59.405 11.734488
59.410 11.404682
59.415 11.161315
59.420 10.848192
59.425 10.267356
59.430 9.852572
59.435 9.554621
59.440 9.710758
59.445 10.0701
59.450 9.906719
59.455 10.08138
59.460 10.917491
59.465 11.280875
59.470 11.399195
59.475 11.59642
59.480 11.336254
59.485 11.450499
59.490 11.306218
59.495 10.782477
59.500 10.98359
59.505 11.090093
59.510 10.879723
59.515 10.931972
59.520 11.518233
59.525 11.81113
59.530 11.720066
59.535 11.256412
59.540 10.867464
59.545 11.002706
59.550 11.182151
59.555 10.94611
59.560 10.731478
59.565 11.097859
59.570 11.59692
59.575 11.893058
59.580 11.591304
59.585 11.655408
59.590 11.531853
59.595 11.397552
59.600 10.95507
59.605 10.70462
59.610 10.745773
59.615 11.131763
59.620 11.163344
59.625 10.908804
59.630 10.91518
59.635 11.073366
59.640 11.078751
59.645 11.055794
59.650 10.58829
59.655 10.207232
59.660 10.224877
59.665 10.688483
59.670 9.97277
59.675 9.978209
59.680 10.494694
59.685 10.385633
59.690 10.525754
59.695 10.576154
59.700 10.612848
59.705 11.341541
59.710 11.45297
59.715 11.292686
59.720 11.562121
59.725 11.284273
59.730 10.92948
59.735 10.638329
59.740 10.569595
59.745 10.676201
59.750 10.887857
59.755 11.186782
59.760 11.745761
59.765 12.304049
59.770 12.073537
59.775 11.840858
59.780 11.559139
59.785 11.362175
59.790 11.055932
59.795 11.26303
59.800 11.291426
59.805 11.721019
59.810 11.475684
59.815 11.674462
59.820 11.725975
59.825 11.828117
59.830 11.273438
59.835 11.211652
59.840 11.575909
59.845 11.920835
59.850 11.524099
59.855 11.171804
59.860 11.117512
59.865 11.110129
59.870 11.111613
59.875 11.139789
59.880 11.088108
59.885 11.614663
59.890 12.282032
59.895 12.447479
59.900 12.072532
59.905 11.717089
59.910 11.227017
59.915 10.976735
59.920 10.930063
59.925 10.544232
59.930 10.520815
59.935 11.280993
59.940 11.598937
59.945 11.610586
59.950 11.508381
59.955 11.380271
59.960 11.644327
59.965 11.771566
59.970 11.51372
59.975 11.46964
59.980 11.605121
59.985 11.77985
59.990 11.57997
59.995 11.552924
60.000 11.609984
60.005 11.633732
60.010 11.149386
60.015 10.669161
60.020 10.765686
60.025 11.049985
60.030 10.831477
60.035 10.849592
60.040 11.258846
60.045 11.697771
60.050 12.334469
60.055 12.224876
60.060 11.995477
60.065 12.113328
60.070 12.117605
60.075 11.771206
60.080 11.68718
60.085 12.075548
60.090 11.834793
60.095 11.544217
60.100 11.234858
60.105 11.116591
60.110 11.087687
60.115 11.035368
60.120 10.26751
60.125 10.600707
60.130 10.610731
60.135 11.027468
60.140 11.058786
60.145 11.087148
60.150 11.157629
60.155 11.442279
60.160 11.500325
60.165 11.96439
60.170 11.799419
60.175 11.345583
60.180 11.483061
60.185 11.554167
60.190 11.045054
60.195 10.487945
60.200 10.061566
60.205 10.059129
60.210 10.710324
60.215 10.298134
60.220 10.242673
60.225 10.59633
60.230 10.87362
60.235 11.13855
60.240 11.246942
60.245 11.071058
60.250 11.435387
60.255 11.280849
60.260 11.476771
60.265 11.892543
60.270 11.903948
60.275 11.58872
60.280 11.53086
60.285 11.216945
60.290 11.529769
60.295 11.604683
60.300 11.410529
60.305 11.354944
60.310 11.469394
60.315 11.179506
60.320 11.505442
60.325 11.141649
60.330 10.567448
60.335 10.072705
60.340 10.34866
60.345 10.514239
60.350 10.930602
60.355 10.348168
60.360 10.578949
60.365 10.817456
60.370 10.818265
60.375 10.475047
60.380 10.751462
60.385 10.866828
60.390 11.225678
60.395 11.279687
60.400 11.448235
60.405 11.644384
60.410 11.595412
60.415 11.126744
60.420 10.82311
60.425 11.080319
60.430 11.157664
60.435 11.54407
60.440 11.723658
60.445 11.993359
60.450 11.927489
60.455 11.930387
60.460 11.742992
60.465 11.747485
60.470 11.522485
60.475 11.450339
60.480 11.545169
60.485 11.895508
60.490 11.971644
60.495 12.23736
60.500 12.535851
60.505 12.729502
60.510 12.488693
60.515 12.121217
60.520 12.000224
60.525 11.947738
60.530 11.453
60.535 11.040213
60.540 11.016289
60.545 10.963355
60.550 10.845227
60.555 11.217972
60.560 11.218353
60.565 11.384709
60.570 11.393606
60.575 11.531185
60.580 12.118053
60.585 12.454344
60.590 12.065433
60.595 12.113875
60.600 12.078806
60.605 12.050206
60.610 11.736478
60.615 11.323613
60.620 11.231498
60.625 11.225734
60.630 11.075489
60.635 11.132627
60.640 11.507464
60.645 11.774428
60.650 11.736403
60.655 12.0314
60.660 12.195004
60.665 12.52085
60.670 12.405993
60.675 12.31471
60.680 12.494518
60.685 12.504029
60.690 12.292503
60.695 12.285502
60.700 12.395263
60.705 12.31879
60.710 12.311435
60.715 12.544409
60.720 12.578146
60.725 12.249384
60.730 11.971849
60.735 12.339638
60.740 12.776949
60.745 12.367502
60.750 11.782333
60.755 11.850895
60.760 12.509338
60.765 12.976697
60.770 12.47823
60.775 12.106957
60.780 12.034955
60.785 12.087236
60.790 12.226027
60.795 12.100638
60.800 11.885469
60.805 11.929295
60.810 11.880004
60.815 11.990335
60.820 12.008389
60.825 12.040863
60.830 11.902129
60.835 11.544626
60.840 11.252047
60.845 11.997108
60.850 12.421587
60.855 12.488806
60.860 12.633895
60.865 12.403276
60.870 12.57614
60.875 12.910277
60.880 12.239821
60.885 11.819139
60.890 11.355536
60.895 11.017555
60.900 11.645264
60.905 11.531483
60.910 11.333795
60.915 11.524627
60.920 11.912406
60.925 12.388872
60.930 12.068286
60.935 11.724756
60.940 11.794147
60.945 11.775927
60.950 11.542427
60.955 11.689834
60.960 11.874211
60.965 12.146485
60.970 12.314192
60.975 11.915483
60.980 12.034773
60.985 11.513963
60.990 11.09838
60.995 10.819712
61.000 10.553757
61.005 10.5689
61.010 11.085962
61.015 10.817655
61.020 11.693336
61.025 12.130423
61.030 12.378718
61.035 12.503912
61.040 12.492213
61.045 12.489842
61.050 12.49248
61.055 12.065439
61.060 11.842815
61.065 11.995744
61.070 12.152434
61.075 12.122683
61.080 12.134356
61.085 11.922435
61.090 11.922617
61.095 11.457018
61.100 11.139352
61.105 11.04784
61.110 11.250706
61.115 11.106066
61.120 11.22494
61.125 11.092761
61.130 11.404802
61.135 11.02882
61.140 10.784866
61.145 10.47642
61.150 10.488833
61.155 10.48635
61.160 10.345622
61.165 10.766109
61.170 11.572165
61.175 11.621949
61.180 11.289585
61.185 11.152441
61.190 11.320137
61.195 11.584642
61.200 11.137211
61.205 11.551501
61.210 11.690907
61.215 11.973719
61.220 12.130128
61.225 12.310081
61.230 13.260377
61.235 13.224086
61.240 12.608744
61.245 12.863846
61.250 13.201663
61.255 13.241066
61.260 12.602966
61.265 11.885869
61.270 11.882732
61.275 12.142896
61.280 12.358646
61.285 12.112623
61.290 12.140793
61.295 12.269834
61.300 12.162196
61.305 12.030044
61.310 11.767101
61.315 11.278283
61.320 10.950038
61.325 10.590263
61.330 10.598503
61.335 9.805761
61.340 9.614675
61.345 9.476696
61.350 9.363673
61.355 9.546755
61.360 9.784602
61.365 9.799959
61.370 10.389544
61.375 10.254377
61.380 10.579014
61.385 10.858285
61.390 11.356603
61.395 11.717386
61.400 12.001777
61.405 12.291243
61.410 12.060238
61.415 11.7012
61.420 11.622316
61.425 11.348196
61.430 11.614659
61.435 12.108561
61.440 12.373395
61.445 12.354775
61.450 12.083306
61.455 12.34929
61.460 12.147111
61.465 11.612753
61.470 10.881523
61.475 10.702826
61.480 11.083302
61.485 11.238949
61.490 11.297478
61.495 11.388662
61.500 11.504771
61.505 11.852541
61.510 11.75095
61.515 12.364573
61.520 12.871039
61.525 12.838664
61.530 12.648431
61.535 12.541409
61.540 12.34769
61.545 12.402218
61.550 12.088675
61.555 11.860529
61.560 11.709126
61.565 11.525331
61.570 11.346886
61.575 11.845193
61.580 12.328717
61.585 12.221979
61.590 12.307309
61.595 12.192958
61.600 12.438267
61.605 12.230082
61.610 12.502697
61.615 12.140875
61.620 11.827026
61.625 11.794857
61.630 11.811039
61.635 11.68041
61.640 11.903656
61.645 12.002806
61.650 12.197655
61.655 12.218475
61.660 12.306086
61.665 12.576322
61.670 13.03554
61.675 13.115954
61.680 12.807072
61.685 12.850198
61.690 13.011033
61.695 12.736746
61.700 12.808971
61.705 12.811916
61.710 12.828585
61.715 12.151055
61.720 11.72462
61.725 11.624369
61.730 11.450065
61.735 11.091228
61.740 10.743604
61.745 10.801021
61.750 11.332853
61.755 11.349323
61.760 11.100822
61.765 11.449697
61.770 11.572597
61.775 11.866175
61.780 11.814734
61.785 11.75525
61.790 12.055963
61.795 11.716818
61.800 11.432543
61.805 11.836379
61.810 12.053715
61.815 12.256791
61.820 12.291695
61.825 12.761808
61.830 13.475492
61.835 13.813461
61.840 13.564095
61.845 13.216154
61.850 12.769039
61.855 13.066711
61.860 12.939933
61.865 12.885145
61.870 13.225823
61.875 13.315941
61.880 13.417621
61.885 13.589421
61.890 12.910153
61.895 12.82776
61.900 13.431659
61.905 13.036625
61.910 12.782958
61.915 12.834342
61.920 12.548306
61.925 12.454231
61.930 12.326644
61.935 11.704765
61.940 11.29931
61.945 11.557707
61.950 11.744189
61.955 12.499234
61.960 12.859861
61.965 13.472318
61.970 13.711655
61.975 13.827355
61.980 13.376166
61.985 12.746
61.990 12.841657
61.995 12.748991
62.000 12.588116
62.005 12.35531
62.010 12.48443
62.015 12.194161
62.020 12.424144
62.025 12.012652
62.030 12.007123
62.035 11.653227
62.040 11.657774
62.045 11.465415
62.050 11.839211
62.055 11.957743
62.060 11.814781
62.065 11.614943
62.070 11.322948
62.075 11.356896
62.080 11.869385
62.085 11.971662
62.090 12.100616
62.095 12.251094
62.100 12.281473
62.105 12.705832
62.110 12.781411
62.115 12.720332
62.120 12.816917
62.125 12.482894
62.130 12.384201
62.135 12.251446
62.140 11.959862
62.145 12.147779
62.150 12.312295
62.155 12.124592
62.160 12.277068
62.165 12.448172
62.170 13.303753
62.175 13.525558
62.180 13.784973
62.185 13.588023
62.190 13.662457
62.195 13.683533
62.200 13.713801
62.205 12.930503
62.210 12.928246
62.215 12.930043
62.220 12.888037
62.225 13.141692
62.230 13.241194
62.235 12.914654
62.240 13.080081
62.245 12.73794
62.250 12.204694
62.255 12.172646
62.260 11.559128
62.265 11.23955
62.270 11.765316
62.275 11.819266
62.280 11.53913
62.285 11.865115
62.290 12.032651
62.295 12.243892
62.300 12.162252
62.305 11.896894
62.310 12.000283
62.315 11.990934
62.320 11.983781
62.325 12.567906
62.330 12.815209
62.335 13.010287
62.340 13.555304
62.345 13.791965
62.350 14.188393
62.355 13.544085
62.360 13.057188
62.365 12.978076
62.370 12.846815
62.375 11.981634
62.380 11.478267
62.385 11.496517
62.390 12.138785
62.395 12.343752
62.400 11.927276
62.405 12.062243
62.410 13.102864
62.415 14.154377
62.420 14.30137
62.425 14.135525
62.430 13.766535
62.435 14.146399
62.440 13.772315
62.445 13.068872
62.450 12.758451
62.455 12.804201
62.460 13.01227
62.465 13.169611
62.470 13.178092
62.475 13.402619
62.480 13.462411
62.485 13.060242
62.490 12.760651
62.495 12.148317
62.500 12.076611
62.505 11.901153
62.510 11.860448
62.515 12.047047
62.520 12.314686
62.525 12.531374
62.530 12.836735
62.535 13.440443
62.540 13.812797
62.545 13.799893
62.550 13.695195
62.555 13.470373
62.560 13.591614
62.565 13.467735
62.570 12.719601
62.575 12.527292
62.580 12.356654
62.585 11.914091
62.590 12.073531
62.595 12.445651
62.600 13.060267
62.605 13.557886
62.610 13.497761
62.615 13.503656
62.620 13.516551
62.625 13.431749
62.630 13.268467
62.635 12.815394
62.640 12.526717
62.645 12.245925
62.650 12.529485
62.655 12.757133
62.660 12.785589
62.665 12.193563
62.670 12.066654
62.675 12.150629
62.680 12.674985
62.685 12.766001
62.690 12.926429
62.695 13.022789
62.700 13.222793
62.705 13.351302
62.710 13.620584
62.715 13.530738
62.720 13.302353
62.725 13.158572
62.730 13.171426
62.735 13.158252
62.740 13.177977
62.745 13.279417
62.750 13.662088
62.755 13.839312
62.760 14.298381
62.765 13.999252
62.770 13.920032
62.775 13.287254
62.780 13.012026
62.785 12.479342
62.790 12.599344
62.795 12.026346
62.800 12.179759
62.805 12.487109
62.810 12.8185
62.815 12.931051
62.820 13.438356
62.825 13.380059
62.830 13.393387
62.835 13.738875
62.840 13.515016
62.845 13.313079
62.850 13.344378
62.855 13.027159
62.860 12.76231
62.865 12.978198
62.870 12.803199
62.875 12.838745
62.880 13.284727
62.885 13.100904
62.890 13.006948
62.895 12.880861
62.900 12.850918
62.905 12.675177
62.910 12.930505
62.915 12.560696
62.920 12.44133
62.925 12.283978
62.930 12.416894
62.935 11.980543
62.940 11.791716
62.945 11.68659
62.950 11.48402
62.955 11.657135
62.960 12.165249
62.965 12.185173
62.970 12.823175
62.975 13.153689
62.980 13.506463
62.985 14.057924
62.990 14.123856
62.995 13.725198
63.000 13.813589
63.005 13.588387
63.010 13.254736
63.015 12.447943
63.020 11.868856
63.025 11.993485
63.030 12.29943
63.035 12.650541
63.040 12.770412
63.045 12.768208
63.050 13.456028
63.055 13.910396
63.060 13.984437
63.065 13.769252
63.070 13.604769
63.075 13.727077
63.080 13.722789
63.085 12.904718
63.090 12.413286
63.095 12.404263
63.100 12.537374
63.105 12.211804
63.110 12.0183
63.115 12.367018
63.120 13.349059
63.125 13.753292
63.130 13.581387
63.135 13.3609
63.140 13.500324
63.145 13.584122
63.150 13.345637
63.155 12.922792
63.160 13.164094
63.165 13.900397
63.170 13.948046
63.175 14.223861
63.180 14.501558
63.185 15.022297
63.190 15.509457
63.195 15.081563
63.200 14.679487
63.205 14.418086
63.210 14.144795
63.215 14.384296
63.220 14.039489
63.225 13.87688
63.230 14.2016
63.235 14.144753
63.240 14.351823
63.245 14.535343
63.250 14.073382
63.255 13.800719
63.260 13.348698
63.265 12.601072
63.270 12.207042
63.275 12.377531
63.280 11.993958
63.285 11.27533
63.290 11.345695
63.295 11.426788
63.300 12.050831
63.305 12.119122
63.310 12.225232
63.315 12.511136
63.320 14.025712
63.325 13.733285
63.330 13.247448
63.335 13.223844
63.340 13.171618
63.345 12.783743
63.350 12.464869
63.355 12.123427
63.360 12.300575
63.365 12.620222
63.370 12.40636
63.375 12.917627
63.380 13.723168
63.385 13.571736
63.390 13.320097
63.395 13.601592
63.400 13.869362
63.405 14.06218
63.410 14.174126
63.415 13.812864
63.420 14.325943
63.425 14.665433
63.430 14.849369
63.435 14.904376
63.440 14.515263
63.445 13.918241
63.450 14.473228
63.455 14.767028
63.460 14.44945
63.465 14.830637
63.470 15.268818
63.475 15.866692
63.480 16.137882
63.485 15.869358
63.490 15.48678
63.495 15.310826
63.500 14.893667
63.505 14.594492
63.510 14.503726
63.515 14.093122
63.520 14.123185
63.525 14.298239
63.530 14.423066
63.535 14.192406
63.540 14.165318
63.545 13.966193
63.550 13.692627
63.555 13.159946
63.560 13.104609
63.565 13.326848
63.570 13.148574
63.575 13.232326
63.580 13.734297
63.585 14.415325
63.590 14.847063
63.595 14.987219
63.600 15.06046
63.605 15.506759
63.610 15.303733
63.615 14.861875
63.620 14.575165
63.625 14.31307
63.630 14.500476
63.635 14.12971
63.640 13.794555
63.645 14.05452
63.650 14.535421
63.655 14.324556
63.660 14.178412
63.665 14.253837
63.670 14.60295
63.675 14.573458
63.680 13.983184
63.685 13.930819
63.690 14.480495
63.695 14.483814
63.700 14.261827
63.705 14.293779
63.710 14.595221
63.715 14.917237
63.720 15.069138
63.725 15.248454
63.730 15.038099
63.735 14.571046
63.740 14.215284
63.745 14.422955
63.750 14.367552
63.755 13.827214
63.760 12.902593
63.765 12.805255
63.770 12.58266
63.775 12.877344
63.780 13.084266
63.785 13.103269
63.790 12.995388
63.795 13.693663
63.800 14.308745
63.805 14.989923
63.810 14.789082
63.815 14.34019
63.820 14.314436
63.825 14.480821
63.830 14.477096
63.835 13.890358
63.840 13.945755
63.845 14.320305
63.850 14.032063
63.855 13.72983
63.860 13.580728
63.865 14.087553
63.870 14.470673
63.875 13.950413
63.880 13.761898
63.885 14.2148
63.890 14.718794
63.895 14.482753
63.900 13.74571
63.905 13.229173
63.910 13.526126
63.915 13.510574
63.920 13.693262
63.925 14.005966
63.930 14.30055
63.935 14.87119
63.940 14.976959
63.945 14.898031
63.950 14.975474
63.955 14.698603
63.960 14.660818
63.965 14.769611
63.970 14.438652
63.975 14.368217
63.980 14.335899
63.985 14.505938
63.990 15.136674
63.995 14.537828
64.000 15.062935
64.005 15.629192
64.010 16.309931
64.015 17.018951
64.020 16.859058
64.025 16.819939
64.030 17.342741
64.035 16.814102
64.040 16.629345
64.045 16.279751
64.050 15.683139
64.055 16.25738
64.060 16.46736
64.065 16.653334
64.070 17.114594
64.075 17.581186
64.080 18.288376
64.085 19.256395
64.090 18.79286
64.095 18.676344
64.100 19.001259
64.105 18.766983
64.110 18.829399
64.115 18.642891
64.120 18.479773
64.125 18.669117
64.130 18.527374
64.135 19.082338
64.140 19.313078
64.145 19.950563
64.150 20.538738
64.155 20.719984
64.160 20.943638
64.165 21.402182
64.170 21.508881
64.175 21.717604
64.180 21.705509
64.185 21.92757
64.190 22.242201
64.195 23.480469
64.200 23.696514
64.205 23.627882
64.210 24.198727
64.215 25.026251
64.220 26.425034
64.225 26.777767
64.230 26.560873
64.235 27.06529
64.240 27.25806
64.245 27.254757
64.250 26.719114
64.255 27.518126
64.260 28.778811
64.265 28.949724
64.270 29.135818
64.275 29.737034
64.280 30.804066
64.285 31.435322
64.290 31.479597
64.295 31.410925
64.300 32.711201
64.305 33.503563
64.310 33.920856
64.315 33.786167
64.320 33.156307
64.325 33.206825
64.330 33.615219
64.335 33.377644
64.340 33.691196
64.345 34.07938
64.350 34.581322
64.355 35.178078
64.360 35.182999
64.365 35.380966
64.370 35.513969
64.375 35.905251
64.380 36.200974
64.385 36.125755
64.390 36.672234
64.395 37.158249
64.400 37.203831
64.405 37.410896
64.410 37.080223
64.415 36.380993
64.420 35.984055
64.425 35.340626
64.430 35.135868
64.435 35.678883
64.440 35.610977
64.445 35.91824
64.450 36.581905
64.455 36.577969
64.460 36.388153
64.465 36.100658
64.470 35.090839
64.475 33.883186
64.480 33.191814
64.485 32.868443
64.490 33.277477
64.495 33.058163
64.500 32.537884
64.505 32.961773
64.510 33.024799
64.515 32.584167
64.520 32.17844
64.525 32.15126
64.530 32.101635
64.535 32.313343
64.540 32.028366
64.545 32.211975
64.550 32.545315
64.555 32.978848
64.560 32.288372
64.565 31.810377
64.570 31.728308
64.575 31.607609
64.580 31.318151
64.585 30.892832
64.590 29.573774
64.595 29.414629
64.600 29.400137
64.605 28.983438
64.610 28.860329
64.615 28.446451
64.620 27.575258
64.625 27.543816
64.630 27.6961
64.635 27.086683
64.640 25.500408
64.645 24.591496
64.650 24.100536
64.655 23.497204
64.660 23.07435
64.665 22.281355
64.670 22.147078
64.675 22.06184
64.680 22.121038
64.685 22.253923
64.690 22.627438
64.695 22.507366
64.700 22.37253
64.705 21.991606
64.710 21.816685
64.715 21.138407
64.720 20.285152
64.725 19.76156
64.730 19.139509
64.735 19.050884
64.740 18.653088
64.745 18.297665
64.750 18.472755
64.755 18.811319
64.760 18.799459
64.765 18.968439
64.770 18.691515
64.775 18.776022
64.780 19.060116
64.785 18.686682
64.790 18.325804
64.795 18.497189
64.800 18.30653
64.805 18.59091
64.810 18.446558
64.815 17.726822
64.820 17.222748
64.825 16.875221
64.830 16.597275
64.835 16.451017
64.840 16.18536
64.845 15.912302
64.850 15.856159
64.855 16.091125
64.860 16.264254
64.865 16.143969
64.870 16.366796
64.875 16.589521
64.880 16.426193
64.885 16.304493
64.890 16.329226
64.895 16.472755
64.900 16.559465
64.905 16.160574
64.910 15.714971
64.915 16.079245
64.920 16.437019
64.925 15.958005
64.930 15.836397
64.935 15.881157
64.940 16.156847
64.945 16.121059
64.950 16.026808
64.955 16.358881
64.960 16.828945
64.965 17.130478
64.970 17.319004
64.975 17.557087
64.980 18.268999
64.985 18.462694
64.990 18.205063
64.995 18.089968
65.000 17.956656
65.005 18.428659
65.010 18.408613
65.015 18.155649
65.020 18.70232
65.025 19.414557
65.030 20.246355
65.035 20.602602
65.040 21.095236
65.045 21.08765
65.050 21.357965
65.055 21.343483
65.060 21.304844
65.065 21.067926
65.070 20.814703
65.075 20.206142
65.080 20.886278
65.085 21.303551
65.090 20.927
65.095 20.920052
65.100 20.885267
65.105 21.40909
65.110 21.602293
65.115 21.518501
65.120 21.741611
65.125 21.623337
65.130 21.862312
65.135 22.426502
65.140 22.916815
65.145 23.407
65.150 23.154507
65.155 23.28171
65.160 23.460814
65.165 23.594358
65.170 23.817261
65.175 23.608875
65.180 23.771572
65.185 24.209269
65.190 24.161383
65.195 24.667187
65.200 24.763193
65.205 24.545616
65.210 24.098423
65.215 23.911936
65.220 23.285223
65.225 22.926596
65.230 23.028595
65.235 23.095417
65.240 23.05084
65.245 23.454082
65.250 23.46916
65.255 23.983421
65.260 24.062054
65.265 24.996843
65.270 25.644127
65.275 25.472595
65.280 25.973923
65.285 26.422382
65.290 27.129045
65.295 27.876465
65.300 27.900013
65.305 27.520239
65.310 28.632895
65.315 29.097675
65.320 29.358698
65.325 29.896385
65.330 30.222923
65.335 30.67667
65.340 31.114204
65.345 30.498381
65.350 30.588573
65.355 30.457708
65.360 30.491867
65.365 30.819544
65.370 30.722097
65.375 31.699984
65.380 31.708519
65.385 31.724211
65.390 32.334496
65.395 32.571808
65.400 32.346184
65.405 33.014347
65.410 33.031174
65.415 33.953735
65.420 34.416378
65.425 34.168404
65.430 34.732929
65.435 35.168755
65.440 34.996166
65.445 35.663692
65.450 35.475479
65.455 35.999847
65.460 36.430744
65.465 36.421013
65.470 36.682228
65.475 36.507931
65.480 36.588825
65.485 36.279358
65.490 35.833141
65.495 35.219494
65.500 35.114861
65.505 35.83271
65.510 36.256062
65.515 35.865929
65.520 36.08588
65.525 36.202953
65.530 36.349163
65.535 36.539482
65.540 36.647934
65.545 36.999905
65.550 37.588982
65.555 37.921295
65.560 38.010353
65.565 37.770603
65.570 37.208191
65.575 36.688053
65.580 35.847481
65.585 35.432083
65.590 35.263824
65.595 35.27639
65.600 34.942749
65.605 34.727943
65.610 34.210381
65.615 34.138775
65.620 33.71299
65.625 33.322258
65.630 33.021336
65.635 32.482445
65.640 31.793268
65.645 31.221964
65.650 30.174492
65.655 29.79199
65.660 29.519686
65.665 29.554604
65.670 29.676844
65.675 29.905153
65.680 30.1446
65.685 31.032057
65.690 30.914452
65.695 30.112764
65.700 29.310619
65.705 29.310392
65.710 29.654493
65.715 29.060413
65.720 28.164965
65.725 28.098347
65.730 28.142998
65.735 27.504923
65.740 26.837627
65.745 25.897478
65.750 25.14859
65.755 24.497051
65.760 24.269876
65.765 24.021826
65.770 24.113352
65.775 23.904915
65.780 24.038256
65.785 23.88258
65.790 24.078255
65.795 24.060902
65.800 23.646
65.805 24.025055
65.810 24.089891
65.815 23.689169
65.820 23.785679
65.825 22.662325
65.830 21.868261
65.835 21.727398
65.840 21.096502
65.845 20.384514
65.850 19.93861
65.855 19.525942
65.860 19.555489
65.865 19.437351
65.870 19.146255
65.875 19.150326
65.880 18.761131
65.885 19.085396
65.890 19.062546
65.895 19.26676
65.900 18.931854
65.905 18.833807
65.910 19.299623
65.915 19.821129
65.920 19.214121
65.925 19.369244
65.930 19.362207
65.935 19.239891
65.940 19.080145
65.945 18.405666
65.950 17.794573
65.955 17.853411
65.960 17.24605
65.965 17.341118
65.970 17.977438
65.975 17.827221
65.980 18.01894
65.985 18.532021
65.990 18.993698
65.995 19.185995
66.000 18.526876
66.005 17.899317
66.010 17.601521
66.015 17.487648
66.020 16.96957
66.025 15.952652
66.030 16.094461
66.035 15.923924
66.040 16.350378
66.045 16.829536
66.050 17.021545
66.055 16.824306
66.060 16.797709
66.065 16.996151
66.070 17.265383
66.075 17.077093
66.080 17.249475
66.085 17.247684
66.090 17.723036
66.095 17.77149
66.100 17.294561
66.105 17.204403
66.110 16.90267
66.115 16.59108
66.120 16.049515
66.125 15.945731
66.130 16.362087
66.135 15.931328
66.140 15.701103
66.145 16.002222
66.150 15.691211
66.155 15.821922
66.160 15.440834
66.165 15.427423
66.170 16.243649
66.175 16.739719
66.180 17.040207
66.185 17.661322
66.190 17.571789
66.195 17.201269
66.200 16.732176
66.205 15.93615
66.210 15.14136
66.215 14.616448
66.220 14.513362
66.225 14.525662
66.230 14.903158
66.235 15.004083
66.240 14.952215
66.245 15.670824
66.250 15.814909
66.255 15.713694
66.260 16.031576
66.265 15.817121
66.270 15.784797
66.275 15.661302
66.280 14.686062
66.285 14.537741
66.290 14.448375
66.295 14.357032
66.300 14.615409
66.305 14.341903
66.310 14.668738
66.315 15.825696
66.320 15.648832
66.325 14.968211
66.330 14.820973
66.335 14.3626
66.340 14.695408
66.345 14.52193
66.350 13.820696
66.355 13.884425
66.360 14.11673
66.365 13.853147
66.370 14.338136
66.375 14.430948
66.380 14.321301
66.385 14.600943
66.390 14.783604
66.395 15.22326
66.400 16.26647
66.405 16.149939
66.410 16.283335
66.415 16.129063
66.420 15.647011
66.425 15.532875
66.430 15.012648
66.435 14.368055
66.440 14.144229
66.445 14.011201
66.450 13.760826
66.455 13.728574
66.460 13.835022
66.465 14.122034
66.470 13.855878
66.475 13.763607
66.480 13.664697
66.485 13.579525
66.490 13.882463
66.495 14.282579
66.500 14.261472
66.505 14.360427
66.510 14.67683
66.515 14.733434
66.520 15.206121
66.525 15.195241
66.530 14.75509
66.535 15.212371
66.540 15.38985
66.545 15.67241
66.550 16.414721
66.555 16.619822
66.560 16.564846
66.565 16.79043
66.570 16.336384
66.575 16.159128
66.580 15.767646
66.585 14.984891
66.590 14.955502
66.595 14.853386
66.600 14.538081
66.605 14.326656
66.610 14.208833
66.615 13.924641
66.620 14.145603
66.625 14.095216
66.630 14.194015
66.635 14.343241
66.640 14.751844
66.645 15.309655
66.650 15.401159
66.655 14.953438
66.660 14.61243
66.665 14.639808
66.670 14.553974
66.675 14.623803
66.680 14.217601
66.685 14.674896
66.690 15.109406
66.695 15.068069
66.700 15.440881
66.705 15.675605
66.710 15.615158
66.715 15.672399
66.720 15.930021
66.725 16.373186
66.730 16.493818
66.735 15.89963
66.740 15.913632
66.745 15.822162
66.750 15.855921
66.755 15.779962
66.760 15.447058
66.765 15.304132
66.770 15.416672
66.775 15.026726
66.780 15.195506
66.785 15.350567
66.790 14.598984
66.795 14.341097
66.800 14.165555
66.805 14.704231
66.810 14.834259
66.815 14.275836
66.820 13.893791
66.825 14.340113
66.830 14.729604
66.835 15.203368
66.840 15.132928
66.845 15.311459
66.850 15.619843
66.855 15.249272
66.860 15.179558
66.865 15.065523
66.870 14.723145
66.875 14.512918
66.880 14.346735
66.885 14.434943
66.890 14.736575
66.895 15.268144
66.900 14.77249
66.905 14.443457
66.910 14.440256
66.915 14.541036
66.920 14.528623
66.925 14.382195
66.930 14.393964
66.935 14.892498
66.940 15.132214
66.945 15.13984
66.950 15.107905
66.955 15.470533
66.960 15.650438
66.965 15.724205
66.970 15.860263
66.975 16.176495
66.980 15.975313
66.985 15.674071
66.990 15.287272
66.995 14.987495
67.000 14.989624
67.005 14.798688
67.010 14.443556
67.015 14.427817
67.020 14.610406
67.025 14.913745
67.030 15.002902
67.035 14.609282
67.040 14.677296
67.045 14.853743
67.050 15.277565
67.055 15.400468
67.060 15.471147
67.065 15.963672
67.070 16.147194
67.075 15.778851
67.080 15.637649
67.085 15.300297
67.090 15.307597
67.095 14.91038
67.100 15.016956
67.105 15.366326
67.110 15.90685
67.115 16.280107
67.120 16.315645
67.125 16.051142
67.130 16.032171
67.135 15.188721
67.140 14.175009
67.145 13.815876
67.150 13.942005
67.155 14.074409
67.160 14.568428
67.165 14.545517
67.170 15.317501
67.175 15.899671
67.180 15.928061
67.185 15.341561
67.190 15.315543
67.195 14.645171
67.200 14.256362
67.205 13.871462
67.210 13.550755
67.215 13.648254
67.220 13.735774
67.225 13.919458
67.230 14.142004
67.235 14.144932
67.240 14.456664
67.245 14.508205
67.250 14.331805
67.255 13.997147
67.260 14.10362
67.265 14.708716
67.270 14.982505
67.275 14.973648
67.280 15.142593
67.285 15.624053
67.290 16.32473
67.295 16.081686
67.300 15.544863
67.305 15.209859
67.310 15.434591
67.315 15.696315
67.320 15.122872
67.325 14.630919
67.330 14.16742
67.335 14.225924
67.340 14.394503
67.345 13.659493
67.350 13.442833
67.355 13.476073
67.360 13.118265
67.365 13.650724
67.370 14.017223
67.375 13.725645
67.380 13.702373
67.385 14.187799
67.390 14.250997
67.395 14.052199
67.400 14.089774
67.405 14.168611
67.410 14.521968
67.415 14.206129
67.420 13.363832
67.425 13.595149
67.430 13.867483
67.435 13.277205
67.440 13.274788
67.445 13.31785
67.450 13.474495
67.455 13.766691
67.460 13.931987
67.465 14.380194
67.470 14.239762
67.475 14.24826
67.480 14.611779
67.485 15.543262
67.490 15.808719
67.495 15.552929
67.500 15.295192
67.505 15.451449
67.510 14.935205
67.515 14.641559
67.520 13.983046
67.525 13.723716
67.530 14.121648
67.535 14.538894
67.540 14.454689
67.545 14.650238
67.550 14.58719
67.555 15.052196
67.560 15.410259
67.565 15.206214
67.570 15.050285
67.575 14.876714
67.580 14.868898
67.585 14.706502
67.590 14.632316
67.595 14.265042
67.600 14.173835
67.605 14.109653
67.610 14.424117
67.615 14.60451
67.620 15.307316
67.625 15.480701
67.630 16.018587
67.635 15.90915
67.640 15.998392
67.645 16.184374
67.650 16.228554
67.655 15.498751
67.660 15.108203
67.665 15.023842
67.670 15.113398
67.675 14.834286
67.680 14.561051
67.685 14.200899
67.690 14.825297
67.695 15.121423
67.700 15.629539
67.705 16.213268
67.710 16.343122
67.715 16.710909
67.720 16.739908
67.725 16.294182
67.730 15.697916
67.735 14.788779
67.740 13.954196
67.745 14.075389
67.750 14.105577
67.755 14.624796
67.760 14.855271
67.765 15.322266
67.770 15.441982
67.775 15.883593
67.780 16.042824
67.785 15.571163
67.790 14.733262
67.795 14.198709
67.800 14.396998
67.805 14.895785
67.810 14.557436
67.815 14.187677
67.820 14.458371
67.825 14.668053
67.830 14.948426
67.835 14.846038
67.840 14.453997
67.845 14.691556
67.850 15.052591
67.855 15.557499
67.860 15.91198
67.865 15.436553
67.870 15.507303
67.875 15.51291
67.880 14.936783
67.885 14.59814
67.890 13.795727
67.895 13.778867
67.900 14.270753
67.905 14.153286
67.910 14.558545
67.915 14.951657
67.920 15.306655
67.925 15.618435
67.930 15.551324
67.935 15.223641
67.940 15.22934
67.945 15.474048
67.950 16.041224
67.955 15.91575
67.960 16.277229
67.965 16.39823
67.970 16.463284
67.975 16.303509
67.980 15.821916
67.985 15.420378
67.990 14.841166
67.995 14.648554
68.000 14.784855
68.005 14.71
68.010 15.258712
68.015 15.885641
68.020 15.981522
68.025 16.675945
68.030 16.986195
68.035 16.854977
68.040 17.162388
68.045 16.562567
68.050 16.256384
68.055 16.328867
68.060 15.94435
68.065 15.509008
68.070 14.853308
68.075 14.641533
68.080 14.917615
68.085 15.301291
68.090 15.535527
68.095 15.801222
68.100 16.334568
68.105 16.944471
68.110 16.811123
68.115 16.458208
68.120 15.845219
68.125 15.495663
68.130 15.262763
68.135 15.379513
68.140 15.479287
68.145 15.616138
68.150 15.787807
68.155 15.638341
68.160 15.420938
68.165 15.762152
68.170 15.974885
68.175 16.175581
68.180 16.060612
68.185 15.88295
68.190 16.483423
68.195 16.631065
68.200 16.332001
68.205 16.184927
68.210 16.213627
68.215 16.475128
68.220 16.672947
68.225 16.57486
68.230 16.771799
68.235 17.002821
68.240 16.92314
68.245 16.680382
68.250 16.646965
68.255 17.104725
68.260 17.373911
68.265 17.241888
68.270 17.521772
68.275 17.21463
68.280 17.574778
68.285 18.104507
68.290 17.898891
68.295 18.145561
68.300 17.911283
68.305 17.534622
68.310 17.379335
68.315 16.969839
68.320 16.904688
68.325 16.402269
68.330 16.543549
68.335 16.374605
68.340 16.470715
68.345 16.690645
68.350 17.18022
68.355 17.408195
68.360 17.35323
68.365 17.181931
68.370 17.992863
68.375 17.932711
68.380 18.417318
68.385 18.073235
68.390 18.347363
68.395 18.529455
68.400 19.200529
68.405 18.836882
68.410 18.324059
68.415 18.085087
68.420 17.857397
68.425 17.336073
68.430 17.130054
68.435 16.884623
68.440 17.111391
68.445 17.851933
68.450 18.617147
68.455 19.956587
68.460 21.044762
68.465 21.837198
68.470 22.015228
68.475 22.987955
68.480 23.842478
68.485 24.001772
68.490 23.953747
68.495 23.520132
68.500 23.206661
68.505 23.452808
68.510 23.047262
68.515 22.814531
68.520 22.745993
68.525 22.666565
68.530 23.18906
68.535 22.858686
68.540 22.921774
68.545 23.587465
68.550 23.866045
68.555 23.775694
68.560 24.28994
68.565 24.511158
68.570 25.343597
68.575 25.55249
68.580 25.430817
68.585 25.971458
68.590 26.665104
68.595 26.100267
68.600 26.019867
68.605 26.07975
68.610 26.396368
68.615 26.508444
68.620 26.092836
68.625 26.302212
68.630 27.430984
68.635 27.68841
68.640 27.404537
68.645 26.884684
68.650 27.12035
68.655 27.886564
68.660 28.642984
68.665 28.480186
68.670 28.924044
68.675 29.769951
68.680 30.190804
68.685 30.100279
68.690 30.162861
68.695 30.151484
68.700 30.15539
68.705 30.376408
68.710 30.858984
68.715 31.70842
68.720 32.124218
68.725 32.628391
68.730 32.658897
68.735 32.808876
68.740 32.593975
68.745 31.956553
68.750 31.290621
68.755 30.399052
68.760 29.986551
68.765 29.647974
68.770 29.602463
68.775 29.865437
68.780 30.644678
68.785 30.685291
68.790 31.323196
68.795 31.621471
68.800 31.934273
68.805 32.616417
68.810 32.015961
68.815 31.302774
68.820 31.215645
68.825 31.1481
68.830 31.195103
68.835 30.915693
68.840 30.338827
68.845 30.129791
68.850 30.744654
68.855 30.863592
68.860 30.346598
68.865 29.388756
68.870 29.207115
68.875 29.736589
68.880 30.059576
68.885 30.11153
68.890 29.955114
68.895 29.494295
68.900 30.053595
68.905 29.744907
68.910 29.129974
68.915 29.311832
68.920 29.453024
68.925 29.350615
68.930 29.757647
68.935 29.450594
68.940 29.681574
68.945 29.319998
68.950 27.451221
68.955 26.864702
68.960 26.615032
68.965 26.354774
68.970 26.20126
68.975 26.005131
68.980 26.609669
68.985 27.505663
68.990 27.172066
68.995 26.867355
69.000 26.435152
69.005 26.221542
69.010 25.605316
69.015 24.829979
69.020 24.322638
69.025 24.622107
69.030 24.944111
69.035 24.864149
69.040 24.078302
69.045 23.708982
69.050 23.802292
69.055 23.387272
69.060 22.697865
69.065 21.587334
69.070 21.302526
69.075 21.634855
69.080 21.277546
69.085 21.161613
69.090 20.607893
69.095 20.659903
69.100 20.654095
69.105 21.069183
69.110 21.189125
69.115 20.730478
69.120 19.75206
69.125 19.576714
69.130 19.453686
69.135 18.880762
69.140 17.126614
69.145 16.449791
69.150 16.525383
69.155 16.825325
69.160 17.118799
69.165 17.329657
69.170 18.212826
69.175 18.650669
69.180 18.602467
69.185 19.277386
69.190 19.534409
69.195 19.382839
69.200 19.395336
69.205 18.620174
69.210 18.34078
69.215 18.575769
69.220 17.812254
69.225 17.694731
69.230 17.726053
69.235 17.208557
69.240 17.425262
69.245 17.328367
69.250 16.329144
69.255 16.309515
69.260 16.490236
69.265 16.400738
69.270 16.558674
69.275 16.710596
69.280 16.690195
69.285 16.999832
69.290 16.341808
69.295 15.878202
69.300 15.510448
69.305 14.87152
69.310 15.122783
69.315 15.275304
69.320 15.400349
69.325 15.926166
69.330 15.85189
69.335 15.965731
69.340 16.237991
69.345 15.510678
69.350 15.725453
69.355 15.867521
69.360 16.060589
69.365 16.829107
69.370 16.871517
69.375 16.747097
69.380 17.326181
69.385 17.220953
69.390 17.333963
69.395 16.503309
69.400 16.137247
69.405 15.914521
69.410 15.870252
69.415 15.606348
69.420 15.526413
69.425 15.257196
69.430 15.060022
69.435 14.861852
69.440 15.111369
69.445 15.034343
69.450 14.539247
69.455 14.284035
69.460 14.402872
69.465 14.939355
69.470 14.719188
69.475 14.562446
69.480 14.355316
69.485 15.148852
69.490 15.200313
69.495 15.428097
69.500 15.565083
69.505 16.083429
69.510 16.508945
69.515 16.799572
69.520 16.333506
69.525 16.189629
69.530 16.019207
69.535 16.246777
69.540 15.743753
69.545 15.420182
69.550 15.161681
69.555 15.099463
69.560 15.569563
69.565 15.522783
69.570 15.279955
69.575 15.615271
69.580 16.05728
69.585 15.713526
69.590 15.422467
69.595 14.674857
69.600 14.231973
69.605 14.069847
69.610 13.59234
69.615 12.883304
69.620 12.777465
69.625 12.858373
69.630 12.937551
69.635 13.305995
69.640 13.30134
69.645 13.595344
69.650 13.929074
69.655 14.363874
69.660 14.160549
69.665 14.675439
69.670 15.028965
69.675 15.245207
69.680 15.444033
69.685 15.741769
69.690 16.22361
69.695 16.59827
69.700 16.63529
69.705 15.927911
69.710 15.384516
69.715 15.418399
69.720 15.226007
69.725 14.852811
69.730 14.942553
69.735 14.780046
69.740 15.814412
69.745 16.126232
69.750 16.013874
69.755 15.551974
69.760 15.629321
69.765 15.26222
69.770 15.138594
69.775 14.135457
69.780 13.71961
69.785 13.608501
69.790 13.828549
69.795 14.133272
69.800 14.187903
69.805 14.188139
69.810 14.621389
69.815 15.068204
69.820 15.316276
69.825 14.929125
69.830 15.397224
69.835 15.403161
69.840 15.525825
69.845 15.445382
69.850 15.245954
69.855 15.27697
69.860 15.257875
69.865 14.778708
69.870 14.992434
69.875 15.088445
69.880 15.066563
69.885 15.192339
69.890 15.025601
69.895 15.275766
69.900 15.044598
69.905 14.824503
69.910 14.752687
69.915 14.651187
69.920 14.464113
69.925 14.604429
69.930 14.60649
69.935 14.434337
69.940 14.561058
69.945 14.633468
69.950 15.070405
69.955 15.560978
69.960 15.52334
69.965 16.124035
69.970 16.344284
69.975 16.066618
69.980 15.857611
69.985 15.495343
69.990 15.132583
69.995 14.889917
70.000 14.10696
70.005 13.883922
70.010 13.63425
70.015 13.793617
70.020 14.25881
70.025 14.59406
70.030 14.821807
70.035 14.67487
70.040 15.101641
70.045 15.429224
70.050 15.359346
70.055 15.091692
70.060 15.121393
70.065 15.540871
70.070 16.346773
70.075 16.295704
70.080 15.819517
70.085 15.855794
70.090 15.76985
70.095 15.572256
70.100 15.381679
70.105 15.34967
70.110 15.58936
70.115 15.931152
70.120 15.669768
70.125 15.965749
70.130 15.844422
70.135 15.367582
70.140 14.997255
70.145 14.871998
70.150 14.52282
70.155 14.758101
70.160 14.482831
70.165 14.274046
70.170 14.601111
70.175 15.024184
70.180 15.00586
70.185 15.606933
70.190 15.43503
70.195 15.576394
70.200 15.926478
70.205 15.821499
70.210 15.406566
70.215 15.276209
70.220 14.934445
70.225 14.505038
70.230 14.146586
70.235 13.840499
70.240 14.042609
70.245 14.029851
70.250 14.243668
70.255 14.221698
70.260 14.576792
70.265 15.208712
70.270 15.168664
70.275 14.723406
70.280 14.551538
70.285 14.335581
70.290 14.364395
70.295 14.133431
70.300 14.04176
70.305 14.514072
70.310 15.005754
70.315 15.031574
70.320 14.966735
70.325 14.850891
70.330 14.742052
70.335 13.920562
70.340 13.226781
70.345 13.132339
70.350 13.15198
70.355 13.330421
70.360 13.077846
70.365 12.800837
70.370 13.516151
70.375 14.065072
70.380 13.690312
70.385 13.906201
70.390 14.120541
70.395 14.529003
70.400 14.747952
70.405 14.375887
70.410 14.169209
70.415 14.822139
70.420 14.759582
70.425 14.519239
70.430 15.082225
70.435 15.121328
70.440 15.183669
70.445 15.359967
70.450 14.672969
70.455 14.595643
70.460 14.675747
70.465 14.581514
70.470 14.618345
70.475 14.892222
70.480 15.271653
70.485 15.79807
70.490 15.534002
70.495 15.444179
70.500 15.322601
70.505 15.464798
70.510 15.181516
70.515 14.682733
70.520 14.654388
70.525 15.378035
70.530 15.237059
70.535 15.153923
70.540 14.771462
70.545 14.968117
70.550 15.311811
70.555 15.220255
70.560 14.829424
70.565 14.906764
70.570 15.118254
70.575 14.989606
70.580 15.092218
70.585 14.817027
70.590 14.384681
70.595 14.837802
70.600 15.432222
70.605 15.39016
70.610 15.50022
70.615 15.518805
70.620 15.930155
70.625 16.768129
70.630 16.889097
70.635 16.339334
70.640 16.730515
70.645 16.713591
70.650 16.670176
70.655 16.511511
70.660 16.351522
70.665 15.63678
70.670 15.193323
70.675 14.498965
70.680 14.418966
70.685 14.526076
70.690 14.440555
70.695 14.007139
70.700 14.578374
70.705 15.005294
70.710 15.020687
70.715 14.95544
70.720 14.551266
70.725 15.070823
70.730 14.801703
70.735 14.478178
70.740 14.429341
70.745 14.458071
70.750 14.839074
70.755 14.854045
70.760 14.472907
70.765 14.765394
70.770 15.015809
70.775 15.180367
70.780 15.695803
70.785 15.336252
70.790 15.276627
70.795 15.209743
70.800 15.562351
70.805 15.78796
70.810 15.587822
70.815 15.261741
70.820 15.197908
70.825 15.080812
70.830 14.995808
70.835 14.500908
70.840 14.137174
70.845 14.153499
70.850 14.071926
70.855 13.756467
70.860 14.089608
70.865 14.289601
70.870 14.685823
70.875 14.919508
70.880 14.864902
70.885 15.286062
70.890 15.427693
70.895 15.125765
70.900 15.637262
70.905 15.539803
70.910 15.924576
70.915 15.842458
70.920 15.57199
70.925 15.224651
70.930 14.881068
70.935 14.498749
70.940 14.452024
70.945 14.252785
70.950 14.297348
70.955 14.445676
70.960 15.022804
70.965 14.840062
70.970 14.529136
70.975 14.725548
70.980 14.991993
70.985 15.135234
70.990 15.221539
70.995 15.337185
71.000 15.46411
71.005 15.202351
71.010 14.449159
71.015 13.841373
71.020 13.425375
71.025 13.138771
71.030 12.952757
71.035 12.607104
71.040 12.922066
71.045 13.490152
71.050 13.843735
71.055 13.909446
71.060 13.926219
71.065 14.191743
71.070 14.684187
71.075 14.323118
71.080 14.329617
71.085 14.108633
71.090 14.131716
71.095 13.781604
71.100 13.490355
71.105 13.133266
71.110 13.031661
71.115 13.181411
71.120 13.522202
71.125 13.468365
71.130 14.013798
71.135 14.487981
71.140 14.768944
71.145 14.468605
71.150 14.266819
71.155 14.244946
71.160 14.257579
71.165 13.702195
71.170 13.638425
71.175 13.824762
71.180 13.87316
71.185 13.651746
71.190 13.986049
71.195 14.237437
71.200 14.476071
71.205 14.684284
71.210 14.945216
71.215 15.495542
71.220 15.853964
71.225 15.531949
71.230 15.836934
71.235 15.90036
71.240 15.221293
71.245 15.134219
71.250 15.013445
71.255 15.285177
71.260 15.488601
71.265 15.225369
71.270 14.719118
71.275 14.850461
71.280 14.934179
71.285 14.885702
71.290 14.271966
71.295 13.714081
71.300 13.5743
71.305 13.978056
71.310 13.903747
71.315 13.72906
71.320 14.09057
71.325 14.411592
71.330 14.334282
71.335 14.49584
71.340 14.769282
71.345 15.29231
71.350 15.02683
71.355 14.527164
71.360 14.674609
71.365 15.409537
71.370 15.725814
71.375 16.067776
71.380 15.924714
71.385 16.142689
71.390 16.190277
71.395 16.426756
71.400 16.180801
71.405 16.243439
71.410 15.509271
71.415 15.186029
71.420 15.501348
71.425 15.71541
71.430 15.583859
71.435 15.771276
71.440 15.706999
71.445 15.827024
71.450 16.135155
71.455 15.723267
71.460 15.829261
71.465 15.262585
71.470 14.678592
71.475 14.657093
71.480 15.040011
71.485 15.367343
71.490 15.704554
71.495 15.33102
71.500 15.584469
71.505 15.621198
71.510 15.551917
71.515 15.28066
71.520 14.820986
71.525 14.487815
71.530 14.231194
71.535 14.323625
71.540 13.983559
71.545 13.521562
71.550 13.302186
71.555 13.195427
71.560 13.362667
71.565 13.621776
71.570 13.660875
71.575 14.033749
71.580 14.568277
71.585 14.919968
71.590 15.04327
71.595 15.300133
71.600 15.075717
71.605 15.329917
71.610 15.814055
71.615 15.853253
71.620 15.588422
71.625 15.633039
71.630 15.705675
71.635 16.00333
71.640 15.856166
71.645 15.43596
71.650 15.06158
71.655 14.375941
71.660 14.461676
71.665 14.214772
71.670 14.358773
71.675 14.360908
71.680 14.170227
71.685 14.433297
71.690 14.465938
71.695 14.039765
71.700 14.107403
71.705 13.38993
71.710 13.61189
71.715 13.811544
71.720 14.426191
71.725 14.788093
71.730 14.653156
71.735 14.644508
71.740 15.115708
71.745 15.566926
71.750 15.697538
71.755 15.829457
71.760 16.427759
71.765 16.324741
71.770 16.249332
71.775 15.725869
71.780 15.084783
71.785 14.409359
71.790 13.673214
71.795 13.489869
71.800 13.710296
71.805 13.813196
71.810 13.766324
71.815 13.295041
71.820 13.372645
71.825 13.240617
71.830 13.350986
71.835 13.934372
71.840 13.990289
71.845 14.439637
71.850 14.838418
71.855 15.041066
71.860 15.033496
71.865 15.126178
71.870 14.785701
71.875 14.736117
71.880 14.807794
71.885 14.88824
71.890 15.189576
71.895 15.329416
71.900 15.174315
71.905 15.348157
71.910 15.270253
71.915 14.771569
71.920 14.823646
71.925 13.997586
71.930 13.459204
71.935 13.161941
71.940 13.254244
71.945 14.065907
71.950 14.25497
71.955 13.908518
71.960 14.311305
71.965 14.506911
71.970 14.162032
71.975 13.468926
71.980 13.793272
71.985 14.451488
71.990 15.088671
71.995 15.14131
72.000 15.486159
72.005 15.655397
72.010 15.51611
72.015 14.969414
72.020 14.825359
72.025 14.234669
72.030 14.191232
72.035 13.883609
72.040 14.005619
72.045 14.346021
72.050 14.249759
72.055 14.321523
72.060 14.994267
72.065 15.12613
72.070 15.507146
72.075 15.570082
72.080 15.013178
72.085 14.961548
72.090 15.120027
72.095 14.874307
72.100 14.891109
72.105 14.755775
72.110 14.69748
72.115 15.100955
72.120 14.927778
72.125 14.024679
72.130 13.856506
72.135 14.247985
72.140 14.703349
72.145 14.731831
72.150 14.372693
72.155 14.596666
72.160 15.132209
72.165 15.186824
72.170 14.765574
72.175 15.095433
72.180 14.858321
72.185 15.291725
72.190 15.451108
72.195 15.958105
72.200 16.37792
72.205 16.245661
72.210 15.804358
72.215 15.607285
72.220 15.660307
72.225 15.249518
72.230 14.611053
72.235 14.112741
72.240 13.822375
72.245 13.439143
72.250 13.829468
72.255 13.849119
72.260 13.88594
72.265 14.249278
72.270 14.393204
72.275 14.965288
72.280 14.683649
72.285 14.655853
72.290 14.611221
72.295 14.303429
72.300 14.361088
72.305 14.02033
72.310 13.798727
72.315 14.154058
72.320 14.10153
72.325 14.454177
72.330 14.968583
72.335 14.690463
72.340 14.61843
72.345 14.910733
72.350 14.747987
72.355 14.228979
72.360 13.421662
72.365 13.250777
72.370 13.453906
72.375 13.893267
72.380 13.798481
72.385 14.144187
72.390 14.48719
72.395 14.495189
72.400 14.835569
72.405 15.184799
72.410 14.970106
72.415 14.852582
72.420 14.895249
72.425 15.229611
72.430 15.615579
72.435 15.007884
72.440 14.493426
72.445 14.60727
72.450 14.719723
72.455 14.538718
72.460 14.582355
72.465 14.430741
72.470 14.80341
72.475 14.878616
72.480 14.729728
72.485 14.709672
72.490 14.853613
72.495 14.558846
72.500 14.556177
72.505 14.468799
72.510 14.542665
72.515 14.655285
72.520 14.664026
72.525 15.173274
72.530 14.966406
72.535 14.908511
72.540 14.672152
72.545 14.701791
72.550 15.207886
72.555 14.743798
72.560 14.867753
72.565 15.135029
72.570 14.862239
72.575 14.928076
72.580 14.661762
72.585 14.512668
72.590 14.020814
72.595 13.37167
72.600 13.597181
72.605 13.484567
72.610 13.449207
72.615 13.211765
72.620 13.145823
72.625 13.265912
72.630 13.090924
72.635 13.429873
72.640 13.342387
72.645 12.997416
72.650 12.987384
72.655 13.721109
72.660 14.228713
72.665 13.934065
72.670 13.822083
72.675 13.929696
72.680 14.051835
72.685 14.125445
72.690 13.638909
72.695 13.18727
72.700 13.148932
72.705 13.239284
72.710 13.103086
72.715 13.081279
72.720 13.397844
72.725 14.05601
72.730 14.670538
72.735 14.78548
72.740 14.830791
72.745 15.267723
72.750 15.531333
72.755 14.576717
72.760 13.904805
72.765 13.743545
72.770 13.784463
72.775 13.58337
72.780 13.434876
72.785 13.389349
72.790 13.755482
72.795 13.958195
72.800 14.214698
72.805 14.694975
72.810 14.953519
72.815 14.913543
72.820 14.662449
72.825 14.448187
72.830 14.142385
72.835 13.987713
72.840 13.60541
72.845 12.998275
72.850 12.757278
72.855 12.254042
72.860 11.998652
72.865 11.924869
72.870 11.933716
72.875 12.400527
72.880 12.641153
72.885 12.889826
72.890 13.029841
72.895 12.995137
72.900 12.795716
72.905 13.156193
72.910 13.532557
72.915 13.933117
72.920 14.277619
72.925 14.567177
72.930 14.89883
72.935 14.570373
72.940 14.275582
72.945 13.784182
72.950 13.337678
72.955 13.687256
72.960 13.780366
72.965 13.823921
72.970 14.450725
72.975 14.804967
72.980 15.175276
72.985 14.976827
72.990 14.759076
72.995 15.020423
73.000 15.379529
