!@!!GADDS PLOTSO FILE: Chi integration type
!@!!Title/SampleName: map-b2
!@!!Comment: ?
!@!!User: Bruker Instrument Administrator
!@!!Site: University of Illinois Chicago
!@!!Frame: map-b2_01_000.gfrm
!@!!Wavelengths    1.54184   1.54056   1.54439
!@!!Frame angles: 2Theta: 63.000 Omega: 50.000 Phi: 0.000 Chi: 90.000
!@!!Integration range: 2Theta: 53.000 to 73.000  Gamma: -105.000 to -75.000
!@!!Integration method: bin normalized
!@!N
!@!SS
!@!M
!@!L 0.0 0.0 0.0 0.0
!@!XDegrees
!@!YCounts
53.000 7.140403
53.005 6.900936
53.010 6.78855
53.015 6.875232
53.020 6.855849
53.025 6.738867
53.030 6.610688
53.035 6.609398
53.040 6.684717
53.045 6.826519
53.050 6.628204
53.055 6.57311
53.060 6.664766
53.065 6.134077
53.070 5.827922
53.075 6.030004
53.080 6.230664
53.085 6.373946
53.090 6.368993
53.095 6.207159
53.100 6.625048
53.105 7.327852
53.110 7.091347
53.115 7.418291
53.120 7.319097
53.125 7.408772
53.130 7.459552
53.135 7.299093
53.140 7.05994
53.145 6.698207
53.150 6.363539
53.155 6.504538
53.160 6.427825
53.165 6.14775
53.170 6.145213
53.175 6.529729
53.180 7.157116
53.185 7.312245
53.190 7.291112
53.195 7.239687
53.200 7.741887
53.205 7.853482
53.210 7.712329
53.215 7.505399
53.220 7.646964
53.225 7.679547
53.230 7.668986
53.235 7.467525
53.240 7.578406
53.245 7.571206
53.250 7.104694
53.255 7.119092
53.260 7.390409
53.265 7.405535
53.270 7.139426
53.275 6.841931
53.280 7.074425
53.285 7.302737
53.290 7.018049
53.295 6.96393
53.300 7.51807
53.305 7.689291
53.310 7.768169
53.315 7.365212
53.320 7.464718
53.325 7.516381
53.330 7.312796
53.335 7.133122
53.340 7.151057
53.345 7.162259
53.350 7.602469
53.355 7.7098
53.360 7.800405
53.365 7.695632
53.370 7.535732
53.375 7.288576
53.380 7.259336
53.385 7.242628
53.390 7.140955
53.395 6.96673
53.400 6.696238
53.405 6.784349
53.410 6.965424
53.415 6.658716
53.420 6.669281
53.425 7.174828
53.430 7.493989
53.435 7.676768
53.440 7.845021
53.445 7.813506
53.450 7.484393
53.455 6.905226
53.460 6.461652
53.465 6.175569
53.470 6.417211
53.475 6.538291
53.480 6.839601
53.485 7.301377
53.490 7.75747
53.495 8.324273
53.500 8.911267
53.505 8.795106
53.510 8.975813
53.515 9.184099
53.520 9.235621
53.525 8.535761
53.530 7.879435
53.535 7.418361
53.540 7.065383
53.545 6.612437
53.550 6.238713
53.555 5.924459
53.560 6.443118
53.565 6.992015
53.570 7.615234
53.575 7.974662
53.580 8.148586
53.585 8.836456
53.590 8.874684
53.595 8.400438
53.600 8.112529
53.605 7.766676
53.610 7.868816
53.615 7.625672
53.620 7.668632
53.625 8.143456
53.630 8.152856
53.635 8.304585
53.640 8.081591
53.645 7.783609
53.650 7.81501
53.655 7.985298
53.660 8.08458
53.665 7.909935
53.670 7.866506
53.675 7.815332
53.680 7.876127
53.685 7.654887
53.690 7.26225
53.695 7.517079
53.700 8.010956
53.705 7.989394
53.710 8.539129
53.715 8.771389
53.720 8.632941
53.725 8.171594
53.730 7.595384
53.735 7.350577
53.740 7.526092
53.745 7.422856
53.750 7.629623
53.755 8.117078
53.760 8.830667
53.765 8.99784
53.770 8.918118
53.775 8.561854
53.780 8.554986
53.785 8.292397
53.790 8.024297
53.795 7.671232
53.800 7.723999
53.805 7.815197
53.810 7.671591
53.815 7.96848
53.820 7.774279
53.825 7.866357
53.830 8.190301
53.835 8.301581
53.840 8.118509
53.845 8.335732
53.850 7.924836
53.855 7.991534
53.860 7.940259
53.865 7.352505
53.870 7.620694
53.875 7.822737
53.880 7.725729
53.885 8.112106
53.890 8.321218
53.895 8.32621
53.900 8.35516
53.905 8.123258
53.910 8.135037
53.915 8.173675
53.920 8.046577
53.925 8.193336
53.930 8.321697
53.935 8.433446
53.940 8.361668
53.945 8.460383
53.950 8.585287
53.955 8.679863
53.960 8.425585
53.965 8.334655
53.970 8.304664
53.975 8.044088
53.980 7.930273
53.985 7.932306
53.990 7.855644
53.995 8.272642
54.000 8.399959
54.005 8.741774
54.010 9.135595
54.015 9.098307
54.020 9.136601
54.025 9.068918
54.030 9.372603
54.035 8.717751
54.040 8.155116
54.045 7.989995
54.050 8.233084
54.055 8.649892
54.060 8.921084
54.065 9.108557
54.070 9.5586
54.075 9.839117
54.080 9.985437
54.085 10.12723
54.090 9.64086
54.095 9.211078
54.100 8.91367
54.105 9.139032
54.110 9.424213
54.115 9.320884
54.120 9.118404
54.125 9.358064
54.130 9.551488
54.135 9.728147
54.140 9.277164
54.145 8.697575
54.150 8.790681
54.155 8.626538
54.160 8.693208
54.165 8.647462
54.170 9.041838
54.175 9.322494
54.180 9.4936
54.185 9.166686
54.190 9.172215
54.195 9.102287
54.200 8.732062
54.205 8.755578
54.210 9.128152
54.215 8.894294
54.220 8.936236
54.225 8.656896
54.230 8.427645
54.235 8.307164
54.240 8.29294
54.245 8.484244
54.250 9.255878
54.255 9.547801
54.260 9.540262
54.265 9.778057
54.270 9.916405
54.275 9.554852
54.280 9.383914
54.285 8.721505
54.290 8.660572
54.295 9.040968
54.300 9.015962
54.305 8.808078
54.310 8.490024
54.315 7.979745
54.320 7.962837
54.325 7.871272
54.330 8.000864
54.335 7.793257
54.340 8.169539
54.345 8.652834
54.350 8.932664
54.355 8.924098
54.360 9.004382
54.365 8.657148
54.370 8.679385
54.375 8.275068
54.380 8.029168
54.385 8.422609
54.390 8.484961
54.395 8.44706
54.400 8.670122
54.405 9.015224
54.410 9.084593
54.415 8.950418
54.420 9.022961
54.425 9.255594
54.430 9.131844
54.435 9.111173
54.440 9.396867
54.445 9.808196
54.450 9.787021
54.455 9.309993
54.460 9.049417
54.465 8.782117
54.470 8.296483
54.475 7.841191
54.480 8.091683
54.485 8.106881
54.490 8.340847
54.495 8.58924
54.500 8.733377
54.505 9.348017
54.510 9.509867
54.515 8.9895
54.520 9.129306
54.525 9.187254
54.530 9.174045
54.535 9.397043
54.540 9.411619
54.545 9.256301
54.550 9.622663
54.555 9.342311
54.560 9.223181
54.565 9.079995
54.570 8.973568
54.575 9.139497
54.580 8.786046
54.585 8.805941
54.590 9.044021
54.595 9.31417
54.600 9.455439
54.605 8.796455
54.610 8.406013
54.615 8.466543
54.620 8.264347
54.625 8.478406
54.630 8.372708
54.635 8.308087
54.640 8.580029
54.645 9.129807
54.650 9.752028
54.655 9.897202
54.660 9.851392
54.665 9.866003
54.670 10.046146
54.675 10.235875
54.680 10.013408
54.685 9.567646
54.690 9.562505
54.695 9.580828
54.700 9.586273
54.705 9.280446
54.710 9.467207
54.715 9.459757
54.720 9.449829
54.725 9.614606
54.730 9.322016
54.735 9.500048
54.740 9.701445
54.745 9.352384
54.750 8.925847
54.755 8.70829
54.760 8.492367
54.765 8.631103
54.770 8.492443
54.775 8.525049
54.780 8.752107
54.785 9.078343
54.790 8.969589
54.795 8.812281
54.800 8.718562
54.805 8.368557
54.810 8.03337
54.815 8.165753
54.820 8.548346
54.825 8.683073
54.830 9.197018
54.835 10.052821
54.840 10.578929
54.845 10.498349
54.850 10.18477
54.855 9.947502
54.860 10.107162
54.865 9.614854
54.870 8.955887
54.875 9.191377
54.880 9.528925
54.885 9.83818
54.890 10.403362
54.895 10.454144
54.900 10.467137
54.905 10.281599
54.910 10.17553
54.915 10.1948
54.920 9.977998
54.925 9.61236
54.930 9.819712
54.935 9.868115
54.940 10.645897
54.945 10.808505
54.950 10.742362
54.955 11.219195
54.960 10.783153
54.965 10.432248
54.970 10.207412
54.975 9.65694
54.980 9.316072
54.985 8.987197
54.990 8.836696
54.995 9.311738
55.000 9.503977
55.005 9.835109
55.010 9.960513
55.015 10.37238
55.020 10.19385
55.025 10.105601
55.030 10.118405
55.035 9.89502
55.040 9.622582
55.045 9.414467
55.050 9.501627
55.055 9.767013
55.060 9.425329
55.065 9.739293
55.070 9.901455
55.075 10.148137
55.080 10.271623
55.085 9.74987
55.090 9.574686
55.095 9.353791
55.100 9.138447
55.105 8.794524
55.110 8.292025
55.115 8.53087
55.120 9.198556
55.125 9.653564
55.130 10.340839
55.135 10.368745
55.140 10.737224
55.145 10.824473
55.150 10.834714
55.155 10.715993
55.160 10.712544
55.165 10.186581
55.170 10.079434
55.175 9.83506
55.180 9.838169
55.185 9.732842
55.190 9.283658
55.195 9.083841
55.200 9.603224
55.205 9.907782
55.210 10.159894
55.215 9.763475
55.220 9.585202
55.225 9.579976
55.230 9.247964
55.235 9.282537
55.240 8.559831
55.245 8.687219
55.250 9.078898
55.255 9.685757
55.260 9.90258
55.265 9.845488
55.270 10.118914
55.275 10.313474
55.280 10.093056
55.285 9.876133
55.290 9.64153
55.295 9.927978
55.300 9.816133
55.305 10.118562
55.310 10.301287
55.315 10.57616
55.320 11.052957
55.325 11.439347
55.330 11.513214
55.335 11.473591
55.340 11.156724
55.345 11.321322
55.350 10.79971
55.355 10.21126
55.360 9.825992
55.365 9.684359
55.370 9.641496
55.375 9.65401
55.380 9.447134
55.385 9.473784
55.390 9.247017
55.395 9.592562
55.400 9.344246
55.405 9.397562
55.410 9.732355
55.415 9.6226
55.420 9.630404
55.425 10.245913
55.430 10.119694
55.435 10.412523
55.440 10.638364
55.445 10.334058
55.450 10.889332
55.455 10.740113
55.460 10.237481
55.465 10.483976
55.470 10.374815
55.475 10.33651
55.480 10.221944
55.485 10.331624
55.490 11.190946
55.495 11.298927
55.500 11.086515
55.505 11.003573
55.510 11.084519
55.515 11.136168
55.520 10.62562
55.525 9.98829
55.530 10.39055
55.535 10.476597
55.540 10.259231
55.545 10.217566
55.550 10.741013
55.555 10.971639
55.560 10.80913
55.565 10.328055
55.570 10.336217
55.575 10.282958
55.580 10.422951
55.585 9.957659
55.590 9.963609
55.595 10.215068
55.600 10.348601
55.605 10.497569
55.610 10.357963
55.615 10.096463
55.620 10.14314
55.625 10.260344
55.630 10.144387
55.635 9.983483
55.640 9.519508
55.645 9.675606
55.650 10.057616
55.655 10.42911
55.660 10.282353
55.665 10.392666
55.670 10.748189
55.675 11.26051
55.680 11.075674
55.685 10.58574
55.690 10.525044
55.695 10.221107
55.700 9.861205
55.705 10.044295
55.710 9.826525
55.715 10.29054
55.720 10.211438
55.725 10.100871
55.730 10.533599
55.735 9.971111
55.740 9.923852
55.745 10.177965
55.750 10.077862
55.755 10.059228
55.760 9.679031
55.765 9.464299
55.770 9.676425
55.775 9.707578
55.780 9.925168
55.785 9.753728
55.790 9.776409
55.795 10.005569
55.800 10.298759
55.805 10.766587
55.810 10.747719
55.815 10.575445
55.820 10.577892
55.825 10.561728
55.830 10.619467
55.835 11.065155
55.840 11.064607
55.845 11.145569
55.850 10.75736
55.855 11.057922
55.860 11.212885
55.865 11.067679
55.870 10.676272
55.875 10.707685
55.880 10.493672
55.885 10.785548
55.890 10.407386
55.895 10.139123
55.900 10.326233
55.905 10.12693
55.910 9.940741
55.915 9.789515
55.920 9.67803
55.925 9.995416
55.930 10.308604
55.935 10.081427
55.940 10.033678
55.945 10.040357
55.950 9.947281
55.955 9.643716
55.960 9.569737
55.965 9.522955
55.970 9.955146
55.975 10.066753
55.980 9.802217
55.985 9.845706
55.990 10.046312
55.995 10.007353
56.000 9.887481
56.005 9.168885
56.010 9.393853
56.015 9.574519
56.020 9.781408
56.025 10.033271
56.030 9.707412
56.035 9.520889
56.040 10.168034
56.045 10.455144
56.050 10.679825
56.055 10.945287
56.060 11.396749
56.065 12.383999
56.070 12.884555
56.075 12.35049
56.080 12.290121
56.085 12.434748
56.090 12.199894
56.095 11.525414
56.100 10.762223
56.105 10.427338
56.110 10.853554
56.115 10.848247
56.120 11.09329
56.125 11.209116
56.130 11.275714
56.135 11.616412
56.140 11.803449
56.145 11.511563
56.150 11.134293
56.155 10.971204
56.160 11.111343
56.165 11.132243
56.170 11.235536
56.175 11.220112
56.180 11.107436
56.185 10.972967
56.190 10.995025
56.195 10.634812
56.200 10.654424
56.205 10.432307
56.210 10.298343
56.215 9.677361
56.220 9.739788
56.225 9.804218
56.230 10.547743
56.235 11.150912
56.240 11.446708
56.245 11.978613
56.250 12.862991
56.255 12.596416
56.260 12.530503
56.265 12.593714
56.270 12.278066
56.275 12.064636
56.280 11.697281
56.285 11.233884
56.290 11.29482
56.295 11.344407
56.300 11.259534
56.305 10.916179
56.310 11.479447
56.315 11.76964
56.320 11.714005
56.325 11.606355
56.330 11.566982
56.335 11.511587
56.340 11.442643
56.345 11.176309
56.350 11.406099
56.355 11.452641
56.360 11.203619
56.365 10.549977
56.370 10.15716
56.375 9.952135
56.380 9.625684
56.385 9.287042
56.390 9.234729
56.395 9.720551
56.400 10.607099
56.405 11.331386
56.410 11.480896
56.415 11.672155
56.420 11.891459
56.425 12.231617
56.430 12.189971
56.435 11.969685
56.440 11.397012
56.445 11.467758
56.450 11.271179
56.455 11.279279
56.460 11.247806
56.465 11.111451
56.470 11.012145
56.475 11.142229
56.480 10.317003
56.485 10.090603
56.490 10.740927
56.495 10.562371
56.500 10.530675
56.505 10.140155
56.510 10.078279
56.515 10.708241
56.520 10.907577
56.525 10.263419
56.530 10.624091
56.535 11.159166
56.540 11.931448
56.545 12.374003
56.550 12.10021
56.555 11.969481
56.560 12.391255
56.565 12.083766
56.570 11.679058
56.575 11.360817
56.580 11.356966
56.585 11.806978
56.590 11.728754
56.595 11.081215
56.600 10.853338
56.605 10.602675
56.610 10.737778
56.615 10.657935
56.620 10.46259
56.625 9.990887
56.630 9.804966
56.635 9.449389
56.640 9.371195
56.645 9.029922
56.650 9.061387
56.655 9.30197
56.660 10.008133
56.665 10.787601
56.670 11.773625
56.675 11.785324
56.680 12.008302
56.685 11.910792
56.690 12.17977
56.695 12.470099
56.700 11.986244
56.705 11.462101
56.710 11.63935
56.715 11.66162
56.720 11.799483
56.725 11.198375
56.730 10.879598
56.735 10.748991
56.740 11.366481
56.745 11.560888
56.750 11.568542
56.755 11.652174
56.760 11.773254
56.765 11.886851
56.770 12.284389
56.775 12.03707
56.780 11.439424
56.785 11.317141
56.790 11.328668
56.795 11.909199
56.800 11.987934
56.805 11.329333
56.810 11.224003
56.815 11.596437
56.820 12.062428
56.825 11.926299
56.830 11.655125
56.835 11.972009
56.840 12.310341
56.845 12.392603
56.850 12.295539
56.855 12.417476
56.860 12.777423
56.865 13.026358
56.870 13.076282
56.875 13.416961
56.880 13.457705
56.885 13.400362
56.890 12.803933
56.895 12.702746
56.900 12.130336
56.905 11.671747
56.910 11.553959
56.915 11.386058
56.920 11.369811
56.925 11.256948
56.930 11.025723
56.935 11.378605
56.940 11.757429
56.945 11.959189
56.950 12.039915
56.955 12.182224
56.960 12.756063
56.965 12.912016
56.970 13.253048
56.975 13.264922
56.980 13.048318
56.985 13.103067
56.990 13.081088
56.995 13.10278
57.000 13.317312
57.005 13.050236
57.010 12.717777
57.015 12.678838
57.020 12.869794
57.025 12.825346
57.030 12.616351
57.035 12.328719
57.040 12.863004
57.045 13.46317
57.050 13.975677
57.055 14.149455
57.060 14.172474
57.065 13.965763
57.070 13.84325
57.075 13.703829
57.080 13.477665
57.085 12.990315
57.090 13.00484
57.095 13.014696
57.100 13.183102
57.105 13.411652
57.110 13.456501
57.115 13.290174
57.120 13.126786
57.125 12.754758
57.130 12.671151
57.135 12.01048
57.140 11.965169
57.145 11.931049
57.150 12.111978
57.155 12.32733
57.160 12.271556
57.165 12.429278
57.170 12.959138
57.175 12.920937
57.180 12.575474
57.185 12.642474
57.190 12.385233
57.195 12.398272
57.200 12.495379
57.205 12.911665
57.210 13.128729
57.215 12.822311
57.220 12.702974
57.225 13.096958
57.230 13.145231
57.235 13.110553
57.240 12.803692
57.245 13.076851
57.250 13.626587
57.255 13.686675
57.260 13.654278
57.265 13.936093
57.270 13.699435
57.275 13.399356
57.280 13.037749
57.285 13.381679
57.290 13.376654
57.295 13.210692
57.300 13.68909
57.305 13.708654
57.310 13.626302
57.315 13.347679
57.320 12.913621
57.325 12.749043
57.330 12.819385
57.335 12.555113
57.340 12.933355
57.345 13.153367
57.350 13.338924
57.355 13.723919
57.360 13.995011
57.365 13.938876
57.370 13.632649
57.375 13.490213
57.380 13.651233
57.385 13.291531
57.390 12.975923
57.395 13.436959
57.400 13.544946
57.405 13.528662
57.410 13.356475
57.415 12.88685
57.420 12.895598
57.425 13.114903
57.430 12.08555
57.435 11.720122
57.440 11.690403
57.445 11.752814
57.450 12.272156
57.455 12.485462
57.460 12.325064
57.465 13.061323
57.470 13.689031
57.475 13.887955
57.480 14.071774
57.485 14.089353
57.490 14.708306
57.495 14.59117
57.500 13.862102
57.505 13.407182
57.510 13.40252
57.515 13.334574
57.520 12.873267
57.525 12.765865
57.530 13.322114
57.535 13.89762
57.540 14.188528
57.545 14.284376
57.550 14.5284
57.555 14.616199
57.560 14.119577
57.565 13.918028
57.570 13.82133
57.575 14.147574
57.580 14.481431
57.585 14.66195
57.590 15.249252
57.595 15.467191
57.600 15.355202
57.605 15.252077
57.610 14.782934
57.615 14.635176
57.620 14.474649
57.625 14.286859
57.630 14.099885
57.635 13.999271
57.640 14.001727
57.645 14.004125
57.650 13.905817
57.655 14.073335
57.660 13.860713
57.665 13.802743
57.670 13.251101
57.675 12.840946
57.680 12.580897
57.685 12.317227
57.690 12.857029
57.695 12.864937
57.700 13.255471
57.705 13.777734
57.710 14.146388
57.715 14.170984
57.720 14.047174
57.725 13.180531
57.730 12.971394
57.735 13.366637
57.740 14.055396
57.745 14.364279
57.750 14.451214
57.755 14.290792
57.760 14.127542
57.765 14.020579
57.770 13.474777
57.775 13.144616
57.780 13.2033
57.785 13.489167
57.790 13.74289
57.795 13.956277
57.800 13.980973
57.805 14.181605
57.810 13.915172
57.815 13.412994
57.820 13.193366
57.825 13.072639
57.830 13.478065
57.835 13.380728
57.840 13.225066
57.845 13.035693
57.850 13.252021
57.855 13.411887
57.860 13.41764
57.865 13.461518
57.870 14.093208
57.875 14.027155
57.880 14.122789
57.885 13.954648
57.890 14.076346
57.895 13.569664
57.900 13.210675
57.905 13.332524
57.910 13.423862
57.915 13.478361
57.920 13.736891
57.925 13.864116
57.930 14.445291
57.935 14.567436
57.940 14.451941
57.945 14.226992
57.950 14.062765
57.955 14.130029
57.960 14.311275
57.965 14.560258
57.970 14.557343
57.975 14.521038
57.980 14.713613
57.985 14.69884
57.990 14.664188
57.995 14.532338
58.000 14.200576
58.005 14.46617
58.010 14.606693
58.015 14.782024
58.020 15.353811
58.025 15.473784
58.030 15.526514
58.035 15.739636
58.040 16.078711
58.045 15.900426
58.050 16.13549
58.055 16.043356
58.060 16.40209
58.065 16.735979
58.070 16.474939
58.075 15.685414
58.080 15.175272
58.085 14.431933
58.090 14.029099
58.095 13.483938
58.100 13.188592
58.105 13.776729
58.110 14.386915
58.115 14.886343
58.120 15.89169
58.125 15.955455
58.130 16.06333
58.135 15.913919
58.140 15.869637
58.145 16.036259
58.150 15.780901
58.155 15.27315
58.160 15.446429
58.165 15.572355
58.170 15.441713
58.175 14.945203
58.180 14.564651
58.185 14.651962
58.190 14.483719
58.195 14.100464
58.200 14.163153
58.205 14.376551
58.210 14.721064
58.215 14.825813
58.220 15.30402
58.225 15.695087
58.230 16.307133
58.235 16.335627
58.240 16.661983
58.245 16.566011
58.250 16.891174
58.255 17.19319
58.260 17.502947
58.265 17.678087
58.270 17.841415
58.275 17.902744
58.280 18.632132
58.285 18.238749
58.290 17.327463
58.295 17.047609
58.300 16.902504
58.305 17.238832
58.310 17.037464
58.315 17.007566
58.320 17.659405
58.325 18.676186
58.330 18.888493
58.335 18.79191
58.340 18.559526
58.345 18.816095
58.350 18.790474
58.355 19.272894
58.360 19.116226
58.365 18.918179
58.370 19.450752
58.375 19.376944
58.380 18.938421
58.385 18.490742
58.390 18.037687
58.395 17.90843
58.400 18.592113
58.405 19.076412
58.410 19.708036
58.415 20.034571
58.420 21.262239
58.425 21.704443
58.430 21.741976
58.435 21.386457
58.440 20.828329
58.445 20.653688
58.450 20.44169
58.455 19.295942
58.460 19.831715
58.465 20.711861
58.470 21.258125
58.475 21.541452
58.480 21.639936
58.485 22.233232
58.490 22.85051
58.495 22.386471
58.500 21.801844
58.505 21.645128
58.510 22.275833
58.515 22.36022
58.520 22.390791
58.525 23.225328
58.530 23.690605
58.535 24.467066
58.540 24.48978
58.545 23.98382
58.550 23.982105
58.555 24.064976
58.560 23.698881
58.565 23.6364
58.570 23.996807
58.575 24.311573
58.580 24.118736
58.585 24.767162
58.590 25.486525
58.595 25.48291
58.600 25.615131
58.605 24.86058
58.610 24.304935
58.615 24.847586
58.620 24.602654
58.625 24.571529
58.630 25.107824
58.635 25.0184
58.640 24.866554
58.645 25.027231
58.650 24.888023
58.655 24.837309
58.660 24.677202
58.665 24.850525
58.670 25.401657
58.675 26.195944
58.680 26.878904
58.685 26.65254
58.690 26.502972
58.695 27.14352
58.700 25.877771
58.705 25.106947
58.710 24.801479
58.715 24.309048
58.720 24.557377
58.725 24.681284
58.730 24.248075
58.735 24.159922
58.740 23.894997
58.745 24.159454
58.750 24.410851
58.755 24.141268
58.760 22.965351
58.765 21.74077
58.770 22.054342
58.775 22.055834
58.780 21.108541
58.785 20.235397
58.790 20.565916
58.795 21.430542
58.800 21.834055
58.805 21.939402
58.810 22.316944
58.815 22.456997
58.820 22.26878
58.825 22.303768
58.830 22.03092
58.835 22.010206
58.840 21.443029
58.845 20.99168
58.850 20.917871
58.855 21.072023
58.860 20.832628
58.865 20.709108
58.870 20.256258
58.875 20.396723
58.880 20.662529
58.885 20.96385
58.890 21.118017
58.895 20.82398
58.900 20.835085
58.905 21.285723
58.910 21.962299
58.915 22.024042
58.920 22.329279
58.925 22.445297
58.930 22.961699
58.935 23.323837
58.940 23.619961
58.945 23.567438
58.950 23.423752
58.955 22.815231
58.960 22.512564
58.965 22.488411
58.970 21.981974
58.975 21.406696
58.980 20.962242
58.985 20.660692
58.990 20.619289
58.995 20.273773
59.000 19.653339
59.005 19.622778
59.010 19.443256
59.015 18.806486
59.020 17.973265
59.025 18.148588
59.030 18.171734
59.035 17.931482
59.040 17.982901
59.045 17.959579
59.050 18.289026
59.055 18.720509
59.060 18.54266
59.065 19.004147
59.070 18.974726
59.075 18.560139
59.080 18.219534
59.085 17.797104
59.090 18.044437
59.095 18.088182
59.100 17.650877
59.105 17.843309
59.110 17.84123
59.115 17.849657
59.120 17.641827
59.125 16.944689
59.130 16.658386
59.135 16.645142
59.140 16.625557
59.145 16.35981
59.150 16.196093
59.155 16.659945
59.160 16.931862
59.165 17.264273
59.170 17.472498
59.175 17.685694
59.180 18.43874
59.185 18.830299
59.190 18.29351
59.195 17.995417
59.200 17.855978
59.205 17.962017
59.210 17.910845
59.215 17.194567
59.220 16.526373
59.225 16.766052
59.230 17.208326
59.235 17.451569
59.240 17.57445
59.245 17.493721
59.250 17.941572
59.255 18.261742
59.260 18.649467
59.265 18.639833
59.270 17.941999
59.275 17.592991
59.280 17.544777
59.285 16.842159
59.290 16.527376
59.295 15.971795
59.300 15.29226
59.305 15.60427
59.310 15.838892
59.315 16.09976
59.320 16.268669
59.325 16.574591
59.330 17.186827
59.335 17.746925
59.340 17.618067
59.345 17.211987
59.350 17.195004
59.355 17.099308
59.360 16.66782
59.365 16.126476
59.370 16.018826
59.375 16.158262
59.380 16.015089
59.385 15.606969
59.390 15.722368
59.395 15.976585
59.400 15.972521
59.405 16.200602
59.410 16.330009
59.415 16.385021
59.420 16.075945
59.425 15.855827
59.430 16.210894
59.435 15.893972
59.440 15.964828
59.445 15.963128
59.450 15.978221
59.455 15.866613
59.460 15.523571
59.465 15.034883
59.470 15.026671
59.475 14.963623
59.480 15.251233
59.485 15.12683
59.490 15.487988
59.495 15.629025
59.500 15.495488
59.505 15.281382
59.510 14.777571
59.515 14.079641
59.520 14.118196
59.525 14.042367
59.530 14.256426
59.535 14.136182
59.540 13.554432
59.545 13.755416
59.550 14.398605
59.555 14.650331
59.560 14.352795
59.565 14.018208
59.570 14.082366
59.575 14.327136
59.580 14.074454
59.585 13.538423
59.590 13.685465
59.595 13.929559
59.600 13.85814
59.605 14.479083
59.610 15.107852
59.615 15.672935
59.620 16.063116
59.625 15.991941
59.630 16.364063
59.635 16.422611
59.640 16.33272
59.645 15.693511
59.650 15.123372
59.655 14.289915
59.660 13.972105
59.665 13.504683
59.670 13.35437
59.675 13.186781
59.680 13.73453
59.685 13.974042
59.690 14.494589
59.695 14.347097
59.700 14.713067
59.705 15.306767
59.710 15.534455
59.715 14.976226
59.720 14.713261
59.725 15.042928
59.730 15.148714
59.735 15.193877
59.740 15.320304
59.745 15.310476
59.750 15.629434
59.755 15.851284
59.760 15.832041
59.765 16.02463
59.770 15.579656
59.775 15.434066
59.780 15.487339
59.785 15.388625
59.790 14.675097
59.795 14.525744
59.800 14.626184
59.805 14.276234
59.810 14.193111
59.815 14.005221
59.820 14.095637
59.825 14.477406
59.830 14.455443
59.835 14.310767
59.840 14.791661
59.845 14.593849
59.850 14.119808
59.855 14.057228
59.860 14.400532
59.865 14.349293
59.870 14.494656
59.875 14.069491
59.880 14.105723
59.885 14.439
59.890 14.773191
59.895 14.595818
59.900 14.474143
59.905 14.464938
59.910 15.007113
59.915 14.931785
59.920 15.341502
59.925 14.84942
59.930 14.403927
59.935 14.048022
59.940 13.842871
59.945 13.426808
59.950 13.426422
59.955 13.145075
59.960 13.252921
59.965 13.715892
59.970 14.145346
59.975 14.379549
59.980 14.641337
59.985 14.813472
59.990 14.823423
59.995 14.80637
60.000 15.117291
60.005 15.375686
60.010 15.472827
60.015 15.826811
60.020 15.663872
60.025 15.395773
60.030 15.488018
60.035 14.866129
60.040 15.001712
60.045 14.859251
60.050 14.654099
60.055 15.150377
60.060 14.986492
60.065 14.841052
60.070 15.503815
60.075 15.559982
60.080 15.640027
60.085 15.509774
60.090 14.772504
60.095 14.904378
60.100 15.037389
60.105 15.095784
60.110 14.854033
60.115 14.53383
60.120 14.177594
60.125 14.74443
60.130 15.016436
60.135 14.838847
60.140 13.75091
60.145 13.632306
60.150 14.030574
60.155 14.085473
60.160 13.991488
60.165 13.910914
60.170 14.688788
60.175 15.167399
60.180 15.32128
60.185 15.235282
60.190 15.005606
60.195 14.553242
60.200 14.754326
60.205 14.296576
60.210 14.163659
60.215 13.940476
60.220 13.519399
60.225 13.551134
60.230 13.66125
60.235 13.338345
60.240 13.078326
60.245 13.36507
60.250 13.184611
60.255 13.230303
60.260 13.572378
60.265 13.357488
60.270 13.230412
60.275 12.964723
60.280 12.827689
60.285 13.345706
60.290 13.779779
60.295 13.457115
60.300 13.979486
60.305 14.497337
60.310 14.583009
60.315 15.056267
60.320 14.781463
60.325 15.207165
60.330 15.649312
60.335 15.286513
60.340 15.054051
60.345 15.267519
60.350 15.093534
60.355 14.846435
60.360 14.705163
60.365 14.333902
60.370 14.219551
60.375 14.371502
60.380 14.335075
60.385 14.399027
60.390 14.881663
60.395 14.806646
60.400 14.681236
60.405 14.598161
60.410 14.294965
60.415 13.97687
60.420 13.777268
60.425 13.825105
60.430 13.743693
60.435 13.939615
60.440 13.989364
60.445 14.215069
60.450 13.894027
60.455 13.72632
60.460 13.580792
60.465 13.595998
60.470 13.602732
60.475 13.772408
60.480 13.884554
60.485 14.137611
60.490 14.091373
60.495 13.43085
60.500 13.029887
60.505 13.325132
60.510 13.481308
60.515 13.414813
60.520 13.437127
60.525 13.672636
60.530 14.444373
60.535 15.57939
60.540 15.336118
60.545 15.330428
60.550 15.199718
60.555 15.266885
60.560 15.507376
60.565 14.924758
60.570 14.167134
60.575 14.513406
60.580 14.660935
60.585 14.765859
60.590 14.982411
60.595 14.734716
60.600 15.345398
60.605 15.355904
60.610 15.079708
60.615 15.05953
60.620 15.469099
60.625 15.629871
60.630 15.351923
60.635 15.217608
60.640 15.166301
60.645 15.233624
60.650 15.349293
60.655 15.103968
60.660 15.052739
60.665 15.195037
60.670 15.517215
60.675 15.756838
60.680 15.663246
60.685 15.759738
60.690 15.434139
60.695 15.302067
60.700 15.217471
60.705 15.104949
60.710 15.000878
60.715 14.830555
60.720 14.193703
60.725 14.21178
60.730 14.036765
60.735 14.004114
60.740 13.594913
60.745 13.819744
60.750 14.320545
60.755 14.767866
60.760 14.900311
60.765 14.963677
60.770 15.18231
60.775 15.351433
60.780 14.933083
60.785 14.862889
60.790 14.721713
60.795 14.704742
60.800 14.443312
60.805 14.002604
60.810 13.98537
60.815 14.189747
60.820 13.8618
60.825 13.682761
60.830 13.414171
60.835 13.39775
60.840 13.389504
60.845 13.46716
60.850 13.357944
60.855 13.952181
60.860 14.189703
60.865 14.506824
60.870 14.712029
60.875 15.036208
60.880 14.674501
60.885 15.007344
60.890 14.408792
60.895 13.856442
60.900 13.494304
60.905 13.289077
60.910 13.135038
60.915 13.098301
60.920 13.040818
60.925 13.440916
60.930 13.943707
60.935 14.109052
60.940 14.281313
60.945 14.491529
60.950 14.630684
60.955 14.510006
60.960 14.992723
60.965 15.346482
60.970 15.6434
60.975 15.728841
60.980 15.46878
60.985 15.466677
60.990 15.431478
60.995 14.884821
61.000 15.011794
61.005 15.513267
61.010 15.309813
61.015 15.150301
61.020 15.330897
61.025 15.690873
61.030 15.222264
61.035 14.60086
61.040 13.993512
61.045 14.439764
61.050 14.769915
61.055 15.102344
61.060 14.816002
61.065 15.320124
61.070 15.476295
61.075 15.613856
61.080 15.740926
61.085 15.943104
61.090 14.765108
61.095 14.62272
61.100 14.631983
61.105 14.852355
61.110 14.741148
61.115 14.707553
61.120 14.787012
61.125 15.263155
61.130 15.596883
61.135 15.3022
61.140 15.193156
61.145 15.101514
61.150 14.665384
61.155 14.275291
61.160 14.105829
61.165 13.61006
61.170 13.969284
61.175 14.446537
61.180 14.6387
61.185 15.026998
61.190 15.519209
61.195 16.036421
61.200 16.763435
61.205 16.915339
61.210 16.540939
61.215 16.538425
61.220 15.820881
61.225 15.542622
61.230 15.446133
61.235 15.257472
61.240 14.801317
61.245 14.75023
61.250 14.408786
61.255 14.826915
61.260 14.99666
61.265 15.033531
61.270 14.633032
61.275 14.565473
61.280 14.620218
61.285 15.327569
61.290 15.681595
61.295 15.969566
61.300 16.027113
61.305 15.512576
61.310 15.517784
61.315 15.371361
61.320 14.673631
61.325 14.183729
61.330 13.880282
61.335 14.044132
61.340 14.196107
61.345 14.53205
61.350 14.955345
61.355 15.590983
61.360 15.893634
61.365 15.771456
61.370 15.343986
61.375 15.911195
61.380 15.611624
61.385 15.11433
61.390 14.876158
61.395 14.48798
61.400 14.391588
61.405 15.045305
61.410 15.339927
61.415 15.29962
61.420 15.177447
61.425 15.06631
61.430 15.154252
61.435 14.948395
61.440 14.635245
61.445 14.165209
61.450 14.807104
61.455 15.39178
61.460 15.907166
61.465 15.903478
61.470 15.787725
61.475 15.674339
61.480 15.399036
61.485 15.150418
61.490 14.904392
61.495 14.892976
61.500 14.884423
61.505 15.255877
61.510 16.055832
61.515 16.536499
61.520 16.091295
61.525 16.247923
61.530 16.917774
61.535 17.377201
61.540 17.424034
61.545 17.472269
61.550 17.47365
61.555 17.710089
61.560 17.75251
61.565 17.353846
61.570 17.474102
61.575 17.358103
61.580 17.471087
61.585 17.653452
61.590 17.823206
61.595 17.839844
61.600 17.579437
61.605 17.138092
61.610 17.263685
61.615 16.716696
61.620 16.603209
61.625 15.982813
61.630 15.465022
61.635 15.373042
61.640 15.859486
61.645 16.176121
61.650 15.909739
61.655 15.993951
61.660 16.534285
61.665 16.307777
61.670 16.227608
61.675 15.540743
61.680 15.071981
61.685 14.308596
61.690 13.594732
61.695 12.933713
61.700 13.079268
61.705 13.196068
61.710 14.021099
61.715 14.098902
61.720 14.771752
61.725 15.3778
61.730 15.789124
61.735 15.901426
61.740 15.827594
61.745 15.351295
61.750 15.398177
61.755 15.796657
61.760 15.742884
61.765 15.879709
61.770 15.808754
61.775 15.565432
61.780 15.424721
61.785 15.07123
61.790 14.256701
61.795 13.752867
61.800 13.776668
61.805 13.913671
61.810 14.624491
61.815 14.755505
61.820 14.8758
61.825 15.502255
61.830 16.165268
61.835 15.929315
61.840 15.712783
61.845 15.425545
61.850 15.426205
61.855 15.500859
61.860 15.421331
61.865 15.192186
61.870 15.407529
61.875 15.314117
61.880 15.167933
61.885 15.108009
61.890 15.539227
61.895 15.533225
61.900 15.654005
61.905 15.568478
61.910 15.859129
61.915 15.601798
61.920 15.727206
61.925 15.85016
61.930 15.526402
61.935 15.477414
61.940 15.147908
61.945 15.215362
61.950 15.450925
61.955 15.470479
61.960 15.363707
61.965 15.028657
61.970 15.352883
61.975 15.927207
61.980 15.847589
61.985 15.764752
61.990 15.546648
61.995 15.843955
62.000 16.723732
62.005 16.349245
62.010 15.804267
62.015 15.910867
62.020 15.67755
62.025 15.497985
62.030 15.537353
62.035 14.697355
62.040 14.882695
62.045 15.450179
62.050 15.670327
62.055 15.795837
62.060 15.898801
62.065 15.935884
62.070 16.611086
62.075 16.449032
62.080 15.85201
62.085 15.606333
62.090 15.968683
62.095 16.461733
62.100 16.519213
62.105 16.581217
62.110 16.759886
62.115 16.669226
62.120 16.559273
62.125 16.651972
62.130 16.184574
62.135 15.934982
62.140 15.176832
62.145 14.81185
62.150 14.896033
62.155 14.788248
62.160 14.525473
62.165 14.441818
62.170 14.08404
62.175 14.867105
62.180 15.403041
62.185 15.974254
62.190 16.049261
62.195 15.629955
62.200 15.498579
62.205 15.7903
62.210 15.47342
62.215 15.174941
62.220 14.915655
62.225 15.465885
62.230 15.803065
62.235 15.787533
62.240 15.891346
62.245 15.818161
62.250 15.801851
62.255 15.775161
62.260 16.005501
62.265 16.355133
62.270 16.636108
62.275 16.208488
62.280 15.722425
62.285 15.663796
62.290 15.334414
62.295 14.66046
62.300 14.398038
62.305 14.28189
62.310 14.16312
62.315 14.386768
62.320 14.719365
62.325 14.743919
62.330 14.812343
62.335 15.377397
62.340 15.494116
62.345 15.599987
62.350 15.306829
62.355 15.26403
62.360 15.784061
62.365 15.83217
62.370 15.180564
62.375 14.494774
62.380 14.539633
62.385 14.400794
62.390 13.926898
62.395 14.039173
62.400 14.564625
62.405 14.491395
62.410 15.443678
62.415 15.734981
62.420 15.872965
62.425 16.03742
62.430 15.608253
62.435 14.977506
62.440 15.028229
62.445 15.189575
62.450 15.630745
62.455 16.064808
62.460 16.343897
62.465 16.106804
62.470 16.327459
62.475 16.935362
62.480 16.710749
62.485 17.11272
62.490 16.97769
62.495 16.47427
62.500 16.903379
62.505 16.60766
62.510 16.097469
62.515 15.651608
62.520 15.110029
62.525 15.087061
62.530 15.468151
62.535 15.835515
62.540 16.606277
62.545 16.959568
62.550 17.184179
62.555 17.072958
62.560 16.84494
62.565 16.848473
62.570 16.707666
62.575 16.330072
62.580 15.973535
62.585 15.836411
62.590 15.982647
62.595 16.314022
62.600 15.882006
62.605 15.12743
62.610 14.396573
62.615 14.113577
62.620 13.974797
62.625 13.882629
62.630 14.154778
62.635 14.110436
62.640 14.467916
62.645 15.264063
62.650 16.141376
62.655 16.346611
62.660 16.297029
62.665 15.546046
62.670 16.172392
62.675 16.833118
62.680 16.753527
62.685 16.368361
62.690 16.618235
62.695 16.880768
62.700 16.868786
62.705 16.422091
62.710 15.918257
62.715 15.338547
62.720 14.957265
62.725 14.704365
62.730 14.70328
62.735 15.472994
62.740 15.341134
62.745 15.220663
62.750 15.762277
62.755 15.888011
62.760 15.757939
62.765 16.206226
62.770 15.939502
62.775 16.41012
62.780 16.200994
62.785 15.814349
62.790 15.743503
62.795 15.236342
62.800 14.828726
62.805 14.908124
62.810 14.66116
62.815 14.558145
62.820 14.586061
62.825 14.534732
62.830 14.764669
62.835 15.005333
62.840 15.086561
62.845 14.388713
62.850 14.900097
62.855 15.221323
62.860 15.87257
62.865 15.866194
62.870 15.140249
62.875 14.994825
62.880 15.779551
62.885 16.00135
62.890 16.401302
62.895 15.543923
62.900 15.735608
62.905 15.798973
62.910 15.743637
62.915 15.888102
62.920 15.476765
62.925 15.068148
62.930 15.700488
62.935 15.753994
62.940 16.116364
62.945 16.414745
62.950 16.479822
62.955 16.729639
62.960 16.974287
62.965 17.211536
62.970 17.546444
62.975 17.460373
62.980 17.482229
62.985 17.469152
62.990 17.751686
62.995 17.8521
63.000 17.888222
63.005 17.528942
63.010 17.201147
63.015 16.618977
63.020 16.053427
63.025 15.506101
63.030 15.088178
63.035 14.592416
63.040 14.250295
63.045 13.856524
63.050 13.987337
63.055 14.366837
63.060 14.608822
63.065 14.486876
63.070 15.307405
63.075 15.852487
63.080 16.274557
63.085 16.422819
63.090 16.378111
63.095 16.02549
63.100 16.250372
63.105 15.789144
63.110 15.762522
63.115 15.902575
63.120 15.840512
63.125 15.976707
63.130 15.746709
63.135 15.653568
63.140 14.979293
63.145 14.704152
63.150 14.919415
63.155 14.9274
63.160 14.996224
63.165 15.971904
63.170 16.377308
63.175 17.566492
63.180 18.407501
63.185 18.674782
63.190 18.419861
63.195 17.539906
63.200 16.771765
63.205 16.559536
63.210 15.870427
63.215 14.99157
63.220 14.404243
63.225 14.638867
63.230 14.652927
63.235 14.445188
63.240 14.75112
63.245 14.489427
63.250 15.335792
63.255 16.637655
63.260 16.970484
63.265 17.296125
63.270 17.273239
63.275 16.703508
63.280 16.69211
63.285 16.11344
63.290 15.302149
63.295 15.487767
63.300 15.888115
63.305 15.8241
63.310 15.707412
63.315 15.903708
63.320 15.695806
63.325 15.879002
63.330 15.901599
63.335 16.033939
63.340 16.507158
63.345 16.421663
63.350 16.103252
63.355 16.252968
63.360 16.474951
63.365 16.510447
63.370 16.393766
63.375 16.721876
63.380 17.36805
63.385 18.130289
63.390 17.857838
63.395 17.237392
63.400 17.179157
63.405 16.983793
63.410 16.641943
63.415 16.475798
63.420 16.573524
63.425 16.735708
63.430 16.568781
63.435 16.121952
63.440 16.283369
63.445 16.45882
63.450 16.722454
63.455 16.247646
63.460 16.604553
63.465 16.878624
63.470 17.555868
63.475 17.99061
63.480 18.126749
63.485 18.312397
63.490 18.833115
63.495 18.839121
63.500 19.08304
63.505 19.115858
63.510 18.841902
63.515 18.587383
63.520 18.3853
63.525 18.195385
63.530 17.782145
63.535 18.041897
63.540 17.430552
63.545 17.050554
63.550 16.705267
63.555 16.615484
63.560 16.595604
63.565 16.474918
63.570 15.897875
63.575 15.907
63.580 16.002119
63.585 16.423203
63.590 16.546219
63.595 16.774118
63.600 17.52849
63.605 17.611052
63.610 18.373837
63.615 18.656601
63.620 19.086369
63.625 18.948656
63.630 18.887753
63.635 19.035418
63.640 19.441086
63.645 19.1791
63.650 19.661345
63.655 19.532927
63.660 20.056953
63.665 20.591772
63.670 20.926308
63.675 20.759314
63.680 20.739674
63.685 20.83025
63.690 20.618376
63.695 19.935188
63.700 19.63752
63.705 18.830065
63.710 19.256153
63.715 20.019566
63.720 19.617407
63.725 19.967854
63.730 20.363703
63.735 20.749258
63.740 21.199703
63.745 20.82144
63.750 20.154291
63.755 20.225109
63.760 19.555382
63.765 19.209488
63.770 19.045111
63.775 18.872561
63.780 18.613438
63.785 18.517344
63.790 19.141041
63.795 20.069817
63.800 20.632641
63.805 20.654526
63.810 20.90307
63.815 21.060562
63.820 20.731504
63.825 20.220917
63.830 19.899996
63.835 20.171045
63.840 19.302469
63.845 18.998098
63.850 19.291912
63.855 19.376259
63.860 18.972511
63.865 19.125332
63.870 19.183802
63.875 19.79142
63.880 20.041618
63.885 20.252714
63.890 20.559137
63.895 21.254549
63.900 21.415665
63.905 21.774775
63.910 22.632069
63.915 22.500505
63.920 22.241165
63.925 21.728834
63.930 21.894161
63.935 22.118401
63.940 21.545597
63.945 21.2103
63.950 21.468567
63.955 22.092018
63.960 23.050528
63.965 23.083263
63.970 23.107864
63.975 23.140053
63.980 23.227024
63.985 23.884914
63.990 23.342348
63.995 23.12384
64.000 23.680325
64.005 24.330332
64.010 25.204782
64.015 25.625481
64.020 26.134787
64.025 26.649448
64.030 26.997787
64.035 26.447205
64.040 26.181549
64.045 26.360703
64.050 26.6877
64.055 26.467096
64.060 26.740835
64.065 26.142286
64.070 26.663605
64.075 27.021835
64.080 26.813782
64.085 26.312515
64.090 26.153656
64.095 25.986872
64.100 26.345776
64.105 26.358549
64.110 25.703362
64.115 26.061197
64.120 27.000362
64.125 27.592705
64.130 28.383787
64.135 29.054453
64.140 28.997763
64.145 29.098946
64.150 29.181253
64.155 29.323513
64.160 28.492018
64.165 27.19253
64.170 25.870314
64.175 26.238184
64.180 26.883657
64.185 26.607607
64.190 26.347635
64.195 27.522858
64.200 28.435883
64.205 29.31057
64.210 29.407066
64.215 29.546972
64.220 30.587984
64.225 30.486376
64.230 30.272018
64.235 30.477386
64.240 30.72323
64.245 30.287361
64.250 29.277491
64.255 28.24704
64.260 27.688393
64.265 27.928604
64.270 28.107573
64.275 28.147419
64.280 28.576132
64.285 28.870661
64.290 29.827375
64.295 31.214371
64.300 30.915354
64.305 30.715748
64.310 30.551029
64.315 30.548964
64.320 30.932268
64.325 29.445311
64.330 28.203592
64.335 27.663385
64.340 27.392948
64.345 27.489716
64.350 27.474346
64.355 28.26549
64.360 29.025652
64.365 28.49477
64.370 28.810648
64.375 29.314016
64.380 29.383081
64.385 28.410105
64.390 27.48424
64.395 27.35779
64.400 27.857346
64.405 28.119614
64.410 27.921812
64.415 27.788149
64.420 28.379454
64.425 28.791342
64.430 28.384274
64.435 28.696951
64.440 28.593367
64.445 27.824436
64.450 27.443426
64.455 27.583426
64.460 27.474249
64.465 27.571621
64.470 27.479893
64.475 27.448774
64.480 27.374973
64.485 27.381338
64.490 27.084692
64.495 26.626976
64.500 26.643085
64.505 26.393314
64.510 26.016415
64.515 26.31102
64.520 26.47238
64.525 26.234213
64.530 26.061243
64.535 25.436724
64.540 24.711761
64.545 24.444111
64.550 24.610357
64.555 23.852709
64.560 23.601728
64.565 23.807388
64.570 24.145714
64.575 24.467278
64.580 24.402164
64.585 23.910025
64.590 24.181568
64.595 24.487202
64.600 24.045057
64.605 23.68375
64.610 23.818924
64.615 23.995022
64.620 24.187788
64.625 24.498976
64.630 24.154749
64.635 24.317324
64.640 24.172729
64.645 23.468107
64.650 22.917274
64.655 22.674109
64.660 21.899191
64.665 21.872269
64.670 21.967852
64.675 22.236479
64.680 22.389561
64.685 22.894539
64.690 22.441795
64.695 22.235844
64.700 22.079399
64.705 21.584166
64.710 21.550411
64.715 22.075331
64.720 21.811714
64.725 22.060026
64.730 22.629902
64.735 22.365881
64.740 22.121925
64.745 21.769026
64.750 21.504751
64.755 21.281275
64.760 20.940657
64.765 20.703447
64.770 20.452101
64.775 20.074389
64.780 19.922522
64.785 19.363039
64.790 19.934732
64.795 20.054783
64.800 20.313063
64.805 21.03652
64.810 21.836317
64.815 21.667873
64.820 21.677397
64.825 21.43339
64.830 21.575344
64.835 21.421778
64.840 20.766537
64.845 20.614302
64.850 21.288303
64.855 21.709482
64.860 21.903057
64.865 21.605511
64.870 21.774317
64.875 22.451885
64.880 22.017796
64.885 21.416492
64.890 21.430601
64.895 21.515936
64.900 21.991524
64.905 21.784264
64.910 21.614046
64.915 22.417442
64.920 22.397543
64.925 21.803398
64.930 21.518785
64.935 20.859552
64.940 20.180969
64.945 19.765863
64.950 19.160013
64.955 18.931362
64.960 19.405502
64.965 19.293308
64.970 19.530201
64.975 20.244118
64.980 20.429964
64.985 21.039358
64.990 21.169081
64.995 21.066034
65.000 20.987831
65.005 20.926147
65.010 20.640169
65.015 20.521761
65.020 20.177174
65.025 20.625875
65.030 21.346436
65.035 21.413822
65.040 21.190237
65.045 21.694622
65.050 21.139441
65.055 20.93301
65.060 20.648949
65.065 19.683037
65.070 20.07251
65.075 20.13147
65.080 20.635311
65.085 21.131792
65.090 20.879454
65.095 20.757761
65.100 20.697256
65.105 20.225422
65.110 19.824442
65.115 19.155449
65.120 19.484806
65.125 19.788511
65.130 18.849501
65.135 19.283791
65.140 19.975576
65.145 20.109278
65.150 20.113333
65.155 19.792736
65.160 19.974855
65.165 20.58798
65.170 19.915155
65.175 19.940609
65.180 20.464851
65.185 20.44668
65.190 20.625742
65.195 20.209192
65.200 20.269333
65.205 20.398512
65.210 19.843143
65.215 19.992718
65.220 20.319204
65.225 20.312771
65.230 20.255051
65.235 20.105429
65.240 20.485268
65.245 20.30011
65.250 19.610014
65.255 19.270924
65.260 19.639004
65.265 20.717949
65.270 21.079422
65.275 21.374819
65.280 22.321423
65.285 22.687481
65.290 22.647594
65.295 22.550117
65.300 21.961243
65.305 21.128183
65.310 20.431623
65.315 19.131596
65.320 18.906263
65.325 18.842468
65.330 18.390171
65.335 18.071587
65.340 18.225357
65.345 18.420216
65.350 19.509417
65.355 19.491932
65.360 19.271898
65.365 19.227345
65.370 19.281586
65.375 19.225897
65.380 18.933008
65.385 18.056025
65.390 17.935904
65.395 17.639973
65.400 17.685995
65.405 18.009933
65.410 18.184345
65.415 18.572334
65.420 18.977453
65.425 18.982906
65.430 19.309475
65.435 19.590782
65.440 19.693182
65.445 19.754101
65.450 19.63571
65.455 19.627796
65.460 20.045372
65.465 20.012941
65.470 19.888941
65.475 19.821356
65.480 20.340466
65.485 19.773632
65.490 19.474829
65.495 19.637011
65.500 19.948183
65.505 20.722948
65.510 20.88468
65.515 20.87439
65.520 20.972876
65.525 21.087891
65.530 21.191866
65.535 20.705107
65.540 19.646957
65.545 19.448673
65.550 19.417709
65.555 19.597973
65.560 19.706041
65.565 19.238491
65.570 18.987473
65.575 19.116236
65.580 19.155743
65.585 19.203695
65.590 19.491575
65.595 19.115101
65.600 19.646437
65.605 20.307978
65.610 21.284647
65.615 21.155001
65.620 20.768036
65.625 21.120287
65.630 21.249199
65.635 21.209625
65.640 20.969231
65.645 20.420368
65.650 21.145819
65.655 21.443422
65.660 21.249075
65.665 21.37468
65.670 21.236187
65.675 20.735987
65.680 20.69553
65.685 19.957001
65.690 19.659607
65.695 19.554571
65.700 19.556084
65.705 19.448372
65.710 19.905283
65.715 20.515528
65.720 21.066305
65.725 21.616014
65.730 21.56451
65.735 21.720661
65.740 22.233984
65.745 22.397375
65.750 22.195826
65.755 22.615681
65.760 22.610394
65.765 22.916271
65.770 23.661587
65.775 23.975437
65.780 24.38093
65.785 23.881495
65.790 23.561142
65.795 23.674223
65.800 23.362064
65.805 23.354321
65.810 23.40316
65.815 22.917027
65.820 23.330404
65.825 24.185644
65.830 25.009357
65.835 25.454887
65.840 25.342064
65.845 25.324472
65.850 26.043337
65.855 26.249329
65.860 26.112223
65.865 26.579174
65.870 26.57375
65.875 26.45557
65.880 26.710949
65.885 27.112665
65.890 27.631481
65.895 27.14187
65.900 27.246777
65.905 27.318369
65.910 27.814365
65.915 27.832865
65.920 27.717566
65.925 28.373772
65.930 29.185652
65.935 29.769783
65.940 30.738182
65.945 30.869574
65.950 30.550623
65.955 30.865049
65.960 31.083248
65.965 31.234604
65.970 30.903969
65.975 31.050695
65.980 31.416439
65.985 32.195431
65.990 32.373661
65.995 32.696865
66.000 32.397217
66.005 33.248562
66.010 32.757381
66.015 31.956141
66.020 31.898638
66.025 31.858271
66.030 31.609966
66.035 32.118649
66.040 32.070007
66.045 32.699329
66.050 33.782967
66.055 34.981792
66.060 35.36005
66.065 35.70454
66.070 36.015549
66.075 35.39056
66.080 35.440762
66.085 36.053391
66.090 36.265522
66.095 37.175415
66.100 37.749817
66.105 37.96627
66.110 38.974903
66.115 39.14196
66.120 38.427776
66.125 38.266247
66.130 38.223789
66.135 38.410088
66.140 38.621407
66.145 38.400112
66.150 38.670818
66.155 38.226566
66.160 38.802395
66.165 38.969021
66.170 40.401379
66.175 40.183544
66.180 40.704128
66.185 41.483231
66.190 42.39859
66.195 42.039516
66.200 41.322971
66.205 40.423946
66.210 41.18528
66.215 40.604439
66.220 39.647923
66.225 39.53162
66.230 39.381657
66.235 39.867165
66.240 39.696716
66.245 38.674686
66.250 39.324467
66.255 39.300129
66.260 38.050705
66.265 37.971054
66.270 37.241959
66.275 37.18697
66.280 37.176739
66.285 37.540737
66.290 38.586739
66.295 39.158825
66.300 38.747314
66.305 38.711029
66.310 38.7314
66.315 38.26722
66.320 37.509357
66.325 37.505066
66.330 37.805225
66.335 38.091702
66.340 38.191025
66.345 38.17754
66.350 38.877483
66.355 38.289043
66.360 37.473755
66.365 36.892441
66.370 36.570354
66.375 35.488503
66.380 34.677387
66.385 33.562122
66.390 33.156616
66.395 32.989388
66.400 32.405231
66.405 32.002438
66.410 32.70475
66.415 33.644138
66.420 34.892769
66.425 35.209667
66.430 35.054543
66.435 35.767387
66.440 35.893017
66.445 35.178158
66.450 33.544956
66.455 31.622152
66.460 30.270292
66.465 29.630154
66.470 29.176434
66.475 28.44459
66.480 28.646149
66.485 29.599039
66.490 30.35269
66.495 30.881382
66.500 30.695667
66.505 30.725275
66.510 30.481817
66.515 29.771229
66.520 28.685642
66.525 28.101059
66.530 28.194717
66.535 27.674423
66.540 27.35001
66.545 27.211763
66.550 26.888752
66.555 26.616879
66.560 25.871222
66.565 24.365341
66.570 24.057444
66.575 23.670008
66.580 23.296745
66.585 22.424225
66.590 22.326078
66.595 23.047123
66.600 23.353207
66.605 22.962097
66.610 22.563204
66.615 22.626112
66.620 22.642241
66.625 22.336603
66.630 21.742144
66.635 22.28191
66.640 22.590429
66.645 21.842915
66.650 21.312382
66.655 21.273464
66.660 21.261803
66.665 21.089741
66.670 20.261305
66.675 20.345194
66.680 20.723818
66.685 20.955685
66.690 20.906742
66.695 20.858473
66.700 20.51207
66.705 20.732704
66.710 20.390043
66.715 19.774706
66.720 19.015089
66.725 18.49074
66.730 17.808994
66.735 17.692225
66.740 17.857027
66.745 18.216932
66.750 19.061338
66.755 19.864059
66.760 19.806688
66.765 20.203295
66.770 20.556911
66.775 20.28614
66.780 20.128252
66.785 19.762033
66.790 19.247128
66.795 19.479233
66.800 18.853668
66.805 18.633848
66.810 18.477079
66.815 18.605511
66.820 18.452124
66.825 18.513107
66.830 18.497871
66.835 18.555792
66.840 18.400602
66.845 18.638123
66.850 18.205763
66.855 18.210876
66.860 18.756208
66.865 19.092237
66.870 19.439922
66.875 19.742165
66.880 20.011917
66.885 19.95162
66.890 20.367807
66.895 20.45005
66.900 20.143978
66.905 20.029839
66.910 19.305765
66.915 18.674713
66.920 18.836657
66.925 18.080347
66.930 17.197969
66.935 17.730574
66.940 18.051821
66.945 18.779957
66.950 19.158304
66.955 19.280317
66.960 19.369709
66.965 19.448755
66.970 18.957249
66.975 18.618761
66.980 18.506104
66.985 18.428392
66.990 18.130556
66.995 18.150763
67.000 18.035048
67.005 17.603586
67.010 17.959503
67.015 17.952131
67.020 17.779839
67.025 18.278893
67.030 18.547852
67.035 19.356125
67.040 19.720045
67.045 19.734856
67.050 19.958942
67.055 20.209633
67.060 20.124611
67.065 19.630592
67.070 19.000332
67.075 19.947262
67.080 19.870228
67.085 19.778608
67.090 19.470812
67.095 19.748745
67.100 19.810373
67.105 19.699415
67.110 19.151691
67.115 18.881596
67.120 18.496185
67.125 18.619734
67.130 18.063444
67.135 18.140827
67.140 18.495138
67.145 18.285948
67.150 18.209442
67.155 18.69257
67.160 18.572008
67.165 18.817476
67.170 19.079407
67.175 18.628796
67.180 18.160337
67.185 17.960169
67.190 17.978697
67.195 18.456358
67.200 18.277195
67.205 17.679998
67.210 17.722095
67.215 18.209675
67.220 18.601807
67.225 18.486195
67.230 17.857311
67.235 18.248945
67.240 18.864765
67.245 19.054478
67.250 19.179052
67.255 19.023895
67.260 18.523544
67.265 18.572588
67.270 17.995548
67.275 17.550377
67.280 17.079342
67.285 17.009546
67.290 16.833616
67.295 17.272196
67.300 17.442909
67.305 17.6108
67.310 17.318981
67.315 17.962576
67.320 18.03705
67.325 17.946539
67.330 17.79072
67.335 17.756575
67.340 17.693863
67.345 18.064453
67.350 17.627565
67.355 17.540459
67.360 18.023516
67.365 18.324867
67.370 18.619099
67.375 19.014898
67.380 19.029503
67.385 18.522638
67.390 18.702625
67.395 18.412464
67.400 18.056932
67.405 17.82085
67.410 18.0501
67.415 17.777872
67.420 18.238611
67.425 17.871231
67.430 18.168325
67.435 18.195089
67.440 18.425364
67.445 18.509272
67.450 18.970676
67.455 18.957279
67.460 19.271847
67.465 19.186499
67.470 19.339075
67.475 19.382767
67.480 19.050255
67.485 19.546127
67.490 19.711288
67.495 19.253746
67.500 19.301743
67.505 19.209316
67.510 19.025793
67.515 18.96747
67.520 18.659105
67.525 18.328402
67.530 18.512478
67.535 18.257189
67.540 18.260225
67.545 18.558445
67.550 18.376833
67.555 18.115238
67.560 17.990713
67.565 17.870909
67.570 18.041906
67.575 18.183445
67.580 17.781435
67.585 17.627102
67.590 17.442564
67.595 17.402037
67.600 17.080297
67.605 17.075319
67.610 17.089821
67.615 17.308788
67.620 17.771988
67.625 18.004402
67.630 18.435383
67.635 19.005405
67.640 18.981985
67.645 18.916327
67.650 19.066021
67.655 19.316202
67.660 19.738773
67.665 19.989784
67.670 20.113569
67.675 20.166256
67.680 20.265173
67.685 20.000591
67.690 19.542627
67.695 18.85659
67.700 17.781975
67.705 16.925022
67.710 16.669306
67.715 16.580484
67.720 16.166807
67.725 15.91177
67.730 16.731663
67.735 17.321987
67.740 17.476269
67.745 17.375368
67.750 17.711023
67.755 18.253443
67.760 18.154528
67.765 17.69355
67.770 17.994661
67.775 18.627071
67.780 18.527157
67.785 17.702135
67.790 17.736879
67.795 17.95092
67.800 17.985849
67.805 18.35972
67.810 18.035112
67.815 18.192715
67.820 18.796629
67.825 18.754759
67.830 19.040489
67.835 18.712458
67.840 18.517235
67.845 18.607435
67.850 18.55265
67.855 18.382519
67.860 18.540224
67.865 18.613895
67.870 18.725042
67.875 18.55201
67.880 18.425964
67.885 18.377434
67.890 18.072605
67.895 18.312019
67.900 19.271011
67.905 19.55813
67.910 19.937965
67.915 20.051691
67.920 20.157846
67.925 19.904541
67.930 19.730488
67.935 19.261316
67.940 19.49066
67.945 19.460009
67.950 19.908184
67.955 20.427488
67.960 20.467232
67.965 20.108524
67.970 19.581463
67.975 19.514835
67.980 19.007244
67.985 18.487068
67.990 18.032951
67.995 18.067833
68.000 18.25539
68.005 18.069843
68.010 18.135958
68.015 18.126612
68.020 18.114992
68.025 18.575167
68.030 18.7155
68.035 18.601217
68.040 18.340113
68.045 17.733082
68.050 17.249035
68.055 17.166388
68.060 16.61927
68.065 16.74617
68.070 16.974434
68.075 17.037415
68.080 17.65661
68.085 18.385622
68.090 18.640059
68.095 18.748535
68.100 18.546309
68.105 18.731989
68.110 18.318333
68.115 18.501534
68.120 18.233402
68.125 18.16617
68.130 17.948696
68.135 17.816326
68.140 18.012825
68.145 18.257883
68.150 17.726818
68.155 17.512777
68.160 17.246494
68.165 17.758612
68.170 17.613592
68.175 17.834549
68.180 17.666828
68.185 18.019653
68.190 18.448778
68.195 18.216572
68.200 18.349176
68.205 18.33222
68.210 18.068798
68.215 18.126411
68.220 17.904171
68.225 17.880117
68.230 17.864582
68.235 17.661375
68.240 17.743143
68.245 17.864506
68.250 18.326433
68.255 18.181978
68.260 18.390238
68.265 18.687513
68.270 18.586523
68.275 18.321863
68.280 18.275612
68.285 18.452665
68.290 18.243237
68.295 18.121859
68.300 18.406563
68.305 18.51199
68.310 18.730566
68.315 18.295633
68.320 17.648779
68.325 18.069719
68.330 18.360582
68.335 18.53067
68.340 18.840147
68.345 19.381516
68.350 19.999208
68.355 20.154327
68.360 20.10364
68.365 19.860491
68.370 19.632324
68.375 19.218227
68.380 18.510515
68.385 18.536364
68.390 18.439127
68.395 18.742786
68.400 18.257046
68.405 18.533577
68.410 18.903259
68.415 19.000618
68.420 18.811668
68.425 18.758463
68.430 18.695978
68.435 19.09082
68.440 19.433735
68.445 19.174107
68.450 19.913269
68.455 19.800535
68.460 20.282196
68.465 20.086782
68.470 19.952589
68.475 20.045984
68.480 19.813278
68.485 19.713125
68.490 20.642971
68.495 20.51853
68.500 20.517328
68.505 20.122118
68.510 19.609858
68.515 19.780399
68.520 19.058052
68.525 17.966425
68.530 18.028839
68.535 18.704912
68.540 19.146973
68.545 19.478661
68.550 19.458307
68.555 19.374521
68.560 19.797529
68.565 19.444031
68.570 19.049301
68.575 19.097847
68.580 19.235567
68.585 19.280285
68.590 18.992817
68.595 18.568655
68.600 18.66371
68.605 18.600657
68.610 19.361122
68.615 19.341581
68.620 19.361221
68.625 19.718027
68.630 19.843506
68.635 20.08947
68.640 20.123821
68.645 19.57893
68.650 19.47101
68.655 19.538052
68.660 20.028713
68.665 20.393213
68.670 20.310078
68.675 20.141773
68.680 20.297939
68.685 20.770403
68.690 20.842966
68.695 20.735687
68.700 21.054598
68.705 21.123955
68.710 21.025404
68.715 20.631117
68.720 20.329094
68.725 20.43441
68.730 20.359867
68.735 20.029644
68.740 19.753925
68.745 19.60857
68.750 20.00358
68.755 20.375381
68.760 20.255083
68.765 20.023405
68.770 19.918047
68.775 19.944038
68.780 19.885935
68.785 19.508224
68.790 19.237942
68.795 19.435732
68.800 19.684338
68.805 20.190756
68.810 20.349804
68.815 20.436571
68.820 20.808205
68.825 20.651649
68.830 21.057875
68.835 21.883301
68.840 21.672365
68.845 21.915319
68.850 21.660236
68.855 21.337368
68.860 21.941628
68.865 22.232698
68.870 22.382738
68.875 23.069401
68.880 23.599899
68.885 24.144485
68.890 24.226337
68.895 23.78097
68.900 23.352154
68.905 23.60078
68.910 23.105387
68.915 22.982285
68.920 22.764091
68.925 22.668737
68.930 22.947973
68.935 22.588676
68.940 21.502041
68.945 21.330406
68.950 21.113979
68.955 21.17452
68.960 21.74254
68.965 21.98963
68.970 22.748146
68.975 23.108101
68.980 23.108688
68.985 22.811871
68.990 23.331461
68.995 23.305849
69.000 23.301355
69.005 23.318682
69.010 23.657629
69.015 24.299919
69.020 24.626656
69.025 24.427942
69.030 24.497646
69.035 24.34454
69.040 24.542231
69.045 24.59273
69.050 24.320576
69.055 24.359705
69.060 24.749809
69.065 24.837835
69.070 25.243999
69.075 25.827913
69.080 26.147688
69.085 26.925076
69.090 27.312262
69.095 27.284946
69.100 28.325937
69.105 27.708263
69.110 26.732666
69.115 26.837574
69.120 27.319836
69.125 28.702765
69.130 28.361454
69.135 28.280634
69.140 29.206472
69.145 30.46459
69.150 30.107033
69.155 30.43672
69.160 29.553925
69.165 29.600199
69.170 30.142138
69.175 30.438684
69.180 30.779612
69.185 31.414547
69.190 30.534313
69.195 30.468845
69.200 31.289635
69.205 31.476616
69.210 32.465752
69.215 32.733105
69.220 32.826508
69.225 33.298244
69.230 33.321392
69.235 32.988476
69.240 32.70763
69.245 31.770884
69.250 31.29567
69.255 31.13192
69.260 31.498539
69.265 31.838945
69.270 32.316792
69.275 32.303318
69.280 32.889923
69.285 33.739231
69.290 34.284443
69.295 34.622868
69.300 34.838089
69.305 34.542397
69.310 34.553768
69.315 34.146595
69.320 33.355427
69.325 33.068886
69.330 33.285713
69.335 33.590771
69.340 33.954826
69.345 34.519878
69.350 35.314426
69.355 35.349716
69.360 34.576336
69.365 33.986115
69.370 33.355644
69.375 33.331379
69.380 33.648373
69.385 32.842251
69.390 33.791363
69.395 34.552074
69.400 34.775158
69.405 34.571712
69.410 34.679466
69.415 34.461792
69.420 34.153603
69.425 34.105392
69.430 34.830742
69.435 35.271931
69.440 35.570122
69.445 34.892059
69.450 35.466625
69.455 35.961834
69.460 36.077641
69.465 35.929249
69.470 35.860271
69.475 35.84766
69.480 36.100452
69.485 36.037411
69.490 35.758572
69.495 34.802513
69.500 34.523354
69.505 34.600513
69.510 34.874134
69.515 34.885384
69.520 34.440063
69.525 34.226841
69.530 33.705704
69.535 33.115303
69.540 33.096783
69.545 32.591301
69.550 32.054008
69.555 32.096531
69.560 32.128899
69.565 32.609562
69.570 32.435001
69.575 32.304588
69.580 32.247574
69.585 32.247211
69.590 31.699707
69.595 31.854908
69.600 31.644529
69.605 31.874329
69.610 31.923395
69.615 32.027069
69.620 31.961735
69.625 32.279236
69.630 31.92716
69.635 31.450495
69.640 31.07201
69.645 30.290991
69.650 29.611126
69.655 29.036219
69.660 28.310814
69.665 28.693388
69.670 29.052717
69.675 29.506739
69.680 29.643599
69.685 30.13085
69.690 30.585514
69.695 29.996429
69.700 30.00909
69.705 29.495483
69.710 29.001925
69.715 28.848539
69.720 28.029003
69.725 27.23118
69.730 27.356283
69.735 26.754322
69.740 26.421822
69.745 25.667475
69.750 25.026756
69.755 25.353561
69.760 25.269918
69.765 24.395315
69.770 24.187702
69.775 24.19392
69.780 24.710955
69.785 24.845293
69.790 24.255283
69.795 24.250257
69.800 23.886845
69.805 23.271025
69.810 23.03224
69.815 22.937397
69.820 22.674393
69.825 22.55401
69.830 22.58709
69.835 22.829515
69.840 23.12113
69.845 22.90727
69.850 22.625408
69.855 22.891253
69.860 22.584589
69.865 22.31016
69.870 22.299913
69.875 22.22127
69.880 21.776018
69.885 21.854069
69.890 21.668747
69.895 21.110403
69.900 21.009813
69.905 21.275232
69.910 21.526281
69.915 21.90979
69.920 21.307011
69.925 21.001198
69.930 21.508268
69.935 21.464874
69.940 20.612455
69.945 20.575359
69.950 20.444418
69.955 20.78227
69.960 21.086967
69.965 20.954374
69.970 20.988291
69.975 21.268047
69.980 21.00736
69.985 20.576822
69.990 20.409
69.995 20.484011
70.000 20.606106
70.005 20.32575
70.010 20.119743
70.015 19.803932
70.020 19.758612
70.025 19.544491
70.030 19.21846
70.035 19.241385
70.040 19.396416
70.045 19.242922
70.050 19.335016
70.055 19.456688
70.060 19.739401
70.065 19.667187
70.070 18.935478
70.075 18.725529
70.080 17.948242
70.085 17.69379
70.090 17.077751
70.095 16.607113
70.100 17.030489
70.105 17.511131
70.110 18.114021
70.115 18.439272
70.120 18.842495
70.125 19.2519
70.130 19.589584
70.135 20.285706
70.140 20.598293
70.145 21.115797
70.150 21.830765
70.155 22.051744
70.160 21.924818
70.165 21.729225
70.170 20.894161
70.175 20.309658
70.180 19.524778
70.185 19.005785
70.190 18.955719
70.195 19.221626
70.200 19.423225
70.205 19.550049
70.210 19.999039
70.215 20.119308
70.220 20.50703
70.225 20.362907
70.230 20.069971
70.235 19.747908
70.240 19.395178
70.245 19.260647
70.250 19.485241
70.255 19.291468
70.260 18.954781
70.265 18.58795
70.270 18.666643
70.275 19.289461
70.280 18.859766
70.285 18.941914
70.290 18.859838
70.295 19.04767
70.300 18.516869
70.305 18.764364
70.310 18.395838
70.315 19.209974
70.320 19.03303
70.325 18.819334
70.330 19.488398
70.335 19.616495
70.340 19.093206
70.345 19.359211
70.350 19.107594
70.355 19.188713
70.360 18.572472
70.365 18.133894
70.370 18.099159
70.375 17.995085
70.380 17.066292
70.385 16.84495
70.390 17.000685
70.395 17.280495
70.400 17.493176
70.405 17.93751
70.410 18.35811
70.415 18.231129
70.420 18.168192
70.425 18.297798
70.430 18.330423
70.435 18.12145
70.440 17.710459
70.445 17.135201
70.450 17.406057
70.455 17.704464
70.460 17.879822
70.465 17.375786
70.470 16.779787
70.475 16.655079
70.480 16.578171
70.485 16.485376
70.490 16.103235
70.495 15.815048
70.500 17.323431
70.505 18.132463
70.510 18.361744
70.515 18.649233
70.520 18.202318
70.525 18.161823
70.530 18.206326
70.535 17.771271
70.540 17.976362
70.545 18.590937
70.550 18.785437
70.555 18.944975
70.560 18.750387
70.565 18.621824
70.570 18.24613
70.575 17.600042
70.580 16.51733
70.585 16.711494
70.590 16.665894
70.595 16.231495
70.600 16.257309
70.605 16.472189
70.610 16.580429
70.615 16.613346
70.620 16.76906
70.625 17.151661
70.630 17.57015
70.635 17.099436
70.640 17.311146
70.645 17.478878
70.650 18.029856
70.655 17.857334
70.660 17.814751
70.665 18.068645
70.670 18.319719
70.675 18.026449
70.680 18.001417
70.685 18.622334
70.690 19.313784
70.695 19.980602
70.700 20.367277
70.705 20.301386
70.710 20.597183
70.715 20.484934
70.720 19.619446
70.725 18.738256
70.730 18.388323
70.735 18.227661
70.740 18.476061
70.745 18.338358
70.750 18.690102
70.755 18.799992
70.760 19.033245
70.765 18.847576
70.770 18.933743
70.775 18.943506
70.780 18.999664
70.785 18.662851
70.790 18.57766
70.795 17.788067
70.800 17.749754
70.805 17.530924
70.810 17.567076
70.815 17.911221
70.820 18.62591
70.825 18.398983
70.830 18.700542
70.835 18.160086
70.840 18.184752
70.845 18.183231
70.850 17.860867
70.855 17.128702
70.860 17.736761
70.865 18.002968
70.870 18.107101
70.875 18.644794
70.880 18.426306
70.885 18.528189
70.890 18.807339
70.895 18.836599
70.900 19.241507
70.905 19.042305
70.910 18.413971
70.915 18.336639
70.920 18.140738
70.925 17.94062
70.930 17.677916
70.935 17.837994
70.940 18.001026
70.945 18.128754
70.950 18.041502
70.955 17.943115
70.960 17.33853
70.965 17.032061
70.970 16.987776
70.975 17.047979
70.980 17.239235
70.985 17.149757
70.990 16.852449
70.995 16.740902
71.000 16.477774
71.005 16.495802
71.010 16.439913
71.015 17.090523
71.020 17.605461
71.025 18.242781
71.030 18.544371
71.035 18.834917
71.040 18.641115
71.045 18.319174
71.050 17.705797
71.055 18.171343
71.060 18.708912
71.065 19.121868
71.070 19.423561
71.075 19.457642
71.080 19.614206
71.085 19.554476
71.090 18.956064
71.095 18.513029
71.100 18.858667
71.105 18.744675
71.110 18.826313
71.115 18.529285
71.120 18.401072
71.125 18.34798
71.130 18.073318
71.135 17.038092
71.140 16.673346
71.145 16.249426
71.150 16.231039
71.155 16.303913
71.160 16.090586
71.165 16.200886
71.170 16.764608
71.175 17.137854
71.180 17.600992
71.185 18.055241
71.190 17.812649
71.195 17.895325
71.200 17.2304
71.205 17.126169
71.210 17.193411
71.215 16.733244
71.220 16.627172
71.225 16.387732
71.230 16.278318
71.235 16.451452
71.240 17.200193
71.245 17.090961
71.250 17.469204
71.255 17.594332
71.260 17.8351
71.265 18.364677
71.270 18.529335
71.275 18.403803
71.280 18.567505
71.285 18.287249
71.290 18.22744
71.295 18.128666
71.300 17.530697
71.305 17.274914
71.310 17.280592
71.315 17.39085
71.320 17.446453
71.325 17.33816
71.330 17.833654
71.335 18.02532
71.340 17.982033
71.345 17.764446
71.350 17.324894
71.355 17.502241
71.360 17.572571
71.365 17.187428
71.370 17.17992
71.375 16.84561
71.380 16.727779
71.385 16.84799
71.390 16.456865
71.395 16.507923
71.400 17.423691
71.405 17.794741
71.410 18.337858
71.415 18.723492
71.420 19.331163
71.425 19.630041
71.430 19.800396
71.435 19.847664
71.440 19.805281
71.445 19.37162
71.450 18.66361
71.455 18.491905
71.460 18.318493
71.465 17.929646
71.470 17.385849
71.475 17.568422
71.480 17.529459
71.485 17.634169
71.490 17.430656
71.495 17.135719
71.500 17.154896
71.505 17.370417
71.510 17.665445
71.515 18.112375
71.520 17.965445
71.525 18.026878
71.530 18.603724
71.535 18.526514
71.540 18.092262
71.545 17.441793
71.550 16.800694
71.555 16.522223
71.560 15.947772
71.565 15.584712
71.570 15.716969
71.575 16.41926
71.580 16.567684
71.585 17.047218
71.590 17.419224
71.595 17.784945
71.600 17.784937
71.605 17.560116
71.610 16.997551
71.615 16.940346
71.620 16.972164
71.625 16.747313
71.630 16.813812
71.635 16.542976
71.640 16.298073
71.645 16.404865
71.650 16.637352
71.655 16.220276
71.660 15.694449
71.665 15.34528
71.670 15.703265
71.675 16.353409
71.680 16.344667
71.685 16.232122
71.690 17.013189
71.695 17.260616
71.700 17.373816
71.705 16.848562
71.710 16.379921
71.715 16.033663
71.720 16.302044
71.725 16.755569
71.730 17.338099
71.735 17.791718
71.740 18.326307
71.745 18.994617
71.750 19.447437
71.755 19.253544
71.760 18.923084
71.765 19.198107
71.770 19.18582
71.775 18.691725
71.780 18.446247
71.785 18.301739
71.790 18.711344
71.795 18.146721
71.800 17.657137
71.805 18.321749
71.810 18.319811
71.815 18.229778
71.820 18.087612
71.825 18.027052
71.830 18.542519
71.835 17.841455
71.840 17.730227
71.845 18.371283
71.850 18.053566
71.855 17.782536
71.860 17.924513
71.865 17.641203
71.870 17.731586
71.875 18.162296
71.880 18.210348
71.885 18.331703
71.890 17.93862
71.895 17.750345
71.900 18.014708
71.905 18.012508
71.910 17.732737
71.915 17.296284
71.920 17.299469
71.925 17.530569
71.930 17.845518
71.935 17.781008
71.940 17.540066
71.945 17.370512
71.950 17.697979
71.955 18.539413
71.960 18.253176
71.965 17.635477
71.970 17.974609
71.975 17.229961
71.980 16.826334
71.985 16.283823
71.990 15.074314
71.995 14.883475
72.000 15.255794
72.005 15.328448
72.010 15.349627
72.015 15.15014
72.020 15.668247
72.025 16.808767
72.030 17.105692
72.035 17.188818
72.040 17.363173
72.045 17.597904
72.050 17.457247
72.055 17.11838
72.060 16.631836
72.065 16.69825
72.070 16.793436
72.075 17.072123
72.080 17.577015
72.085 18.20809
72.090 18.232704
72.095 18.234137
72.100 17.880257
72.105 17.521042
72.110 17.160828
72.115 17.234802
72.120 17.157288
72.125 17.222664
72.130 17.547325
72.135 17.705254
72.140 18.065451
72.145 18.31451
72.150 17.78204
72.155 17.601969
72.160 18.220053
72.165 18.590925
72.170 18.605606
72.175 18.393852
72.180 18.272676
72.185 18.320108
72.190 18.153214
72.195 17.721371
72.200 17.47846
72.205 17.01255
72.210 16.831915
72.215 16.408676
72.220 16.204214
72.225 15.795349
72.230 15.395842
72.235 15.97834
72.240 16.562002
72.245 16.34693
72.250 17.364107
72.255 17.822121
72.260 18.292137
72.265 18.396135
72.270 17.816172
72.275 17.862251
72.280 17.979136
72.285 17.264067
72.290 17.11282
72.295 17.252747
72.300 17.348713
72.305 17.088633
72.310 17.223812
72.315 17.516375
72.320 17.754644
72.325 17.668957
72.330 17.354706
72.335 17.240177
72.340 17.320164
72.345 17.391592
72.350 17.296869
72.355 17.169241
72.360 16.940027
72.365 17.017284
72.370 17.362978
72.375 17.335539
72.380 17.501101
72.385 18.273705
72.390 18.27088
72.395 18.0944
72.400 17.681055
72.405 17.22546
72.410 16.7041
72.415 16.07996
72.420 15.531325
72.425 15.492358
72.430 15.875009
72.435 15.861206
72.440 15.79864
72.445 15.703098
72.450 15.238475
72.455 15.286319
72.460 15.779859
72.465 15.549896
72.470 15.699952
72.475 15.829186
72.480 16.056587
72.485 16.716145
72.490 16.738401
72.495 16.870256
72.500 17.158518
72.505 16.881386
72.510 16.725786
72.515 16.592947
72.520 16.623198
72.525 16.523195
72.530 16.618347
72.535 17.067509
72.540 17.293304
72.545 17.73881
72.550 18.534708
72.555 18.252428
72.560 18.095047
72.565 18.232615
72.570 18.094669
72.575 17.934179
72.580 17.930094
72.585 17.807236
72.590 17.797464
72.595 17.731955
72.600 17.574471
72.605 17.858698
72.610 18.115038
72.615 17.778791
72.620 17.141497
72.625 17.274261
72.630 17.694813
72.635 17.207476
72.640 17.129808
72.645 16.770145
72.650 17.00592
72.655 17.308262
72.660 17.418741
72.665 17.09285
72.670 17.108822
72.675 16.722979
72.680 16.883244
72.685 16.70912
72.690 17.023243
72.695 17.184429
72.700 17.066807
72.705 17.235706
72.710 17.33745
72.715 17.162159
72.720 16.640957
72.725 15.942848
72.730 15.14663
72.735 15.034242
72.740 14.796661
72.745 14.388699
72.750 14.577745
72.755 15.318106
72.760 15.614463
72.765 16.072857
72.770 16.322788
72.775 16.669241
72.780 16.899715
72.785 16.370287
72.790 15.676971
72.795 16.057009
72.800 16.382874
72.805 16.541197
72.810 16.7722
72.815 17.193518
72.820 17.354618
72.825 17.076792
72.830 16.617754
72.835 17.022539
72.840 17.187168
72.845 17.469765
72.850 17.616282
72.855 17.943571
72.860 18.047388
72.865 17.556938
72.870 16.948095
72.875 16.457623
72.880 15.91872
72.885 15.796754
72.890 15.750103
72.895 15.855058
72.900 16.258921
72.905 16.565859
72.910 16.537432
72.915 16.136957
72.920 16.334364
72.925 16.838881
72.930 16.523439
72.935 15.750154
72.940 15.494559
72.945 15.708048
72.950 15.80651
72.955 15.231175
72.960 15.348615
72.965 15.394275
72.970 16.385925
72.975 16.635672
72.980 16.719616
72.985 16.581497
72.990 16.992487
72.995 16.811853
73.000 16.937731
