!@!!GADDS PLOTSO FILE: Chi integration type
!@!!Title/SampleName: map-57
!@!!Comment: ?
!@!!User: Bruker Instrument Administrator
!@!!Site: University of Illinois Chicago
!@!!Frame: map-57_01_000.gfrm
!@!!Wavelengths    1.54184   1.54056   1.54439
!@!!Frame angles: 2Theta: 63.000 Omega: 50.000 Phi: 0.000 Chi: 90.000
!@!!Integration range: 2Theta: 53.000 to 73.000  Gamma: -105.000 to -75.000
!@!!Integration method: bin normalized
!@!N
!@!SS
!@!M
!@!L 0.0 0.0 0.0 0.0
!@!XDegrees
!@!YCounts
53.000 9.441595
53.005 9.318644
53.010 8.96421
53.015 8.834297
53.020 8.967262
53.025 8.787726
53.030 8.855466
53.035 8.891786
53.040 9.024033
53.045 9.446629
53.050 9.23553
53.055 9.126758
53.060 9.126019
53.065 9.120175
53.070 8.90686
53.075 8.651649
53.080 8.495733
53.085 8.848252
53.090 9.100655
53.095 9.456604
53.100 9.364798
53.105 9.299304
53.110 9.516678
53.115 10.383037
53.120 10.5216
53.125 10.524826
53.130 10.603097
53.135 10.68784
53.140 10.78521
53.145 10.678258
53.150 9.734135
53.155 9.437399
53.160 9.014584
53.165 8.740881
53.170 8.492392
53.175 8.154746
53.180 7.869749
53.185 7.780373
53.190 7.624476
53.195 7.547273
53.200 7.718566
53.205 8.454772
53.210 9.201982
53.215 9.48069
53.220 10.179676
53.225 10.225104
53.230 10.121174
53.235 10.106951
53.240 9.914694
53.245 9.620677
53.250 9.21339
53.255 9.125112
53.260 9.231198
53.265 9.588519
53.270 9.480087
53.275 9.131636
53.280 9.352085
53.285 9.510932
53.290 9.058778
53.295 9.348284
53.300 9.524652
53.305 9.639297
53.310 9.455286
53.315 9.467661
53.320 9.505581
53.325 9.685399
53.330 9.282372
53.335 8.879363
53.340 8.999693
53.345 9.054605
53.350 8.917315
53.355 8.884585
53.360 9.015493
53.365 9.210538
53.370 9.642417
53.375 9.877664
53.380 10.245061
53.385 10.279391
53.390 10.226134
53.395 10.218398
53.400 10.083936
53.405 9.331687
53.410 8.974315
53.415 8.415761
53.420 8.366591
53.425 8.211557
53.430 8.078197
53.435 7.854631
53.440 8.758294
53.445 9.454596
53.450 9.902439
53.455 10.648795
53.460 10.736153
53.465 10.925042
53.470 11.150237
53.475 10.710783
53.480 10.14251
53.485 10.107471
53.490 9.978551
53.495 10.299067
53.500 10.707994
53.505 10.519585
53.510 10.664208
53.515 10.978627
53.520 10.678473
53.525 10.498587
53.530 9.883805
53.535 9.462614
53.540 9.93651
53.545 9.670158
53.550 9.503779
53.555 9.306298
53.560 9.33182
53.565 9.842864
53.570 9.72495
53.575 9.825427
53.580 10.379455
53.585 10.455722
53.590 10.811998
53.595 10.729369
53.600 10.961224
53.605 10.669591
53.610 10.031519
53.615 9.783115
53.620 9.931124
53.625 9.731151
53.630 9.088285
53.635 8.849873
53.640 8.942541
53.645 9.206155
53.650 9.281744
53.655 9.069944
53.660 9.551183
53.665 9.916827
53.670 9.971389
53.675 10.058218
53.680 9.850543
53.685 9.72732
53.690 10.067334
53.695 9.87418
53.700 10.201315
53.705 10.26977
53.710 10.614823
53.715 10.525556
53.720 10.677464
53.725 10.932176
53.730 10.972336
53.735 10.761449
53.740 10.564936
53.745 10.046793
53.750 10.320326
53.755 10.237
53.760 9.733874
53.765 10.287983
53.770 10.70159
53.775 10.860088
53.780 11.175162
53.785 11.086352
53.790 10.88459
53.795 10.570921
53.800 10.167592
53.805 9.785016
53.810 9.462811
53.815 9.437766
53.820 9.275786
53.825 9.376739
53.830 9.280913
53.835 9.281591
53.840 9.854992
53.845 10.159543
53.850 10.307006
53.855 10.686878
53.860 10.429234
53.865 10.192756
53.870 9.744103
53.875 9.308364
53.880 9.148088
53.885 8.681653
53.890 8.626301
53.895 8.891807
53.900 8.908306
53.905 9.431281
53.910 9.666207
53.915 10.29705
53.920 10.169354
53.925 10.201608
53.930 10.761609
53.935 10.820257
53.940 10.335938
53.945 10.138721
53.950 9.190426
53.955 9.278737
53.960 9.186198
53.965 9.282702
53.970 9.602292
53.975 9.665474
53.980 9.996609
53.985 10.29268
53.990 10.007098
53.995 10.049528
54.000 9.889585
54.005 9.946318
54.010 10.110084
54.015 10.256668
54.020 10.74
54.025 10.927595
54.030 11.175617
54.035 10.979206
54.040 10.805469
54.045 10.508239
54.050 10.702603
54.055 11.10405
54.060 11.037696
54.065 10.934152
54.070 10.974717
54.075 11.201325
54.080 11.482271
54.085 11.286971
54.090 11.142421
54.095 11.549929
54.100 11.714627
54.105 11.922919
54.110 11.635485
54.115 11.406782
54.120 11.166441
54.125 11.391124
54.130 11.67196
54.135 12.092975
54.140 12.044687
54.145 12.498799
54.150 12.427629
54.155 12.457092
54.160 12.039838
54.165 11.804543
54.170 11.175461
54.175 10.91916
54.180 10.405581
54.185 10.208603
54.190 10.288923
54.195 10.753166
54.200 10.841881
54.205 11.020557
54.210 11.306556
54.215 11.528083
54.220 11.45312
54.225 10.91104
54.230 10.723589
54.235 11.272704
54.240 11.601363
54.245 11.486175
54.250 11.678652
54.255 11.775764
54.260 11.72933
54.265 11.010411
54.270 10.776532
54.275 10.79893
54.280 11.11653
54.285 11.12383
54.290 12.17114
54.295 12.96558
54.300 13.602345
54.305 13.528758
54.310 13.552431
54.315 13.502402
54.320 13.391036
54.325 12.877414
54.330 12.566501
54.335 12.765415
54.340 12.237523
54.345 11.820604
54.350 11.788511
54.355 12.138481
54.360 12.082647
54.365 11.789787
54.370 11.94607
54.375 12.029355
54.380 12.311595
54.385 12.176842
54.390 11.783874
54.395 11.762507
54.400 11.66864
54.405 10.831962
54.410 10.778669
54.415 10.309443
54.420 10.178623
54.425 9.898269
54.430 9.702674
54.435 10.122635
54.440 10.411201
54.445 10.404135
54.450 10.517365
54.455 10.547789
54.460 10.956595
54.465 10.708452
54.470 10.371047
54.475 10.275123
54.480 10.350747
54.485 10.17766
54.490 10.007793
54.495 10.224857
54.500 10.895205
54.505 10.821119
54.510 11.164248
54.515 11.273225
54.520 11.635533
54.525 12.096102
54.530 11.760132
54.535 11.958881
54.540 12.062992
54.545 11.875913
54.550 11.570693
54.555 11.343047
54.560 10.861464
54.565 10.690499
54.570 10.271208
54.575 10.536016
54.580 10.910785
54.585 11.289632
54.590 11.256866
54.595 11.385763
54.600 11.260435
54.605 11.047715
54.610 11.02686
54.615 11.306147
54.620 11.548787
54.625 11.151814
54.630 10.897259
54.635 10.866412
54.640 11.321837
54.645 11.074935
54.650 11.01674
54.655 10.900637
54.660 11.091971
54.665 11.21722
54.670 10.931502
54.675 10.524163
54.680 10.7615
54.685 10.46793
54.690 10.650876
54.695 10.985979
54.700 10.994107
54.705 11.295352
54.710 11.249061
54.715 10.913872
54.720 10.897434
54.725 11.119338
54.730 11.203614
54.735 11.054783
54.740 11.272602
54.745 10.888508
54.750 10.869446
54.755 11.235893
54.760 11.621912
54.765 11.759132
54.770 12.24602
54.775 12.208123
54.780 12.47427
54.785 12.541468
54.790 12.032953
54.795 11.169758
54.800 11.116014
54.805 11.270424
54.810 11.287496
54.815 11.476388
54.820 11.630323
54.825 11.711623
54.830 11.984987
54.835 11.991968
54.840 11.992993
54.845 12.16223
54.850 12.156657
54.855 12.087317
54.860 12.172362
54.865 11.901928
54.870 11.872474
54.875 11.800914
54.880 11.538894
54.885 11.435659
54.890 11.316968
54.895 11.288736
54.900 11.203895
54.905 11.100873
54.910 11.33905
54.915 11.761179
54.920 11.884775
54.925 12.024937
54.930 12.364248
54.935 12.311146
54.940 12.372992
54.945 12.422333
54.950 12.366532
54.955 12.910024
54.960 12.746713
54.965 12.250408
54.970 12.518731
54.975 12.352462
54.980 12.513881
54.985 11.844468
54.990 11.712359
54.995 12.336809
55.000 12.28452
55.005 12.084975
55.010 12.221011
55.015 12.437807
55.020 12.891687
55.025 13.063245
55.030 12.600924
55.035 12.879163
55.040 13.054276
55.045 12.899817
55.050 12.739026
55.055 12.287629
55.060 12.50773
55.065 12.617843
55.070 12.6684
55.075 13.038467
55.080 12.79328
55.085 12.112259
55.090 11.400435
55.095 10.979337
55.100 11.327431
55.105 11.137843
55.110 10.543163
55.115 10.722876
55.120 11.472629
55.125 11.758297
55.130 11.709933
55.135 11.511133
55.140 10.976633
55.145 11.229238
55.150 12.00952
55.155 11.99384
55.160 12.321388
55.165 12.243747
55.170 11.902054
55.175 12.272445
55.180 12.169621
55.185 11.775446
55.190 11.773707
55.195 11.554392
55.200 11.454102
55.205 11.911757
55.210 11.609611
55.215 11.546247
55.220 11.434209
55.225 11.431724
55.230 12.120284
55.235 12.165887
55.240 12.322357
55.245 12.136357
55.250 12.018177
55.255 11.990322
55.260 11.604483
55.265 11.084639
55.270 11.594845
55.275 11.992519
55.280 12.22967
55.285 11.91567
55.290 11.795714
55.295 12.081319
55.300 12.026002
55.305 11.106376
55.310 10.300583
55.315 10.428797
55.320 11.436799
55.325 11.746965
55.330 11.731032
55.335 11.950746
55.340 12.670122
55.345 13.278555
55.350 13.015737
55.355 11.998412
55.360 12.064892
55.365 11.693649
55.370 11.406721
55.375 11.268085
55.380 11.350351
55.385 11.086903
55.390 11.011116
55.395 10.933357
55.400 11.05763
55.405 11.118349
55.410 11.077923
55.415 10.910111
55.420 11.553393
55.425 11.914333
55.430 12.162631
55.435 12.837493
55.440 12.602175
55.445 12.704649
55.450 12.967416
55.455 13.341546
55.460 13.172044
55.465 12.994334
55.470 12.985682
55.475 12.944632
55.480 13.14393
55.485 12.876028
55.490 11.856539
55.495 11.662624
55.500 11.630877
55.505 11.964722
55.510 12.439796
55.515 12.103312
55.520 12.283594
55.525 12.804652
55.530 12.893605
55.535 12.666344
55.540 12.465571
55.545 12.050311
55.550 12.683058
55.555 12.965233
55.560 13.775918
55.565 14.140256
55.570 14.421448
55.575 14.94403
55.580 14.885441
55.585 14.705954
55.590 14.283869
55.595 13.835815
55.600 14.128552
55.605 13.692196
55.610 13.818352
55.615 13.761059
55.620 13.258555
55.625 13.14781
55.630 12.525474
55.635 11.978331
55.640 11.90256
55.645 11.144318
55.650 11.238581
55.655 11.585914
55.660 12.109937
55.665 12.540355
55.670 12.379323
55.675 12.131944
55.680 11.976762
55.685 11.766251
55.690 11.549075
55.695 11.116426
55.700 10.735319
55.705 11.267821
55.710 11.54701
55.715 11.392199
55.720 11.390864
55.725 11.198313
55.730 11.153688
55.735 11.370586
55.740 11.182763
55.745 11.221183
55.750 11.445424
55.755 11.389157
55.760 11.223232
55.765 11.526097
55.770 11.751546
55.775 11.824657
55.780 12.142072
55.785 12.790705
55.790 12.962718
55.795 13.181523
55.800 12.747171
55.805 12.565802
55.810 12.249757
55.815 12.283619
55.820 12.391273
55.825 12.666667
55.830 13.050644
55.835 13.868637
55.840 14.132308
55.845 14.458093
55.850 14.258154
55.855 13.99321
55.860 13.557401
55.865 13.096265
55.870 12.607223
55.875 12.55569
55.880 12.679441
55.885 12.977614
55.890 13.063372
55.895 13.151481
55.900 12.946379
55.905 13.098045
55.910 13.183122
55.915 12.744596
55.920 12.369263
55.925 13.129867
55.930 13.329098
55.935 13.387788
55.940 13.624315
55.945 13.765174
55.950 13.493065
55.955 13.379859
55.960 12.85667
55.965 12.72821
55.970 12.841274
55.975 12.40417
55.980 12.075116
55.985 11.987363
55.990 11.52191
55.995 11.467237
56.000 11.83084
56.005 12.073428
56.010 12.318693
56.015 12.641055
56.020 12.825525
56.025 12.954865
56.030 13.010034
56.035 12.84488
56.040 12.685597
56.045 12.796717
56.050 12.772536
56.055 13.137319
56.060 13.569937
56.065 13.308261
56.070 13.197201
56.075 13.18756
56.080 13.359536
56.085 13.550021
56.090 13.332479
56.095 13.2744
56.100 13.41363
56.105 13.815275
56.110 14.030807
56.115 13.495811
56.120 13.512567
56.125 13.288198
56.130 13.159653
56.135 13.196602
56.140 13.093286
56.145 12.654383
56.150 12.314637
56.155 12.045714
56.160 12.146368
56.165 11.901953
56.170 12.321305
56.175 12.005469
56.180 11.920442
56.185 12.057373
56.190 12.638423
56.195 12.993278
56.200 13.230327
56.205 12.976463
56.210 13.184464
56.215 13.626096
56.220 13.926124
56.225 13.649777
56.230 13.798887
56.235 13.909375
56.240 13.644631
56.245 13.715011
56.250 13.859921
56.255 13.550234
56.260 13.467696
56.265 12.799425
56.270 12.483744
56.275 12.94515
56.280 12.51364
56.285 12.510064
56.290 12.977182
56.295 13.16931
56.300 14.126814
56.305 14.605126
56.310 14.758826
56.315 15.029556
56.320 14.772518
56.325 14.453609
56.330 14.426492
56.335 14.320054
56.340 14.089117
56.345 14.034914
56.350 14.087114
56.355 14.427405
56.360 14.079638
56.365 13.865993
56.370 13.600633
56.375 13.275562
56.380 12.957737
56.385 13.097062
56.390 13.225032
56.395 13.37338
56.400 13.720474
56.405 13.626938
56.410 13.742202
56.415 13.601875
56.420 13.589005
56.425 13.620262
56.430 13.832368
56.435 13.309992
56.440 13.530813
56.445 13.675958
56.450 13.769621
56.455 13.750793
56.460 14.205037
56.465 13.81273
56.470 13.621515
56.475 13.695428
56.480 13.958848
56.485 13.624041
56.490 13.512957
56.495 13.159818
56.500 13.348769
56.505 13.681457
56.510 13.440337
56.515 13.016184
56.520 13.365581
56.525 13.969038
56.530 13.847751
56.535 13.912337
56.540 13.724029
56.545 13.579853
56.550 14.114948
56.555 13.965198
56.560 13.333768
56.565 13.832205
56.570 13.87006
56.575 14.012316
56.580 13.787387
56.585 13.586833
56.590 14.100986
56.595 13.845482
56.600 13.371194
56.605 13.296908
56.610 13.478061
56.615 13.760062
56.620 13.521254
56.625 13.174809
56.630 13.09676
56.635 13.124339
56.640 13.133278
56.645 13.231194
56.650 13.108616
56.655 13.379337
56.660 13.713607
56.665 13.923816
56.670 14.173979
56.675 14.141986
56.680 14.168642
56.685 14.192183
56.690 13.619484
56.695 13.226574
56.700 13.330015
56.705 13.038601
56.710 12.713849
56.715 12.533469
56.720 12.107456
56.725 12.205805
56.730 12.927285
56.735 13.599685
56.740 13.654243
56.745 14.08547
56.750 14.370267
56.755 14.721653
56.760 14.969023
56.765 14.721571
56.770 14.090516
56.775 13.970469
56.780 14.037759
56.785 14.200045
56.790 14.719588
56.795 14.360105
56.800 13.744585
56.805 14.197074
56.810 14.618013
56.815 14.406434
56.820 14.29085
56.825 13.984559
56.830 14.0118
56.835 14.719902
56.840 14.572513
56.845 14.489085
56.850 14.270253
56.855 14.263351
56.860 14.033295
56.865 14.356837
56.870 14.471004
56.875 14.374306
56.880 14.405974
56.885 14.551127
56.890 14.257748
56.895 14.354965
56.900 13.78542
56.905 12.853661
56.910 12.668974
56.915 12.622429
56.920 12.936453
56.925 13.208739
56.930 13.547608
56.935 13.822486
56.940 14.096003
56.945 14.290621
56.950 13.980674
56.955 13.538357
56.960 13.13766
56.965 13.222237
56.970 13.624789
56.975 14.010666
56.980 13.541887
56.985 13.771208
56.990 13.758853
56.995 13.72294
57.000 13.635987
57.005 13.733556
57.010 14.040216
57.015 14.493239
57.020 14.816109
57.025 15.684595
57.030 15.986924
57.035 15.659488
57.040 15.506344
57.045 14.986431
57.050 15.190391
57.055 14.985525
57.060 14.282213
57.065 13.762018
57.070 13.923532
57.075 14.16433
57.080 14.035854
57.085 13.648431
57.090 13.890863
57.095 13.578189
57.100 13.567435
57.105 13.540513
57.110 13.660943
57.115 13.378025
57.120 13.234399
57.125 13.507533
57.130 14.512112
57.135 14.851659
57.140 14.699991
57.145 14.290347
57.150 15.087337
57.155 15.236042
57.160 15.179052
57.165 15.348034
57.170 15.760813
57.175 15.544154
57.180 15.7538
57.185 15.855246
57.190 15.746855
57.195 15.773377
57.200 15.6994
57.205 15.426415
57.210 15.645215
57.215 15.282181
57.220 14.999419
57.225 14.897261
57.230 14.147924
57.235 13.400901
57.240 13.408653
57.245 13.722062
57.250 13.990893
57.255 13.489281
57.260 13.331434
57.265 13.983827
57.270 14.275146
57.275 14.256854
57.280 13.727083
57.285 13.567575
57.290 13.812483
57.295 13.868033
57.300 13.549215
57.305 13.390105
57.310 13.359895
57.315 13.388163
57.320 13.62542
57.325 14.228224
57.330 14.51152
57.335 14.597607
57.340 14.709231
57.345 14.523029
57.350 14.148952
57.355 13.882465
57.360 13.502153
57.365 13.212379
57.370 13.313724
57.375 13.577562
57.380 13.782194
57.385 14.041027
57.390 14.041543
57.395 13.975192
57.400 14.168254
57.405 14.132705
57.410 14.020239
57.415 14.385997
57.420 14.597631
57.425 14.661756
57.430 14.613427
57.435 14.495913
57.440 14.183788
57.445 14.230222
57.450 14.270208
57.455 14.580504
57.460 14.535859
57.465 14.454634
57.470 14.308712
57.475 14.552598
57.480 14.077247
57.485 13.890384
57.490 13.712933
57.495 13.281017
57.500 13.413747
57.505 13.62318
57.510 13.537398
57.515 13.673099
57.520 12.890661
57.525 12.807484
57.530 13.124949
57.535 13.197908
57.540 13.210096
57.545 12.906986
57.550 12.955571
57.555 13.534738
57.560 13.805772
57.565 14.288026
57.570 14.687691
57.575 14.858951
57.580 15.332482
57.585 15.959276
57.590 16.366121
57.595 16.649372
57.600 16.013332
57.605 15.729764
57.610 15.441648
57.615 15.278734
57.620 15.034859
57.625 15.276436
57.630 15.307157
57.635 15.922688
57.640 16.190281
57.645 16.001785
57.650 15.799356
57.655 15.671595
57.660 14.897865
57.665 14.852736
57.670 14.660055
57.675 15.141214
57.680 15.403132
57.685 15.489907
57.690 15.578107
57.695 16.190945
57.700 15.829338
57.705 15.355974
57.710 14.839594
57.715 14.811677
57.720 14.653208
57.725 14.468204
57.730 14.660595
57.735 15.001125
57.740 15.149044
57.745 15.273011
57.750 15.785051
57.755 16.082998
57.760 15.990644
57.765 15.61198
57.770 15.45534
57.775 15.186338
57.780 14.751452
57.785 14.106867
57.790 14.124752
57.795 14.342214
57.800 13.941119
57.805 13.961552
57.810 13.965535
57.815 14.469594
57.820 14.810694
57.825 14.801547
57.830 14.347716
57.835 14.686765
57.840 14.687497
57.845 14.954314
57.850 14.965586
57.855 15.086625
57.860 15.233161
57.865 15.236869
57.870 15.201949
57.875 15.036682
57.880 15.162653
57.885 15.363008
57.890 14.939745
57.895 14.788047
57.900 15.30654
57.905 15.622932
57.910 15.588863
57.915 15.223135
57.920 14.749425
57.925 14.389136
57.930 14.253443
57.935 14.226045
57.940 13.850918
57.945 13.828769
57.950 13.798764
57.955 13.97206
57.960 13.913489
57.965 13.905208
57.970 13.814901
57.975 13.990441
57.980 13.925233
57.985 14.300169
57.990 14.916825
57.995 15.399751
58.000 15.481677
58.005 15.372656
58.010 15.662573
58.015 16.253906
58.020 16.085928
58.025 15.937738
58.030 15.735555
58.035 16.239372
58.040 16.908165
58.045 16.437508
58.050 16.114149
58.055 16.21159
58.060 16.224047
58.065 16.619095
58.070 16.290426
58.075 15.662267
58.080 16.107437
58.085 15.654266
58.090 15.17418
58.095 14.612156
58.100 14.23251
58.105 14.076746
58.110 13.94133
58.115 13.973733
58.120 14.343273
58.125 14.782508
58.130 14.869868
58.135 15.256264
58.140 15.328906
58.145 15.494996
58.150 14.997261
58.155 15.025506
58.160 15.088203
58.165 15.512433
58.170 15.065288
58.175 15.143518
58.180 15.351734
58.185 15.965389
58.190 15.989025
58.195 15.491292
58.200 15.576939
58.205 15.4496
58.210 15.358333
58.215 15.450713
58.220 15.478553
58.225 15.863103
58.230 15.95431
58.235 15.809513
58.240 16.379662
58.245 15.980067
58.250 15.464179
58.255 14.982577
58.260 14.612946
58.265 14.404122
58.270 14.115121
58.275 14.105958
58.280 14.252282
58.285 14.938068
58.290 14.661281
58.295 15.123355
58.300 15.615408
58.305 15.978665
58.310 16.2253
58.315 16.297266
58.320 15.805355
58.325 15.801667
58.330 15.501456
58.335 15.551309
58.340 15.270088
58.345 14.765523
58.350 14.447063
58.355 14.901529
58.360 15.46395
58.365 15.902556
58.370 15.984851
58.375 16.155268
58.380 16.532413
58.385 16.631262
58.390 16.424992
58.395 15.934033
58.400 15.797038
58.405 15.475924
58.410 15.160817
58.415 15.150217
58.420 15.230294
58.425 15.329456
58.430 15.40719
58.435 15.965015
58.440 16.803082
58.445 16.976931
58.450 17.051161
58.455 16.921089
58.460 16.861162
58.465 16.901045
58.470 16.162739
58.475 15.534863
58.480 15.55985
58.485 15.23052
58.490 15.234116
58.495 14.960678
58.500 15.009318
58.505 14.771761
58.510 14.49226
58.515 13.985628
58.520 14.281319
58.525 15.080341
58.530 15.210039
58.535 14.88978
58.540 14.871792
58.545 15.441176
58.550 15.910391
58.555 15.656011
58.560 15.17549
58.565 15.898035
58.570 16.654831
58.575 16.907446
58.580 16.519693
58.585 16.219061
58.590 16.344154
58.595 16.250666
58.600 15.517486
58.605 15.525797
58.610 15.569781
58.615 15.511351
58.620 15.092856
58.625 15.080978
58.630 15.520209
58.635 16.116552
58.640 16.124926
58.645 16.039883
58.650 16.474354
58.655 16.98719
58.660 16.978262
58.665 16.81797
58.670 16.487219
58.675 16.193165
58.680 16.451036
58.685 16.196222
58.690 15.962437
58.695 15.798471
58.700 15.825279
58.705 15.92124
58.710 15.512854
58.715 15.526912
58.720 16.095867
58.725 16.649992
58.730 16.806475
58.735 16.976412
58.740 17.095079
58.745 17.449265
58.750 16.978474
58.755 16.664791
58.760 16.685848
58.765 16.544064
58.770 16.21397
58.775 15.943312
58.780 15.936632
58.785 15.852468
58.790 16.150955
58.795 16.121611
58.800 16.603903
58.805 17.195894
58.810 17.559269
58.815 18.07683
58.820 18.605556
58.825 18.383245
58.830 18.181135
58.835 17.756308
58.840 17.017811
58.845 16.474373
58.850 15.995852
58.855 15.276898
58.860 15.246114
58.865 15.870645
58.870 16.072458
58.875 16.45776
58.880 16.792368
58.885 16.973732
58.890 16.768984
58.895 16.575817
58.900 16.285666
58.905 15.700719
58.910 15.311666
58.915 14.685061
58.920 14.552437
58.925 15.416169
58.930 15.776091
58.935 15.238137
58.940 15.845425
58.945 16.15206
58.950 16.332222
58.955 16.387817
58.960 16.080246
58.965 15.808634
58.970 16.313013
58.975 16.064514
58.980 16.392963
58.985 16.651955
58.990 16.78879
58.995 17.018394
59.000 16.983053
59.005 16.730675
59.010 17.208319
59.015 17.426834
59.020 17.48254
59.025 17.365667
59.030 16.85561
59.035 16.882689
59.040 16.872305
59.045 16.643078
59.050 16.163448
59.055 15.921968
59.060 15.844869
59.065 15.826023
59.070 15.918448
59.075 15.517606
59.080 15.445342
59.085 15.808282
59.090 16.227879
59.095 16.941587
59.100 16.81571
59.105 16.969973
59.110 16.837912
59.115 16.769716
59.120 16.319267
59.125 16.305502
59.130 16.217112
59.135 16.310555
59.140 16.407637
59.145 16.748251
59.150 16.961697
59.155 17.532858
59.160 18.132689
59.165 18.755886
59.170 18.702511
59.175 18.718525
59.180 18.983843
59.185 18.405373
59.190 17.48761
59.195 16.276253
59.200 15.488962
59.205 15.450729
59.210 15.760428
59.215 15.54841
59.220 16.330135
59.225 16.760313
59.230 16.902058
59.235 16.906351
59.240 16.90914
59.245 16.535891
59.250 16.482641
59.255 16.273718
59.260 15.942523
59.265 16.031073
59.270 16.271563
59.275 16.057276
59.280 15.782433
59.285 15.578429
59.290 15.487943
59.295 16.189846
59.300 15.946095
59.305 15.738576
59.310 15.981602
59.315 15.952112
59.320 16.085808
59.325 16.125002
59.330 15.936245
59.335 16.438774
59.340 16.631546
59.345 16.558504
59.350 16.684271
59.355 16.694357
59.360 16.775236
59.365 16.945448
59.370 17.211887
59.375 17.368572
59.380 17.388657
59.385 17.812689
59.390 18.143312
59.395 18.229725
59.400 17.862608
59.405 17.526804
59.410 17.418131
59.415 17.77216
59.420 17.787701
59.425 17.590271
59.430 17.804766
59.435 18.016474
59.440 18.293024
59.445 18.541967
59.450 18.434343
59.455 18.158834
59.460 18.908466
59.465 18.905384
59.470 18.902304
59.475 18.883314
59.480 19.100441
59.485 18.8724
59.490 18.726397
59.495 18.642172
59.500 18.679567
59.505 18.947279
59.510 18.729382
59.515 18.535141
59.520 18.730095
59.525 18.532797
59.530 18.148294
59.535 17.461134
59.540 17.325203
59.545 17.259827
59.550 17.336632
59.555 17.746162
59.560 18.615685
59.565 18.876196
59.570 19.103992
59.575 18.969862
59.580 19.223497
59.585 19.047693
59.590 18.919033
59.595 18.677074
59.600 18.141308
59.605 18.602236
59.610 18.843189
59.615 18.792061
59.620 18.801817
59.625 18.033056
59.630 18.535702
59.635 19.123199
59.640 18.781853
59.645 18.574244
59.650 18.727949
59.655 19.068256
59.660 19.204973
59.665 18.933416
59.670 18.760958
59.675 18.637987
59.680 18.671385
59.685 18.330425
59.690 18.532869
59.695 18.807863
59.700 19.088665
59.705 18.90472
59.710 19.265158
59.715 18.931704
59.720 18.895544
59.725 18.824646
59.730 18.764315
59.735 18.031992
59.740 18.396002
59.745 18.067957
59.750 18.308218
59.755 18.573217
59.760 18.323412
59.765 18.793474
59.770 18.592886
59.775 18.472347
59.780 18.521685
59.785 18.736782
59.790 18.949741
59.795 19.528189
59.800 18.863434
59.805 19.341673
59.810 19.788633
59.815 20.390423
59.820 20.713308
59.825 20.255066
59.830 19.966471
59.835 20.305977
59.840 20.811525
59.845 20.528477
59.850 19.927496
59.855 20.054028
59.860 19.95635
59.865 19.935736
59.870 19.549585
59.875 18.827541
59.880 18.738312
59.885 18.134731
59.890 17.839527
59.895 18.335651
59.900 18.862284
59.905 18.734129
59.910 18.776243
59.915 19.029245
59.920 19.880903
59.925 20.351198
59.930 20.558741
59.935 20.542997
59.940 20.965744
59.945 21.642881
59.950 21.863382
59.955 21.913023
59.960 21.56744
59.965 21.089819
59.970 21.275291
59.975 21.088812
59.980 20.845951
59.985 20.934256
59.990 20.775499
59.995 20.888905
60.000 21.2638
60.005 21.2911
60.010 21.284248
60.015 20.991455
60.020 21.059999
60.025 21.169525
60.030 20.632717
60.035 20.247351
60.040 20.23704
60.045 20.808712
60.050 21.389919
60.055 21.32707
60.060 21.078798
60.065 21.53982
60.070 21.692183
60.075 21.441807
60.080 20.992489
60.085 20.836473
60.090 20.762093
60.095 20.77771
60.100 20.152905
60.105 20.163345
60.110 20.312492
60.115 20.204172
60.120 20.69816
60.125 21.414948
60.130 22.085484
60.135 22.973593
60.140 23.151991
60.145 22.850626
60.150 22.923828
60.155 22.561735
60.160 21.951061
60.165 21.813791
60.170 21.727446
60.175 21.956028
60.180 22.208939
60.185 22.825987
60.190 23.360954
60.195 23.869659
60.200 23.737986
60.205 23.421434
60.210 23.378948
60.215 23.353884
60.220 22.817085
60.225 22.261366
60.230 21.993319
60.235 21.847713
60.240 21.532036
60.245 20.981115
60.250 20.766954
60.255 20.259651
60.260 20.148287
60.265 20.529819
60.270 20.721447
60.275 20.332563
60.280 20.451468
60.285 20.948153
60.290 21.022354
60.295 20.217983
60.300 19.582796
60.305 19.82583
60.310 20.515297
60.315 20.712841
60.320 20.496765
60.325 20.653152
60.330 20.991295
60.335 21.229092
60.340 21.112638
60.345 21.460512
60.350 21.78965
60.355 21.81391
60.360 22.185976
60.365 22.108633
60.370 21.662691
60.375 21.427937
60.380 20.690571
60.385 20.473291
60.390 20.905399
60.395 22.070299
60.400 22.466892
60.405 23.256153
60.410 23.2164
60.415 23.34589
60.420 23.583067
60.425 23.10895
60.430 21.972313
60.435 21.773636
60.440 21.696348
60.445 22.300575
60.450 22.329166
60.455 21.814249
60.460 21.438454
60.465 21.232058
60.470 21.562256
60.475 22.156601
60.480 22.349854
60.485 22.223558
60.490 22.398819
60.495 23.292564
60.500 23.689625
60.505 23.006006
60.510 21.490444
60.515 21.034813
60.520 20.47296
60.525 20.154385
60.530 19.720049
60.535 19.385263
60.540 19.530491
60.545 19.766188
60.550 19.778374
60.555 20.977488
60.560 21.340536
60.565 21.614737
60.570 22.046789
60.575 21.942266
60.580 22.722204
60.585 22.630434
60.590 22.172968
60.595 22.11764
60.600 21.661968
60.605 21.067091
60.610 21.031668
60.615 20.326468
60.620 20.483141
60.625 20.775154
60.630 20.501804
60.635 20.470587
60.640 20.643318
60.645 21.443995
60.650 21.387424
60.655 20.927443
60.660 20.398479
60.665 20.615063
60.670 20.413822
60.675 20.224173
60.680 19.467743
60.685 19.330118
60.690 19.253033
60.695 19.370699
60.700 18.852509
60.705 18.757412
60.710 19.219402
60.715 19.727606
60.720 20.001238
60.725 20.54476
60.730 20.600733
60.735 20.731302
60.740 20.513296
60.745 19.770872
60.750 19.018278
60.755 19.189341
60.760 18.805035
60.765 19.168386
60.770 18.871656
60.775 19.290619
60.780 19.200071
60.785 19.404697
60.790 19.398737
60.795 19.501961
60.800 18.739502
60.805 19.203684
60.810 19.404343
60.815 19.864716
60.820 19.509815
60.825 19.952782
60.830 20.226824
60.835 20.315966
60.840 20.217779
60.845 19.711002
60.850 19.712685
60.855 20.153063
60.860 19.928913
60.865 20.352753
60.870 20.287251
60.875 20.157438
60.880 20.013603
60.885 19.364697
60.890 19.192518
60.895 18.993406
60.900 18.396708
60.905 19.083868
60.910 18.970318
60.915 18.745522
60.920 18.947083
60.925 18.26494
60.930 18.032928
60.935 18.245148
60.940 18.016085
60.945 17.757221
60.950 17.720566
60.955 17.685719
60.960 17.853828
60.965 17.869997
60.970 17.643387
60.975 17.553696
60.980 18.363857
60.985 18.718266
60.990 18.491453
60.995 18.470289
61.000 19.086123
61.005 19.244642
61.010 19.087652
61.015 19.177135
61.020 19.552654
61.025 19.516388
61.030 19.134295
61.035 17.588741
61.040 17.185225
61.045 17.183342
61.050 16.274479
61.055 16.286463
61.060 16.881563
61.065 17.531294
61.070 17.927143
61.075 18.040586
61.080 18.345102
61.085 19.124462
61.090 18.685362
61.095 17.788712
61.100 17.549425
61.105 17.756184
61.110 18.026312
61.115 18.130789
61.120 18.407152
61.125 18.944752
61.130 19.173658
61.135 18.921223
61.140 18.905573
61.145 18.208067
61.150 17.224432
61.155 16.368944
61.160 15.800077
61.165 15.782758
61.170 16.02318
61.175 16.452351
61.180 17.020046
61.185 17.095728
61.190 17.536978
61.195 18.404301
61.200 19.3564
61.205 19.841236
61.210 19.723566
61.215 19.945581
61.220 20.31435
61.225 20.322376
61.230 20.037296
61.235 18.976089
61.240 18.051662
61.245 17.771654
61.250 17.526197
61.255 17.490795
61.260 17.397915
61.265 17.429937
61.270 17.819675
61.275 18.064381
61.280 17.825903
61.285 18.168522
61.290 18.252621
61.295 17.460325
61.300 16.910551
61.305 16.876255
61.310 17.148954
61.315 17.091772
61.320 16.365108
61.325 16.630661
61.330 17.500759
61.335 17.941191
61.340 18.542202
61.345 18.286161
61.350 18.3741
61.355 18.648453
61.360 18.096764
61.365 17.405636
61.370 16.356533
61.375 16.08358
61.380 16.452162
61.385 16.374626
61.390 16.706491
61.395 16.930389
61.400 17.548496
61.405 17.45026
61.410 16.546539
61.415 16.461615
61.420 16.421864
61.425 16.076714
61.430 15.677264
61.435 15.487653
61.440 16.561747
61.445 17.475731
61.450 18.081675
61.455 18.488306
61.460 18.832083
61.465 18.888908
61.470 18.995743
61.475 19.083738
61.480 18.338644
61.485 17.428276
61.490 17.616632
61.495 17.957537
61.500 18.168766
61.505 18.395741
61.510 18.045675
61.515 18.303499
61.520 18.147758
61.525 17.879341
61.530 17.89677
61.535 18.326622
61.540 18.298769
61.545 18.660601
61.550 18.991064
61.555 19.318842
61.560 19.153387
61.565 18.765959
61.570 18.541342
61.575 18.1632
61.580 17.705074
61.585 17.279316
61.590 16.918253
61.595 17.284199
61.600 17.139463
61.605 17.366716
61.610 17.801548
61.615 17.624834
61.620 17.591814
61.625 18.139965
61.630 17.772354
61.635 17.890701
61.640 17.338484
61.645 16.782852
61.650 17.106504
61.655 17.409601
61.660 16.578796
61.665 16.511375
61.670 16.480078
61.675 16.766066
61.680 17.012114
61.685 17.247988
61.690 17.070833
61.695 17.352879
61.700 17.533583
61.705 17.680191
61.710 17.480019
61.715 17.644646
61.720 17.716747
61.725 17.854927
61.730 18.126934
61.735 17.798504
61.740 17.616737
61.745 17.644173
61.750 17.677244
61.755 17.672787
61.760 17.412201
61.765 17.242891
61.770 17.505852
61.775 17.666132
61.780 18.035318
61.785 17.552027
61.790 17.547731
61.795 17.813185
61.800 17.937737
61.805 17.9897
61.810 17.776358
61.815 17.14369
61.820 16.814898
61.825 16.714817
61.830 16.701975
61.835 16.554903
61.840 17.164507
61.845 17.769569
61.850 17.548746
61.855 17.960012
61.860 18.500042
61.865 18.72216
61.870 19.098969
61.875 18.827024
61.880 18.815628
61.885 19.758511
61.890 19.606813
61.895 19.164021
61.900 18.987942
61.905 18.22369
61.910 17.43825
61.915 17.040499
61.920 17.103039
61.925 17.093464
61.930 16.934387
61.935 16.736794
61.940 16.991762
61.945 17.643335
61.950 18.166796
61.955 18.030304
61.960 17.796368
61.965 17.724279
61.970 18.839733
61.975 19.265522
61.980 18.961401
61.985 18.683706
61.990 18.627991
61.995 18.989313
62.000 18.827801
62.005 17.944855
62.010 17.828617
62.015 17.861126
62.020 18.03319
62.025 17.937265
62.030 17.652637
62.035 17.823383
62.040 17.736267
62.045 17.632277
62.050 17.397268
62.055 16.783943
62.060 17.070644
62.065 17.647842
62.070 17.632105
62.075 17.656792
62.080 17.455965
62.085 17.794149
62.090 18.132385
62.095 17.408411
62.100 16.910957
62.105 16.85368
62.110 16.984554
62.115 17.162008
62.120 16.89255
62.125 17.226017
62.130 17.63929
62.135 18.03273
62.140 18.233885
62.145 18.458664
62.150 18.406389
62.155 18.310425
62.160 18.083557
62.165 18.278551
62.170 18.3619
62.175 19.290794
62.180 19.164913
62.185 19.223988
62.190 19.052315
62.195 19.056103
62.200 18.312811
62.205 16.804203
62.210 15.443223
62.215 15.348085
62.220 15.247983
62.225 15.508914
62.230 15.724307
62.235 15.991836
62.240 16.438959
62.245 17.062553
62.250 17.187298
62.255 17.585506
62.260 17.28183
62.265 17.088093
62.270 17.332729
62.275 17.178724
62.280 17.49036
62.285 17.75329
62.290 17.65066
62.295 17.768808
62.300 17.359009
62.305 17.264427
62.310 17.64863
62.315 17.341856
62.320 17.018677
62.325 17.082973
62.330 17.401314
62.335 17.72501
62.340 17.739088
62.345 17.325102
62.350 17.171244
62.355 16.913231
62.360 17.057261
62.365 16.869158
62.370 17.303909
62.375 17.366718
62.380 17.556206
62.385 17.138163
62.390 17.30986
62.395 17.636244
62.400 17.651384
62.405 17.303612
62.410 17.779966
62.415 18.527254
62.420 18.834097
62.425 18.427355
62.430 18.048676
62.435 18.300095
62.440 18.474199
62.445 18.413351
62.450 17.657383
62.455 17.532076
62.460 18.304138
62.465 18.662752
62.470 19.038389
62.475 19.25592
62.480 19.109255
62.485 19.497473
62.490 19.605419
62.495 19.000978
62.500 18.47575
62.505 17.374941
62.510 17.187538
62.515 17.360445
62.520 17.352884
62.525 17.307798
62.530 17.155029
62.535 17.074982
62.540 17.718199
62.545 17.476389
62.550 16.792637
62.555 16.532135
62.560 16.886662
62.565 16.90254
62.570 17.161501
62.575 16.719124
62.580 16.918036
62.585 16.954935
62.590 16.587793
62.595 16.39451
62.600 16.387371
62.605 16.8032
62.610 17.346262
62.615 17.29763
62.620 18.054928
62.625 18.873991
62.630 19.143665
62.635 18.760975
62.640 18.044685
62.645 17.748247
62.650 17.589731
62.655 17.338984
62.660 16.621454
62.665 16.477802
62.670 17.339117
62.675 18.455156
62.680 18.571959
62.685 18.652195
62.690 18.713615
62.695 18.411419
62.700 18.350044
62.705 17.589375
62.710 16.971399
62.715 17.16613
62.720 17.490778
62.725 17.3993
62.730 17.816517
62.735 18.30253
62.740 18.490967
62.745 18.757336
62.750 18.50255
62.755 18.740721
62.760 19.416437
62.765 19.585478
62.770 18.916725
62.775 18.982988
62.780 18.880665
62.785 19.200184
62.790 18.847277
62.795 18.652479
62.800 18.595144
62.805 19.417866
62.810 19.292818
62.815 19.209787
62.820 19.093512
62.825 19.211708
62.830 19.173246
62.835 18.864693
62.840 18.10071
62.845 17.387665
62.850 16.92379
62.855 16.895943
62.860 16.956316
62.865 16.629622
62.870 16.25963
62.875 16.193546
62.880 16.886742
62.885 17.182655
62.890 17.004805
62.895 16.67651
62.900 16.986906
62.905 17.359346
62.910 17.377525
62.915 17.420729
62.920 17.435934
62.925 17.061821
62.930 17.655117
62.935 17.615253
62.940 17.406084
62.945 17.201456
62.950 16.751429
62.955 16.505127
62.960 17.333759
62.965 17.377106
62.970 17.396231
62.975 17.917336
62.980 18.179802
62.985 18.249069
62.990 18.968639
62.995 18.4834
63.000 18.140381
63.005 17.926882
63.010 17.951889
63.015 18.782394
63.020 18.934731
63.025 19.462137
63.030 19.182047
63.035 19.275827
63.040 19.452532
63.045 19.106373
63.050 18.57135
63.055 18.476021
63.060 18.556786
63.065 18.8578
63.070 18.635921
63.075 18.18544
63.080 17.903959
63.085 17.701422
63.090 17.291571
63.095 16.414209
63.100 16.331268
63.105 16.046373
63.110 16.646425
63.115 16.82221
63.120 17.043959
63.125 17.182138
63.130 17.607256
63.135 17.562475
63.140 17.915478
63.145 18.010828
63.150 17.998331
63.155 17.425327
63.160 17.498217
63.165 17.208408
63.170 17.076162
63.175 16.507719
63.180 16.062986
63.185 15.773934
63.190 15.740111
63.195 15.773189
63.200 15.759358
63.205 15.926826
63.210 16.260294
63.215 16.062561
63.220 16.045687
63.225 16.101892
63.230 15.715226
63.235 15.610394
63.240 15.282903
63.245 15.173877
63.250 15.814457
63.255 16.642637
63.260 17.296856
63.265 17.71983
63.270 18.023544
63.275 18.10404
63.280 18.252398
63.285 18.69467
63.290 18.581627
63.295 18.658634
63.300 18.533195
63.305 18.192196
63.310 18.916668
63.315 19.330379
63.320 18.828867
63.325 18.986212
63.330 19.488453
63.335 19.623371
63.340 20.475576
63.345 20.380093
63.350 20.319544
63.355 19.961771
63.360 19.50589
63.365 18.896517
63.370 19.008495
63.375 18.41836
63.380 18.19857
63.385 18.387411
63.390 18.652199
63.395 18.418776
63.400 18.910881
63.405 18.872561
63.410 18.757595
63.415 18.748753
63.420 18.68117
63.425 18.95352
63.430 20.045227
63.435 19.396847
63.440 19.254601
63.445 19.572056
63.450 19.865145
63.455 20.033291
63.460 20.1847
63.465 19.678396
63.470 19.613035
63.475 19.556883
63.480 19.48493
63.485 19.254316
63.490 19.113079
63.495 18.883038
63.500 18.914339
63.505 19.479925
63.510 19.862701
63.515 19.693722
63.520 19.104229
63.525 18.94169
63.530 18.732662
63.535 18.346882
63.540 17.846071
63.545 17.590902
63.550 18.073515
63.555 19.034401
63.560 18.992081
63.565 19.147387
63.570 19.166071
63.575 18.893728
63.580 18.669214
63.585 17.943861
63.590 17.183504
63.595 17.503088
63.600 17.667143
63.605 17.733673
63.610 17.758743
63.615 17.79812
63.620 18.114868
63.625 18.449678
63.630 18.526649
63.635 18.388771
63.640 19.102955
63.645 19.219671
63.650 19.24707
63.655 18.786917
63.660 18.937294
63.665 18.627609
63.670 18.321875
63.675 17.520302
63.680 17.634428
63.685 17.735531
63.690 18.046812
63.695 17.981655
63.700 17.967932
63.705 18.549135
63.710 18.882301
63.715 18.950468
63.720 19.263342
63.725 18.84478
63.730 18.510675
63.735 18.953514
63.740 18.475487
63.745 18.852829
63.750 18.539347
63.755 18.360838
63.760 18.66291
63.765 18.909399
63.770 18.533073
63.775 18.530903
63.780 18.344534
63.785 18.326845
63.790 18.222412
63.795 18.251907
63.800 18.33877
63.805 18.216742
63.810 18.245676
63.815 17.952591
63.820 17.734858
63.825 17.359035
63.830 16.89535
63.835 16.646111
63.840 17.292789
63.845 17.74766
63.850 18.420828
63.855 19.261656
63.860 19.435513
63.865 19.9744
63.870 19.916859
63.875 19.002932
63.880 18.244219
63.885 17.999104
63.890 17.222729
63.895 17.207634
63.900 17.15476
63.905 17.100561
63.910 17.178368
63.915 17.040789
63.920 17.271433
63.925 17.668722
63.930 17.900597
63.935 17.979403
63.940 17.824429
63.945 17.973377
63.950 18.512625
63.955 18.716217
63.960 19.16814
63.965 19.302282
63.970 19.518261
63.975 19.649824
63.980 19.823002
63.985 19.784203
63.990 19.196596
63.995 19.383806
64.000 19.42132
64.005 19.2113
64.010 19.511791
64.015 20.048145
64.020 19.999649
64.025 20.30855
64.030 20.29756
64.035 20.298542
64.040 20.498055
64.045 20.430811
64.050 20.031647
64.055 19.314407
64.060 18.815136
64.065 18.687252
64.070 18.98661
64.075 19.268438
64.080 19.134207
64.085 18.880854
64.090 19.562271
64.095 20.2073
64.100 19.927313
64.105 19.340685
64.110 18.909079
64.115 19.057114
64.120 19.211246
64.125 18.907278
64.130 18.636494
64.135 18.883245
64.140 18.982437
64.145 18.840393
64.150 18.654684
64.155 18.869148
64.160 18.687439
64.165 18.61397
64.170 18.332243
64.175 18.690321
64.180 18.419001
64.185 18.459024
64.190 18.731749
64.195 18.736862
64.200 18.546213
64.205 18.050842
64.210 17.704901
64.215 18.04051
64.220 17.633137
64.225 16.872768
64.230 16.886518
64.235 16.813293
64.240 17.016331
64.245 17.189501
64.250 17.026329
64.255 17.063879
64.260 17.629021
64.265 17.372381
64.270 17.663771
64.275 17.647516
64.280 17.459797
64.285 17.938829
64.290 17.987963
64.295 17.609919
64.300 17.929018
64.305 17.695139
64.310 17.842155
64.315 17.970247
64.320 17.69338
64.325 17.983082
64.330 18.214252
64.335 18.607882
64.340 18.992435
64.345 19.537245
64.350 19.72583
64.355 19.980167
64.360 19.868811
64.365 19.579144
64.370 19.087568
64.375 19.420549
64.380 19.20083
64.385 18.98526
64.390 19.058414
64.395 19.507229
64.400 19.626211
64.405 19.942991
64.410 19.962013
64.415 19.936409
64.420 19.836006
64.425 20.016785
64.430 20.002895
64.435 20.276203
64.440 19.757668
64.445 19.379858
64.450 19.897055
64.455 19.829659
64.460 19.180267
64.465 19.043499
64.470 19.578505
64.475 19.762861
64.480 19.529781
64.485 19.015652
64.490 19.819782
64.495 20.247957
64.500 20.587162
64.505 20.413567
64.510 20.672054
64.515 20.930412
64.520 20.524633
64.525 19.735788
64.530 19.452911
64.535 18.872293
64.540 19.272139
64.545 18.847336
64.550 18.948957
64.555 19.316151
64.560 19.222075
64.565 19.458138
64.570 19.581219
64.575 19.490963
64.580 19.881493
64.585 19.919418
64.590 19.897165
64.595 19.855576
64.600 19.5515
64.605 19.650751
64.610 19.435854
64.615 19.463312
64.620 20.068827
64.625 20.473122
64.630 20.561077
64.635 20.178667
64.640 19.700377
64.645 19.848282
64.650 19.642891
64.655 19.347219
64.660 19.13862
64.665 19.050219
64.670 19.513794
64.675 19.776379
64.680 19.560322
64.685 19.337578
64.690 19.01296
64.695 18.981859
64.700 19.524334
64.705 19.508026
64.710 19.635815
64.715 20.042978
64.720 19.816099
64.725 19.450026
64.730 19.603233
64.735 19.928223
64.740 19.739363
64.745 19.06168
64.750 19.136404
64.755 19.144016
64.760 19.721237
64.765 19.530983
64.770 19.458672
64.775 19.895611
64.780 20.491869
64.785 20.349579
64.790 20.817987
64.795 20.823458
64.800 20.54793
64.805 20.599895
64.810 20.914473
64.815 21.067207
64.820 21.356661
64.825 21.350641
64.830 21.148724
64.835 21.544151
64.840 21.34614
64.845 21.000826
64.850 20.592154
64.855 20.542234
64.860 20.904161
64.865 20.82362
64.870 20.509172
64.875 20.572063
64.880 20.94763
64.885 21.292948
64.890 20.975384
64.895 20.118021
64.900 20.026814
64.905 19.838751
64.910 19.516718
64.915 19.285519
64.920 18.923994
64.925 18.72802
64.930 19.166525
64.935 20.137884
64.940 20.676916
64.945 20.922884
64.950 20.657396
64.955 20.702276
64.960 21.271223
64.965 21.800825
64.970 21.150404
64.975 20.988914
64.980 21.07757
64.985 21.858521
64.990 22.506916
64.995 22.605309
65.000 22.048418
65.005 21.964909
65.010 22.200651
65.015 22.431391
65.020 22.781445
65.025 22.443785
65.030 22.06419
65.035 22.180269
65.040 23.375673
65.045 23.430353
65.050 23.309925
65.055 22.602461
65.060 22.699081
65.065 23.155668
65.070 23.088232
65.075 22.429762
65.080 22.198112
65.085 21.725523
65.090 21.727283
65.095 21.892525
65.100 21.895592
65.105 22.135414
65.110 22.223709
65.115 22.508047
65.120 22.382645
65.125 22.589062
65.130 22.518896
65.135 22.401407
65.140 22.121086
65.145 22.291363
65.150 22.550819
65.155 23.211788
65.160 23.870152
65.165 23.458832
65.170 23.108974
65.175 22.91221
65.180 22.512081
65.185 23.099022
65.190 23.030449
65.195 22.764563
65.200 23.196777
65.205 23.68754
65.210 24.0546
65.215 24.242392
65.220 24.323612
65.225 23.901165
65.230 23.962603
65.235 23.723421
65.240 23.8272
65.245 24.162508
65.250 24.259268
65.255 24.252506
65.260 24.873316
65.265 25.181763
65.270 25.179127
65.275 25.547256
65.280 25.341984
65.285 25.029173
65.290 24.709705
65.295 24.276648
65.300 24.142591
65.305 24.376198
65.310 24.991898
65.315 25.043242
65.320 24.697075
65.325 24.702684
65.330 24.90848
65.335 24.576506
65.340 24.716755
65.345 24.143404
65.350 24.27606
65.355 24.384436
65.360 24.288971
65.365 24.117296
65.370 24.206358
65.375 23.974361
65.380 24.28158
65.385 24.067625
65.390 24.122707
65.395 23.948368
65.400 24.177246
65.405 24.472765
65.410 24.446297
65.415 23.696152
65.420 24.384094
65.425 24.481441
65.430 24.291245
65.435 24.701881
65.440 25.648529
65.445 26.151913
65.450 26.739962
65.455 26.129333
65.460 26.612156
65.465 27.084705
65.470 26.535543
65.475 25.964092
65.480 25.526968
65.485 25.069191
65.490 25.219181
65.495 24.801657
65.500 24.464674
65.505 24.680067
65.510 25.157848
65.515 25.339197
65.520 25.446024
65.525 25.318659
65.530 25.388226
65.535 26.322113
65.540 26.749418
65.545 26.179554
65.550 26.470169
65.555 26.793194
65.560 27.515211
65.565 27.874529
65.570 27.689833
65.575 28.355831
65.580 29.990778
65.585 30.111382
65.590 30.417896
65.595 30.371536
65.600 30.556482
65.605 31.291153
65.610 31.346876
65.615 31.226864
65.620 32.03117
65.625 31.681738
65.630 32.324596
65.635 31.821602
65.640 31.080193
65.645 31.461353
65.650 32.022419
65.655 32.484669
65.660 33.609276
65.665 34.243629
65.670 35.573181
65.675 35.637043
65.680 34.601673
65.685 34.257633
65.690 34.550262
65.695 34.934406
65.700 35.427822
65.705 36.085526
65.710 37.205704
65.715 38.899879
65.720 38.772129
65.725 38.020138
65.730 37.733295
65.735 37.520927
65.740 36.520348
65.745 36.368778
65.750 36.927921
65.755 36.930637
65.760 36.809444
65.765 36.689186
65.770 36.678135
65.775 37.533676
65.780 37.810936
65.785 37.565556
65.790 37.661087
65.795 38.451893
65.800 38.560471
65.805 38.922039
65.810 38.996735
65.815 38.710636
65.820 38.52005
65.825 38.465904
65.830 39.010002
65.835 38.933384
65.840 39.238586
65.845 38.932076
65.850 39.387115
65.855 39.282658
65.860 38.696434
65.865 38.135784
65.870 38.402313
65.875 38.025288
65.880 37.756405
65.885 37.631184
65.890 39.052628
65.895 39.946999
65.900 40.102859
65.905 40.044632
65.910 39.882103
65.915 40.428513
65.920 40.31551
65.925 39.379211
65.930 39.907852
65.935 40.74498
65.940 40.840084
65.945 40.230633
65.950 39.746918
65.955 39.53109
65.960 39.414749
65.965 38.782658
65.970 38.242722
65.975 38.502365
65.980 38.456539
65.985 38.327225
65.990 37.881546
65.995 37.57082
66.000 37.905186
66.005 37.7155
66.010 38.178875
66.015 38.810249
66.020 38.550934
66.025 38.669621
66.030 38.551445
66.035 38.25106
66.040 37.648853
66.045 37.309505
66.050 37.48933
66.055 38.310814
66.060 38.431999
66.065 38.134079
66.070 38.156631
66.075 38.099506
66.080 37.188385
66.085 37.217163
66.090 37.107887
66.095 37.949883
66.100 38.466549
66.105 37.736374
66.110 37.701931
66.115 37.983044
66.120 37.167519
66.125 36.557053
66.130 35.555698
66.135 34.721279
66.140 35.627663
66.145 35.543842
66.150 35.243477
66.155 35.183826
66.160 35.226807
66.165 35.186661
66.170 34.598557
66.175 34.212093
66.180 34.026691
66.185 33.403286
66.190 33.08984
66.195 32.339798
66.200 32.570824
66.205 33.26836
66.210 33.08102
66.215 32.709435
66.220 33.17802
66.225 33.327431
66.230 33.768581
66.235 33.290733
66.240 32.581848
66.245 32.135002
66.250 32.696892
66.255 32.124748
66.260 31.961916
66.265 31.777195
66.270 31.832037
66.275 32.282181
66.280 31.825041
66.285 31.034803
66.290 31.902479
66.295 32.195305
66.300 32.080147
66.305 32.816547
66.310 33.398727
66.315 33.756195
66.320 33.907803
66.325 34.046528
66.330 33.72575
66.335 33.727757
66.340 32.541531
66.345 31.114986
66.350 30.95009
66.355 30.526958
66.360 29.847078
66.365 29.619261
66.370 29.774067
66.375 29.685097
66.380 29.863266
66.385 29.328459
66.390 28.89963
66.395 29.27195
66.400 29.434692
66.405 29.269037
66.410 30.216671
66.415 30.399281
66.420 30.537031
66.425 30.445616
66.430 29.721001
66.435 29.394375
66.440 28.833511
66.445 27.891302
66.450 27.649027
66.455 27.873566
66.460 28.523951
66.465 28.883835
66.470 29.407572
66.475 30.179413
66.480 30.978699
66.485 31.070246
66.490 30.891109
66.495 30.436729
66.500 30.269859
66.505 30.352425
66.510 30.213018
66.515 29.107677
66.520 29.135204
66.525 29.244312
66.530 29.998976
66.535 30.086979
66.540 29.063477
66.545 28.197584
66.550 28.00456
66.555 27.709513
66.560 28.014324
66.565 27.733727
66.570 27.74304
66.575 27.898449
66.580 28.34498
66.585 29.369427
66.590 29.295399
66.595 29.502781
66.600 29.028444
66.605 29.188255
66.610 29.80135
66.615 29.709694
66.620 29.485413
66.625 29.228056
66.630 29.023277
66.635 29.059809
66.640 28.516827
66.645 27.796995
66.650 27.451786
66.655 27.049902
66.660 27.056078
66.665 26.32369
66.670 25.625874
66.675 25.844288
66.680 26.424507
66.685 25.787239
66.690 25.42551
66.695 25.623508
66.700 26.431606
66.705 26.631115
66.710 26.141911
66.715 25.48562
66.720 25.904613
66.725 26.002035
66.730 24.667782
66.735 23.693613
66.740 23.909861
66.745 24.407703
66.750 24.693142
66.755 24.026133
66.760 24.15378
66.765 24.621792
66.770 24.796247
66.775 24.159628
66.780 23.60227
66.785 22.919218
66.790 23.361797
66.795 23.518194
66.800 23.808926
66.805 24.511026
66.810 24.797436
66.815 24.648232
66.820 25.293678
66.825 25.443169
66.830 25.664948
66.835 25.779049
66.840 25.100128
66.845 24.659426
66.850 24.501509
66.855 24.091499
66.860 23.846844
66.865 23.133957
66.870 22.542135
66.875 23.045372
66.880 23.952175
66.885 24.449314
66.890 23.941517
66.895 24.2066
66.900 25.48884
66.905 25.941797
66.910 25.669533
66.915 25.178061
66.920 24.97751
66.925 25.348965
66.930 25.498762
66.935 24.998171
66.940 24.607578
66.945 24.636572
66.950 24.51033
66.955 24.614504
66.960 24.435942
66.965 23.5928
66.970 23.059135
66.975 23.025614
66.980 22.67247
66.985 22.694336
66.990 22.228491
66.995 22.498285
67.000 23.038336
67.005 23.307365
67.010 23.741171
67.015 24.256388
67.020 24.278973
67.025 24.4354
67.030 24.263624
67.035 23.519146
67.040 23.431971
67.045 23.671898
67.050 22.874273
67.055 22.790966
67.060 23.138363
67.065 23.329367
67.070 23.46409
67.075 22.481726
67.080 21.477779
67.085 21.439053
67.090 21.489773
67.095 21.180561
67.100 20.945675
67.105 20.747322
67.110 21.928711
67.115 22.444685
67.120 23.021782
67.125 23.511318
67.130 23.615513
67.135 23.856298
67.140 24.115419
67.145 23.770969
67.150 23.814264
67.155 23.975157
67.160 24.231871
67.165 24.850367
67.170 25.54738
67.175 25.853123
67.180 25.768801
67.185 25.353081
67.190 24.829987
67.195 24.518669
67.200 24.176445
67.205 23.359049
67.210 22.897844
67.215 23.084373
67.220 23.595226
67.225 24.252571
67.230 24.266798
67.235 23.729792
67.240 23.927666
67.245 23.715895
67.250 23.444565
67.255 23.214437
67.260 22.742487
67.265 22.409239
67.270 22.921047
67.275 22.709402
67.280 22.900215
67.285 23.22084
67.290 22.716722
67.295 22.871
67.300 22.499104
67.305 22.063513
67.310 21.970566
67.315 21.385551
67.320 20.940166
67.325 21.060734
67.330 20.507917
67.335 20.921482
67.340 21.099646
67.345 21.220909
67.350 21.651226
67.355 21.404402
67.360 21.079046
67.365 21.095293
67.370 21.155909
67.375 21.473457
67.380 21.730804
67.385 21.370447
67.390 21.683014
67.395 21.759201
67.400 22.113617
67.405 21.959618
67.410 21.656176
67.415 21.573441
67.420 21.673811
67.425 21.713234
67.430 22.142363
67.435 22.284973
67.440 22.280678
67.445 21.73735
67.450 22.371202
67.455 22.62949
67.460 22.578194
67.465 21.942953
67.470 21.700968
67.475 21.587296
67.480 22.075836
67.485 21.86421
67.490 22.53933
67.495 23.078217
67.500 23.479263
67.505 23.344618
67.510 23.627523
67.515 24.062269
67.520 23.646307
67.525 23.195667
67.530 22.472301
67.535 22.412863
67.540 22.644728
67.545 22.743942
67.550 22.443733
67.555 22.530373
67.560 22.961418
67.565 23.980751
67.570 23.935181
67.575 23.78381
67.580 24.063478
67.585 24.385489
67.590 24.321035
67.595 23.84185
67.600 23.004374
67.605 22.951748
67.610 22.811361
67.615 22.635651
67.620 22.423922
67.625 22.335421
67.630 22.272343
67.635 22.412601
67.640 22.419538
67.645 22.690775
67.650 22.577354
67.655 22.698185
67.660 22.39106
67.665 21.961374
67.670 21.691456
67.675 21.600025
67.680 21.290401
67.685 21.06263
67.690 20.79669
67.695 20.781599
67.700 21.500805
67.705 21.879238
67.710 22.026608
67.715 22.51573
67.720 22.628119
67.725 22.440804
67.730 22.713268
67.735 22.264894
67.740 21.937628
67.745 21.619802
67.750 21.038343
67.755 21.163029
67.760 22.005497
67.765 22.562704
67.770 22.531265
67.775 22.826811
67.780 22.887384
67.785 23.357512
67.790 23.264706
67.795 23.335831
67.800 22.779154
67.805 22.761732
67.810 22.878927
67.815 23.062176
67.820 22.885469
67.825 22.332394
67.830 22.190376
67.835 22.255957
67.840 22.445736
67.845 22.228403
67.850 22.055756
67.855 21.793171
67.860 21.993181
67.865 21.955046
67.870 21.86228
67.875 21.410406
67.880 21.907896
67.885 21.419855
67.890 21.636662
67.895 21.661821
67.900 21.785789
67.905 22.207991
67.910 22.39489
67.915 22.186934
67.920 22.497057
67.925 22.082298
67.930 21.646101
67.935 20.473305
67.940 20.019928
67.945 20.126614
67.950 19.873598
67.955 19.642864
67.960 19.752813
67.965 20.272919
67.970 21.079308
67.975 21.372456
67.980 21.609287
67.985 22.052275
67.990 22.024107
67.995 22.021156
68.000 21.774895
68.005 21.851543
68.010 22.324047
68.015 21.900311
68.020 21.415531
68.025 21.969721
68.030 21.91391
68.035 21.905645
68.040 21.668852
68.045 21.703676
68.050 22.014229
68.055 22.607525
68.060 22.748941
68.065 22.940441
68.070 22.794855
68.075 22.263493
68.080 22.280607
68.085 22.501093
68.090 22.269205
68.095 21.941122
68.100 21.596613
68.105 22.070499
68.110 22.632021
68.115 22.475946
68.120 22.140812
68.125 22.599182
68.130 22.866655
68.135 22.9522
68.140 23.010826
68.145 22.891043
68.150 22.587877
68.155 22.122286
68.160 21.368893
68.165 20.99585
68.170 20.494028
68.175 20.236521
68.180 20.289877
68.185 20.796724
68.190 20.972933
68.195 21.415176
68.200 21.802784
68.205 22.07029
68.210 22.173073
68.215 22.037117
68.220 21.803232
68.225 21.784857
68.230 22.033714
68.235 22.061125
68.240 22.117872
68.245 22.172733
68.250 21.631416
68.255 21.602987
68.260 21.449341
68.265 21.390335
68.270 20.928959
68.275 21.553539
68.280 22.001514
68.285 22.638924
68.290 22.428453
68.295 22.30517
68.300 22.236189
68.305 23.03047
68.310 22.742334
68.315 23.007452
68.320 22.408606
68.325 22.228928
68.330 21.933283
68.335 21.660004
68.340 21.212452
68.345 20.420357
68.350 20.173607
68.355 20.510906
68.360 21.14793
68.365 21.279013
68.370 21.428152
68.375 21.614052
68.380 21.819794
68.385 21.277628
68.390 21.28282
68.395 20.916842
68.400 20.447706
68.405 20.109894
68.410 20.209747
68.415 20.464428
68.420 20.509527
68.425 19.939133
68.430 20.413845
68.435 21.008505
68.440 20.545046
68.445 19.824789
68.450 19.852369
68.455 20.132147
68.460 20.791176
68.465 21.267179
68.470 21.40246
68.475 22.311581
68.480 22.152596
68.485 22.123268
68.490 22.650196
68.495 22.236479
68.500 22.23604
68.505 22.223783
68.510 21.810198
68.515 21.822865
68.520 21.818869
68.525 21.11146
68.530 21.559868
68.535 21.096611
68.540 20.801151
68.545 20.76907
68.550 21.633709
68.555 21.412277
68.560 21.624773
68.565 20.839836
68.570 21.186611
68.575 21.463741
68.580 21.571981
68.585 21.057348
68.590 20.667345
68.595 21.078341
68.600 21.481901
68.605 21.423763
68.610 21.635674
68.615 21.780081
68.620 22.268501
68.625 22.524765
68.630 22.469597
68.635 22.461544
68.640 21.89632
68.645 21.78553
68.650 21.759291
68.655 21.420008
68.660 21.485344
68.665 21.030306
68.670 21.346712
68.675 21.70369
68.680 21.502571
68.685 21.507206
68.690 21.3337
68.695 21.273409
68.700 21.927013
68.705 21.980747
68.710 22.270905
68.715 22.631874
68.720 23.041885
68.725 23.439316
68.730 23.785862
68.735 23.395741
68.740 23.28043
68.745 23.170435
68.750 23.029579
68.755 22.542765
68.760 22.770557
68.765 23.097277
68.770 22.848139
68.775 22.934183
68.780 22.744398
68.785 22.599949
68.790 22.869585
68.795 22.688314
68.800 22.617619
68.805 23.225594
68.810 23.248623
68.815 23.558235
68.820 24.221964
68.825 24.683634
68.830 24.579533
68.835 24.581785
68.840 23.990046
68.845 24.10338
68.850 23.741535
68.855 23.730324
68.860 23.597317
68.865 23.304913
68.870 22.927862
68.875 24.104145
68.880 24.470081
68.885 24.710735
68.890 24.419302
68.895 24.350445
68.900 24.343767
68.905 24.599098
68.910 23.737638
68.915 23.58733
68.920 23.617382
68.925 23.461798
68.930 23.31765
68.935 23.472107
68.940 23.727463
68.945 23.74346
68.950 23.762678
68.955 24.036234
68.960 23.927277
68.965 23.867168
68.970 23.634684
68.975 23.484249
68.980 23.144289
68.985 23.21365
68.990 22.946302
68.995 22.676817
69.000 23.274908
69.005 24.219299
69.010 24.02054
69.015 23.921482
69.020 23.945042
69.025 24.354317
69.030 24.79657
69.035 24.582767
69.040 24.613468
69.045 25.49785
69.050 25.934355
69.055 25.81049
69.060 25.863346
69.065 26.230007
69.070 25.560625
69.075 25.064272
69.080 24.546417
69.085 24.373695
69.090 24.338211
69.095 24.763371
69.100 25.323336
69.105 26.367912
69.110 26.21789
69.115 26.716425
69.120 27.124289
69.125 27.449291
69.130 26.999439
69.135 26.762903
69.140 26.010313
69.145 25.508875
69.150 25.351736
69.155 24.723412
69.160 24.417355
69.165 24.173065
69.170 23.746378
69.175 24.615709
69.180 25.70989
69.185 25.897152
69.190 26.637993
69.195 26.943911
69.200 27.362055
69.205 27.696699
69.210 27.978167
69.215 27.891794
69.220 28.182077
69.225 28.590071
69.230 28.471563
69.235 28.201305
69.240 27.961145
69.245 27.384642
69.250 27.290995
69.255 27.413326
69.260 27.693867
69.265 27.361731
69.270 27.841679
69.275 28.35741
69.280 28.49575
69.285 28.275501
69.290 27.921022
69.295 27.377186
69.300 27.721375
69.305 28.018055
69.310 27.828518
69.315 27.856508
69.320 28.083735
69.325 28.322731
69.330 28.215572
69.335 28.296764
69.340 27.837709
69.345 27.824709
69.350 28.039711
69.355 28.188887
69.360 27.954773
69.365 28.647058
69.370 28.682796
69.375 28.657299
69.380 28.409508
69.385 28.563168
69.390 29.374302
69.395 29.620192
69.400 29.60593
69.405 29.337683
69.410 29.938444
69.415 30.895222
69.420 30.488434
69.425 30.273298
69.430 30.602867
69.435 31.426216
69.440 31.822933
69.445 32.251949
69.450 32.69302
69.455 33.014366
69.460 32.233253
69.465 31.809399
69.470 31.091417
69.475 31.12137
69.480 30.47994
69.485 29.789549
69.490 29.938652
69.495 29.958332
69.500 29.464668
69.505 29.010471
69.510 28.631577
69.515 28.348898
69.520 28.461885
69.525 28.329517
69.530 28.616674
69.535 28.85117
69.540 29.431055
69.545 29.56933
69.550 30.318302
69.555 29.920759
69.560 29.816017
69.565 30.101851
69.570 30.167749
69.575 30.219639
69.580 29.875544
69.585 29.125866
69.590 29.561665
69.595 29.481037
69.600 29.042067
69.605 28.964249
69.610 29.674553
69.615 30.18465
69.620 30.169884
69.625 29.936213
69.630 29.869577
69.635 30.382086
69.640 30.479609
69.645 29.573149
69.650 29.440662
69.655 29.349331
69.660 28.539608
69.665 28.061203
69.670 27.922926
69.675 27.759018
69.680 27.90362
69.685 28.18401
69.690 28.196522
69.695 28.804323
69.700 28.321283
69.705 27.776901
69.710 27.472645
69.715 27.225817
69.720 27.106283
69.725 26.92573
69.730 26.97554
69.735 27.124331
69.740 27.358776
69.745 26.913725
69.750 26.783445
69.755 26.437996
69.760 25.939749
69.765 25.635643
69.770 25.631098
69.775 25.643421
69.780 25.385187
69.785 25.638338
69.790 25.468513
69.795 26.029562
69.800 26.54314
69.805 26.334665
69.810 26.184948
69.815 26.493061
69.820 26.179127
69.825 26.143072
69.830 25.377199
69.835 25.838739
69.840 26.359617
69.845 26.311619
69.850 26.40243
69.855 26.540028
69.860 26.949713
69.865 27.102016
69.870 25.480196
69.875 24.571341
69.880 23.883839
69.885 23.45085
69.890 22.728714
69.895 22.212292
69.900 22.279194
69.905 22.573294
69.910 23.003756
69.915 22.951054
69.920 22.957436
69.925 22.795429
69.930 23.00753
69.935 22.549671
69.940 22.457455
69.945 22.36488
69.950 22.483526
69.955 22.291826
69.960 22.181091
69.965 22.030275
69.970 21.585413
69.975 20.871981
69.980 20.200922
69.985 19.973154
69.990 20.230099
69.995 20.299339
70.000 20.213364
70.005 20.747934
70.010 21.89411
70.015 22.183836
70.020 22.334366
70.025 22.513113
70.030 22.737299
70.035 23.671398
70.040 23.340393
70.045 22.599796
70.050 22.568607
70.055 22.666176
70.060 22.298433
70.065 22.406157
70.070 22.380039
70.075 22.36331
70.080 22.462473
70.085 22.317926
70.090 22.317442
70.095 22.409966
70.100 21.431931
70.105 20.965042
70.110 21.398222
70.115 21.46973
70.120 21.199402
70.125 20.951941
70.130 21.096588
70.135 20.425068
70.140 20.588245
70.145 20.649202
70.150 20.856077
70.155 20.688135
70.160 20.638083
70.165 20.736191
70.170 21.294012
70.175 21.112995
70.180 20.917046
70.185 21.089584
70.190 21.183411
70.195 20.577419
70.200 20.887665
70.205 20.635748
70.210 20.462719
70.215 20.353201
70.220 20.244949
70.225 20.882065
70.230 21.638874
70.235 21.236794
70.240 21.5492
70.245 22.368601
70.250 22.224131
70.255 22.15452
70.260 22.145872
70.265 22.388718
70.270 22.404203
70.275 21.362516
70.280 20.516079
70.285 20.885897
70.290 20.772846
70.295 20.132849
70.300 19.561924
70.305 19.921022
70.310 20.363144
70.315 21.040741
70.320 20.46674
70.325 20.058453
70.330 20.375248
70.335 20.661089
70.340 20.737585
70.345 21.056499
70.350 20.455015
70.355 20.911587
70.360 20.979729
70.365 20.905924
70.370 20.777378
70.375 20.647963
70.380 20.22436
70.385 20.086382
70.390 20.182079
70.395 20.628336
70.400 20.385231
70.405 20.350855
70.410 19.669392
70.415 19.638239
70.420 19.439571
70.425 19.361343
70.430 19.018496
70.435 19.332041
70.440 19.201071
70.445 19.711061
70.450 20.133648
70.455 19.972727
70.460 19.95343
70.465 20.316986
70.470 20.60634
70.475 21.231327
70.480 21.59358
70.485 22.109976
70.490 22.590446
70.495 22.09193
70.500 21.426699
70.505 21.194895
70.510 21.245367
70.515 21.159683
70.520 21.011703
70.525 20.648615
70.530 20.748066
70.535 20.761585
70.540 20.27091
70.545 19.807055
70.550 19.108841
70.555 19.020811
70.560 19.664818
70.565 20.195837
70.570 20.723818
70.575 21.266073
70.580 21.276979
70.585 21.15476
70.590 20.52088
70.595 19.70014
70.600 19.434139
70.605 19.184885
70.610 19.11898
70.615 18.960007
70.620 20.063595
70.625 20.521278
70.630 20.704603
70.635 20.544241
70.640 20.171518
70.645 19.997141
70.650 20.03355
70.655 19.480797
70.660 19.884054
70.665 20.481062
70.670 20.717512
70.675 20.381586
70.680 19.832102
70.685 19.586966
70.690 19.583157
70.695 19.160358
70.700 18.722473
70.705 18.501537
70.710 18.641481
70.715 19.509375
70.720 19.932318
70.725 19.961079
70.730 19.819597
70.735 19.797619
70.740 19.750595
70.745 20.096239
70.750 19.926657
70.755 20.424391
70.760 20.541521
70.765 20.500053
70.770 20.52792
70.775 20.79117
70.780 20.634989
70.785 20.232225
70.790 19.982298
70.795 19.963667
70.800 20.15662
70.805 19.760725
70.810 19.101446
70.815 19.033829
70.820 18.838617
70.825 18.372625
70.830 18.486542
70.835 18.793482
70.840 19.218876
70.845 19.4638
70.850 19.401737
70.855 19.385103
70.860 19.614979
70.865 19.731939
70.870 19.307621
70.875 19.010588
70.880 19.360193
70.885 20.072439
70.890 20.455378
70.895 19.99613
70.900 20.157068
70.905 20.071182
70.910 20.348244
70.915 20.060648
70.920 19.451412
70.925 19.649372
70.930 20.377462
70.935 20.403017
70.940 20.584517
70.945 20.822922
70.950 20.966997
70.955 20.703856
70.960 20.400421
70.965 19.932724
70.970 19.847818
70.975 19.691946
70.980 19.357601
70.985 19.345745
70.990 19.199999
70.995 18.642111
71.000 18.681835
71.005 18.590075
71.010 18.556128
71.015 18.743938
71.020 18.693111
71.025 18.981096
71.030 18.793592
71.035 19.052492
71.040 19.628017
71.045 19.444088
71.050 19.443644
71.055 20.007532
71.060 20.162973
71.065 19.923067
71.070 19.740328
71.075 19.72117
71.080 19.932354
71.085 19.673695
71.090 19.348528
71.095 20.225317
71.100 20.550087
71.105 19.928251
71.110 19.673689
71.115 19.963688
71.120 19.94725
71.125 19.991737
71.130 19.733568
71.135 19.720863
71.140 19.597466
71.145 19.368401
71.150 19.165192
71.155 19.41293
71.160 19.165905
71.165 18.760189
71.170 18.834801
71.175 19.148735
71.180 18.536755
71.185 18.074533
71.190 17.775978
71.195 17.989164
71.200 18.431086
71.205 18.469196
71.210 18.130579
71.215 19.33003
71.220 19.808508
71.225 19.639259
71.230 19.492201
71.235 19.366634
71.240 19.308058
71.245 19.39603
71.250 19.05345
71.255 18.864222
71.260 18.65696
71.265 18.571936
71.270 18.816767
71.275 19.397863
71.280 19.118933
71.285 18.794456
71.290 19.25281
71.295 19.323996
71.300 18.780411
71.305 18.305124
71.310 18.215528
71.315 18.55084
71.320 18.736763
71.325 18.596693
71.330 18.553593
71.335 19.267193
71.340 18.896349
71.345 19.114548
71.350 18.891176
71.355 18.821898
71.360 18.598782
71.365 18.239029
71.370 18.321873
71.375 19.177713
71.380 19.41741
71.385 19.723555
71.390 20.096491
71.395 20.221655
71.400 19.702305
71.405 19.438513
71.410 19.408665
71.415 19.552443
71.420 19.672123
71.425 19.951429
71.430 20.190569
71.435 21.166109
71.440 20.767683
71.445 20.442327
71.450 20.071783
71.455 19.306873
71.460 19.004597
71.465 18.935545
71.470 18.897099
71.475 18.507357
71.480 17.824387
71.485 17.777205
71.490 17.93626
71.495 17.777853
71.500 17.82353
71.505 17.687714
71.510 17.819937
71.515 18.412245
71.520 18.542168
71.525 18.515976
71.530 18.473309
71.535 18.580669
71.540 19.309977
71.545 20.2251
71.550 19.560425
71.555 19.759501
71.560 19.355896
71.565 19.848423
71.570 19.881376
71.575 19.102533
71.580 18.32917
71.585 18.498569
71.590 18.387039
71.595 18.856991
71.600 18.226742
71.605 17.6359
71.610 18.493706
71.615 18.789999
71.620 19.40316
71.625 19.064571
71.630 18.473764
71.635 18.333612
71.640 18.655272
71.645 18.086945
71.650 18.050381
71.655 17.478302
71.660 18.196398
71.665 18.455273
71.670 18.636864
71.675 18.635752
71.680 18.852537
71.685 18.767925
71.690 19.150003
71.695 19.303116
71.700 19.702065
71.705 19.626072
71.710 19.623356
71.715 19.258108
71.720 19.285631
71.725 18.260576
71.730 17.914196
71.735 18.367731
71.740 18.899086
71.745 18.583551
71.750 18.54804
71.755 18.734526
71.760 19.163994
71.765 19.275507
71.770 18.80825
71.775 18.417881
71.780 19.233389
71.785 19.380739
71.790 19.469343
71.795 20.088449
71.800 20.201807
71.805 20.059807
71.810 19.89332
71.815 19.451313
71.820 19.427559
71.825 19.073063
71.830 18.522913
71.835 18.378578
71.840 18.803659
71.845 19.807915
71.850 19.485113
71.855 19.304411
71.860 18.874075
71.865 19.273174
71.870 19.272448
71.875 18.857397
71.880 18.165541
71.885 18.486948
71.890 19.083569
71.895 19.289049
71.900 18.56201
71.905 18.605511
71.910 18.733734
71.915 18.656061
71.920 18.760803
71.925 18.718554
71.930 19.159378
71.935 19.315783
71.940 19.338503
71.945 18.934832
71.950 18.712683
71.955 18.927864
71.960 18.37291
71.965 18.24032
71.970 18.207857
71.975 18.567776
71.980 19.297335
71.985 19.749928
71.990 20.389585
71.995 20.012781
72.000 19.923185
72.005 20.013779
72.010 19.022036
72.015 18.787514
72.020 18.734669
72.025 17.948944
72.030 18.471201
72.035 18.283169
72.040 18.181108
72.045 18.942429
72.050 19.032244
72.055 18.771358
72.060 18.781889
72.065 19.42968
72.070 20.143946
72.075 20.67564
72.080 20.394371
72.085 19.825218
72.090 19.529848
72.095 19.347826
72.100 18.837261
72.105 19.142618
72.110 18.735966
72.115 18.444197
72.120 18.803885
72.125 19.172052
72.130 19.635029
72.135 19.276836
72.140 18.478355
72.145 18.88415
72.150 19.398775
72.155 19.450226
72.160 19.828394
72.165 20.279516
72.170 20.334852
72.175 20.57122
72.180 20.166706
72.185 19.804844
72.190 19.536489
72.195 19.074177
72.200 19.040617
72.205 19.081509
72.210 19.141222
72.215 18.981312
72.220 18.881617
72.225 18.72971
72.230 18.133564
72.235 17.652956
72.240 17.658314
72.245 17.315084
72.250 17.913687
72.255 18.45507
72.260 18.999451
72.265 19.196657
72.270 19.149025
72.275 19.62179
72.280 19.791475
72.285 19.371975
72.290 18.653231
72.295 18.764912
72.300 18.901796
72.305 18.92359
72.310 18.658676
72.315 18.649773
72.320 18.862558
72.325 19.187641
72.330 19.785841
72.335 20.419565
72.340 20.883755
72.345 20.819431
72.350 20.850683
72.355 20.959587
72.360 21.041534
72.365 20.06847
72.370 19.795052
72.375 19.583055
72.380 19.710041
72.385 19.50815
72.390 19.387871
72.395 19.036545
72.400 19.042168
72.405 19.029497
72.410 18.70965
72.415 18.845526
72.420 18.709076
72.425 18.682116
72.430 19.393988
72.435 19.643805
72.440 19.726774
72.445 20.16188
72.450 20.271904
72.455 20.161091
72.460 19.570835
72.465 18.72526
72.470 18.235088
72.475 18.183056
72.480 17.998491
72.485 17.300545
72.490 17.118567
72.495 17.609726
72.500 17.312481
72.505 17.141449
72.510 16.705097
72.515 16.782997
72.520 17.385363
72.525 18.129606
72.530 18.312038
72.535 18.853685
72.540 19.373789
72.545 19.536114
72.550 19.567163
72.555 19.334146
72.560 18.875027
72.565 18.708548
72.570 18.642689
72.575 18.10186
72.580 18.017626
72.585 18.07406
72.590 18.33629
72.595 18.834497
72.600 19.133862
72.605 19.629997
72.610 19.389492
72.615 19.330877
72.620 19.211418
72.625 18.72942
72.630 18.378376
72.635 18.033144
72.640 17.731768
72.645 17.466927
72.650 17.466719
72.655 18.330097
72.660 18.462885
72.665 18.077488
72.670 17.913891
72.675 18.320583
72.680 18.770586
72.685 19.176081
72.690 18.939821
72.695 19.17651
72.700 19.355322
72.705 19.407709
72.710 18.979725
72.715 18.500381
72.720 17.834238
72.725 17.978777
72.730 18.218084
72.735 18.066341
72.740 18.56386
72.745 19.416527
72.750 19.536963
72.755 19.490118
72.760 19.178343
72.765 19.488049
72.770 18.910725
72.775 18.581184
72.780 18.283276
72.785 18.005209
72.790 17.951763
72.795 17.705454
72.800 17.348072
72.805 18.030172
72.810 17.916313
72.815 17.98423
72.820 18.059679
72.825 18.434713
72.830 18.250509
72.835 18.502987
72.840 18.286964
72.845 18.473167
72.850 18.1068
72.855 17.93693
72.860 17.51005
72.865 17.788412
72.870 17.773933
72.875 18.073051
72.880 18.063107
72.885 18.103535
72.890 17.934664
72.895 17.702759
72.900 17.045893
72.905 17.125561
72.910 17.62187
72.915 17.75494
72.920 17.978065
72.925 17.634386
72.930 17.951221
72.935 17.952198
72.940 17.300114
72.945 17.117844
72.950 17.034449
72.955 17.261156
72.960 17.386906
72.965 17.123665
72.970 18.042633
72.975 17.809284
72.980 17.481548
72.985 17.25309
72.990 16.813936
72.995 17.634501
73.000 17.296276
