!@!!GADDS PLOTSO FILE: Chi integration type
!@!!Title/SampleName: map-65
!@!!Comment: ?
!@!!User: Bruker Instrument Administrator
!@!!Site: University of Illinois Chicago
!@!!Frame: map-65_01_000.gfrm
!@!!Wavelengths    1.54184   1.54056   1.54439
!@!!Frame angles: 2Theta: 63.000 Omega: 50.000 Phi: 0.000 Chi: 90.000
!@!!Integration range: 2Theta: 53.000 to 73.000  Gamma: -105.000 to -75.000
!@!!Integration method: bin normalized
!@!N
!@!SS
!@!M
!@!L 0.0 0.0 0.0 0.0
!@!XDegrees
!@!YCounts
53.000 9.639687
53.005 9.593317
53.010 9.795179
53.015 9.643171
53.020 9.920078
53.025 9.898759
53.030 9.94768
53.035 10.41693
53.040 10.199079
53.045 10.216418
53.050 10.31184
53.055 9.864222
53.060 9.983428
53.065 10.504077
53.070 10.558559
53.075 10.544736
53.080 10.236213
53.085 10.229318
53.090 10.616698
53.095 10.310106
53.100 9.829416
53.105 9.861264
53.110 10.029166
53.115 10.080662
53.120 10.155958
53.125 10.355498
53.130 10.742475
53.135 11.166291
53.140 11.285698
53.145 11.471279
53.150 11.506478
53.155 11.023492
53.160 10.816528
53.165 10.675973
53.170 10.02065
53.175 9.717941
53.180 9.523089
53.185 9.953074
53.190 10.368629
53.195 10.435131
53.200 10.71996
53.205 11.101431
53.210 11.42883
53.215 11.104
53.220 10.818206
53.225 10.674415
53.230 10.828082
53.235 10.458821
53.240 10.453015
53.245 10.627877
53.250 10.548954
53.255 10.284056
53.260 10.254072
53.265 10.227588
53.270 9.913988
53.275 9.583993
53.280 9.540326
53.285 9.560102
53.290 9.388017
53.295 9.41966
53.300 9.666713
53.305 10.31486
53.310 10.751011
53.315 10.796985
53.320 10.612265
53.325 10.913086
53.330 11.015935
53.335 10.687776
53.340 10.336983
53.345 10.100202
53.350 10.26145
53.355 10.776364
53.360 10.787679
53.365 10.009335
53.370 9.864805
53.375 9.691352
53.380 9.6183
53.385 9.513585
53.390 9.316748
53.395 9.261161
53.400 9.951913
53.405 10.574448
53.410 11.01107
53.415 10.935938
53.420 11.165027
53.425 11.652149
53.430 11.915277
53.435 11.642282
53.440 11.606792
53.445 11.186636
53.450 11.545865
53.455 11.482986
53.460 10.574062
53.465 10.18287
53.470 10.339442
53.475 10.682007
53.480 10.908437
53.485 11.305523
53.490 11.398594
53.495 11.895476
53.500 12.037637
53.505 11.725673
53.510 11.5014
53.515 11.479613
53.520 11.684591
53.525 11.650961
53.530 11.720512
53.535 12.087564
53.540 12.22638
53.545 12.119648
53.550 11.664506
53.555 10.961361
53.560 11.34784
53.565 11.354169
53.570 11.305362
53.575 10.88589
53.580 10.60051
53.585 10.923857
53.590 10.990038
53.595 10.961015
53.600 10.592175
53.605 10.580799
53.610 10.670941
53.615 11.018983
53.620 10.714174
53.625 10.360976
53.630 10.591868
53.635 10.343028
53.640 10.514577
53.645 10.84729
53.650 10.227839
53.655 10.323508
53.660 10.401363
53.665 10.470733
53.670 10.406437
53.675 10.316153
53.680 10.524007
53.685 11.02659
53.690 11.081635
53.695 11.205159
53.700 11.116888
53.705 11.239713
53.710 10.694545
53.715 10.56709
53.720 10.832546
53.725 10.928442
53.730 10.911896
53.735 10.960862
53.740 11.115782
53.745 11.442111
53.750 11.29716
53.755 10.982512
53.760 10.844729
53.765 10.879352
53.770 11.28764
53.775 11.43468
53.780 11.168658
53.785 10.985139
53.790 11.190153
53.795 11.630394
53.800 11.482513
53.805 11.088613
53.810 11.103719
53.815 11.152349
53.820 11.425
53.825 11.234925
53.830 10.961753
53.835 10.986437
53.840 10.980645
53.845 11.022844
53.850 11.77894
53.855 12.075247
53.860 12.166723
53.865 12.012162
53.870 12.029277
53.875 11.78194
53.880 11.509762
53.885 10.899462
53.890 10.397764
53.895 9.984983
53.900 10.107301
53.905 10.326234
53.910 10.886005
53.915 11.069078
53.920 11.255801
53.925 11.407531
53.930 11.79388
53.935 12.213769
53.940 12.425662
53.945 12.092022
53.950 11.833117
53.955 11.45431
53.960 11.406451
53.965 11.661901
53.970 11.754519
53.975 11.771872
53.980 12.052004
53.985 12.068771
53.990 12.437054
53.995 12.230657
54.000 11.922646
54.005 12.039891
54.010 12.055217
54.015 11.866175
54.020 11.71115
54.025 11.590779
54.030 11.754019
54.035 11.648552
54.040 11.234167
54.045 10.969521
54.050 11.209146
54.055 11.480793
54.060 11.375026
54.065 10.645249
54.070 10.254091
54.075 10.118772
54.080 10.335893
54.085 10.226964
54.090 10.23228
54.095 10.306437
54.100 10.936093
54.105 11.087519
54.110 11.053849
54.115 11.066796
54.120 11.136853
54.125 11.259323
54.130 11.957675
54.135 12.37157
54.140 12.678539
54.145 13.096026
54.150 12.757192
54.155 12.441592
54.160 12.049755
54.165 11.02008
54.170 10.907499
54.175 10.84926
54.180 10.842082
54.185 11.300942
54.190 11.606221
54.195 11.976838
54.200 12.699619
54.205 12.543887
54.210 12.541823
54.215 12.296756
54.220 12.293657
54.225 12.485225
54.230 12.645135
54.235 12.438444
54.240 12.959005
54.245 13.414376
54.250 13.565594
54.255 13.737887
54.260 13.658411
54.265 13.09966
54.270 12.660344
54.275 11.724352
54.280 11.493224
54.285 11.303072
54.290 11.274671
54.295 11.548068
54.300 12.019428
54.305 12.130745
54.310 12.624289
54.315 12.091765
54.320 11.837004
54.325 11.402122
54.330 11.127666
54.335 11.01166
54.340 10.983349
54.345 11.23169
54.350 12.348783
54.355 12.679035
54.360 12.930264
54.365 13.148194
54.370 12.969218
54.375 12.966895
54.380 12.398386
54.385 11.311941
54.390 10.974944
54.395 10.908806
54.400 10.903956
54.405 11.130059
54.410 11.196497
54.415 11.495479
54.420 12.081826
54.425 12.264963
54.430 12.393323
54.435 12.527053
54.440 12.817298
54.445 13.004561
54.450 13.156749
54.455 13.330171
54.460 13.694508
54.465 13.378798
54.470 12.82229
54.475 12.136341
54.480 12.329389
54.485 12.175294
54.490 11.736579
54.495 11.186455
54.500 11.293987
54.505 11.534985
54.510 11.399472
54.515 11.318557
54.520 11.241577
54.525 11.490705
54.530 11.785341
54.535 12.178335
54.540 12.858309
54.545 12.907207
54.550 12.195719
54.555 12.338367
54.560 12.651993
54.565 12.559184
54.570 12.030936
54.575 11.897113
54.580 12.073541
54.585 12.833097
54.590 12.299337
54.595 11.885378
54.600 11.716288
54.605 12.231219
54.610 12.081514
54.615 11.923382
54.620 11.687939
54.625 11.741316
54.630 11.914109
54.635 11.926658
54.640 11.204443
54.645 10.796458
54.650 10.850765
54.655 11.230415
54.660 11.254345
54.665 10.897864
54.670 11.177954
54.675 11.717911
54.680 11.91645
54.685 12.087025
54.690 12.073358
54.695 12.660045
54.700 13.281917
54.705 13.37018
54.710 13.369692
54.715 13.699507
54.720 13.272168
54.725 12.97342
54.730 12.522653
54.735 12.184327
54.740 12.313352
54.745 11.823748
54.750 11.010751
54.755 10.974852
54.760 10.815683
54.765 10.766434
54.770 10.797668
54.775 10.578157
54.780 11.281114
54.785 11.972548
54.790 12.646412
54.795 13.459146
54.800 13.588889
54.805 13.769998
54.810 13.600246
54.815 13.395839
54.820 13.338885
54.825 12.776432
54.830 12.165741
54.835 11.868527
54.840 11.923503
54.845 12.173673
54.850 12.675655
54.855 12.539074
54.860 12.579194
54.865 12.469789
54.870 12.385058
54.875 12.340926
54.880 12.449368
54.885 11.837384
54.890 11.478655
54.895 11.814189
54.900 12.382634
54.905 12.31783
54.910 11.969949
54.915 12.182291
54.920 12.337389
54.925 12.278004
54.930 12.220247
54.935 12.663254
54.940 13.096757
54.945 13.451114
54.950 13.53484
54.955 13.874297
54.960 13.842924
54.965 13.755918
54.970 13.379818
54.975 13.190235
54.980 12.890971
54.985 12.618094
54.990 12.70627
54.995 12.55855
55.000 12.338297
55.005 12.32459
55.010 12.35679
55.015 12.623602
55.020 12.846334
55.025 12.966268
55.030 12.692023
55.035 12.748906
55.040 12.470132
55.045 12.141063
55.050 11.4136
55.055 11.630258
55.060 12.215178
55.065 12.887732
55.070 12.768618
55.075 12.869773
55.080 13.00011
55.085 12.96677
55.090 12.669991
55.095 12.580767
55.100 12.412115
55.105 12.18799
55.110 11.920395
55.115 11.936982
55.120 12.06902
55.125 11.755332
55.130 11.405544
55.135 11.313909
55.140 11.819091
55.145 12.374208
55.150 12.441857
55.155 12.68264
55.160 12.672379
55.165 12.301869
55.170 12.302391
55.175 12.34967
55.180 12.004506
55.185 12.135431
55.190 12.112633
55.195 11.964894
55.200 12.185059
55.205 12.153182
55.210 11.597929
55.215 11.809938
55.220 11.869793
55.225 11.851862
55.230 11.982471
55.235 12.157673
55.240 12.342478
55.245 12.680705
55.250 12.293528
55.255 12.254263
55.260 12.227522
55.265 12.215532
55.270 12.133996
55.275 11.779358
55.280 11.86192
55.285 11.76679
55.290 11.769887
55.295 11.538887
55.300 11.570354
55.305 11.594549
55.310 11.941156
55.315 12.015889
55.320 11.979181
55.325 11.64857
55.330 12.049477
55.335 11.919323
55.340 11.608983
55.345 11.77048
55.350 12.162131
55.355 12.688253
55.360 13.462055
55.365 13.120377
55.370 13.188122
55.375 13.017046
55.380 12.786338
55.385 12.300242
55.390 11.800264
55.395 11.648317
55.400 11.876068
55.405 12.155204
55.410 12.462153
55.415 12.08936
55.420 12.643217
55.425 12.501143
55.430 12.621325
55.435 12.889074
55.440 12.958656
55.445 13.489146
55.450 13.90416
55.455 13.721324
55.460 13.819865
55.465 14.036371
55.470 13.995859
55.475 14.012115
55.480 13.721993
55.485 13.660268
55.490 13.742881
55.495 13.606096
55.500 13.386662
55.505 13.424516
55.510 13.414233
55.515 13.787638
55.520 13.906237
55.525 14.013631
55.530 13.833432
55.535 13.515553
55.540 13.331907
55.545 13.488456
55.550 13.203561
55.555 13.078428
55.560 13.167646
55.565 13.755459
55.570 14.055626
55.575 13.887783
55.580 13.504928
55.585 13.586816
55.590 13.839127
55.595 13.890048
55.600 13.713847
55.605 13.732011
55.610 13.843716
55.615 13.645037
55.620 13.392137
55.625 13.31307
55.630 13.645018
55.635 13.562107
55.640 13.400761
55.645 13.515388
55.650 13.606882
55.655 13.557323
55.660 12.890203
55.665 13.050601
55.670 12.807469
55.675 12.682816
55.680 12.557677
55.685 12.604733
55.690 13.090041
55.695 13.721181
55.700 13.365339
55.705 13.710131
55.710 13.402047
55.715 13.576942
55.720 13.149979
55.725 12.634631
55.730 12.583238
55.735 13.016028
55.740 12.891984
55.745 12.928876
55.750 13.164108
55.755 13.222125
55.760 13.441167
55.765 13.170224
55.770 12.777591
55.775 13.226573
55.780 13.487913
55.785 13.232191
55.790 12.795417
55.795 12.734721
55.800 12.786333
55.805 12.650594
55.810 12.10938
55.815 12.175511
55.820 12.955648
55.825 13.440355
55.830 13.456062
55.835 13.723643
55.840 14.089192
55.845 14.133287
55.850 14.340407
55.855 13.866844
55.860 13.813835
55.865 13.604131
55.870 13.041026
55.875 12.85098
55.880 13.22661
55.885 12.974402
55.890 12.854255
55.895 12.745643
55.900 12.791132
55.905 13.141762
55.910 13.254297
55.915 12.670868
55.920 12.46281
55.925 12.243502
55.930 12.46931
55.935 12.788064
55.940 12.575497
55.945 13.019253
55.950 13.388741
55.955 13.458126
55.960 14.172722
55.965 13.853278
55.970 13.302532
55.975 13.198587
55.980 12.986292
55.985 12.957707
55.990 12.689686
55.995 12.617618
56.000 12.538935
56.005 12.573714
56.010 12.686106
56.015 12.639753
56.020 12.86919
56.025 12.980016
56.030 13.260238
56.035 13.610445
56.040 14.016621
56.045 13.981153
56.050 14.01497
56.055 13.914914
56.060 13.549811
56.065 13.326823
56.070 13.419693
56.075 13.466792
56.080 13.353479
56.085 13.295797
56.090 13.215591
56.095 13.264298
56.100 13.010933
56.105 12.788431
56.110 12.699151
56.115 12.486867
56.120 12.752499
56.125 13.180772
56.130 13.173453
56.135 12.612334
56.140 12.674798
56.145 12.859416
56.150 13.092193
56.155 12.823341
56.160 12.807448
56.165 13.423353
56.170 14.128613
56.175 14.319261
56.180 14.073524
56.185 13.830668
56.190 13.831943
56.195 13.317442
56.200 12.928328
56.205 12.377151
56.210 12.330997
56.215 12.581331
56.220 12.970447
56.225 13.42913
56.230 13.560671
56.235 13.877156
56.240 13.912663
56.245 13.926925
56.250 13.858385
56.255 13.767352
56.260 13.647874
56.265 13.411522
56.270 12.993048
56.275 12.874894
56.280 12.591488
56.285 12.510031
56.290 12.286062
56.295 12.567839
56.300 13.088012
56.305 13.846447
56.310 13.859431
56.315 14.003902
56.320 14.123916
56.325 14.366487
56.330 14.787942
56.335 14.981767
56.340 14.727478
56.345 14.849743
56.350 14.855178
56.355 14.643056
56.360 14.355569
56.365 13.816207
56.370 13.279013
56.375 13.255953
56.380 13.053063
56.385 13.036473
56.390 13.351994
56.395 13.33813
56.400 13.304756
56.405 13.742563
56.410 13.760153
56.415 13.925089
56.420 13.903782
56.425 13.754746
56.430 13.978354
56.435 14.302982
56.440 13.967012
56.445 14.017897
56.450 14.310197
56.455 14.776827
56.460 14.447536
56.465 14.248007
56.470 14.381961
56.475 14.801557
56.480 14.841464
56.485 14.852811
56.490 14.779789
56.495 14.852826
56.500 14.609315
56.505 14.096269
56.510 13.952444
56.515 14.20431
56.520 14.503402
56.525 14.615259
56.530 14.342842
56.535 14.25814
56.540 14.737503
56.545 14.436976
56.550 14.046607
56.555 13.783493
56.560 13.882104
56.565 13.927919
56.570 13.935091
56.575 13.407694
56.580 13.97681
56.585 13.556005
56.590 13.23672
56.595 13.587049
56.600 13.948401
56.605 14.22416
56.610 14.626618
56.615 14.490245
56.620 14.799786
56.625 14.934173
56.630 14.513894
56.635 14.260847
56.640 13.860341
56.645 13.177792
56.650 13.066231
56.655 13.519419
56.660 13.364818
56.665 13.073635
56.670 13.350625
56.675 13.880699
56.680 14.633496
56.685 14.575531
56.690 14.394841
56.695 14.553362
56.700 15.184676
56.705 15.053197
56.710 14.840538
56.715 14.628049
56.720 14.24546
56.725 13.827796
56.730 13.827642
56.735 13.303364
56.740 12.88317
56.745 12.674554
56.750 13.128889
56.755 13.65661
56.760 13.963061
56.765 14.605813
56.770 14.70466
56.775 15.112395
56.780 15.048233
56.785 14.735075
56.790 14.351983
56.795 14.137332
56.800 13.170214
56.805 13.250976
56.810 13.398965
56.815 13.74623
56.820 13.811601
56.825 14.147279
56.830 14.604954
56.835 14.825148
56.840 14.856943
56.845 14.154646
56.850 14.133459
56.855 14.140207
56.860 13.857341
56.865 13.853475
56.870 14.101033
56.875 13.644705
56.880 13.778165
56.885 13.745093
56.890 14.005836
56.895 13.660061
56.900 13.418937
56.905 13.34542
56.910 13.597089
56.915 13.769586
56.920 13.803924
56.925 14.234516
56.930 14.657612
56.935 15.184675
56.940 15.013954
56.945 15.08964
56.950 14.81047
56.955 14.44001
56.960 14.171307
56.965 13.881672
56.970 14.179371
56.975 14.981075
56.980 14.99328
56.985 15.123229
56.990 15.248588
56.995 15.253815
57.000 15.092356
57.005 14.325274
57.010 14.165483
57.015 14.700773
57.020 14.8974
57.025 14.553842
57.030 14.117431
57.035 14.384816
57.040 14.695477
57.045 14.93625
57.050 14.596251
57.055 14.181052
57.060 14.767304
57.065 15.083871
57.070 14.437757
57.075 14.280721
57.080 13.676714
57.085 13.75817
57.090 13.695073
57.095 13.559
57.100 13.535096
57.105 13.873326
57.110 14.060897
57.115 13.799391
57.120 13.424772
57.125 13.582601
57.130 14.173701
57.135 14.238471
57.140 14.435899
57.145 14.139202
57.150 14.469465
57.155 14.947573
57.160 14.561836
57.165 13.883782
57.170 14.433149
57.175 14.312193
57.180 14.54523
57.185 14.472263
57.190 14.526379
57.195 15.115146
57.200 14.912594
57.205 14.812401
57.210 15.139483
57.215 15.422543
57.220 15.508162
57.225 14.882438
57.230 14.774774
57.235 14.819407
57.240 14.607911
57.245 14.837881
57.250 14.345051
57.255 14.215844
57.260 14.905322
57.265 15.53723
57.270 15.9188
57.275 15.634854
57.280 14.630664
57.285 14.557876
57.290 14.528106
57.295 13.859774
57.300 13.556007
57.305 13.435882
57.310 13.665281
57.315 14.559209
57.320 15.171889
57.325 16.008261
57.330 16.856508
57.335 16.437677
57.340 16.15897
57.345 16.108522
57.350 16.390724
57.355 15.78114
57.360 15.066253
57.365 14.73232
57.370 14.72903
57.375 14.993328
57.380 14.888522
57.385 14.727486
57.390 15.396728
57.395 15.189022
57.400 14.828753
57.405 14.710767
57.410 14.329196
57.415 14.281837
57.420 14.599243
57.425 14.607246
57.430 14.784007
57.435 15.127315
57.440 15.749727
57.445 16.299173
57.450 16.959707
57.455 17.124323
57.460 17.853527
57.465 17.926674
57.470 17.601963
57.475 17.143854
57.480 16.986244
57.485 16.346308
57.490 15.386352
57.495 14.694765
57.500 14.830003
57.505 15.037667
57.510 15.697092
57.515 16.092075
57.520 16.15839
57.525 16.59024
57.530 17.186903
57.535 17.29945
57.540 17.197166
57.545 16.629812
57.550 15.982768
57.555 15.957506
57.560 15.820178
57.565 15.485461
57.570 15.179027
57.575 15.561939
57.580 15.782342
57.585 16.519596
57.590 16.92296
57.595 16.572485
57.600 17.090481
57.605 17.421036
57.610 17.110193
57.615 16.961058
57.620 16.696241
57.625 16.330544
57.630 16.438881
57.635 15.773316
57.640 15.56904
57.645 15.949058
57.650 15.845582
57.655 15.526055
57.660 15.015191
57.665 15.21575
57.670 15.734783
57.675 15.744276
57.680 15.874111
57.685 16.511627
57.690 16.97447
57.695 18.230034
57.700 18.440113
57.705 18.071705
57.710 18.022835
57.715 17.726789
57.720 17.483067
57.725 17.235826
57.730 16.984186
57.735 16.953974
57.740 17.545807
57.745 17.372374
57.750 17.712158
57.755 17.744564
57.760 17.791006
57.765 17.329235
57.770 17.044851
57.775 16.956772
57.780 17.25518
57.785 16.857119
57.790 16.694845
57.795 16.929291
57.800 16.821814
57.805 16.876293
57.810 17.101185
57.815 16.960241
57.820 16.881901
57.825 16.730293
57.830 16.782871
57.835 17.183071
57.840 16.625097
57.845 16.657602
57.850 17.518866
57.855 17.634207
57.860 17.905127
57.865 18.094486
57.870 18.590145
57.875 19.57295
57.880 18.928282
57.885 18.121983
57.890 18.219093
57.895 18.12018
57.900 17.577139
57.905 16.91378
57.910 17.149281
57.915 17.74651
57.920 18.176756
57.925 18.023815
57.930 18.189554
57.935 18.264637
57.940 18.02186
57.945 17.143465
57.950 17.010204
57.955 16.907042
57.960 16.710075
57.965 16.809002
57.970 17.30106
57.975 17.801466
57.980 17.843721
57.985 17.862844
57.990 18.033211
57.995 18.748919
58.000 18.227253
58.005 17.633955
58.010 17.272011
58.015 17.215033
58.020 16.831995
58.025 16.88438
58.030 17.009033
58.035 17.386005
58.040 18.427931
58.045 18.326084
58.050 18.532925
58.055 18.863865
58.060 18.436056
58.065 18.139486
58.070 17.916822
58.075 17.295441
58.080 17.970543
58.085 17.58008
58.090 17.41457
58.095 17.445278
58.100 17.902933
58.105 18.669151
58.110 19.025705
58.115 19.357664
58.120 19.483206
58.125 19.781914
58.130 19.857246
58.135 19.059116
58.140 18.284111
58.145 17.904593
58.150 17.193747
58.155 17.616615
58.160 17.213255
58.165 17.261578
58.170 17.932497
58.175 18.427654
58.180 18.333282
58.185 18.231518
58.190 18.269432
58.195 18.585604
58.200 19.425621
58.205 19.844208
58.210 19.788548
58.215 20.086859
58.220 20.363701
58.225 20.062101
58.230 20.521542
58.235 19.626532
58.240 19.465767
58.245 19.742613
58.250 20.04126
58.255 20.729628
58.260 21.080587
58.265 20.763958
58.270 21.041401
58.275 21.202795
58.280 21.364607
58.285 21.753275
58.290 21.325745
58.295 21.103662
58.300 21.866396
58.305 22.337681
58.310 22.111929
58.315 21.815212
58.320 21.867949
58.325 23.037138
58.330 23.859816
58.335 23.996414
58.340 23.564056
58.345 24.088301
58.350 24.995808
58.355 25.015715
58.360 25.220936
58.365 25.153622
58.370 25.260912
58.375 26.499407
58.380 26.515446
58.385 26.521568
58.390 26.50729
58.395 26.339453
58.400 26.148876
58.405 26.337
58.410 26.361532
58.415 26.542818
58.420 26.75844
58.425 26.637384
58.430 26.915482
58.435 27.425316
58.440 27.105755
58.445 27.102108
58.450 28.097685
58.455 28.912605
58.460 29.691641
58.465 30.312689
58.470 30.857708
58.475 31.284678
58.480 31.520266
58.485 30.81362
58.490 30.961264
58.495 31.089775
58.500 30.790913
58.505 30.47562
58.510 30.321396
58.515 29.805571
58.520 29.810614
58.525 30.150921
58.530 29.498154
58.535 29.906942
58.540 30.562214
58.545 30.270506
58.550 31.526445
58.555 32.069012
58.560 32.487835
58.565 33.349445
58.570 33.135201
58.575 32.879467
58.580 33.062595
58.585 32.190601
58.590 31.483816
58.595 30.468796
58.600 29.828705
58.605 29.475227
58.610 28.987787
58.615 29.448851
58.620 30.130028
58.625 30.789911
58.630 31.383654
58.635 32.140099
58.640 32.716846
58.645 32.852856
58.650 32.0783
58.655 31.96986
58.660 32.417332
58.665 32.509651
58.670 31.940807
58.675 31.493319
58.680 31.503925
58.685 31.258249
58.690 30.805946
58.695 30.833128
58.700 29.879049
58.705 29.5385
58.710 29.136927
58.715 28.793526
58.720 28.716368
58.725 28.252676
58.730 27.728083
58.735 27.857597
58.740 27.822287
58.745 28.195839
58.750 28.397024
58.755 28.299553
58.760 27.690475
58.765 26.87344
58.770 26.58839
58.775 26.230354
58.780 26.047247
58.785 25.611189
58.790 25.311314
58.795 25.169685
58.800 24.76079
58.805 25.059141
58.810 24.42037
58.815 24.56373
58.820 24.298414
58.825 24.945223
58.830 25.389675
58.835 25.586552
58.840 24.939457
58.845 24.562641
58.850 23.444109
58.855 23.346014
58.860 22.422083
58.865 21.311388
58.870 20.884579
58.875 21.224318
58.880 21.469986
58.885 21.808916
58.890 21.615763
58.895 21.253923
58.900 21.362764
58.905 21.28966
58.910 21.220011
58.915 20.791801
58.920 20.750256
58.925 20.396378
58.930 20.77368
58.935 21.193396
58.940 21.111784
58.945 20.962412
58.950 20.684004
58.955 19.863146
58.960 20.078381
58.965 19.866369
58.970 19.648603
58.975 19.526394
58.980 19.250523
58.985 19.193541
58.990 19.551151
58.995 19.38686
59.000 19.175377
59.005 18.950169
59.010 18.689699
59.015 19.203163
59.020 19.289812
59.025 19.370665
59.030 19.438292
59.035 19.765305
59.040 19.994022
59.045 19.521795
59.050 18.999649
59.055 19.028204
59.060 19.459967
59.065 19.642593
59.070 19.492704
59.075 19.84123
59.080 20.374886
59.085 20.71809
59.090 21.050011
59.095 20.154316
59.100 20.315222
59.105 19.92766
59.110 18.94092
59.115 18.783602
59.120 18.450558
59.125 18.319735
59.130 18.116592
59.135 18.067162
59.140 18.531359
59.145 19.312138
59.150 19.639078
59.155 19.865858
59.160 20.611685
59.165 21.29892
59.170 20.900738
59.175 20.371124
59.180 20.242355
59.185 19.883852
59.190 19.14913
59.195 18.306063
59.200 18.067625
59.205 18.025711
59.210 18.238968
59.215 17.492083
59.220 17.629654
59.225 18.214687
59.230 19.033337
59.235 19.325447
59.240 19.725914
59.245 19.856001
59.250 19.840471
59.255 19.520369
59.260 19.471748
59.265 18.895889
59.270 18.480848
59.275 18.107821
59.280 17.751905
59.285 17.702251
59.290 17.626991
59.295 17.344873
59.300 17.445513
59.305 17.252029
59.310 16.92543
59.315 16.538328
59.320 16.949875
59.325 17.011873
59.330 16.742573
59.335 16.419596
59.340 16.53388
59.345 16.879202
59.350 17.220646
59.355 16.96069
59.360 17.097391
59.365 16.854074
59.370 16.821541
59.375 16.70849
59.380 16.170691
59.385 15.639231
59.390 15.843453
59.395 16.106846
59.400 16.699762
59.405 17.054863
59.410 17.590946
59.415 18.626007
59.420 19.437054
59.425 19.8661
59.430 20.050171
59.435 19.966753
59.440 19.812754
59.445 19.24795
59.450 19.047369
59.455 18.481857
59.460 18.203766
59.465 17.769464
59.470 17.633791
59.475 18.060326
59.480 18.076397
59.485 18.116882
59.490 18.450481
59.495 18.564264
59.500 18.64996
59.505 18.125298
59.510 17.431683
59.515 17.698473
59.520 17.749334
59.525 16.756767
59.530 16.046234
59.535 16.348495
59.540 16.872709
59.545 16.83227
59.550 16.321457
59.555 16.42362
59.560 17.348661
59.565 17.709131
59.570 17.894596
59.575 17.979826
59.580 18.22508
59.585 18.026766
59.590 17.694828
59.595 17.36702
59.600 17.246107
59.605 17.319347
59.610 17.224758
59.615 17.142349
59.620 17.317041
59.625 17.709124
59.630 18.003332
59.635 17.680054
59.640 17.294859
59.645 17.088783
59.650 17.292885
59.655 17.235916
59.660 16.874298
59.665 16.909664
59.670 16.606941
59.675 16.673227
59.680 16.795568
59.685 16.489063
59.690 16.850454
59.695 17.008648
59.700 17.375637
59.705 17.69133
59.710 17.369284
59.715 17.138563
59.720 17.709417
59.725 17.251461
59.730 16.844454
59.735 17.216379
59.740 17.250776
59.745 17.581238
59.750 17.588198
59.755 17.435146
59.760 17.548809
59.765 18.028845
59.770 17.432133
59.775 18.160717
59.780 18.415752
59.785 18.549534
59.790 18.848291
59.795 19.108318
59.800 18.699764
59.805 18.606735
59.810 17.911116
59.815 17.798386
59.820 17.809452
59.825 17.800684
59.830 17.793779
59.835 18.181198
59.840 17.458822
59.845 17.400627
59.850 16.716351
59.855 16.212717
59.860 15.411823
59.865 15.394152
59.870 15.123256
59.875 15.068504
59.880 14.824246
59.885 14.751707
59.890 15.250993
59.895 15.761811
59.900 15.818024
59.905 16.308771
59.910 16.34803
59.915 16.290537
59.920 16.431902
59.925 16.03199
59.930 15.7068
59.935 15.602643
59.940 15.431354
59.945 16.017349
59.950 16.698441
59.955 16.268726
59.960 15.74768
59.965 15.666536
59.970 15.162497
59.975 15.258676
59.980 14.945059
59.985 14.512988
59.990 15.391878
59.995 16.504868
60.000 17.286377
60.005 18.036003
60.010 18.359852
60.015 18.818016
60.020 19.376968
60.025 19.24206
60.030 18.561827
60.035 18.082788
60.040 17.601456
60.045 17.283552
60.050 17.374525
60.055 17.095699
60.060 17.350796
60.065 17.683756
60.070 17.720551
60.075 17.848154
60.080 17.736067
60.085 17.530153
60.090 16.81703
60.095 16.220049
60.100 16.000019
60.105 15.919242
60.110 15.703816
60.115 15.108747
60.120 14.885398
60.125 15.032235
60.130 15.024111
60.135 15.206972
60.140 15.270928
60.145 15.649252
60.150 16.322193
60.155 16.808073
60.160 16.686781
60.165 17.204014
60.170 17.381611
60.175 17.36039
60.180 17.347164
60.185 17.376919
60.190 17.356186
60.195 17.777521
60.200 17.795759
60.205 17.428518
60.210 17.332764
60.215 17.699448
60.220 17.856047
60.225 17.263622
60.230 16.951954
60.235 15.836393
60.240 15.574582
60.245 15.377738
60.250 14.634812
60.255 14.605387
60.260 15.176004
60.265 15.422203
60.270 16.142838
60.275 16.451233
60.280 16.862665
60.285 17.066511
60.290 17.297056
60.295 16.839243
60.300 17.138159
60.305 17.137901
60.310 17.183054
60.315 17.41116
60.320 17.234751
60.325 17.069422
60.330 16.883413
60.335 16.601488
60.340 16.293453
60.345 16.031742
60.350 15.705635
60.355 15.642258
60.360 15.088322
60.365 14.871597
60.370 14.524125
60.375 14.60875
60.380 15.123288
60.385 15.382788
60.390 15.322937
60.395 15.630983
60.400 16.51951
60.405 16.96797
60.410 16.942812
60.415 16.696938
60.420 16.546701
60.425 16.636608
60.430 17.118814
60.435 16.748272
60.440 16.964733
60.445 17.336239
60.450 17.479919
60.455 17.434412
60.460 17.574684
60.465 17.431509
60.470 17.92207
60.475 18.32184
60.480 18.245863
60.485 17.745558
60.490 17.679724
60.495 17.339935
60.500 16.796885
60.505 16.477253
60.510 15.702783
60.515 15.505346
60.520 15.157877
60.525 14.800619
60.530 14.876891
60.535 15.218545
60.540 15.22757
60.545 15.727211
60.550 15.879327
60.555 16.505392
60.560 16.503468
60.565 16.787155
60.570 16.198671
60.575 15.411787
60.580 14.978266
60.585 14.937431
60.590 15.128244
60.595 15.843363
60.600 15.75165
60.605 16.379789
60.610 16.74684
60.615 17.312868
60.620 17.407974
60.625 17.170113
60.630 17.162693
60.635 17.536867
60.640 17.540945
60.645 17.671019
60.650 17.586433
60.655 17.374931
60.660 17.272379
60.665 16.759987
60.670 16.655048
60.675 16.94113
60.680 17.052206
60.685 16.401646
60.690 16.454639
60.695 16.772472
60.700 16.46242
60.705 16.72736
60.710 16.305298
60.715 16.056374
60.720 16.466518
60.725 16.172846
60.730 16.106785
60.735 16.548807
60.740 16.298862
60.745 16.556936
60.750 16.630642
60.755 16.628809
60.760 17.410395
60.765 17.808149
60.770 17.574648
60.775 17.162445
60.780 17.070494
60.785 16.975529
60.790 16.643391
60.795 15.7347
60.800 15.306021
60.805 15.684716
60.810 15.96546
60.815 16.046143
60.820 16.414909
60.825 17.050255
60.830 17.811028
60.835 17.306517
60.840 17.129438
60.845 17.498953
60.850 17.907175
60.855 17.937544
60.860 17.751898
60.865 17.758738
60.870 18.120928
60.875 18.721289
60.880 18.777649
60.885 18.256468
60.890 17.56896
60.895 17.001013
60.900 16.760992
60.905 16.468788
60.910 15.786404
60.915 15.211512
60.920 15.260618
60.925 15.807159
60.930 15.944029
60.935 16.371908
60.940 16.222893
60.945 16.477654
60.950 16.799402
60.955 16.841049
60.960 16.621532
60.965 16.510742
60.970 16.44268
60.975 16.492769
60.980 16.670622
60.985 16.420406
60.990 16.252645
60.995 15.988976
61.000 16.018024
61.005 15.917178
61.010 15.610206
61.015 15.264452
61.020 15.487647
61.025 15.095314
61.030 15.825842
61.035 15.314027
61.040 14.530357
61.045 14.33193
61.050 14.147955
61.055 14.039561
61.060 14.369152
61.065 13.934268
61.070 14.21397
61.075 15.000896
61.080 15.631866
61.085 15.632268
61.090 15.501855
61.095 15.249084
61.100 15.37811
61.105 15.842203
61.110 15.956661
61.115 16.11977
61.120 16.318054
61.125 17.234217
61.130 17.456381
61.135 17.545889
61.140 16.983072
61.145 16.931238
61.150 16.639709
61.155 16.858679
61.160 16.32653
61.165 16.144127
61.170 15.809904
61.175 15.670308
61.180 15.192769
61.185 14.88567
61.190 14.571918
61.195 14.871003
61.200 15.019192
61.205 15.652781
61.210 16.165981
61.215 16.746401
61.220 17.499945
61.225 17.749363
61.230 18.352747
61.235 18.775856
61.240 18.600954
61.245 18.418407
61.250 18.586103
61.255 18.570427
61.260 18.425018
61.265 17.837608
61.270 18.433363
61.275 18.576405
61.280 18.751678
61.285 18.296158
61.290 17.73954
61.295 17.718285
61.300 17.623528
61.305 16.542042
61.310 16.505257
61.315 16.323006
61.320 16.218069
61.325 16.724657
61.330 16.924192
61.335 16.725624
61.340 17.040039
61.345 17.375296
61.350 17.913157
61.355 17.935331
61.360 17.403297
61.365 17.18782
61.370 16.965733
61.375 16.438341
61.380 15.829555
61.385 15.606733
61.390 15.83596
61.395 15.812788
61.400 15.839602
61.405 17.294256
61.410 17.605446
61.415 17.525133
61.420 17.614302
61.425 17.670483
61.430 17.39716
61.435 17.106037
61.440 15.850518
61.445 15.991462
61.450 16.547312
61.455 16.476383
61.460 16.595646
61.465 16.708923
61.470 17.071661
61.475 17.526415
61.480 17.662691
61.485 17.099821
61.490 16.841345
61.495 16.50935
61.500 16.74408
61.505 16.658272
61.510 16.370583
61.515 16.37472
61.520 16.256823
61.525 16.152706
61.530 16.31945
61.535 16.564238
61.540 16.823343
61.545 17.241751
61.550 17.473686
61.555 18.192602
61.560 18.509577
61.565 18.914343
61.570 18.89204
61.575 18.262136
61.580 17.539181
61.585 16.95067
61.590 16.43046
61.595 16.159451
61.600 15.646503
61.605 15.409956
61.610 16.120705
61.615 16.472157
61.620 16.167984
61.625 16.059584
61.630 15.640488
61.635 15.41061
61.640 16.038784
61.645 15.768196
61.650 16.050722
61.655 16.275459
61.660 16.041496
61.665 16.147053
61.670 16.068438
61.675 15.75025
61.680 15.653386
61.685 15.678295
61.690 16.091948
61.695 16.897558
61.700 17.789434
61.705 18.449881
61.710 18.131517
61.715 18.127329
61.720 18.262762
61.725 17.770508
61.730 17.190102
61.735 16.391775
61.740 15.737634
61.745 15.932631
61.750 16.183464
61.755 15.929862
61.760 16.069386
61.765 16.514347
61.770 16.807503
61.775 17.106833
61.780 16.920044
61.785 16.339849
61.790 16.591738
61.795 16.933167
61.800 17.038485
61.805 17.485945
61.810 17.462006
61.815 17.699816
61.820 17.488604
61.825 17.173454
61.830 17.351089
61.835 17.218927
61.840 16.69101
61.845 16.532652
61.850 16.651537
61.855 17.123699
61.860 17.709085
61.865 18.358973
61.870 18.265848
61.875 18.269962
61.880 18.562735
61.885 18.436369
61.890 18.850813
61.895 18.91445
61.900 18.82114
61.905 19.1262
61.910 19.668369
61.915 19.626331
61.920 19.659382
61.925 18.902863
61.930 18.397087
61.935 17.563454
61.940 17.519073
61.945 17.35664
61.950 17.928711
61.955 17.503056
61.960 18.110653
61.965 18.537872
61.970 18.882946
61.975 18.970726
61.980 18.705793
61.985 18.642424
61.990 19.026789
61.995 17.993513
62.000 17.040052
62.005 16.867393
62.010 16.808813
62.015 16.900198
62.020 16.168669
62.025 15.689645
62.030 16.330647
62.035 16.776627
62.040 16.121973
62.045 16.424034
62.050 16.373268
62.055 16.868639
62.060 16.877209
62.065 16.920967
62.070 17.017403
62.075 17.493464
62.080 17.443705
62.085 17.580215
62.090 18.085695
62.095 18.489937
62.100 18.380259
62.105 18.344204
62.110 17.935266
62.115 17.583546
62.120 17.291029
62.125 16.601904
62.130 16.890356
62.135 17.675493
62.140 17.923241
62.145 18.026827
62.150 17.381664
62.155 17.009201
62.160 17.223307
62.165 16.953846
62.170 16.427967
62.175 16.224154
62.180 16.476772
62.185 17.35446
62.190 18.15155
62.195 18.372782
62.200 18.209347
62.205 18.002283
62.210 18.126324
62.215 17.989885
62.220 17.620281
62.225 17.428831
62.230 17.050873
62.235 16.829729
62.240 16.510481
62.245 16.366308
62.250 16.495579
62.255 16.52655
62.260 16.038235
62.265 15.829209
62.270 15.726899
62.275 16.038832
62.280 16.35515
62.285 16.516115
62.290 17.265997
62.295 17.899502
62.300 18.226748
62.305 18.556931
62.310 18.214828
62.315 18.334072
62.320 17.90213
62.325 17.553007
62.330 17.529232
62.335 17.30942
62.340 17.093634
62.345 16.974527
62.350 16.337542
62.355 16.521749
62.360 16.273863
62.365 16.146944
62.370 16.522675
62.375 16.756557
62.380 16.72757
62.385 16.79142
62.390 17.026077
62.395 17.464216
62.400 17.314915
62.405 17.216721
62.410 17.776339
62.415 18.699642
62.420 18.958178
62.425 18.587
62.430 18.198162
62.435 18.052031
62.440 17.851578
62.445 17.542803
62.450 16.797707
62.455 16.881681
62.460 17.11367
62.465 17.512293
62.470 18.327799
62.475 18.484686
62.480 18.748373
62.485 19.048477
62.490 19.06489
62.495 18.953079
62.500 18.805058
62.505 18.261757
62.510 18.201134
62.515 18.39942
62.520 18.532169
62.525 18.265928
62.530 17.942732
62.535 17.610996
62.540 17.889992
62.545 17.927546
62.550 17.41394
62.555 17.800194
62.560 17.554417
62.565 17.68033
62.570 17.341349
62.575 16.71356
62.580 16.605631
62.585 16.71763
62.590 16.152739
62.595 16.772001
62.600 17.353144
62.605 17.904577
62.610 18.488859
62.615 18.148863
62.620 17.660187
62.625 18.251392
62.630 17.699678
62.635 16.634657
62.640 16.099117
62.645 15.331569
62.650 15.430926
62.655 15.051908
62.660 14.498614
62.665 14.850933
62.670 15.356167
62.675 15.841065
62.680 16.895262
62.685 17.013634
62.690 17.652637
62.695 18.380571
62.700 18.271877
62.705 17.823019
62.710 17.513056
62.715 17.038488
62.720 17.095976
62.725 16.868347
62.730 16.283722
62.735 16.478287
62.740 16.695473
62.745 16.998955
62.750 17.407009
62.755 17.446686
62.760 17.73794
62.765 17.599474
62.770 17.330633
62.775 17.05163
62.780 16.731522
62.785 16.400433
62.790 16.123846
62.795 16.31019
62.800 16.44536
62.805 16.571938
62.810 16.637814
62.815 16.614027
62.820 16.594137
62.825 17.145729
62.830 16.991594
62.835 17.586695
62.840 17.947092
62.845 18.904987
62.850 19.591274
62.855 19.560936
62.860 19.327789
62.865 19.056965
62.870 18.263582
62.875 17.937698
62.880 17.426519
62.885 16.987673
62.890 17.177044
62.895 17.075159
62.900 17.344172
62.905 17.892483
62.910 17.529415
62.915 17.257593
62.920 17.284538
62.925 17.20933
62.930 17.312237
62.935 17.320103
62.940 17.174212
62.945 17.472008
62.950 17.549967
62.955 17.062853
62.960 17.038824
62.965 16.652714
62.970 16.877462
62.975 17.408886
62.980 18.280075
62.985 18.636806
62.990 19.302544
62.995 19.453402
63.000 19.926374
63.005 19.63928
63.010 19.550539
63.015 18.9958
63.020 18.423899
63.025 17.880049
63.030 16.876453
63.035 17.072527
63.040 17.810633
63.045 17.575768
63.050 17.585203
63.055 18.128567
63.060 18.730665
63.065 19.094749
63.070 18.847198
63.075 18.294327
63.080 18.167664
63.085 18.149397
63.090 18.264233
63.095 18.78157
63.100 19.068672
63.105 19.178959
63.110 19.171629
63.115 19.268944
63.120 19.147755
63.125 19.081402
63.130 19.079372
63.135 19.075535
63.140 19.16329
63.145 19.365194
63.150 19.494499
63.155 19.408661
63.160 18.712969
63.165 18.312893
63.170 18.338562
63.175 18.827579
63.180 19.411398
63.185 19.460691
63.190 19.143305
63.195 19.584093
63.200 19.846025
63.205 19.659098
63.210 19.284708
63.215 18.296539
63.220 17.858734
63.225 18.20001
63.230 18.256472
63.235 18.020988
63.240 18.179733
63.245 17.153419
63.250 17.005774
63.255 17.437351
63.260 17.525093
63.265 17.499462
63.270 17.343987
63.275 17.671637
63.280 18.212322
63.285 18.481537
63.290 18.460716
63.295 18.481573
63.300 18.158182
63.305 18.126909
63.310 18.178539
63.315 18.727886
63.320 18.959797
63.325 19.433125
63.330 19.449266
63.335 19.792566
63.340 19.660521
63.345 19.268816
63.350 19.382708
63.355 18.774544
63.360 18.152929
63.365 18.050852
63.370 17.933502
63.375 18.208654
63.380 18.457209
63.385 18.256981
63.390 19.217867
63.395 19.530399
63.400 19.881157
63.405 20.154829
63.410 20.361389
63.415 20.160334
63.420 19.646992
63.425 18.86665
63.430 18.979851
63.435 19.064676
63.440 18.853806
63.445 19.025902
63.450 19.295008
63.455 20.188963
63.460 20.130047
63.465 19.748983
63.470 19.229847
63.475 19.113344
63.480 18.668518
63.485 18.637897
63.490 17.789547
63.495 18.320211
63.500 18.719046
63.505 18.945448
63.510 19.040874
63.515 18.713409
63.520 18.229719
63.525 18.677832
63.530 18.751509
63.535 18.704903
63.540 18.659643
63.545 18.648779
63.550 19.129925
63.555 19.423496
63.560 19.410894
63.565 19.607786
63.570 19.942478
63.575 20.085421
63.580 19.891342
63.585 19.781675
63.590 19.842646
63.595 19.669651
63.600 19.192709
63.605 18.689287
63.610 19.038275
63.615 18.867607
63.620 18.672657
63.625 18.82103
63.630 18.791231
63.635 19.081915
63.640 19.190065
63.645 19.66987
63.650 20.321407
63.655 20.838184
63.660 21.047251
63.665 21.008562
63.670 20.518383
63.675 20.079727
63.680 19.372694
63.685 19.423843
63.690 19.316967
63.695 19.390932
63.700 20.091986
63.705 20.255846
63.710 20.657238
63.715 20.666327
63.720 20.613422
63.725 20.303144
63.730 19.835543
63.735 19.665472
63.740 19.718613
63.745 19.432297
63.750 19.508102
63.755 19.638384
63.760 19.654062
63.765 20.061378
63.770 20.010519
63.775 20.829081
63.780 20.342165
63.785 20.298075
63.790 20.466732
63.795 20.512159
63.800 20.861347
63.805 20.648533
63.810 20.442293
63.815 21.44861
63.820 21.887711
63.825 22.078005
63.830 21.963585
63.835 22.054111
63.840 22.838013
63.845 23.082096
63.850 22.77252
63.855 22.178549
63.860 21.735943
63.865 21.308332
63.870 20.866371
63.875 20.507257
63.880 21.320459
63.885 22.156082
63.890 23.182659
63.895 23.657444
63.900 24.79051
63.905 24.818655
63.910 25.178888
63.915 24.296946
63.920 23.812737
63.925 23.613371
63.930 23.958435
63.935 24.145658
63.940 24.849482
63.945 24.728048
63.950 25.80617
63.955 26.424824
63.960 26.503719
63.965 26.647955
63.970 26.896799
63.975 27.277525
63.980 26.944771
63.985 26.290812
63.990 26.323383
63.995 26.523558
64.000 26.65407
64.005 26.52001
64.010 26.5902
64.015 27.808455
64.020 28.375391
64.025 28.780104
64.030 29.044516
64.035 29.139984
64.040 29.044041
64.045 29.229582
64.050 29.539648
64.055 28.929506
64.060 28.860434
64.065 30.191504
64.070 31.555708
64.075 32.57777
64.080 32.609436
64.085 32.379375
64.090 33.13903
64.095 33.121502
64.100 32.276581
64.105 31.183268
64.110 30.67288
64.115 30.566002
64.120 31.237621
64.125 31.689074
64.130 32.582947
64.135 32.977734
64.140 33.569229
64.145 33.834587
64.150 34.077793
64.155 34.547672
64.160 35.035904
64.165 35.34882
64.170 36.033222
64.175 36.824642
64.180 37.647182
64.185 38.420219
64.190 38.16069
64.195 38.358265
64.200 38.345055
64.205 37.598114
64.210 37.005909
64.215 36.12355
64.220 35.432873
64.225 35.673977
64.230 35.836704
64.235 35.598354
64.240 36.819767
64.245 37.653698
64.250 38.872692
64.255 40.559578
64.260 40.357952
64.265 40.001785
64.270 40.235992
64.275 39.194839
64.280 38.77927
64.285 38.564201
64.290 37.710487
64.295 37.437412
64.300 36.919193
64.305 36.008057
64.310 35.77047
64.315 35.45919
64.320 34.949299
64.325 34.975674
64.330 35.606773
64.335 36.224834
64.340 35.832081
64.345 35.979984
64.350 36.385784
64.355 36.367519
64.360 35.911575
64.365 35.096996
64.370 35.419353
64.375 36.618084
64.380 36.872597
64.385 36.85677
64.390 36.470989
64.395 36.923061
64.400 36.99995
64.405 36.297764
64.410 35.685917
64.415 34.992496
64.420 34.968857
64.425 34.959461
64.430 34.20924
64.435 33.594635
64.440 33.787182
64.445 33.724476
64.450 33.686279
64.455 32.323128
64.460 32.275127
64.465 32.012218
64.470 32.365242
64.475 31.970444
64.480 31.70285
64.485 31.49086
64.490 32.025425
64.495 31.982838
64.500 31.869736
64.505 31.821066
64.510 31.67646
64.515 31.614111
64.520 31.158239
64.525 31.45454
64.530 31.565235
64.535 31.428156
64.540 30.866831
64.545 30.304867
64.550 30.558376
64.555 30.470669
64.560 29.90801
64.565 29.320959
64.570 28.728228
64.575 28.106331
64.580 28.066525
64.585 27.622705
64.590 27.123789
64.595 26.571207
64.600 26.330503
64.605 26.201441
64.610 25.801008
64.615 25.041943
64.620 25.135616
64.625 24.70159
64.630 24.129169
64.635 23.812052
64.640 23.228634
64.645 23.312687
64.650 23.082857
64.655 22.396572
64.660 22.497885
64.665 22.687662
64.670 23.864197
64.675 24.526438
64.680 24.777046
64.685 24.768211
64.690 24.739111
64.695 25.400076
64.700 25.676878
64.705 24.710344
64.710 24.256704
64.715 24.150158
64.720 24.68965
64.725 24.702135
64.730 24.163601
64.735 23.686556
64.740 23.688454
64.745 23.727419
64.750 23.846029
64.755 24.019121
64.760 24.527603
64.765 24.847706
64.770 25.064703
64.775 24.952568
64.780 25.030617
64.785 24.233271
64.790 23.376007
64.795 22.932354
64.800 22.667253
64.805 22.453779
64.810 22.792278
64.815 22.818897
64.820 23.273607
64.825 23.68284
64.830 23.656185
64.835 23.904448
64.840 23.959112
64.845 22.720097
64.850 22.975819
64.855 23.818594
64.860 23.668354
64.865 23.485062
64.870 23.263762
64.875 23.544222
64.880 24.112932
64.885 23.646269
64.890 22.913517
64.895 22.956406
64.900 22.772259
64.905 22.916895
64.910 23.097328
64.915 22.833157
64.920 22.780174
64.925 23.017088
64.930 23.004843
64.935 23.438215
64.940 23.09936
64.945 22.571999
64.950 22.749908
64.955 22.753183
64.960 22.857504
64.965 22.915588
64.970 23.339785
64.975 23.658924
64.980 23.986101
64.985 24.476534
64.990 25.223587
64.995 25.537903
65.000 25.908152
65.005 25.495441
65.010 25.437019
65.015 25.579563
65.020 25.316288
65.025 24.860088
65.030 24.199181
65.035 23.816603
65.040 24.014683
65.045 24.328201
65.050 24.134377
65.055 23.875435
65.060 23.678802
65.065 24.282639
65.070 24.264252
65.075 23.948477
65.080 23.732937
65.085 24.090351
65.090 23.873465
65.095 23.448896
65.100 23.621206
65.105 24.056223
65.110 24.07571
65.115 23.697474
65.120 23.564163
65.125 24.405149
65.130 25.446426
65.135 25.442839
65.140 25.505129
65.145 25.548695
65.150 26.16814
65.155 26.074686
65.160 25.804552
65.165 25.476023
65.170 25.261068
65.175 25.212692
65.180 25.345835
65.185 25.048975
65.190 25.088423
65.195 25.119057
65.200 25.564054
65.205 25.635353
65.210 25.57061
65.215 25.754665
65.220 25.946747
65.225 26.555857
65.230 26.222958
65.235 25.416327
65.240 25.758394
65.245 25.980328
65.250 26.564287
65.255 27.243509
65.260 27.232372
65.265 27.259542
65.270 27.066772
65.275 26.995306
65.280 27.249777
65.285 26.708315
65.290 26.195339
65.295 25.886414
65.300 25.818039
65.305 25.534559
65.310 25.030481
65.315 24.372744
65.320 24.222548
65.325 24.471483
65.330 24.956938
65.335 26.09968
65.340 26.690594
65.345 26.716228
65.350 27.505104
65.355 27.784294
65.360 27.744293
65.365 28.151932
65.370 28.364391
65.375 28.482792
65.380 28.720112
65.385 28.470638
65.390 28.423717
65.395 28.26189
65.400 27.703348
65.405 27.43092
65.410 27.815189
65.415 28.543867
65.420 28.590651
65.425 28.633463
65.430 28.480448
65.435 28.785908
65.440 28.355639
65.445 29.186502
65.450 29.382864
65.455 30.015303
65.460 30.54487
65.465 30.886486
65.470 30.426516
65.475 30.528288
65.480 29.562166
65.485 28.918358
65.490 29.194479
65.495 29.707649
65.500 29.444387
65.505 29.63871
65.510 30.176546
65.515 30.836306
65.520 31.011036
65.525 30.450485
65.530 30.481659
65.535 30.699118
65.540 31.009518
65.545 31.088619
65.550 31.229376
65.555 31.494579
65.560 31.308184
65.565 31.727644
65.570 32.380299
65.575 33.00845
65.580 33.948761
65.585 34.376938
65.590 34.882942
65.595 35.292595
65.600 35.231384
65.605 35.695549
65.610 35.62711
65.615 35.489201
65.620 36.329147
65.625 36.749428
65.630 36.697987
65.635 36.551723
65.640 36.681015
65.645 37.314796
65.650 37.369545
65.655 36.492626
65.660 35.868187
65.665 35.559391
65.670 34.903645
65.675 34.524052
65.680 34.744751
65.685 34.432678
65.690 34.31786
65.695 34.658096
65.700 35.82703
65.705 36.652222
65.710 36.566757
65.715 35.506714
65.720 35.650585
65.725 36.126194
65.730 35.888081
65.735 35.299793
65.740 35.092922
65.745 35.388474
65.750 35.072983
65.755 35.000385
65.760 35.275314
65.765 36.07666
65.770 36.305393
65.775 36.282486
65.780 36.381821
65.785 36.809853
65.790 36.729923
65.795 35.615517
65.800 35.453129
65.805 35.792198
65.810 36.099281
65.815 36.307896
65.820 36.710094
65.825 37.322006
65.830 37.795235
65.835 36.693943
65.840 36.175407
65.845 36.23016
65.850 35.994373
65.855 35.698475
65.860 34.801464
65.865 34.315281
65.870 34.643673
65.875 34.68729
65.880 34.265709
65.885 34.496914
65.890 34.391907
65.895 34.095264
65.900 34.312836
65.905 34.721039
65.910 34.874615
65.915 35.127781
65.920 34.334076
65.925 35.077538
65.930 36.735126
65.935 36.498249
65.940 36.77816
65.945 35.944504
65.950 35.790691
65.955 36.279686
65.960 35.85643
65.965 35.050156
65.970 35.090908
65.975 34.77417
65.980 35.118896
65.985 34.53442
65.990 33.940205
65.995 33.425404
66.000 33.69392
66.005 33.429516
66.010 32.504494
66.015 32.590672
66.020 32.964222
66.025 32.752419
66.030 32.420128
66.035 32.289623
66.040 32.717064
66.045 32.881176
66.050 32.907482
66.055 33.150631
66.060 33.610474
66.065 34.505188
66.070 34.377396
66.075 34.677494
66.080 35.476654
66.085 35.296131
66.090 35.738808
66.095 35.452469
66.100 34.910507
66.105 34.814449
66.110 34.593079
66.115 34.171223
66.120 33.619377
66.125 32.872875
66.130 32.512974
66.135 31.937294
66.140 31.350332
66.145 30.633575
66.150 30.928389
66.155 30.982679
66.160 31.351822
66.165 31.713537
66.170 31.762911
66.175 32.682152
66.180 33.157997
66.185 33.712467
66.190 33.691765
66.195 33.363495
66.200 33.380161
66.205 33.420734
66.210 33.018887
66.215 32.648384
66.220 32.136681
66.225 31.531805
66.230 31.385666
66.235 31.140776
66.240 31.21229
66.245 31.051708
66.250 30.591808
66.255 30.644808
66.260 31.249983
66.265 31.529066
66.270 31.361818
66.275 31.248728
66.280 31.085533
66.285 31.074158
66.290 30.818945
66.295 30.204056
66.300 29.839302
66.305 29.230469
66.310 28.357571
66.315 28.946808
66.320 29.125154
66.325 28.911802
66.330 29.091175
66.335 29.186329
66.340 29.4034
66.345 29.798784
66.350 29.149828
66.355 29.038794
66.360 29.106869
66.365 28.34461
66.370 28.447838
66.375 28.558517
66.380 27.989046
66.385 27.878235
66.390 27.703215
66.395 27.832674
66.400 28.056461
66.405 28.462399
66.410 28.707731
66.415 28.65954
66.420 28.843588
66.425 28.320799
66.430 27.81584
66.435 28.109102
66.440 26.977026
66.445 26.669487
66.450 25.982214
66.455 25.421671
66.460 25.33112
66.465 25.023098
66.470 24.075413
66.475 24.136612
66.480 24.670343
66.485 25.604883
66.490 25.9291
66.495 26.334127
66.500 26.492971
66.505 26.898775
66.510 26.408915
66.515 25.345743
66.520 24.231436
66.525 23.70647
66.530 23.574196
66.535 23.521236
66.540 23.515364
66.545 23.618799
66.550 24.294489
66.555 24.981693
66.560 25.144403
66.565 25.115707
66.570 24.714449
66.575 24.206768
66.580 23.741537
66.585 22.605164
66.590 22.10491
66.595 21.531687
66.600 21.015614
66.605 20.737028
66.610 20.612764
66.615 20.269989
66.620 20.104446
66.625 20.317331
66.630 20.656679
66.635 20.374014
66.640 20.834213
66.645 20.76907
66.650 20.56797
66.655 20.84371
66.660 20.518175
66.665 20.872555
66.670 21.040253
66.675 21.164587
66.680 21.093739
66.685 21.322353
66.690 21.540342
66.695 21.565304
66.700 21.55035
66.705 21.157187
66.710 20.900684
66.715 21.389469
66.720 21.434649
66.725 21.184902
66.730 20.703737
66.735 19.999992
66.740 20.166149
66.745 20.877151
66.750 21.239376
66.755 20.764851
66.760 20.58135
66.765 20.575113
66.770 20.517569
66.775 20.327585
66.780 20.037436
66.785 19.198622
66.790 18.725855
66.795 18.771597
66.800 19.05921
66.805 19.659458
66.810 19.644632
66.815 19.444231
66.820 19.917791
66.825 20.913784
66.830 20.831356
66.835 20.43371
66.840 20.111998
66.845 19.70694
66.850 19.048805
66.855 18.923143
66.860 19.009403
66.865 19.228952
66.870 19.510897
66.875 18.849077
66.880 19.057287
66.885 19.373487
66.890 19.314667
66.895 18.766895
66.900 18.351391
66.905 17.855169
66.910 18.425798
66.915 18.747961
66.920 18.58552
66.925 18.491787
66.930 18.670256
66.935 18.883795
66.940 19.255428
66.945 19.018051
66.950 19.023521
66.955 18.907183
66.960 19.065628
66.965 18.659826
66.970 18.697512
66.975 19.252127
66.980 19.887472
66.985 19.980665
66.990 20.365067
66.995 20.847931
67.000 20.951815
67.005 20.800619
67.010 20.727629
67.015 20.952477
67.020 20.812914
67.025 20.496582
67.030 20.38162
67.035 20.697878
67.040 20.995455
67.045 20.737106
67.050 20.412834
67.055 20.784037
67.060 20.484632
67.065 20.109684
67.070 19.787014
67.075 19.835636
67.080 19.389332
67.085 19.21265
67.090 19.332476
67.095 19.629097
67.100 19.723307
67.105 20.020403
67.110 20.117426
67.115 20.404652
67.120 20.062288
67.125 19.798424
67.130 19.588699
67.135 19.542437
67.140 19.531536
67.145 19.836798
67.150 19.648972
67.155 20.432508
67.160 20.722719
67.165 20.77916
67.170 20.577667
67.175 19.706566
67.180 18.887758
67.185 18.753057
67.190 18.230625
67.195 18.115694
67.200 18.068071
67.205 18.033791
67.210 18.500448
67.215 19.146408
67.220 19.377836
67.225 19.57707
67.230 19.382877
67.235 19.401312
67.240 19.704222
67.245 19.576643
67.250 19.68725
67.255 19.14818
67.260 18.403078
67.265 18.308954
67.270 18.412226
67.275 18.370762
67.280 18.333899
67.285 17.899866
67.290 18.048725
67.295 17.803659
67.300 18.023157
67.305 18.042521
67.310 17.433918
67.315 16.851217
67.320 16.65176
67.325 17.190338
67.330 17.945967
67.335 18.30987
67.340 18.719841
67.345 19.343119
67.350 19.843006
67.355 20.613178
67.360 20.07181
67.365 19.965815
67.370 19.259069
67.375 19.156952
67.380 19.164011
67.385 18.755186
67.390 18.640179
67.395 19.416046
67.400 19.475189
67.405 19.717926
67.410 19.880238
67.415 19.762537
67.420 20.589125
67.425 20.569424
67.430 19.878536
67.435 19.867743
67.440 20.050621
67.445 20.635946
67.450 20.953621
67.455 20.436575
67.460 20.725409
67.465 21.292135
67.470 21.661863
67.475 20.796494
67.480 21.337761
67.485 22.092211
67.490 22.177967
67.495 22.450399
67.500 22.074123
67.505 22.171814
67.510 22.46582
67.515 21.760633
67.520 21.535051
67.525 21.132261
67.530 20.06616
67.535 20.055277
67.540 20.085571
67.545 20.503788
67.550 20.552685
67.555 20.036409
67.560 19.909286
67.565 19.955191
67.570 19.54118
67.575 19.2012
67.580 19.140368
67.585 18.941771
67.590 19.813204
67.595 20.129276
67.600 20.00292
67.605 20.544981
67.610 21.144472
67.615 21.057173
67.620 20.940414
67.625 20.517496
67.630 21.302675
67.635 21.819883
67.640 21.981846
67.645 21.700598
67.650 21.669893
67.655 21.768456
67.660 21.2565
67.665 20.620558
67.670 20.13394
67.675 19.646557
67.680 19.636513
67.685 19.367052
67.690 18.780062
67.695 18.74049
67.700 18.732656
67.705 19.060898
67.710 19.102262
67.715 19.021185
67.720 19.604572
67.725 20.011503
67.730 20.108078
67.735 19.939154
67.740 19.878141
67.745 19.707285
67.750 19.866333
67.755 19.995335
67.760 20.278477
67.765 20.45072
67.770 20.59549
67.775 20.42351
67.780 20.428438
67.785 20.231979
67.790 19.676003
67.795 20.034416
67.800 19.793022
67.805 19.498238
67.810 19.554131
67.815 19.329664
67.820 19.012798
67.825 18.738552
67.830 17.905836
67.835 18.323498
67.840 18.449036
67.845 18.365068
67.850 18.623543
67.855 18.723492
67.860 19.014568
67.865 18.755005
67.870 18.492418
67.875 18.706446
67.880 18.423237
67.885 18.086849
67.890 18.323032
67.895 18.547701
67.900 19.168335
67.905 19.667917
67.910 20.104416
67.915 20.566563
67.920 20.538988
67.925 20.681576
67.930 20.793003
67.935 20.707125
67.940 20.675322
67.945 20.255465
67.950 20.338655
67.955 20.377623
67.960 20.085649
67.965 19.349783
67.970 18.468
67.975 17.835112
67.980 17.395414
67.985 16.899216
67.990 16.642708
67.995 16.586718
68.000 17.259417
68.005 18.335115
68.010 19.226578
68.015 19.5909
68.020 20.000957
68.025 20.517782
68.030 20.52494
68.035 20.542364
68.040 20.390862
68.045 19.838818
68.050 19.819204
68.055 19.941809
68.060 19.544392
68.065 19.436953
68.070 18.751459
68.075 18.109953
68.080 18.196455
68.085 19.010874
68.090 18.825068
68.095 18.741617
68.100 19.372635
68.105 19.968075
68.110 19.914873
68.115 19.620682
68.120 19.111168
68.125 18.943737
68.130 18.878143
68.135 18.256609
68.140 17.549753
68.145 18.348999
68.150 18.926687
68.155 19.688984
68.160 20.515203
68.165 20.935799
68.170 21.395567
68.175 21.87031
68.180 21.660557
68.185 21.057661
68.190 20.232256
68.195 20.110174
68.200 20.1099
68.205 20.150852
68.210 20.144207
68.215 20.134686
68.220 20.011164
68.225 19.509909
68.230 18.924486
68.235 18.561638
68.240 18.544476
68.245 19.143616
68.250 19.578121
68.255 20.012161
68.260 20.434261
68.265 20.951826
68.270 21.363993
68.275 21.392763
68.280 20.950169
68.285 21.066414
68.290 21.194929
68.295 20.914192
68.300 20.696976
68.305 20.725393
68.310 20.803053
68.315 20.776569
68.320 20.446964
68.325 20.371264
68.330 20.947882
68.335 20.706923
68.340 20.759663
68.345 20.67767
68.350 20.598209
68.355 20.648964
68.360 20.616781
68.365 20.288946
68.370 20.312252
68.375 20.045507
68.380 20.400341
68.385 20.359873
68.390 20.553423
68.395 20.569775
68.400 21.141771
68.405 21.348024
68.410 22.144514
68.415 21.69523
68.420 22.049124
68.425 22.245295
68.430 22.911787
68.435 22.728481
68.440 22.365551
68.445 22.447796
68.450 23.327322
68.455 23.606577
68.460 23.374525
68.465 22.978655
68.470 24.02512
68.475 23.665846
68.480 22.921497
68.485 22.119305
68.490 21.762962
68.495 22.045588
68.500 21.717001
68.505 21.136082
68.510 21.641706
68.515 21.734583
68.520 22.429598
68.525 22.186483
68.530 21.867939
68.535 22.47323
68.540 22.836594
68.545 22.798117
68.550 23.419216
68.555 23.957726
68.560 24.665798
68.565 25.055462
68.570 24.675598
68.575 24.214348
68.580 24.146677
68.585 23.940866
68.590 23.318621
68.595 23.123838
68.600 23.067287
68.605 23.768713
68.610 24.322474
68.615 24.205744
68.620 23.93116
68.625 24.23912
68.630 24.782709
68.635 24.909218
68.640 25.150518
68.645 25.399073
68.650 25.723734
68.655 26.214798
68.660 26.630833
68.665 26.751656
68.670 26.891333
68.675 26.723906
68.680 26.87155
68.685 27.377251
68.690 28.12464
68.695 28.354094
68.700 28.186213
68.705 28.290096
68.710 28.760284
68.715 29.060274
68.720 29.028156
68.725 28.1926
68.730 27.868044
68.735 27.96365
68.740 27.712442
68.745 27.590622
68.750 27.420996
68.755 27.41713
68.760 27.479692
68.765 28.011261
68.770 29.373856
68.775 29.332844
68.780 29.251236
68.785 29.329912
68.790 28.876297
68.795 28.579702
68.800 28.742691
68.805 28.34395
68.810 28.400969
68.815 28.784016
68.820 29.088047
68.825 29.524082
68.830 30.313929
68.835 30.747047
68.840 30.932922
68.845 31.236725
68.850 31.167227
68.855 31.057192
68.860 31.352682
68.865 31.333363
68.870 31.834377
68.875 31.445307
68.880 31.278715
68.885 31.164854
68.890 31.220667
68.895 31.774267
68.900 31.74589
68.905 31.3251
68.910 32.096935
68.915 32.200829
68.920 32.633492
68.925 32.673412
68.930 32.845039
68.935 33.211239
68.940 32.628906
68.945 32.133816
68.950 32.17841
68.955 31.88706
68.960 31.652975
68.965 31.329897
68.970 31.124725
68.975 31.574148
68.980 31.672812
68.985 31.652266
68.990 31.59964
68.995 31.930975
69.000 32.102547
69.005 32.049404
69.010 32.003963
69.015 32.526337
69.020 32.739223
69.025 33.423401
69.030 33.507759
69.035 33.390594
69.040 33.800991
69.045 34.561722
69.050 35.050499
69.055 35.37574
69.060 35.086948
69.065 34.917133
69.070 34.515388
69.075 33.5163
69.080 32.199341
69.085 31.525183
69.090 31.494862
69.095 31.90082
69.100 32.306362
69.105 31.957867
69.110 31.765638
69.115 31.800085
69.120 31.74777
69.125 31.227722
69.130 30.840439
69.135 30.703714
69.140 31.319443
69.145 32.148392
69.150 32.23204
69.155 32.399498
69.160 32.720116
69.165 32.349976
69.170 32.884365
69.175 33.029633
69.180 32.929611
69.185 32.516983
69.190 32.262302
69.195 32.066463
69.200 32.062763
69.205 32.055584
69.210 31.590017
69.215 31.413366
69.220 31.748116
69.225 32.089413
69.230 32.051697
69.235 31.769127
69.240 31.435501
69.245 31.52313
69.250 31.594725
69.255 31.317732
69.260 30.624084
69.265 30.497828
69.270 31.002649
69.275 30.823591
69.280 30.890175
69.285 30.739498
69.290 30.604563
69.295 30.782192
69.300 30.93136
69.305 30.917627
69.310 30.433489
69.315 29.520035
69.320 28.941088
69.325 28.682882
69.330 28.528732
69.335 28.063938
69.340 28.282555
69.345 28.978287
69.350 29.292038
69.355 29.779932
69.360 29.859419
69.365 30.660496
69.370 30.373014
69.375 29.318865
69.380 28.072039
69.385 27.96752
69.390 28.033859
69.395 27.723059
69.400 27.308773
69.405 26.730301
69.410 26.764326
69.415 27.461201
69.420 26.759588
69.425 26.801077
69.430 26.996115
69.435 26.315487
69.440 27.392036
69.445 27.959888
69.450 27.890505
69.455 28.0084
69.460 27.431187
69.465 26.70414
69.470 26.56669
69.475 25.951094
69.480 25.451258
69.485 24.605103
69.490 24.552038
69.495 24.757441
69.500 25.127863
69.505 25.571541
69.510 25.810318
69.515 26.085897
69.520 27.306362
69.525 27.353609
69.530 27.463223
69.535 27.651678
69.540 27.14871
69.545 26.938856
69.550 26.544283
69.555 25.943111
69.560 26.058174
69.565 25.999979
69.570 25.938936
69.575 26.124292
69.580 26.246204
69.585 27.106997
69.590 27.027826
69.595 26.332338
69.600 25.849529
69.605 25.615908
69.610 24.812082
69.615 23.890598
69.620 23.29393
69.625 23.869976
69.630 24.448219
69.635 24.813829
69.640 24.764704
69.645 24.974239
69.650 25.078863
69.655 25.287451
69.660 24.654936
69.665 24.976223
69.670 25.125996
69.675 25.654127
69.680 25.948782
69.685 26.309528
69.690 26.572031
69.695 26.572351
69.700 26.544302
69.705 26.174761
69.710 25.81068
69.715 25.652603
69.720 25.155931
69.725 24.188826
69.730 24.257671
69.735 23.330549
69.740 23.051756
69.745 23.452541
69.750 22.929176
69.755 22.833151
69.760 23.158934
69.765 23.198954
69.770 23.152447
69.775 23.280622
69.780 23.452759
69.785 23.861633
69.790 23.824053
69.795 23.257008
69.800 22.734503
69.805 22.71759
69.810 23.150826
69.815 23.584679
69.820 23.284653
69.825 23.427315
69.830 23.176027
69.835 24.034239
69.840 24.847738
69.845 24.372869
69.850 23.734367
69.855 24.208435
69.860 24.149748
69.865 24.100077
69.870 23.164759
69.875 22.666849
69.880 22.444954
69.885 21.662024
69.890 20.826111
69.895 20.423038
69.900 20.528627
69.905 20.511232
69.910 20.019808
69.915 20.374456
69.920 20.897337
69.925 20.914421
69.930 20.506386
69.935 20.400158
69.940 19.867083
69.945 19.254183
69.950 18.660128
69.955 18.322527
69.960 18.680105
69.965 19.741123
69.970 19.430796
69.975 19.439116
69.980 19.147512
69.985 19.333757
69.990 19.111923
69.995 19.162823
70.000 19.303682
70.005 20.143484
70.010 21.009041
70.015 21.5655
70.020 21.551188
70.025 21.973362
70.030 21.56278
70.035 20.333635
70.040 19.554661
70.045 18.771008
70.050 18.460238
70.055 18.072458
70.060 18.008081
70.065 18.581413
70.070 19.483006
70.075 20.149874
70.080 20.527748
70.085 20.70079
70.090 21.142311
70.095 20.217314
70.100 19.460682
70.105 18.653925
70.110 18.596924
70.115 19.053379
70.120 19.596849
70.125 19.092804
70.130 19.494617
70.135 20.143496
70.140 20.351141
70.145 20.170727
70.150 20.151213
70.155 19.889357
70.160 20.53623
70.165 20.330385
70.170 19.933777
70.175 20.416552
70.180 20.056988
70.185 19.154209
70.190 18.984432
70.195 19.134714
70.200 19.21298
70.205 18.64451
70.210 18.50956
70.215 19.180555
70.220 19.430387
70.225 19.249985
70.230 19.15933
70.235 19.512909
70.240 19.545286
70.245 19.021624
70.250 18.543848
70.255 18.853512
70.260 18.876781
70.265 18.640488
70.270 18.881695
70.275 19.045826
70.280 18.821558
70.285 19.012135
70.290 18.893908
70.295 19.030478
70.300 18.851038
70.305 18.606155
70.310 18.87417
70.315 19.747726
70.320 20.159445
70.325 20.099907
70.330 19.604174
70.335 19.489491
70.340 18.809029
70.345 18.791338
70.350 18.216015
70.355 17.780869
70.360 18.259634
70.365 18.883577
70.370 19.652365
70.375 20.287149
70.380 19.737474
70.385 20.107077
70.390 20.231316
70.395 20.157906
70.400 19.68782
70.405 19.71521
70.410 19.423351
70.415 19.729961
70.420 19.345016
70.425 19.318613
70.430 19.360107
70.435 19.331532
70.440 18.909285
70.445 19.321379
70.450 18.979031
70.455 19.377375
70.460 18.601131
70.465 18.27034
70.470 17.998356
70.475 18.070644
70.480 17.619181
70.485 17.560038
70.490 17.318262
70.495 17.69792
70.500 18.112612
70.505 18.22739
70.510 18.268099
70.515 18.795792
70.520 19.169645
70.525 19.083746
70.530 19.00135
70.535 18.978909
70.540 18.97444
70.545 19.696442
70.550 20.100328
70.555 20.470604
70.560 20.969053
70.565 21.206133
70.570 20.924671
70.575 20.291008
70.580 19.538443
70.585 18.540394
70.590 18.351063
70.595 17.980759
70.600 17.928272
70.605 18.30736
70.610 18.674498
70.615 17.920889
70.620 18.269867
70.625 18.428715
70.630 18.52611
70.635 18.268887
70.640 18.294376
70.645 18.811165
70.650 19.329683
70.655 18.957382
70.660 18.666756
70.665 18.32111
70.670 18.35401
70.675 18.161463
70.680 17.720982
70.685 17.100298
70.690 16.822123
70.695 16.862593
70.700 17.116949
70.705 16.935001
70.710 16.710415
70.715 17.80743
70.720 18.755867
70.725 19.030903
70.730 19.067926
70.735 19.481054
70.740 19.985422
70.745 20.003153
70.750 19.755114
70.755 19.90514
70.760 20.235689
70.765 20.301296
70.770 19.689833
70.775 19.609816
70.780 19.250984
70.785 18.573835
70.790 18.246845
70.795 18.091076
70.800 18.047016
70.805 17.93269
70.810 17.645535
70.815 18.104313
70.820 19.543365
70.825 20.013668
70.830 19.821964
70.835 20.090607
70.840 20.746653
70.845 20.875536
70.850 20.678186
70.855 20.522947
70.860 20.022087
70.865 19.730291
70.870 19.312332
70.875 19.13822
70.880 19.257465
70.885 18.699148
70.890 17.632866
70.895 17.875463
70.900 18.002176
70.905 17.84128
70.910 17.688139
70.915 18.075808
70.920 18.828953
70.925 19.58218
70.930 19.67592
70.935 19.993404
70.940 20.335535
70.945 20.192978
70.950 19.720312
70.955 19.3738
70.960 18.520473
70.965 18.352045
70.970 17.948231
70.975 17.587778
70.980 17.186901
70.985 17.241461
70.990 17.072117
70.995 16.743204
71.000 17.173681
71.005 17.181629
71.010 17.706865
71.015 18.235594
71.020 18.190073
71.025 18.373251
71.030 18.580385
71.035 18.566984
71.040 19.234917
71.045 18.904686
71.050 19.086832
71.055 18.804977
71.060 18.77153
71.065 18.877672
71.070 18.637331
71.075 18.489796
71.080 18.05826
71.085 17.918865
71.090 18.537241
71.095 19.013926
71.100 19.639088
71.105 19.490843
71.110 19.480909
71.115 19.703564
71.120 19.750034
71.125 19.630795
71.130 19.028923
71.135 18.992014
71.140 18.614132
71.145 18.416027
71.150 18.583469
71.155 18.448635
71.160 17.890778
71.165 17.989727
71.170 18.325754
71.175 18.374861
71.180 18.377184
71.185 17.845152
71.190 17.659321
71.195 17.638449
71.200 17.340607
71.205 17.587778
71.210 17.781725
71.215 17.807047
71.220 18.395391
71.225 18.286488
71.230 19.453287
71.235 19.526747
71.240 19.738722
71.245 20.46002
71.250 20.364954
71.255 19.7971
71.260 20.357269
71.265 20.432386
71.270 20.62163
71.275 19.79954
71.280 19.070845
71.285 19.516184
71.290 20.009758
71.295 19.679203
71.300 19.182674
71.305 18.679316
71.310 19.206518
71.315 20.064682
71.320 20.100807
71.325 19.603947
71.330 19.567474
71.335 19.658207
71.340 19.157131
71.345 18.395168
71.350 17.25709
71.355 17.651159
71.360 18.092516
71.365 18.474442
71.370 18.454748
71.375 18.437828
71.380 18.855362
71.385 18.742275
71.390 17.918787
71.395 17.343302
71.400 16.952164
71.405 16.809818
71.410 17.341948
71.415 17.845112
71.420 18.358267
71.425 18.663527
71.430 18.921749
71.435 18.546829
71.440 18.769041
71.445 18.711626
71.450 18.271414
71.455 18.190592
71.460 17.910681
71.465 17.815508
71.470 18.887205
71.475 19.41464
71.480 19.605949
71.485 19.586945
71.490 19.729744
71.495 20.187204
71.500 20.104084
71.505 18.819611
71.510 18.503389
71.515 18.462011
71.520 18.735319
71.525 18.982836
71.530 18.375456
71.535 18.413284
71.540 18.542244
71.545 18.48992
71.550 18.567844
71.555 18.578934
71.560 18.111786
71.565 18.151951
71.570 18.114401
71.575 18.135857
71.580 17.937672
71.585 17.819109
71.590 18.149609
71.595 18.520262
71.600 18.352612
71.605 18.045986
71.610 18.37281
71.615 18.478539
71.620 18.166309
71.625 18.117933
71.630 18.348431
71.635 19.312557
71.640 19.47319
71.645 19.303888
71.650 19.534494
71.655 19.793772
71.660 19.881565
71.665 20.063665
71.670 19.70841
71.675 19.380182
71.680 19.208092
71.685 18.946985
71.690 18.737717
71.695 18.210207
71.700 18.103313
71.705 17.97562
71.710 18.307919
71.715 18.468674
71.720 18.532484
71.725 18.113203
71.730 18.032902
71.735 17.808287
71.740 18.730642
71.745 18.986485
71.750 18.952433
71.755 18.869528
71.760 19.275772
71.765 19.677982
71.770 19.570253
71.775 18.841503
71.780 18.47814
71.785 18.695755
71.790 18.640989
71.795 18.371307
71.800 18.804205
71.805 18.870472
71.810 18.799643
71.815 18.778307
71.820 18.83617
71.825 18.119497
71.830 17.957891
71.835 17.983995
71.840 18.163486
71.845 18.237726
71.850 17.676996
71.855 17.227057
71.860 17.556026
71.865 17.773346
71.870 17.694998
71.875 18.498245
71.880 18.96781
71.885 19.474051
71.890 19.491207
71.895 19.792688
71.900 19.258423
71.905 18.92379
71.910 19.099178
71.915 19.338612
71.920 19.673223
71.925 19.650221
71.930 19.675558
71.935 20.159613
71.940 20.184666
71.945 19.402336
71.950 19.085175
71.955 18.821974
71.960 19.091419
71.965 18.994087
71.970 19.238775
71.975 19.249186
71.980 19.113474
71.985 18.898457
71.990 18.631407
71.995 18.537653
72.000 18.009188
72.005 17.856232
72.010 17.875391
72.015 18.08815
72.020 18.835949
72.025 19.189798
72.030 18.772579
72.035 19.051542
72.040 18.831873
72.045 18.172388
72.050 17.653639
72.055 17.376881
72.060 17.624918
72.065 17.931566
72.070 17.589947
72.075 17.471178
72.080 17.922583
72.085 18.113585
72.090 18.020643
72.095 17.770967
72.100 17.751621
72.105 17.769419
72.110 18.327156
72.115 18.619717
72.120 19.353319
72.125 19.347225
72.130 19.788559
72.135 20.011824
72.140 19.67111
72.145 19.657034
72.150 19.586819
72.155 19.412937
72.160 19.84322
72.165 19.700735
72.170 20.112537
72.175 20.163185
72.180 19.452456
72.185 18.993608
72.190 18.764286
72.195 18.355219
72.200 18.091803
72.205 17.622478
72.210 17.70402
72.215 17.317495
72.220 16.670523
72.225 16.820486
72.230 17.532854
72.235 17.865843
72.240 18.570742
72.245 19.025892
72.250 19.221785
72.255 19.199667
72.260 19.051895
72.265 18.341051
72.270 17.883419
72.275 17.667675
72.280 17.636328
72.285 17.75396
72.290 17.786524
72.295 17.52877
72.300 17.915541
72.305 17.693142
72.310 17.425962
72.315 17.927996
72.320 17.895327
72.325 17.994299
72.330 17.807615
72.335 17.650839
72.340 17.944418
72.345 18.190758
72.350 18.218676
72.355 18.527548
72.360 18.83242
72.365 19.321028
72.370 19.178205
72.375 19.018946
72.380 19.29048
72.385 19.580149
72.390 19.274019
72.395 18.91239
72.400 18.890306
72.405 18.731121
72.410 18.552349
72.415 18.050156
72.420 17.631187
72.425 17.583435
72.430 18.080685
72.435 17.970201
72.440 18.263208
72.445 18.481636
72.450 18.351873
72.455 18.537064
72.460 18.606701
72.465 17.912424
72.470 18.614653
72.475 18.54203
72.480 18.457039
72.485 18.250725
72.490 17.75095
72.495 17.668396
72.500 17.782013
72.505 16.97431
72.510 16.458965
72.515 16.251553
72.520 15.887872
72.525 15.933983
72.530 16.474537
72.535 16.759125
72.540 17.097769
72.545 17.240774
72.550 17.806162
72.555 18.435328
72.560 18.5109
72.565 18.171385
72.570 17.754673
72.575 17.908215
72.580 18.205921
72.585 17.970978
72.590 17.779015
72.595 17.460579
72.600 18.068254
72.605 18.107775
72.610 17.69552
72.615 17.556305
72.620 17.811813
72.625 18.130466
72.630 18.28397
72.635 17.654398
72.640 17.651701
72.645 18.064543
72.650 17.846519
72.655 17.607267
72.660 17.201273
72.665 16.968496
72.670 17.198523
72.675 17.510496
72.680 17.1082
72.685 17.279957
72.690 17.465269
72.695 18.199104
72.700 18.282692
72.705 18.211926
72.710 17.931046
72.715 17.661573
72.720 17.726192
72.725 17.916733
72.730 17.814465
72.735 17.3985
72.740 16.864712
72.745 17.167627
72.750 17.402142
72.755 17.186855
72.760 16.393751
72.765 16.158958
72.770 16.374372
72.775 16.776279
72.780 16.464237
72.785 16.609198
72.790 16.921339
72.795 17.163282
72.800 17.646574
72.805 17.495337
72.810 17.53442
72.815 18.266996
72.820 18.092983
72.825 18.115339
72.830 18.221464
72.835 18.493214
72.840 18.65534
72.845 18.727089
72.850 18.117983
72.855 18.033972
72.860 18.081985
72.865 17.926683
72.870 18.116211
72.875 18.390144
72.880 18.183449
72.885 18.54932
72.890 18.748314
72.895 18.724483
72.900 18.389297
72.905 17.657852
72.910 17.41399
72.915 17.34149
72.920 16.918671
72.925 16.422628
72.930 16.201088
72.935 16.684502
72.940 17.164278
72.945 17.134283
72.950 16.932226
72.955 17.155968
72.960 17.236275
72.965 17.302301
72.970 17.190117
72.975 16.754087
72.980 16.365057
72.985 16.256063
72.990 15.851099
72.995 15.103519
73.000 14.648968
