!@!!GADDS PLOTSO FILE: Chi integration type
!@!!Title/SampleName: map-149
!@!!Comment: ?
!@!!User: Bruker Instrument Administrator
!@!!Site: University of Illinois Chicago
!@!!Frame: map-149_01_000.gfrm
!@!!Wavelengths    1.54184   1.54056   1.54439
!@!!Frame angles: 2Theta: 63.000 Omega: 50.000 Phi: 0.000 Chi: 90.000
!@!!Integration range: 2Theta: 53.000 to 73.000  Gamma: -105.000 to -75.000
!@!!Integration method: bin normalized
!@!N
!@!SS
!@!M
!@!L 0.0 0.0 0.0 0.0
!@!XDegrees
!@!YCounts
53.000 9.166596
53.005 9.048975
53.010 9.392372
53.015 9.336214
53.020 9.378905
53.025 9.105507
53.030 9.103355
53.035 9.150946
53.040 9.281687
53.045 9.323083
53.050 9.680866
53.055 9.827234
53.060 9.97125
53.065 9.572848
53.070 9.682797
53.075 9.797453
53.080 9.63292
53.085 9.598061
53.090 9.732577
53.095 9.867209
53.100 10.269009
53.105 10.124688
53.110 10.085067
53.115 9.71199
53.120 9.510386
53.125 9.022821
53.130 8.89928
53.135 8.776428
53.140 8.791177
53.145 8.696918
53.150 9.090695
53.155 8.96876
53.160 8.960773
53.165 8.710072
53.170 8.417833
53.175 8.484698
53.180 8.105297
53.185 8.209431
53.190 8.681121
53.195 8.832886
53.200 8.6316
53.205 8.563687
53.210 8.333209
53.215 8.699161
53.220 8.297766
53.225 8.216739
53.230 8.582504
53.235 9.019754
53.240 9.243006
53.245 9.244446
53.250 9.246949
53.255 9.368095
53.260 9.152189
53.265 8.816865
53.270 8.594722
53.275 8.454428
53.280 8.544322
53.285 8.864858
53.290 9.185855
53.295 9.55416
53.300 10.160783
53.305 10.003959
53.310 9.97176
53.315 10.312805
53.320 9.942393
53.325 9.585145
53.330 9.180251
53.335 9.146641
53.340 9.272923
53.345 9.109821
53.350 8.828056
53.355 9.422788
53.360 9.327065
53.365 9.324027
53.370 9.52945
53.375 9.677634
53.380 9.758127
53.385 9.548951
53.390 9.484159
53.395 9.561949
53.400 9.247234
53.405 8.980757
53.410 8.880491
53.415 8.969687
53.420 8.826307
53.425 8.545206
53.430 9.111021
53.435 8.897826
53.440 8.496231
53.445 8.333539
53.450 8.386067
53.455 9.023663
53.460 9.454509
53.465 9.487052
53.470 9.683263
53.475 9.982252
53.480 10.283075
53.485 10.067441
53.490 9.57518
53.495 9.465123
53.500 9.597595
53.505 9.762366
53.510 9.755806
53.515 10.016645
53.520 9.63769
53.525 9.457849
53.530 8.999879
53.535 8.523567
53.540 8.732744
53.545 8.695254
53.550 8.59134
53.555 8.845808
53.560 8.642859
53.565 9.171493
53.570 9.623233
53.575 9.432934
53.580 9.265465
53.585 9.072593
53.590 8.844693
53.595 8.812877
53.600 8.974592
53.605 8.683379
53.610 9.060162
53.615 9.37533
53.620 9.373876
53.625 9.782343
53.630 9.704776
53.635 9.114504
53.640 9.774283
53.645 9.753833
53.650 9.941747
53.655 10.53441
53.660 10.975196
53.665 11.441103
53.670 12.125816
53.675 11.952959
53.680 11.853055
53.685 11.524383
53.690 11.814252
53.695 11.535223
53.700 10.997068
53.705 10.463099
53.710 10.416588
53.715 10.581468
53.720 10.236172
53.725 10.3206
53.730 10.611961
53.735 10.727285
53.740 10.58498
53.745 10.800651
53.750 10.728575
53.755 10.935243
53.760 10.322753
53.765 10.418883
53.770 10.459328
53.775 10.399031
53.780 10.077085
53.785 9.734364
53.790 9.906176
53.795 10.050306
53.800 10.160845
53.805 10.486404
53.810 10.422123
53.815 10.333138
53.820 10.327937
53.825 9.829871
53.830 10.023351
53.835 9.937501
53.840 9.493961
53.845 9.808568
53.850 9.721109
53.855 10.166733
53.860 10.492026
53.865 9.766202
53.870 9.440057
53.875 9.810604
53.880 9.608522
53.885 9.383409
53.890 9.187178
53.895 9.044819
53.900 9.061235
53.905 8.942859
53.910 8.404088
53.915 8.268284
53.920 8.725344
53.925 8.679996
53.930 9.12595
53.935 9.81229
53.940 10.319041
53.945 10.625354
53.950 11.110202
53.955 10.704594
53.960 10.457793
53.965 9.929322
53.970 9.641868
53.975 9.64104
53.980 9.664792
53.985 9.506008
53.990 9.718266
53.995 10.229766
54.000 10.85879
54.005 10.862652
54.010 10.587755
54.015 10.319326
54.020 10.176348
54.025 10.113626
54.030 9.948019
54.035 9.858393
54.040 9.944453
54.045 10.097525
54.050 10.355289
54.055 10.435347
54.060 10.142931
54.065 9.900054
54.070 9.700171
54.075 9.807407
54.080 10.023476
54.085 9.776822
54.090 10.150892
54.095 10.183187
54.100 10.594767
54.105 10.751544
54.110 10.452566
54.115 10.077963
54.120 10.220994
54.125 10.195795
54.130 10.169424
54.135 10.049527
54.140 10.099659
54.145 9.957994
54.150 10.033817
54.155 10.063774
54.160 9.822055
54.165 9.941796
54.170 9.245056
54.175 9.055594
54.180 9.065728
54.185 8.946496
54.190 8.828631
54.195 9.20698
54.200 9.542302
54.205 10.12194
54.210 10.412269
54.215 10.394017
54.220 10.353536
54.225 10.124582
54.230 9.730843
54.235 9.379622
54.240 9.076199
54.245 8.819726
54.250 8.959507
54.255 9.194275
54.260 9.741035
54.265 10.061759
54.270 10.263031
54.275 10.261774
54.280 10.029978
54.285 9.858932
54.290 10.225443
54.295 10.040287
54.300 9.555623
54.305 9.244638
54.310 9.505606
54.315 9.943617
54.320 9.850279
54.325 9.32628
54.330 9.144287
54.335 8.974216
54.340 9.420792
54.345 9.351781
54.350 9.276286
54.355 9.286448
54.360 9.375344
54.365 9.550253
54.370 9.37953
54.375 9.288697
54.380 9.081648
54.385 8.914766
54.390 9.073154
54.395 9.132929
54.400 9.141
54.405 9.289146
54.410 9.184505
54.415 9.622654
54.420 9.554823
54.425 9.398112
54.430 9.403623
54.435 9.411845
54.440 9.496202
54.445 9.12636
54.450 9.19847
54.455 9.29798
54.460 9.430238
54.465 9.68069
54.470 9.576477
54.475 9.476791
54.480 9.575111
54.485 9.339108
54.490 8.925858
54.495 8.883163
54.500 8.547334
54.505 8.925815
54.510 9.251243
54.515 9.515231
54.520 9.844218
54.525 10.023008
54.530 9.753718
54.535 9.840412
54.540 9.351502
54.545 9.18152
54.550 9.494279
54.555 9.67548
54.560 9.552624
54.565 9.624367
54.570 9.970348
54.575 10.612808
54.580 10.776806
54.585 10.853312
54.590 10.823139
54.595 10.570672
54.600 10.506973
54.605 9.954638
54.610 9.515963
54.615 9.276299
54.620 9.297006
54.625 9.219773
54.630 9.166929
54.635 9.092081
54.640 9.133077
54.645 9.420115
54.650 9.449966
54.655 9.64479
54.660 9.734431
54.665 10.146434
54.670 10.616421
54.675 10.325208
54.680 9.790794
54.685 9.197777
54.690 9.146925
54.695 9.178396
54.700 8.798356
54.705 8.58679
54.710 8.762462
54.715 9.370883
54.720 9.336864
54.725 9.505175
54.730 10.227505
54.735 10.760098
54.740 11.244612
54.745 11.254615
54.750 11.32303
54.755 11.585591
54.760 11.453534
54.765 10.972541
54.770 11.066216
54.775 11.284357
54.780 11.118854
54.785 10.810071
54.790 10.81095
54.795 10.652093
54.800 10.557427
54.805 10.387345
54.810 10.408693
54.815 10.839369
54.820 11.440293
54.825 11.237137
54.830 11.172367
54.835 11.042673
54.840 11.029182
54.845 11.009943
54.850 11.058982
54.855 10.654777
54.860 10.874727
54.865 10.829775
54.870 11.034006
54.875 11.156787
54.880 11.036399
54.885 10.974523
54.890 11.104175
54.895 11.342331
54.900 11.272467
54.905 11.231756
54.910 11.096269
54.915 11.34244
54.920 11.40292
54.925 11.151655
54.930 11.222592
54.935 11.002065
54.940 10.474391
54.945 10.176577
54.950 9.452133
54.955 9.437318
54.960 9.580253
54.965 9.469834
54.970 9.717921
54.975 9.86895
54.980 10.011422
54.985 10.333509
54.990 10.240746
54.995 10.487541
55.000 10.656956
55.005 10.711678
55.010 10.651511
55.015 10.660214
55.020 10.728518
55.025 10.706955
55.030 10.296982
55.035 10.141859
55.040 10.109091
55.045 10.034386
55.050 10.290944
55.055 10.62179
55.060 10.820822
55.065 10.979351
55.070 11.534197
55.075 11.625003
55.080 11.400325
55.085 10.809553
55.090 10.30675
55.095 10.323931
55.100 9.94505
55.105 9.478699
55.110 9.913106
55.115 10.714765
55.120 11.106357
55.125 11.413939
55.130 11.623614
55.135 12.528289
55.140 12.641015
55.145 12.36844
55.150 12.088749
55.155 12.214715
55.160 12.117869
55.165 11.923562
55.170 11.122077
55.175 11.411987
55.180 11.120632
55.185 11.080838
55.190 10.907001
55.195 10.756958
55.200 10.594183
55.205 11.038035
55.210 10.461285
55.215 10.537025
55.220 10.532626
55.225 10.762704
55.230 10.437298
55.235 10.012715
55.240 9.646723
55.245 10.244805
55.250 10.694054
55.255 10.229673
55.260 9.599278
55.265 10.250909
55.270 10.470313
55.275 10.173055
55.280 9.694617
55.285 9.11902
55.290 9.466803
55.295 9.850896
55.300 9.647864
55.305 9.797643
55.310 9.877167
55.315 10.157777
55.320 10.362787
55.325 10.338569
55.330 10.244648
55.335 10.253953
55.340 10.518927
55.345 10.90314
55.350 10.715116
55.355 11.181248
55.360 11.463198
55.365 11.649977
55.370 11.454193
55.375 10.933882
55.380 10.648036
55.385 11.053946
55.390 10.59804
55.395 10.523759
55.400 10.267291
55.405 10.3579
55.410 10.742108
55.415 10.826777
55.420 10.24134
55.425 10.498482
55.430 10.495153
55.435 10.589149
55.440 10.553616
55.445 10.247129
55.450 10.223757
55.455 10.334882
55.460 9.75859
55.465 9.95656
55.470 10.11855
55.475 10.333774
55.480 10.276855
55.485 10.08139
55.490 10.018475
55.495 10.348714
55.500 10.634637
55.505 10.940802
55.510 11.053196
55.515 11.501304
55.520 11.904381
55.525 12.319747
55.530 12.362854
55.535 11.596113
55.540 11.069443
55.545 10.873956
55.550 10.715788
55.555 10.325909
55.560 9.956368
55.565 9.482697
55.570 9.984237
55.575 10.226317
55.580 10.563348
55.585 10.722754
55.590 10.7087
55.595 10.806391
55.600 11.128047
55.605 10.641417
55.610 10.854692
55.615 10.781597
55.620 10.664096
55.625 10.892402
55.630 11.015591
55.635 10.597591
55.640 10.418523
55.645 9.97881
55.650 9.711438
55.655 9.341173
55.660 9.056686
55.665 8.817355
55.670 9.152013
55.675 8.824126
55.680 8.703728
55.685 8.917484
55.690 9.438353
55.695 9.526332
55.700 9.621857
55.705 9.609714
55.710 10.553776
55.715 11.003106
55.720 11.167953
55.725 11.184265
55.730 11.79768
55.735 11.989527
55.740 11.686529
55.745 11.257487
55.750 11.177748
55.755 10.726342
55.760 10.630972
55.765 10.002595
55.770 9.722519
55.775 10.027561
55.780 10.261744
55.785 10.381786
55.790 10.645742
55.795 10.609603
55.800 10.733774
55.805 11.140043
55.810 11.270395
55.815 11.080585
55.820 10.668218
55.825 10.844751
55.830 11.107603
55.835 11.771173
55.840 11.914365
55.845 12.046889
55.850 12.217064
55.855 12.251622
55.860 11.8643
55.865 11.496972
55.870 10.552528
55.875 10.084253
55.880 10.094378
55.885 10.277937
55.890 10.062309
55.895 9.87282
55.900 9.943911
55.905 10.29844
55.910 10.254537
55.915 9.881863
55.920 9.624636
55.925 10.013117
55.930 10.384753
55.935 10.571478
55.940 10.512217
55.945 10.857608
55.950 10.698118
55.955 11.000459
55.960 10.677501
55.965 10.393353
55.970 10.367583
55.975 9.854998
55.980 9.998265
55.985 10.259188
55.990 10.307157
55.995 10.52641
56.000 11.287918
56.005 11.347292
56.010 11.424304
56.015 10.918589
56.020 10.831449
56.025 10.919828
56.030 11.279346
56.035 10.801521
56.040 10.657835
56.045 10.964132
56.050 10.922245
56.055 10.714595
56.060 10.479903
56.065 10.283948
56.070 10.135834
56.075 9.835256
56.080 9.146355
56.085 8.772738
56.090 8.72143
56.095 9.084745
56.100 8.816763
56.105 9.037834
56.110 9.731964
56.115 11.163347
56.120 12.402313
56.125 12.380222
56.130 12.183331
56.135 12.399255
56.140 12.586103
56.145 12.295476
56.150 11.077828
56.155 10.623982
56.160 10.888968
56.165 11.137469
56.170 10.921173
56.175 10.86741
56.180 10.943715
56.185 11.270417
56.190 11.33325
56.195 11.231831
56.200 11.802882
56.205 12.048513
56.210 12.114775
56.215 12.371206
56.220 12.689334
56.225 12.530436
56.230 12.468834
56.235 11.852582
56.240 11.974739
56.245 12.073769
56.250 11.941746
56.255 11.540052
56.260 11.679495
56.265 11.998561
56.270 11.963712
56.275 11.602422
56.280 11.509068
56.285 11.839528
56.290 12.503329
56.295 12.664676
56.300 12.288803
56.305 13.281332
56.310 13.510876
56.315 13.444795
56.320 13.414611
56.325 12.734103
56.330 12.421011
56.335 11.739012
56.340 11.06189
56.345 11.063739
56.350 10.56853
56.355 9.807557
56.360 9.734797
56.365 9.84129
56.370 10.592078
56.375 10.959976
56.380 10.682991
56.385 11.219264
56.390 12.094663
56.395 12.452617
56.400 12.228258
56.405 11.653369
56.410 11.319138
56.415 11.489966
56.420 11.814847
56.425 11.923755
56.430 12.206474
56.435 12.351426
56.440 12.375575
56.445 12.349087
56.450 12.637858
56.455 12.315463
56.460 11.897479
56.465 11.759263
56.470 11.301476
56.475 11.523369
56.480 11.518033
56.485 11.324357
56.490 11.815396
56.495 12.063094
56.500 12.295924
56.505 12.74538
56.510 12.796072
56.515 12.926266
56.520 13.01507
56.525 13.236316
56.530 13.237073
56.535 13.464307
56.540 13.445905
56.545 13.636773
56.550 13.484324
56.555 13.795774
56.560 13.48281
56.565 13.435339
56.570 13.295759
56.575 13.495588
56.580 13.179333
56.585 13.230869
56.590 13.287169
56.595 13.704137
56.600 13.512517
56.605 13.18404
56.610 13.286756
56.615 13.758134
56.620 13.55522
56.625 12.989668
56.630 12.582353
56.635 12.659217
56.640 12.788284
56.645 12.487823
56.650 12.124233
56.655 12.432362
56.660 12.662892
56.665 12.618238
56.670 12.63977
56.675 12.39995
56.680 12.430385
56.685 12.983133
56.690 13.264264
56.695 13.541023
56.700 13.898036
56.705 14.285709
56.710 14.959401
56.715 15.622721
56.720 15.471471
56.725 15.406047
56.730 15.061747
56.735 14.762333
56.740 14.566585
56.745 14.175026
56.750 14.076259
56.755 13.679787
56.760 12.818092
56.765 12.152101
56.770 11.948453
56.775 11.970595
56.780 11.401598
56.785 11.097997
56.790 11.446748
56.795 11.692395
56.800 12.133847
56.805 11.979457
56.810 11.898083
56.815 12.031313
56.820 11.995967
56.825 11.730257
56.830 11.52919
56.835 11.76372
56.840 11.668158
56.845 11.44533
56.850 11.241202
56.855 11.311597
56.860 11.50022
56.865 11.243516
56.870 10.699162
56.875 10.749692
56.880 11.012168
56.885 11.338332
56.890 11.601045
56.895 12.076942
56.900 12.31209
56.905 12.512506
56.910 12.213449
56.915 12.02236
56.920 11.682689
56.925 11.433264
56.930 11.636569
56.935 11.886407
56.940 12.406961
56.945 12.854331
56.950 12.8204
56.955 12.899924
56.960 12.58851
56.965 12.329989
56.970 12.228744
56.975 11.660999
56.980 11.169023
56.985 10.960232
56.990 10.456783
56.995 10.400337
57.000 10.287734
57.005 9.728715
57.010 9.671183
57.015 9.353169
57.020 9.414363
57.025 9.80952
57.030 10.221793
57.035 10.31786
57.040 10.866511
57.045 11.173799
57.050 11.580832
57.055 11.99994
57.060 12.034655
57.065 11.64558
57.070 11.412404
57.075 11.195584
57.080 10.700663
57.085 10.716685
57.090 10.946073
57.095 10.811203
57.100 10.582725
57.105 10.771715
57.110 11.526186
57.115 12.497124
57.120 12.775934
57.125 12.152263
57.130 12.238286
57.135 12.691195
57.140 13.03272
57.145 12.813315
57.150 12.380357
57.155 12.292232
57.160 12.720691
57.165 12.847467
57.170 12.512346
57.175 12.067396
57.180 11.492512
57.185 11.262403
57.190 10.877439
57.195 10.707715
57.200 10.336644
57.205 10.141137
57.210 10.38015
57.215 10.674459
57.220 11.383736
57.225 11.750086
57.230 11.645693
57.235 12.124109
57.240 12.09981
57.245 11.580861
57.250 11.454859
57.255 11.026113
57.260 10.867832
57.265 10.936042
57.270 10.706349
57.275 11.106492
57.280 12.014876
57.285 12.077047
57.290 12.293625
57.295 12.524507
57.300 12.888744
57.305 13.231582
57.310 12.902083
57.315 12.567318
57.320 12.886807
57.325 12.828115
57.330 12.706403
57.335 12.633246
57.340 12.705911
57.345 13.06016
57.350 13.405338
57.355 13.771818
57.360 13.75787
57.365 13.85713
57.370 13.184386
57.375 12.984047
57.380 13.095208
57.385 12.497494
57.390 12.098806
57.395 12.200195
57.400 12.085123
57.405 12.234765
57.410 12.36771
57.415 12.306337
57.420 12.773002
57.425 13.193161
57.430 13.159028
57.435 13.285754
57.440 13.607038
57.445 13.475815
57.450 13.063237
57.455 12.54285
57.460 12.019322
57.465 11.961549
57.470 12.089846
57.475 12.206442
57.480 12.200292
57.485 12.371234
57.490 12.028036
57.495 11.882114
57.500 11.690004
57.505 11.412374
57.510 10.802074
57.515 10.794559
57.520 10.982265
57.525 11.496045
57.530 11.435102
57.535 11.346558
57.540 11.491173
57.545 11.663109
57.550 11.274057
57.555 11.056595
57.560 10.969385
57.565 11.071558
57.570 10.847859
57.575 10.498303
57.580 10.469665
57.585 10.832415
57.590 11.139193
57.595 11.528423
57.600 11.925074
57.605 12.219921
57.610 12.675007
57.615 12.86445
57.620 12.963826
57.625 12.478646
57.630 12.178954
57.635 12.131354
57.640 12.423138
57.645 12.65405
57.650 12.669588
57.655 13.142861
57.660 13.192358
57.665 13.079379
57.670 12.823491
57.675 12.504298
57.680 12.082028
57.685 11.769883
57.690 11.527501
57.695 11.627091
57.700 11.913957
57.705 11.847787
57.710 11.954009
57.715 12.287004
57.720 12.631261
57.725 12.99858
57.730 12.989568
57.735 12.636277
57.740 12.700583
57.745 12.90569
57.750 12.718868
57.755 12.320085
57.760 11.912508
57.765 11.897481
57.770 12.085624
57.775 11.98176
57.780 11.743081
57.785 11.67085
57.790 11.385673
57.795 10.96999
57.800 11.141571
57.805 11.130138
57.810 11.458753
57.815 11.341795
57.820 11.615784
57.825 12.178717
57.830 12.88828
57.835 12.840407
57.840 13.143023
57.845 12.929057
57.850 12.912182
57.855 12.530103
57.860 12.050522
57.865 11.474705
57.870 11.212114
57.875 11.11838
57.880 11.290713
57.885 11.434335
57.890 11.870362
57.895 11.874024
57.900 12.806953
57.905 13.112676
57.910 12.664467
57.915 12.848709
57.920 12.863696
57.925 12.89129
57.930 13.122932
57.935 12.919433
57.940 12.523143
57.945 13.060622
57.950 12.825233
57.955 12.566839
57.960 12.418093
57.965 12.153306
57.970 11.795938
57.975 11.913589
57.980 11.561705
57.985 12.041569
57.990 12.448734
57.995 12.542692
58.000 12.33306
58.005 11.970061
58.010 12.007666
58.015 12.176583
58.020 11.601236
58.025 11.25213
58.030 11.458371
58.035 11.777468
58.040 12.397061
58.045 12.741151
58.050 12.79323
58.055 12.898818
58.060 12.990875
58.065 13.058928
58.070 13.186322
58.075 12.9132
58.080 12.986364
58.085 13.439047
58.090 13.49797
58.095 13.037919
58.100 12.684219
58.105 12.639628
58.110 12.884518
58.115 12.579388
58.120 12.366635
58.125 12.802321
58.130 13.241329
58.135 13.461074
58.140 13.229587
58.145 12.889449
58.150 13.008912
58.155 12.943067
58.160 12.530849
58.165 12.222754
58.170 11.980428
58.175 12.185671
58.180 12.387027
58.185 12.17292
58.190 12.531654
58.195 12.621301
58.200 12.709883
58.205 13.151945
58.210 13.122912
58.215 12.84307
58.220 12.396972
58.225 11.603572
58.230 11.724126
58.235 12.292994
58.240 11.868515
58.245 11.629768
58.250 11.915968
58.255 12.026107
58.260 12.012938
58.265 11.567323
58.270 11.546017
58.275 11.781153
58.280 11.80089
58.285 11.627663
58.290 11.91851
58.295 12.583961
58.300 13.128376
58.305 12.786139
58.310 12.800387
58.315 12.701759
58.320 12.811045
58.325 12.835799
58.330 12.80065
58.335 13.020849
58.340 12.879799
58.345 13.241777
58.350 13.220203
58.355 13.714302
58.360 13.922198
58.365 13.51489
58.370 13.183412
58.375 13.423566
58.380 13.117241
58.385 13.783806
58.390 13.561307
58.395 13.206351
58.400 13.329254
58.405 13.387588
58.410 13.325618
58.415 13.40586
58.420 13.176569
58.425 12.934347
58.430 12.627825
58.435 12.489483
58.440 12.059886
58.445 11.997004
58.450 12.159045
58.455 11.869048
58.460 11.926172
58.465 12.377969
58.470 12.563529
58.475 13.59514
58.480 14.191878
58.485 14.176267
58.490 14.422743
58.495 14.508506
58.500 14.024333
58.505 13.643771
58.510 12.931577
58.515 12.381767
58.520 12.318203
58.525 12.110011
58.530 12.309447
58.535 13.49767
58.540 14.334311
58.545 13.984638
58.550 13.887437
58.555 14.313812
58.560 14.311566
58.565 14.375015
58.570 14.218421
58.575 14.105256
58.580 14.850061
58.585 15.263848
58.590 15.555803
58.595 16.501894
58.600 16.448353
58.605 16.222673
58.610 16.466846
58.615 16.553661
58.620 16.914938
58.625 16.831959
58.630 16.362236
58.635 16.529953
58.640 15.942669
58.645 15.315418
58.650 14.722147
58.655 13.923889
58.660 13.340566
58.665 12.817343
58.670 12.65555
58.675 12.879273
58.680 13.100726
58.685 13.355906
58.690 13.788142
58.695 14.517634
58.700 14.870917
58.705 15.069368
58.710 15.339887
58.715 15.259497
58.720 15.271978
58.725 14.647785
58.730 13.989699
58.735 13.58223
58.740 13.401752
58.745 12.978923
58.750 12.922824
58.755 13.100718
58.760 13.589067
58.765 14.340611
58.770 14.913907
58.775 14.488167
58.780 14.35088
58.785 14.707152
58.790 14.598338
58.795 14.756316
58.800 14.179858
58.805 14.218226
58.810 14.358882
58.815 14.928963
58.820 14.929604
58.825 14.788191
58.830 14.556803
58.835 14.335979
58.840 14.249005
58.845 14.26275
58.850 14.293518
58.855 14.25386
58.860 14.425638
58.865 14.666966
58.870 14.376673
58.875 14.098515
58.880 14.752214
58.885 14.33577
58.890 13.85864
58.895 13.431074
58.900 13.037428
58.905 13.480536
58.910 13.570739
58.915 12.912405
58.920 12.943972
58.925 13.245157
58.930 13.603877
58.935 14.048935
58.940 14.140978
58.945 14.436076
58.950 14.358899
58.955 14.23346
58.960 14.0473
58.965 13.76873
58.970 13.615461
58.975 13.293892
58.980 12.876487
58.985 13.414149
58.990 13.178532
58.995 13.126397
59.000 12.864645
59.005 13.199817
59.010 13.453302
59.015 13.15954
59.020 13.112695
59.025 13.260056
59.030 13.353509
59.035 13.411956
59.040 13.622503
59.045 13.953335
59.050 14.329719
59.055 14.433704
59.060 15.060323
59.065 15.330458
59.070 15.730818
59.075 15.158088
59.080 14.859374
59.085 14.739342
59.090 14.663378
59.095 14.316072
59.100 14.087591
59.105 13.662296
59.110 13.786457
59.115 14.004376
59.120 13.856197
59.125 13.826025
59.130 13.718596
59.135 13.998752
59.140 13.706714
59.145 13.438415
59.150 13.39228
59.155 13.731708
59.160 14.388555
59.165 14.652095
59.170 14.911663
59.175 15.304008
59.180 15.431534
59.185 15.335258
59.190 15.127148
59.195 14.184152
59.200 14.04236
59.205 13.99888
59.210 13.79405
59.215 13.37813
59.220 13.272848
59.225 13.114877
59.230 13.68849
59.235 13.284847
59.240 12.980472
59.245 13.257237
59.250 13.132966
59.255 12.777736
59.260 12.458842
59.265 12.27859
59.270 12.233224
59.275 12.301097
59.280 12.199638
59.285 12.333812
59.290 12.839548
59.295 12.834879
59.300 12.775755
59.305 12.859974
59.310 12.87385
59.315 12.615359
59.320 12.465544
59.325 12.262739
59.330 12.726461
59.335 12.972739
59.340 12.977119
59.345 13.149061
59.350 13.680326
59.355 14.009145
59.360 14.127763
59.365 13.698038
59.370 13.821304
59.375 14.374841
59.380 14.108759
59.385 13.71811
59.390 14.066071
59.395 14.320965
59.400 14.794452
59.405 14.458335
59.410 14.568646
59.415 14.723342
59.420 15.105914
59.425 15.314927
59.430 15.11523
59.435 14.869299
59.440 14.864633
59.445 14.679621
59.450 14.802263
59.455 14.892356
59.460 15.41448
59.465 15.657131
59.470 15.929327
59.475 16.134424
59.480 16.383926
59.485 16.465925
59.490 16.302753
59.495 15.32558
59.500 15.147092
59.505 15.001741
59.510 14.340118
59.515 13.707635
59.520 13.536166
59.525 14.059669
59.530 13.802167
59.535 13.77694
59.540 13.867528
59.545 14.23089
59.550 14.442545
59.555 14.316751
59.560 13.715075
59.565 14.773674
59.570 15.295218
59.575 15.294711
59.580 15.723167
59.585 16.20178
59.590 16.392967
59.595 16.288004
59.600 15.435337
59.605 14.866711
59.610 14.793993
59.615 14.625889
59.620 14.357471
59.625 14.686362
59.630 15.073604
59.635 15.16922
59.640 15.342598
59.645 15.257245
59.650 14.923738
59.655 15.015828
59.660 14.70194
59.665 14.530442
59.670 14.832647
59.675 14.605871
59.680 14.559203
59.685 15.075756
59.690 15.299475
59.695 15.854589
59.700 16.676924
59.705 16.21917
59.710 16.421797
59.715 16.226753
59.720 16.32423
59.725 16.541527
59.730 15.932123
59.735 15.644198
59.740 16.526844
59.745 16.759008
59.750 17.496115
59.755 16.979288
59.760 16.433424
59.765 16.516972
59.770 16.165905
59.775 15.781635
59.780 15.670069
59.785 15.271268
59.790 15.341177
59.795 15.582773
59.800 15.761343
59.805 16.072111
59.810 16.114962
59.815 16.51865
59.820 17.030666
59.825 17.364031
59.830 17.100176
59.835 16.601603
59.840 16.18297
59.845 16.426615
59.850 16.057413
59.855 15.831028
59.860 15.521963
59.865 15.868717
59.870 15.822346
59.875 16.32901
59.880 15.992732
59.885 15.619527
59.890 15.576157
59.895 15.340047
59.900 15.381903
59.905 15.958287
59.910 15.795649
59.915 16.044922
59.920 16.630867
59.925 16.711363
59.930 17.006002
59.935 17.083216
59.940 17.164825
59.945 16.754772
59.950 16.508249
59.955 16.47224
59.960 15.945603
59.965 15.899979
59.970 15.963414
59.975 15.687691
59.980 15.763123
59.985 15.805385
59.990 15.675681
59.995 16.735826
60.000 16.777958
60.005 16.377169
60.010 16.73455
60.015 17.45315
60.020 17.398256
60.025 16.932623
60.030 16.739086
60.035 16.941965
60.040 17.513292
60.045 17.942106
60.050 17.955328
60.055 18.133038
60.060 18.12484
60.065 17.580853
60.070 17.262968
60.075 16.94224
60.080 16.006289
60.085 15.174515
60.090 14.686034
60.095 14.527969
60.100 14.767334
60.105 15.105674
60.110 14.932436
60.115 14.819601
60.120 14.655971
60.125 15.54038
60.130 15.896554
60.135 15.920646
60.140 15.724833
60.145 15.805369
60.150 15.744275
60.155 16.46282
60.160 16.090813
60.165 15.823856
60.170 15.903959
60.175 15.685665
60.180 15.919963
60.185 16.148191
60.190 16.134813
60.195 16.099741
60.200 16.387323
60.205 16.489946
60.210 16.446196
60.215 16.339653
60.220 16.000687
60.225 16.321793
60.230 16.559723
60.235 16.173174
60.240 15.547695
60.245 15.931328
60.250 16.023243
60.255 15.860087
60.260 14.643291
60.265 14.27775
60.270 14.595847
60.275 14.620462
60.280 14.408401
60.285 14.043264
60.290 14.332444
60.295 14.369347
60.300 14.496911
60.305 14.121181
60.310 14.324494
60.315 14.323659
60.320 14.56014
60.325 14.884604
60.330 15.031555
60.335 15.030926
60.340 15.148582
60.345 14.984213
60.350 14.904492
60.355 14.81831
60.360 14.284279
60.365 14.025769
60.370 14.140709
60.375 14.457055
60.380 14.650463
60.385 14.67616
60.390 14.873517
60.395 15.645885
60.400 15.720469
60.405 15.21105
60.410 15.093442
60.415 14.970798
60.420 15.159131
60.425 14.851328
60.430 15.297184
60.435 15.85218
60.440 16.255829
60.445 16.151348
60.450 16.27132
60.455 15.802803
60.460 15.891774
60.465 15.288488
60.470 14.890799
60.475 14.915784
60.480 15.082561
60.485 15.251707
60.490 15.87817
60.495 16.008324
60.500 15.569661
60.505 15.724696
60.510 15.444729
60.515 14.988093
60.520 14.720293
60.525 14.226491
60.530 14.000955
60.535 14.134122
60.540 13.842733
60.545 13.804241
60.550 13.35053
60.555 13.6609
60.560 13.89166
60.565 13.69578
60.570 13.604128
60.575 14.169655
60.580 14.843003
60.585 15.702723
60.590 15.650694
60.595 15.515141
60.600 16.147089
60.605 16.614235
60.610 16.454403
60.615 16.303087
60.620 16.175829
60.625 16.076242
60.630 16.236563
60.635 15.869354
60.640 15.643154
60.645 15.867436
60.650 15.132188
60.655 14.976624
60.660 15.231084
60.665 15.306283
60.670 15.19027
60.675 14.975079
60.680 14.963049
60.685 15.304589
60.690 15.251353
60.695 14.714672
60.700 14.553975
60.705 15.103109
60.710 15.346334
60.715 15.551906
60.720 15.586425
60.725 15.490697
60.730 15.345758
60.735 15.193557
60.740 14.933009
60.745 14.499902
60.750 13.670967
60.755 13.268206
60.760 13.073973
60.765 13.447702
60.770 13.386453
60.775 13.417428
60.780 13.726593
60.785 13.918854
60.790 13.987919
60.795 13.854727
60.800 13.740854
60.805 13.640835
60.810 13.615443
60.815 13.456533
60.820 13.786042
60.825 14.372032
60.830 14.646936
60.835 14.633223
60.840 14.003022
60.845 13.599749
60.850 13.728481
60.855 13.417278
60.860 13.076238
60.865 13.195189
60.870 13.431786
60.875 14.056175
60.880 13.578728
60.885 13.3377
60.890 13.71921
60.895 13.681341
60.900 13.28116
60.905 13.439041
60.910 13.88217
60.915 14.315454
60.920 14.41112
60.925 13.843796
60.930 13.803208
60.935 14.306357
60.940 13.913159
60.945 13.631408
60.950 13.704171
60.955 13.688304
60.960 13.769314
60.965 13.852615
60.970 13.371417
60.975 13.349605
60.980 13.007689
60.985 12.764696
60.990 13.093004
60.995 13.425666
61.000 13.522638
61.005 13.395207
61.010 13.543958
61.015 13.766038
61.020 14.065091
61.025 14.361009
61.030 14.110462
61.035 14.094758
61.040 14.194812
61.045 14.32496
61.050 14.400702
61.055 14.337134
61.060 14.466537
61.065 14.470163
61.070 14.306815
61.075 14.610002
61.080 14.28008
61.085 14.283684
61.090 14.615941
61.095 14.451409
61.100 14.750348
61.105 14.68961
61.110 14.268031
61.115 14.152922
61.120 14.482073
61.125 13.803766
61.130 13.503667
61.135 13.059398
61.140 12.821345
61.145 12.816412
61.150 12.712288
61.155 12.579137
61.160 12.706543
61.165 12.393444
61.170 12.395646
61.175 12.457655
61.180 12.533916
61.185 12.720823
61.190 12.66235
61.195 12.461398
61.200 12.622159
61.205 12.908554
61.210 12.769226
61.215 12.930883
61.220 13.370225
61.225 13.439729
61.230 13.96703
61.235 13.888639
61.240 13.418554
61.245 13.562365
61.250 13.393924
61.255 13.635181
61.260 13.889032
61.265 14.024824
61.270 13.944208
61.275 14.176406
61.280 14.375009
61.285 14.473405
61.290 14.288486
61.295 13.391856
61.300 12.93571
61.305 13.310546
61.310 13.291796
61.315 13.127818
61.320 13.010918
61.325 12.989936
61.330 13.607305
61.335 13.441298
61.340 13.635489
61.345 14.016958
61.350 14.127532
61.355 14.021387
61.360 13.959637
61.365 13.674002
61.370 13.656035
61.375 13.426296
61.380 13.17805
61.385 13.097609
61.390 13.46693
61.395 13.446406
61.400 13.302057
61.405 13.21456
61.410 13.120098
61.415 13.001654
61.420 13.207687
61.425 13.076584
61.430 13.325723
61.435 13.778942
61.440 13.762908
61.445 13.90453
61.450 14.087646
61.455 13.989189
61.460 14.069305
61.465 13.758766
61.470 13.875559
61.475 14.183765
61.480 14.369677
61.485 14.222085
61.490 14.017902
61.495 13.549389
61.500 13.623383
61.505 13.471026
61.510 13.215401
61.515 13.537603
61.520 13.792306
61.525 13.871113
61.530 14.21773
61.535 13.841046
61.540 13.985172
61.545 13.814157
61.550 13.293711
61.555 13.310797
61.560 13.278219
61.565 13.143936
61.570 13.240043
61.575 13.436986
61.580 13.711843
61.585 13.582181
61.590 13.494262
61.595 13.727839
61.600 14.22096
61.605 14.266866
61.610 13.979035
61.615 13.959065
61.620 14.002641
61.625 13.81137
61.630 13.77183
61.635 13.184793
61.640 13.002755
61.645 12.803536
61.650 12.489697
61.655 12.917586
61.660 13.287343
61.665 13.95315
61.670 14.659181
61.675 15.542118
61.680 16.106533
61.685 16.31164
61.690 16.215168
61.695 16.030748
61.700 15.330774
61.705 14.658038
61.710 14.407515
61.715 14.432701
61.720 14.092972
61.725 13.709908
61.730 13.317618
61.735 13.068963
61.740 12.892171
61.745 12.602809
61.750 12.507619
61.755 13.159611
61.760 13.756406
61.765 14.165826
61.770 13.967853
61.775 14.668493
61.780 15.080359
61.785 14.978322
61.790 14.548133
61.795 14.142414
61.800 13.852786
61.805 14.573746
61.810 14.566374
61.815 14.48254
61.820 14.69183
61.825 14.82431
61.830 15.062938
61.835 15.570216
61.840 14.894944
61.845 14.339394
61.850 14.016383
61.855 14.363131
61.860 14.834498
61.865 15.425535
61.870 15.301627
61.875 15.74206
61.880 15.957694
61.885 15.603739
61.890 15.645525
61.895 14.946182
61.900 14.747406
61.905 14.674506
61.910 14.463583
61.915 14.73395
61.920 14.859484
61.925 14.408077
61.930 14.695009
61.935 14.470969
61.940 14.027604
61.945 13.856422
61.950 13.563944
61.955 13.926348
61.960 14.128308
61.965 13.828476
61.970 13.805119
61.975 14.41469
61.980 14.381799
61.985 14.390084
61.990 13.881568
61.995 13.673767
62.000 13.908297
62.005 14.108289
62.010 14.017539
62.015 14.321011
62.020 14.510627
62.025 14.527554
62.030 14.704975
62.035 14.633475
62.040 14.842436
62.045 14.826541
62.050 14.885781
62.055 15.173106
62.060 15.102962
62.065 14.376715
62.070 14.142587
62.075 13.873291
62.080 14.292331
62.085 14.3092
62.090 13.684743
62.095 14.04619
62.100 14.692915
62.105 14.987884
62.110 14.43202
62.115 13.963841
62.120 14.116367
62.125 14.740503
62.130 15.063447
62.135 15.286227
62.140 15.529792
62.145 16.105749
62.150 15.626297
62.155 15.492169
62.160 15.404468
62.165 15.222278
62.170 14.852177
62.175 14.235682
62.180 14.113706
62.185 14.724639
62.190 14.602763
62.195 14.261326
62.200 13.828909
62.205 13.395021
62.210 13.455892
62.215 13.623343
62.220 13.480455
62.225 13.541121
62.230 13.649537
62.235 13.833205
62.240 14.347928
62.245 14.124452
62.250 13.884471
62.255 13.497046
62.260 13.091332
62.265 12.729745
62.270 12.35438
62.275 12.597932
62.280 13.16562
62.285 13.388551
62.290 14.314245
62.295 14.671459
62.300 14.844173
62.305 15.802466
62.310 15.778684
62.315 15.802417
62.320 15.93053
62.325 15.255856
62.330 15.135814
62.335 15.193807
62.340 14.570603
62.345 14.200339
62.350 14.079058
62.355 14.039721
62.360 14.562174
62.365 15.33965
62.370 15.281576
62.375 15.475629
62.380 15.050066
62.385 14.720581
62.390 14.534101
62.395 14.279824
62.400 14.188424
62.405 14.482301
62.410 14.853248
62.415 15.430716
62.420 15.759537
62.425 15.802607
62.430 15.624863
62.435 15.512091
62.440 15.386606
62.445 15.187612
62.450 15.492709
62.455 16.197052
62.460 16.254757
62.465 16.509287
62.470 16.426804
62.475 16.792551
62.480 16.840109
62.485 16.124876
62.490 15.0238
62.495 14.864673
62.500 14.307731
62.505 13.842437
62.510 13.416511
62.515 12.714356
62.520 12.459878
62.525 13.56803
62.530 13.82025
62.535 14.129557
62.540 14.644986
62.545 14.934099
62.550 15.439701
62.555 16.278362
62.560 15.773427
62.565 15.422989
62.570 15.641191
62.575 15.526162
62.580 15.743869
62.585 15.825545
62.590 14.68267
62.595 14.193401
62.600 14.094903
62.605 13.885052
62.610 13.505251
62.615 12.699375
62.620 12.411047
62.625 12.580663
62.630 12.673068
62.635 12.813679
62.640 12.855723
62.645 13.20923
62.650 13.48851
62.655 14.065519
62.660 14.91623
62.665 14.87425
62.670 14.73197
62.675 14.656376
62.680 14.096717
62.685 14.647856
62.690 15.42893
62.695 15.479852
62.700 15.159249
62.705 15.170497
62.710 15.365946
62.715 15.358196
62.720 14.996438
62.725 14.3897
62.730 14.590056
62.735 15.384827
62.740 15.796577
62.745 15.406133
62.750 16.054352
62.755 15.974636
62.760 15.518092
62.765 15.5382
62.770 15.752873
62.775 15.80797
62.780 15.986699
62.785 15.919198
62.790 16.028908
62.795 16.778862
62.800 16.81127
62.805 16.590492
62.810 16.180525
62.815 16.099655
62.820 15.752269
62.825 15.698062
62.830 15.319927
62.835 14.764676
62.840 14.254054
62.845 14.659028
62.850 14.521703
62.855 14.085413
62.860 13.578007
62.865 13.071217
62.870 12.641993
62.875 12.806341
62.880 12.613935
62.885 12.330195
62.890 12.768939
62.895 13.091049
62.900 13.610371
62.905 14.640469
62.910 14.879916
62.915 14.772114
62.920 14.761343
62.925 14.354776
62.930 13.917407
62.935 13.778791
62.940 13.051154
62.945 12.937415
62.950 12.530193
62.955 12.535451
62.960 12.673335
62.965 13.080673
62.970 13.147931
62.975 13.255642
62.980 13.535296
62.985 14.046345
62.990 14.642089
62.995 15.112285
63.000 15.506947
63.005 15.806073
63.010 15.941067
63.015 15.460598
63.020 15.322499
63.025 15.089794
63.030 14.938123
63.035 14.575142
63.040 14.461437
63.045 14.155013
63.050 14.217035
63.055 14.380398
63.060 14.302945
63.065 14.296638
63.070 13.512464
63.075 12.808484
63.080 12.482349
63.085 12.291325
63.090 12.412375
63.095 12.46923
63.100 12.856549
63.105 13.920962
63.110 14.877953
63.115 15.330201
63.120 16.042011
63.125 16.539362
63.130 16.701838
63.135 16.183453
63.140 15.595277
63.145 14.835507
63.150 14.648995
63.155 14.067589
63.160 13.545156
63.165 13.505501
63.170 14.161255
63.175 14.586079
63.180 14.929949
63.185 15.349236
63.190 15.804233
63.195 15.597178
63.200 15.151338
63.205 14.796474
63.210 14.473807
63.215 14.291629
63.220 14.053475
63.225 13.822436
63.230 14.262445
63.235 14.629723
63.240 14.803411
63.245 14.773233
63.250 14.897881
63.255 15.154267
63.260 15.084909
63.265 15.035172
63.270 14.853343
63.275 14.59011
63.280 14.768598
63.285 15.55814
63.290 16.209564
63.295 16.091171
63.300 15.791815
63.305 16.046572
63.310 16.198545
63.315 16.257364
63.320 15.341816
63.325 15.03205
63.330 15.025377
63.335 15.375854
63.340 14.881263
63.345 14.39017
63.350 14.578223
63.355 15.252421
63.360 15.204775
63.365 15.172296
63.370 14.991935
63.375 15.430346
63.380 15.723566
63.385 15.556005
63.390 14.801234
63.395 14.38843
63.400 14.562335
63.405 14.521931
63.410 14.353909
63.415 14.432738
63.420 14.514766
63.425 15.051732
63.430 15.693896
63.435 15.757386
63.440 16.024012
63.445 16.134615
63.450 16.405714
63.455 16.139286
63.460 15.462267
63.465 14.771385
63.470 14.814244
63.475 14.79477
63.480 14.645277
63.485 14.397248
63.490 15.201341
63.495 15.929632
63.500 16.651365
63.505 16.790693
63.510 16.939705
63.515 17.337378
63.520 17.453253
63.525 16.895552
63.530 16.785107
63.535 16.80312
63.540 16.356222
63.545 16.08946
63.550 15.785024
63.555 15.303031
63.560 15.179179
63.565 14.568552
63.570 14.050369
63.575 14.366727
63.580 14.541177
63.585 14.278869
63.590 14.154945
63.595 13.79831
63.600 13.832559
63.605 13.836171
63.610 13.174502
63.615 12.810634
63.620 13.211297
63.625 13.349796
63.630 13.194153
63.635 13.244612
63.640 13.751788
63.645 14.463549
63.650 14.970237
63.655 15.068124
63.660 15.375898
63.665 16.050518
63.670 15.8328
63.675 15.257435
63.680 14.872164
63.685 14.700824
63.690 14.607301
63.695 14.438825
63.700 14.088796
63.705 14.45475
63.710 14.597351
63.715 14.795266
63.720 14.621264
63.725 14.65904
63.730 14.563717
63.735 14.573883
63.740 14.158451
63.745 14.255237
63.750 13.633697
63.755 13.418251
63.760 13.585458
63.765 13.745185
63.770 13.882543
63.775 14.777235
63.780 14.928244
63.785 15.229721
63.790 15.457115
63.795 15.433374
63.800 15.800866
63.805 15.574491
63.810 15.131556
63.815 15.295171
63.820 15.321133
63.825 14.60562
63.830 14.042489
63.835 13.952152
63.840 14.682107
63.845 15.306231
63.850 15.357916
63.855 15.558231
63.860 15.708817
63.865 15.565591
63.870 15.127496
63.875 14.773663
63.880 14.318446
63.885 13.894147
63.890 13.421227
63.895 13.773186
63.900 14.495428
63.905 14.685622
63.910 13.975445
63.915 13.574942
63.920 13.978323
63.925 14.620249
63.930 14.441883
63.935 14.234385
63.940 14.356057
63.945 14.710126
63.950 15.142467
63.955 15.026731
63.960 15.231623
63.965 15.642751
63.970 16.0418
63.975 15.726189
63.980 15.960464
63.985 15.717723
63.990 15.41991
63.995 15.338849
64.000 15.440209
64.005 15.271474
64.010 15.833843
64.015 16.240274
64.020 17.095922
64.025 17.443913
64.030 16.951649
64.035 16.164717
64.040 15.830519
64.045 15.23376
64.050 14.900828
64.055 13.796432
64.060 13.81229
64.065 14.304099
64.070 15.307846
64.075 15.933745
64.080 15.708534
64.085 15.347407
64.090 15.989671
64.095 15.601736
64.100 15.144495
64.105 14.182827
64.110 13.779945
64.115 14.149434
64.120 14.035175
64.125 13.407794
64.130 13.774025
64.135 14.218546
64.140 14.591785
64.145 14.615502
64.150 14.561091
64.155 15.020267
64.160 15.45458
64.165 15.464027
64.170 15.790874
64.175 15.886295
64.180 15.868167
64.185 16.16226
64.190 16.101248
64.195 16.536783
64.200 16.37882
64.205 15.66821
64.210 15.218309
64.215 14.909906
64.220 14.773159
64.225 14.253052
64.230 14.250326
64.235 14.169395
64.240 14.165291
64.245 14.667834
64.250 14.735165
64.255 14.68269
64.260 15.120083
64.265 15.143911
64.270 15.550308
64.275 16.326084
64.280 16.943674
64.285 16.821552
64.290 17.040478
64.295 16.864281
64.300 16.556633
64.305 17.067963
64.310 17.273695
64.315 16.681641
64.320 16.884995
64.325 16.853321
64.330 16.790739
64.335 17.004246
64.340 16.367538
64.345 15.536387
64.350 15.937977
64.355 16.15522
64.360 16.323923
64.365 16.2824
64.370 15.607023
64.375 14.948901
64.380 14.512046
64.385 13.786468
64.390 13.378905
64.395 13.582545
64.400 13.924249
64.405 14.374822
64.410 15.093349
64.415 15.520038
64.420 15.986152
64.425 16.089514
64.430 16.069006
64.435 16.33128
64.440 16.821182
64.445 17.142569
64.450 17.129385
64.455 17.143305
64.460 17.192434
64.465 17.083466
64.470 16.671965
64.475 16.057753
64.480 15.458654
64.485 14.879852
64.490 14.695499
64.495 14.868237
64.500 14.599385
64.505 14.694779
64.510 15.022802
64.515 15.141763
64.520 15.861985
64.525 16.21174
64.530 16.515413
64.535 16.894901
64.540 16.841892
64.545 16.684477
64.550 16.968781
64.555 17.482464
64.560 17.135338
64.565 16.90416
64.570 16.467205
64.575 16.784294
64.580 16.724644
64.585 16.239372
64.590 15.592406
64.595 15.299048
64.600 14.995092
64.605 14.745677
64.610 14.410366
64.615 14.480498
64.620 14.890647
64.625 15.072309
64.630 15.316581
64.635 15.439675
64.640 15.62881
64.645 15.219322
64.650 14.97494
64.655 14.512465
64.660 14.438279
64.665 14.550518
64.670 14.793235
64.675 14.92067
64.680 15.591618
64.685 16.377991
64.690 16.657331
64.695 16.789045
64.700 16.546762
64.705 16.540443
64.710 16.97463
64.715 16.484545
64.720 16.156326
64.725 16.022789
64.730 15.907825
64.735 16.394135
64.740 15.997685
64.745 16.04434
64.750 15.968322
64.755 15.65912
64.760 15.635822
64.765 15.525908
64.770 15.598359
64.775 16.051727
64.780 15.845293
64.785 15.745552
64.790 16.128563
64.795 16.469826
64.800 17.022419
64.805 17.036091
64.810 17.07926
64.815 17.351931
64.820 17.678066
64.825 17.634768
64.830 17.986364
64.835 17.814322
64.840 17.910669
64.845 18.161501
64.850 18.117941
64.855 18.33305
64.860 18.470407
64.865 18.011696
64.870 18.058386
64.875 18.045898
64.880 18.039316
64.885 18.483391
64.890 18.780987
64.895 19.08593
64.900 19.190969
64.905 19.023308
64.910 18.769369
64.915 18.817287
64.920 18.664043
64.925 18.428114
64.930 18.369331
64.935 18.452238
64.940 18.64662
64.945 18.752665
64.950 19.099031
64.955 18.815672
64.960 19.134375
64.965 19.317364
64.970 19.265951
64.975 19.371658
64.980 19.151226
64.985 18.935686
64.990 19.273483
64.995 19.388391
65.000 19.831156
65.005 20.432047
65.010 20.534002
65.015 21.387583
65.020 22.477047
65.025 22.857832
65.030 22.508696
65.035 21.857485
65.040 21.529314
65.045 20.763453
65.050 20.433926
65.055 19.807808
65.060 19.664555
65.065 19.548178
65.070 19.725964
65.075 19.910532
65.080 20.787361
65.085 21.382603
65.090 21.445221
65.095 21.553623
65.100 21.529583
65.105 21.671415
65.110 21.32156
65.115 20.701094
65.120 20.47378
65.125 20.225403
65.130 20.232649
65.135 19.946276
65.140 19.775141
65.145 20.320585
65.150 20.328131
65.155 20.344337
65.160 20.311371
65.165 19.918747
65.170 20.530615
65.175 20.584517
65.180 20.381144
65.185 20.590912
65.190 19.932587
65.195 20.12899
65.200 20.893322
65.205 20.898949
65.210 20.674339
65.215 20.628607
65.220 20.844687
65.225 20.971489
65.230 20.34215
65.235 19.792036
65.240 19.392477
65.245 19.324175
65.250 19.493671
65.255 19.415497
65.260 19.718622
65.265 20.102705
65.270 20.288071
65.275 20.48839
65.280 20.682989
65.285 20.589014
65.290 19.990084
65.295 19.38961
65.300 19.365755
65.305 19.617254
65.310 20.135117
65.315 20.420767
65.320 20.005121
65.325 20.231487
65.330 20.529123
65.335 20.226582
65.340 19.946241
65.345 19.369719
65.350 18.980122
65.355 19.386066
65.360 19.227695
65.365 19.002954
65.370 18.985132
65.375 18.969267
65.380 18.541361
65.385 18.673763
65.390 18.804178
65.395 18.759785
65.400 18.888676
65.405 18.707636
65.410 18.870399
65.415 19.496206
65.420 19.299723
65.425 18.853441
65.430 19.035086
65.435 19.6063
65.440 19.77457
65.445 18.897331
65.450 18.278976
65.455 18.228548
65.460 18.803549
65.465 19.159031
65.470 18.921736
65.475 19.04203
65.480 20.063444
65.485 20.525084
65.490 20.202469
65.495 20.026413
65.500 19.805708
65.505 19.71067
65.510 19.594067
65.515 19.389532
65.520 19.844782
65.525 20.596228
65.530 20.29447
65.535 20.430557
65.540 20.169397
65.545 20.63228
65.550 20.518051
65.555 19.957741
65.560 19.470362
65.565 19.514776
65.570 19.813618
65.575 20.560186
65.580 20.785534
65.585 21.033695
65.590 21.16152
65.595 21.329508
65.600 21.54287
65.605 21.78628
65.610 21.572733
65.615 21.929585
65.620 22.114153
65.625 22.660534
65.630 22.9594
65.635 22.992859
65.640 22.516375
65.645 22.501553
65.650 22.150913
65.655 22.588627
65.660 22.539555
65.665 22.164734
65.670 22.297045
65.675 22.759512
65.680 22.817739
65.685 22.844803
65.690 22.677851
65.695 22.689747
65.700 22.749025
65.705 22.988018
65.710 23.070459
65.715 23.528324
65.720 23.344479
65.725 23.08552
65.730 23.214821
65.735 23.563221
65.740 23.150639
65.745 23.506166
65.750 23.853264
65.755 24.877527
65.760 25.923353
65.765 26.216917
65.770 26.074492
65.775 26.683643
65.780 26.621305
65.785 25.9419
65.790 24.932976
65.795 24.174623
65.800 23.914751
65.805 24.135052
65.810 23.525967
65.815 23.432974
65.820 24.066399
65.825 24.389771
65.830 24.852448
65.835 25.541763
65.840 25.789789
65.845 26.532061
65.850 26.657352
65.855 27.191017
65.860 26.830654
65.865 26.132223
65.870 25.747499
65.875 26.218693
65.880 26.486048
65.885 26.77042
65.890 26.598259
65.895 26.947145
65.900 27.047674
65.905 27.378254
65.910 27.281183
65.915 26.334621
65.920 25.686094
65.925 25.723408
65.930 25.968842
65.935 26.310522
65.940 25.909956
65.945 25.406116
65.950 26.077055
65.955 26.171251
65.960 26.040831
65.965 25.70097
65.970 25.458387
65.975 25.10005
65.980 25.569023
65.985 25.236132
65.990 25.080729
65.995 24.953493
66.000 25.28919
66.005 25.487635
66.010 25.156652
66.015 24.696634
66.020 24.866751
66.025 24.408903
66.030 24.012735
66.035 23.422274
66.040 23.473948
66.045 23.749762
66.050 23.396877
66.055 22.929384
66.060 22.715914
66.065 22.842958
66.070 23.048952
66.075 22.960014
66.080 23.074268
66.085 23.758076
66.090 24.348232
66.095 25.139153
66.100 25.970751
66.105 26.603731
66.110 26.907492
66.115 27.331423
66.120 27.445518
66.125 27.596159
66.130 27.362244
66.135 26.63949
66.140 26.691046
66.145 26.682692
66.150 26.102472
66.155 25.73719
66.160 25.841757
66.165 25.916594
66.170 25.557949
66.175 25.729956
66.180 25.661095
66.185 25.538389
66.190 25.067688
66.195 25.174814
66.200 24.708429
66.205 24.082693
66.210 23.700167
66.215 24.062519
66.220 24.447535
66.225 24.334354
66.230 24.159678
66.235 25.36508
66.240 26.582626
66.245 26.525991
66.250 26.043945
66.255 26.013401
66.260 25.848675
66.265 26.030235
66.270 25.052298
66.275 24.222754
66.280 24.064833
66.285 24.657469
66.290 24.267038
66.295 24.104555
66.300 23.920332
66.305 24.17824
66.310 23.877508
66.315 23.424776
66.320 23.363081
66.325 23.53603
66.330 23.189745
66.335 22.717289
66.340 21.965555
66.345 22.733322
66.350 22.102018
66.355 21.726509
66.360 21.419712
66.365 21.674295
66.370 22.193407
66.375 21.867044
66.380 21.231344
66.385 21.266754
66.390 21.42804
66.395 21.833881
66.400 21.778318
66.405 21.246073
66.410 21.764158
66.415 21.94507
66.420 22.4361
66.425 22.28187
66.430 22.046789
66.435 22.274273
66.440 22.023577
66.445 21.692795
66.450 20.782351
66.455 19.981979
66.460 20.04241
66.465 20.333429
66.470 19.76156
66.475 19.724634
66.480 19.673031
66.485 20.630915
66.490 21.794044
66.495 21.805897
66.500 21.617966
66.505 21.898743
66.510 22.608765
66.515 22.770918
66.520 21.961378
66.525 21.238455
66.530 20.899239
66.535 20.762197
66.540 20.502108
66.545 19.497971
66.550 19.165436
66.555 19.448099
66.560 19.422895
66.565 19.117262
66.570 18.974028
66.575 18.661388
66.580 19.330904
66.585 20.147263
66.590 20.076242
66.595 19.42218
66.600 18.977318
66.605 19.174578
66.610 18.995138
66.615 18.357414
66.620 17.821526
66.625 17.936947
66.630 18.643093
66.635 19.212133
66.640 18.9238
66.645 19.009254
66.650 18.732492
66.655 18.573837
66.660 17.711987
66.665 17.279064
66.670 17.150112
66.675 17.215683
66.680 17.44788
66.685 18.063797
66.690 18.353399
66.695 18.852013
66.700 18.953152
66.705 19.006037
66.710 19.41114
66.715 19.329899
66.720 18.882084
66.725 18.54628
66.730 18.593878
66.735 18.424809
66.740 18.495941
66.745 18.155207
66.750 17.854839
66.755 17.980732
66.760 18.075846
66.765 17.840227
66.770 17.936689
66.775 17.479071
66.780 17.407118
66.785 17.164639
66.790 17.041622
66.795 16.791636
66.800 16.573946
66.805 16.756838
66.810 16.985577
66.815 16.927906
66.820 16.627241
66.825 16.573751
66.830 16.427843
66.835 16.451384
66.840 16.293877
66.845 16.428679
66.850 16.776518
66.855 17.083483
66.860 16.647186
66.865 17.015261
66.870 17.008343
66.875 16.851851
66.880 16.580856
66.885 16.551807
66.890 16.528963
66.895 16.875479
66.900 16.994537
66.905 16.732864
66.910 16.17491
66.915 15.761195
66.920 15.24095
66.925 14.927442
66.930 14.64917
66.935 14.959492
66.940 15.315991
66.945 16.113731
66.950 16.405027
66.955 16.955324
66.960 17.723253
66.965 17.603657
66.970 17.083715
66.975 16.665934
66.980 16.390894
66.985 15.977367
66.990 15.494007
66.995 14.738347
67.000 14.31445
67.005 14.75156
67.010 15.117405
67.015 15.109672
67.020 15.597251
67.025 16.115379
67.030 16.366222
67.035 16.565153
67.040 16.376318
67.045 16.110939
67.050 16.042416
67.055 15.751302
67.060 15.466479
67.065 15.575225
67.070 15.912905
67.075 15.990335
67.080 16.480434
67.085 16.787868
67.090 16.86132
67.095 16.968103
67.100 16.599018
67.105 16.348717
67.110 15.988101
67.115 16.056259
67.120 16.010878
67.125 16.641706
67.130 16.674408
67.135 17.420113
67.140 17.763756
67.145 17.942396
67.150 17.528034
67.155 17.826221
67.160 17.724779
67.165 17.730818
67.170 17.62359
67.175 17.93675
67.180 18.132736
67.185 17.713289
67.190 16.920736
67.195 16.460724
67.200 16.286758
67.205 15.454563
67.210 15.086621
67.215 15.129791
67.220 16.000971
67.225 16.210537
67.230 16.173464
67.235 16.462841
67.240 16.709343
67.245 17.178352
67.250 17.384415
67.255 16.705809
67.260 16.726934
67.265 17.00626
67.270 16.666842
67.275 16.793682
67.280 16.602589
67.285 16.653387
67.290 17.183046
67.295 17.285286
67.300 17.073647
67.305 17.580948
67.310 17.888514
67.315 17.229528
67.320 17.277821
67.325 17.202106
67.330 17.201187
67.335 16.786169
67.340 16.283499
67.345 15.911849
67.350 16.075874
67.355 15.500328
67.360 15.488542
67.365 15.676063
67.370 16.01984
67.375 15.93901
67.380 15.82849
67.385 16.200155
67.390 16.536882
67.395 16.430246
67.400 16.556801
67.405 16.556257
67.410 16.841532
67.415 16.923143
67.420 16.807655
67.425 16.448879
67.430 15.77345
67.435 15.866235
67.440 15.939888
67.445 16.006805
67.450 16.214487
67.455 16.094223
67.460 16.575024
67.465 16.595194
67.470 16.635569
67.475 16.377064
67.480 16.023464
67.485 16.287407
67.490 16.020039
67.495 16.110863
67.500 16.46303
67.505 16.484238
67.510 16.528841
67.515 17.007917
67.520 17.128174
67.525 17.861473
67.530 18.345087
67.535 18.650743
67.540 18.69556
67.545 18.956755
67.550 18.434908
67.555 18.335135
67.560 18.023245
67.565 17.100065
67.570 16.613293
67.575 16.492477
67.580 16.796591
67.585 16.74984
67.590 16.379168
67.595 15.961143
67.600 16.217505
67.605 16.142178
67.610 16.154245
67.615 15.819499
67.620 16.214096
67.625 16.595884
67.630 17.173954
67.635 17.721388
67.640 17.943499
67.645 18.362478
67.650 18.246204
67.655 17.598042
67.660 17.409311
67.665 17.303272
67.670 16.450256
67.675 15.617092
67.680 14.949303
67.685 15.237731
67.690 15.883643
67.695 15.624803
67.700 15.524799
67.705 15.800928
67.710 16.38085
67.715 16.328707
67.720 15.565551
67.725 14.791374
67.730 14.767079
67.735 14.82413
67.740 14.931426
67.745 14.97577
67.750 15.334184
67.755 15.396421
67.760 15.908534
67.765 15.773141
67.770 16.311728
67.775 16.425045
67.780 16.319818
67.785 16.569006
67.790 17.202936
67.795 17.488976
67.800 17.380123
67.805 16.98296
67.810 17.059376
67.815 17.589624
67.820 17.70167
67.825 17.408657
67.830 16.956186
67.835 16.622623
67.840 16.324871
67.845 16.178808
67.850 15.662667
67.855 15.792216
67.860 16.330065
67.865 16.975758
67.870 17.445385
67.875 17.079489
67.880 16.925261
67.885 17.684502
67.890 17.689337
67.895 17.387054
67.900 17.498974
67.905 17.002815
67.910 17.693428
67.915 17.950253
67.920 17.527884
67.925 17.459797
67.930 17.538202
67.935 17.697708
67.940 18.128239
67.945 18.33432
67.950 18.471088
67.955 18.784658
67.960 18.836441
67.965 18.163883
67.970 17.879433
67.975 18.394518
67.980 18.012888
67.985 17.826
67.990 17.829453
67.995 17.787842
68.000 18.072475
68.005 18.582718
68.010 18.517281
68.015 18.509197
68.020 17.729435
68.025 16.622026
68.030 16.394682
68.035 16.222013
68.040 15.461003
68.045 15.253526
68.050 15.314768
68.055 15.624137
68.060 15.587404
68.065 15.292384
68.070 15.439171
68.075 15.43924
68.080 14.977901
68.085 15.265952
68.090 15.718498
68.095 16.276752
68.100 16.740852
68.105 16.889534
68.110 17.25745
68.115 17.487022
68.120 17.283491
68.125 16.951422
68.130 16.880138
68.135 16.787075
68.140 16.431692
68.145 16.418514
68.150 16.697655
68.155 16.960598
68.160 17.264624
68.165 17.29562
68.170 17.639921
68.175 17.998508
68.180 18.069914
68.185 18.205812
68.190 18.085529
68.195 18.303669
68.200 18.182556
68.205 18.111153
68.210 18.168697
68.215 18.375378
68.220 17.729418
68.225 17.289682
68.230 17.026716
68.235 16.887209
68.240 16.306757
68.245 15.669505
68.250 15.058375
68.255 15.230889
68.260 14.845568
68.265 14.373168
68.270 14.360611
68.275 14.466633
68.280 15.009917
68.285 15.463761
68.290 15.415798
68.295 15.523074
68.300 16.183573
68.305 16.110086
68.310 16.07255
68.315 15.648109
68.320 15.280023
68.325 15.308684
68.330 15.415956
68.335 15.389447
68.340 15.472712
68.345 16.108595
68.350 16.410234
68.355 16.900883
68.360 17.328297
68.365 17.431225
68.370 17.604631
68.375 17.684036
68.380 16.73564
68.385 16.32151
68.390 16.223782
68.395 16.383703
68.400 16.190554
68.405 15.857425
68.410 15.925375
68.415 16.429539
68.420 16.706528
68.425 16.695618
68.430 16.633303
68.435 16.755579
68.440 16.938601
68.445 16.955566
68.450 16.546812
68.455 17.059959
68.460 17.493263
68.465 17.350594
68.470 17.549503
68.475 17.90369
68.480 17.717358
68.485 17.705347
68.490 16.837786
68.495 16.494989
68.500 16.769484
68.505 16.191019
68.510 15.799083
68.515 15.862727
68.520 16.156927
68.525 15.995779
68.530 16.10622
68.535 16.05414
68.540 16.201077
68.545 16.295317
68.550 15.957521
68.555 15.430272
68.560 15.734951
68.565 15.392242
68.570 15.816141
68.575 15.879395
68.580 15.854105
68.585 16.147655
68.590 16.52927
68.595 16.423723
68.600 15.93926
68.605 15.910481
68.610 15.937616
68.615 16.475094
68.620 16.84127
68.625 16.68331
68.630 17.021971
68.635 17.576366
68.640 18.061586
68.645 17.681778
68.650 17.154949
68.655 16.684263
68.660 16.914253
68.665 16.660769
68.670 16.617979
68.675 16.014822
68.680 16.316645
68.685 16.598845
68.690 17.104357
68.695 16.935047
68.700 16.820118
68.705 16.151083
68.710 16.664818
68.715 16.902304
68.720 17.011452
68.725 16.646338
68.730 16.504242
68.735 16.720825
68.740 16.613297
68.745 16.247055
68.750 15.974521
68.755 15.899008
68.760 16.330435
68.765 16.456467
68.770 17.042097
68.775 17.405405
68.780 17.354221
68.785 17.506081
68.790 17.183115
68.795 17.263922
68.800 17.097015
68.805 16.459602
68.810 16.551361
68.815 16.622707
68.820 16.437239
68.825 16.219896
68.830 16.512218
68.835 17.039852
68.840 17.498167
68.845 17.438522
68.850 17.705839
68.855 18.061722
68.860 18.555481
68.865 18.487705
68.870 18.459013
68.875 18.572908
68.880 18.193027
68.885 18.421228
68.890 18.769831
68.895 18.644283
68.900 18.944429
68.905 18.824667
68.910 18.673021
68.915 18.577532
68.920 18.288189
68.925 18.111383
68.930 18.145535
68.935 17.676954
68.940 18.195091
68.945 18.250536
68.950 18.252338
68.955 18.267405
68.960 18.204666
68.965 18.742392
68.970 18.72821
68.975 18.230114
68.980 18.362825
68.985 18.622435
68.990 18.155392
68.995 18.058132
69.000 17.457632
69.005 17.985273
69.010 18.535446
69.015 18.812971
69.020 18.98584
69.025 19.089222
69.030 18.669376
69.035 18.339159
69.040 18.404263
69.045 17.562759
69.050 17.248699
69.055 17.169283
69.060 17.366018
69.065 17.726576
69.070 18.200623
69.075 18.829042
69.080 19.731651
69.085 20.384531
69.090 20.790569
69.095 20.913147
69.100 21.298178
69.105 21.365635
69.110 20.776035
69.115 20.462917
69.120 20.0891
69.125 19.916573
69.130 20.064793
69.135 19.519985
69.140 19.21822
69.145 19.155573
69.150 18.703541
69.155 18.755266
69.160 18.836348
69.165 19.108912
69.170 19.838419
69.175 19.457512
69.180 19.452
69.185 19.758982
69.190 19.235003
69.195 19.441889
69.200 19.251469
69.205 18.37678
69.210 18.894087
69.215 19.571022
69.220 20.083059
69.225 20.733297
69.230 20.595308
69.235 19.899923
69.240 20.480078
69.245 20.776209
69.250 20.289539
69.255 20.00279
69.260 19.804634
69.265 20.171701
69.270 21.193125
69.275 21.493992
69.280 21.111885
69.285 20.942074
69.290 20.844448
69.295 20.828806
69.300 20.672789
69.305 20.945215
69.310 20.634207
69.315 20.094357
69.320 19.898952
69.325 20.677124
69.330 21.454866
69.335 21.363651
69.340 20.785772
69.345 21.171259
69.350 21.35511
69.355 21.78816
69.360 21.069172
69.365 20.602037
69.370 20.5228
69.375 20.23489
69.380 20.579556
69.385 21.035858
69.390 21.169981
69.395 21.453424
69.400 21.269136
69.405 21.581732
69.410 21.662952
69.415 21.237505
69.420 20.836205
69.425 20.177143
69.430 19.957443
69.435 20.012671
69.440 19.862331
69.445 19.827799
69.450 20.234194
69.455 20.970467
69.460 21.041777
69.465 21.116411
69.470 21.566647
69.475 22.007082
69.480 22.317032
69.485 21.844683
69.490 21.190372
69.495 21.712868
69.500 21.120441
69.505 20.792583
69.510 20.327385
69.515 20.141785
69.520 20.494106
69.525 21.00293
69.530 21.415462
69.535 21.361219
69.540 21.06686
69.545 21.087248
69.550 21.132481
69.555 21.063751
69.560 20.489525
69.565 20.296827
69.570 20.454973
69.575 20.954582
69.580 21.549234
69.585 21.291265
69.590 21.871008
69.595 22.108767
69.600 21.593784
69.605 21.828827
69.610 21.431931
69.615 21.163036
69.620 21.200016
69.625 21.019014
69.630 20.753208
69.635 20.919252
69.640 21.535021
69.645 22.035681
69.650 22.118059
69.655 22.131039
69.660 22.24906
69.665 22.539047
69.670 22.11709
69.675 21.717432
69.680 20.864656
69.685 20.88154
69.690 20.343956
69.695 19.97084
69.700 20.353167
69.705 20.715664
69.710 20.671812
69.715 21.073322
69.720 20.711185
69.725 21.104799
69.730 20.770514
69.735 20.393456
69.740 20.206724
69.745 19.85425
69.750 19.65485
69.755 19.364111
69.760 19.351734
69.765 19.524742
69.770 19.078945
69.775 19.12598
69.780 19.401497
69.785 19.546726
69.790 19.440813
69.795 18.484396
69.800 18.777802
69.805 18.881659
69.810 19.414326
69.815 19.633545
69.820 19.14576
69.825 19.156141
69.830 19.588997
69.835 19.814703
69.840 19.447021
69.845 18.68619
69.850 18.713203
69.855 19.287207
69.860 19.749271
69.865 19.470854
69.870 19.283674
69.875 20.121
69.880 19.829805
69.885 19.265608
69.890 18.837259
69.895 18.548531
69.900 18.426764
69.905 17.928696
69.910 17.261541
69.915 17.579777
69.920 17.34556
69.925 17.57655
69.930 17.436476
69.935 17.093651
69.940 17.010099
69.945 17.091808
69.950 17.012318
69.955 17.478048
69.960 17.206488
69.965 17.580727
69.970 18.514418
69.975 18.35014
69.980 18.457003
69.985 18.858139
69.990 18.359964
69.995 18.841263
70.000 18.845537
70.005 18.257708
70.010 18.394129
70.015 17.822943
70.020 18.084782
70.025 18.73185
70.030 18.288988
70.035 18.50424
70.040 18.307102
70.045 18.56703
70.050 18.323673
70.055 18.043287
70.060 17.418844
70.065 17.431061
70.070 17.357231
70.075 17.972311
70.080 17.767572
70.085 17.735384
70.090 17.6467
70.095 17.81653
70.100 17.470444
70.105 17.148155
70.110 16.337429
70.115 16.293797
70.120 16.363304
70.125 15.980424
70.130 15.983375
70.135 15.996386
70.140 15.814155
70.145 16.23469
70.150 16.702951
70.155 17.015411
70.160 17.212072
70.165 16.624252
70.170 16.784775
70.175 17.438253
70.180 17.617508
70.185 17.204151
70.190 16.8465
70.195 16.957727
70.200 17.211914
70.205 16.969625
70.210 16.79545
70.215 16.241053
70.220 16.339962
70.225 16.324865
70.230 15.954397
70.235 16.165909
70.240 16.631771
70.245 16.458351
70.250 16.898653
70.255 16.7859
70.260 17.211735
70.265 17.420031
70.270 17.13759
70.275 16.546934
70.280 16.508804
70.285 16.210558
70.290 16.274488
70.295 15.917088
70.300 15.697101
70.305 15.405722
70.310 15.979347
70.315 16.082235
70.320 16.149891
70.325 15.888548
70.330 15.886708
70.335 16.22998
70.340 16.375097
70.345 15.769273
70.350 16.129496
70.355 16.228569
70.360 16.354767
70.365 16.545132
70.370 16.22624
70.375 16.421976
70.380 16.00878
70.385 14.880486
70.390 14.728744
70.395 14.852716
70.400 15.085693
70.405 15.177556
70.410 15.03733
70.415 15.332526
70.420 16.175501
70.425 16.191748
70.430 16.566696
70.435 16.627909
70.440 16.936905
70.445 17.037109
70.450 17.5776
70.455 17.534285
70.460 17.521973
70.465 17.313875
70.470 16.7784
70.475 16.911636
70.480 17.31892
70.485 16.506622
70.490 16.210829
70.495 16.124269
70.500 16.600296
70.505 17.266243
70.510 17.149641
70.515 17.019985
70.520 17.928083
70.525 18.148842
70.530 17.931271
70.535 17.333496
70.540 17.039293
70.545 16.966625
70.550 16.748405
70.555 16.385685
70.560 16.576097
70.565 16.644836
70.570 16.988676
70.575 16.814806
70.580 16.692091
70.585 16.763041
70.590 16.671188
70.595 16.326586
70.600 16.474407
70.605 16.356516
70.610 16.062389
70.615 16.062925
70.620 15.677144
70.625 15.92684
70.630 16.087015
70.635 15.72594
70.640 16.191919
70.645 16.714615
70.650 16.614977
70.655 16.544563
70.660 16.782377
70.665 16.288616
70.670 16.292166
70.675 15.887528
70.680 15.816871
70.685 15.587881
70.690 15.607699
70.695 15.431463
70.700 16.417732
70.705 16.808178
70.710 16.892885
70.715 16.821703
70.720 17.010778
70.725 17.119425
70.730 17.33095
70.735 16.189911
70.740 15.559639
70.745 15.595814
70.750 16.1359
70.755 15.833894
70.760 15.160312
70.765 15.051362
70.770 15.104048
70.775 15.355452
70.780 14.800565
70.785 14.271982
70.790 14.715297
70.795 14.770582
70.800 14.654185
70.805 14.720522
70.810 14.578537
70.815 15.124238
70.820 15.645637
70.825 16.229628
70.830 16.814568
70.835 16.797886
70.840 16.637209
70.845 16.218107
70.850 16.398689
70.855 15.81453
70.860 15.488834
70.865 14.721484
70.870 14.674547
70.875 15.325833
70.880 15.70104
70.885 15.657737
70.890 15.538815
70.895 15.402273
70.900 16.03248
70.905 15.670933
70.910 15.151379
70.915 14.709238
70.920 14.453085
70.925 14.466649
70.930 14.137512
70.935 13.746555
70.940 14.113319
70.945 14.446593
70.950 14.225546
70.955 14.25779
70.960 14.444893
70.965 14.523758
70.970 14.912123
70.975 14.853987
70.980 14.382883
70.985 14.520126
70.990 14.511195
70.995 14.329813
71.000 14.742717
71.005 14.686073
71.010 14.574759
71.015 14.761285
71.020 14.745644
71.025 14.211441
71.030 14.426591
71.035 14.070076
71.040 13.791399
71.045 14.528356
71.050 15.049235
71.055 15.478762
71.060 15.875061
71.065 16.322733
71.070 16.270351
71.075 16.320805
71.080 15.631069
71.085 15.133542
71.090 15.371144
71.095 15.33813
71.100 15.955213
71.105 16.686518
71.110 16.785341
71.115 17.519135
71.120 18.058817
71.125 18.066654
71.130 18.114662
71.135 17.200752
71.140 16.99926
71.145 17.246658
71.150 16.879562
71.155 16.646624
71.160 16.048223
71.165 16.356606
71.170 16.632721
71.175 16.485912
71.180 16.032848
71.185 15.838538
71.190 15.718466
71.195 15.391291
71.200 15.365065
71.205 15.290951
71.210 15.189296
71.215 15.571187
71.220 15.548962
71.225 15.902771
71.230 16.078218
71.235 15.274649
71.240 14.893437
71.245 14.505852
71.250 13.908931
71.255 13.865188
71.260 13.858072
71.265 14.137257
71.270 14.539485
71.275 14.674305
71.280 15.021775
71.285 15.325942
71.290 14.909957
71.295 14.22442
71.300 14.111167
71.305 14.143799
71.310 14.281404
71.315 13.985904
71.320 13.992038
71.325 14.525913
71.330 14.572842
71.335 15.164016
71.340 15.611244
71.345 15.741779
71.350 16.004166
71.355 16.099043
71.360 16.201904
71.365 16.563416
71.370 15.829338
71.375 15.595876
71.380 15.535897
71.385 15.570071
71.390 15.290414
71.395 15.577874
71.400 15.50079
71.405 14.861868
71.410 14.485972
71.415 14.588247
71.420 14.644383
71.425 14.074044
71.430 12.946476
71.435 12.932296
71.440 13.391654
71.445 13.039705
71.450 12.732643
71.455 12.801369
71.460 13.299333
71.465 13.641112
71.470 13.950095
71.475 14.162625
71.480 14.99815
71.485 15.529191
71.490 15.374106
71.495 15.561963
71.500 15.669078
71.505 15.845178
71.510 15.752089
71.515 15.477874
71.520 15.113162
71.525 15.199528
71.530 14.586763
71.535 14.256501
71.540 14.567607
71.545 14.247077
71.550 14.145339
71.555 14.305952
71.560 14.86093
71.565 15.746892
71.570 16.008286
71.575 15.88858
71.580 15.825466
71.585 15.707446
71.590 15.691871
71.595 15.270068
71.600 15.014004
71.605 14.711179
71.610 14.498671
71.615 14.43953
71.620 14.752521
71.625 14.848789
71.630 15.173984
71.635 15.201378
71.640 15.398479
71.645 15.766916
71.650 15.535557
71.655 15.754855
71.660 15.520965
71.665 15.267912
71.670 15.271111
71.675 15.330922
71.680 15.126771
71.685 15.257352
71.690 14.88194
71.695 14.864427
71.700 15.68666
71.705 15.795135
71.710 15.653703
71.715 16.691811
71.720 17.127048
71.725 17.398493
71.730 17.259438
71.735 16.604679
71.740 16.880785
71.745 16.362671
71.750 15.650025
71.755 15.478587
71.760 15.485567
71.765 15.209793
71.770 14.946243
71.775 15.22564
71.780 15.007652
71.785 15.075084
71.790 14.924822
71.795 14.809574
71.800 15.016681
71.805 15.037824
71.810 14.588797
71.815 14.447874
71.820 14.215106
71.825 13.814197
71.830 13.680243
71.835 13.479191
71.840 13.526171
71.845 13.549205
71.850 14.071748
71.855 14.239152
71.860 15.027126
71.865 15.236314
71.870 15.228761
71.875 15.44141
71.880 15.752072
71.885 15.816627
71.890 15.300705
71.895 15.056888
71.900 15.118262
71.905 15.450184
71.910 15.436468
71.915 14.729849
71.920 14.119672
71.925 13.781035
71.930 13.717006
71.935 13.779893
71.940 13.419007
71.945 13.50777
71.950 13.732945
71.955 14.538811
71.960 14.664547
71.965 14.237251
71.970 14.287944
71.975 14.420485
71.980 14.765205
71.985 14.835031
71.990 14.562208
71.995 14.636523
72.000 14.742276
72.005 14.381738
72.010 14.230424
72.015 14.362709
72.020 14.328478
72.025 14.515039
72.030 14.655502
72.035 14.458724
72.040 14.890382
72.045 14.909736
72.050 14.650254
72.055 15.160423
72.060 15.387291
72.065 15.524117
72.070 15.560672
72.075 14.987321
72.080 15.012815
72.085 14.776714
72.090 14.548671
72.095 14.131147
72.100 14.370871
72.105 15.19113
72.110 15.136157
72.115 15.325845
72.120 15.487979
72.125 15.6679
72.130 16.043192
72.135 15.668081
72.140 15.24316
72.145 15.29974
72.150 14.59032
72.155 14.083295
72.160 14.098001
72.165 13.89979
72.170 13.901841
72.175 14.092866
72.180 15.024258
72.185 15.681577
72.190 16.052315
72.195 16.446371
72.200 16.167065
72.205 16.240974
72.210 16.350378
72.215 15.598319
72.220 15.444369
72.225 14.85874
72.230 15.076576
72.235 15.381475
72.240 15.560069
72.245 15.896876
72.250 16.290188
72.255 16.022936
72.260 15.761077
72.265 15.502037
72.270 15.466742
72.275 15.031417
72.280 14.310215
72.285 14.402344
72.290 15.181272
72.295 15.819083
72.300 16.131449
72.305 15.968274
72.310 15.888741
72.315 15.754417
72.320 15.385691
72.325 15.203834
72.330 14.924909
72.335 15.208642
72.340 15.335532
72.345 15.569082
72.350 15.514448
72.355 15.080752
72.360 14.646643
72.365 14.37608
72.370 14.418782
72.375 14.567969
72.380 14.593571
72.385 14.866338
72.390 15.052405
72.395 15.788762
72.400 16.005249
72.405 16.366596
72.410 16.567263
72.415 16.583904
72.420 16.275181
72.425 15.856801
72.430 15.520013
72.435 15.005584
72.440 14.442708
72.445 14.57489
72.450 14.624945
72.455 15.206927
72.460 15.747801
72.465 15.647957
72.470 16.34721
72.475 15.921535
72.480 15.845602
72.485 15.454799
72.490 15.452418
72.495 15.39181
72.500 14.932445
72.505 14.384409
72.510 14.360856
72.515 14.111386
72.520 14.666273
72.525 14.11692
72.530 13.662721
72.535 14.188283
72.540 14.925049
72.545 15.718123
72.550 16.082312
72.555 16.225674
72.560 17.14143
72.565 17.769848
72.570 17.442242
72.575 16.69128
72.580 16.188278
72.585 16.123619
72.590 16.412254
72.595 15.727335
72.600 15.515772
72.605 15.585046
72.610 15.505345
72.615 14.781511
72.620 14.432623
72.625 14.148424
72.630 14.246774
72.635 14.041168
72.640 13.551298
72.645 14.184788
72.650 14.481641
72.655 14.760054
72.660 14.51767
72.665 14.232288
72.670 13.946732
72.675 13.968965
72.680 13.596104
72.685 13.147388
72.690 12.754091
72.695 12.76229
72.700 12.621384
72.705 13.054547
72.710 13.371634
72.715 13.593082
72.720 13.783834
72.725 14.025999
72.730 14.270046
72.735 14.366036
72.740 14.371192
72.745 14.115754
72.750 14.221517
72.755 14.473932
72.760 14.767129
72.765 14.965309
72.770 14.754189
72.775 14.590919
72.780 14.41098
72.785 14.488493
72.790 14.465932
72.795 14.386169
72.800 14.66946
72.805 14.835111
72.810 14.826857
72.815 14.756528
72.820 14.650359
72.825 13.877713
72.830 13.294279
72.835 13.123964
72.840 13.432118
72.845 13.360955
72.850 13.257523
72.855 13.054873
72.860 13.26113
72.865 13.014358
72.870 12.670863
72.875 12.681796
72.880 13.409484
72.885 13.548058
72.890 13.926405
72.895 14.057245
72.900 13.78326
72.905 13.711209
72.910 13.578568
72.915 13.09948
72.920 13.371507
72.925 12.976047
72.930 13.191912
72.935 13.665533
72.940 13.484259
72.945 13.561696
72.950 13.925488
72.955 13.843896
72.960 14.103598
72.965 14.19665
72.970 14.191728
72.975 14.609891
72.980 14.591981
72.985 14.480036
72.990 14.297897
72.995 13.062918
73.000 12.652319
