!@!!GADDS PLOTSO FILE: Chi integration type
!@!!Title/SampleName: map-14d
!@!!Comment: ?
!@!!User: Bruker Instrument Administrator
!@!!Site: University of Illinois Chicago
!@!!Frame: map-14d_01_000.gfrm
!@!!Wavelengths    1.54184   1.54056   1.54439
!@!!Frame angles: 2Theta: 63.000 Omega: 50.000 Phi: 0.000 Chi: 90.000
!@!!Integration range: 2Theta: 53.000 to 73.000  Gamma: -105.000 to -75.000
!@!!Integration method: bin normalized
!@!N
!@!SS
!@!M
!@!L 0.0 0.0 0.0 0.0
!@!XDegrees
!@!YCounts
53.000 7.510744
53.005 7.260495
53.010 7.399789
53.015 7.128629
53.020 7.314771
53.025 7.688097
53.030 7.97992
53.035 8.085996
53.040 7.995301
53.045 8.23886
53.050 9.024749
53.055 8.944764
53.060 8.769651
53.065 8.526038
53.070 8.9203
53.075 9.234957
53.080 8.927047
53.085 8.872141
53.090 8.863455
53.095 9.259187
53.100 9.055988
53.105 8.923745
53.110 8.730618
53.115 8.487196
53.120 8.793637
53.125 8.5656
53.130 8.252595
53.135 8.317174
53.140 8.248486
53.145 8.507883
53.150 8.452148
53.155 8.425768
53.160 8.538587
53.165 8.284174
53.170 8.094955
53.175 8.008685
53.180 7.663688
53.185 7.36845
53.190 7.232237
53.195 7.995432
53.200 8.198452
53.205 8.446542
53.210 8.591179
53.215 8.668094
53.220 8.798942
53.225 8.861216
53.230 8.629896
53.235 8.80589
53.240 8.753107
53.245 8.490679
53.250 8.750835
53.255 8.555071
53.260 8.415389
53.265 8.294128
53.270 8.010887
53.275 8.454771
53.280 8.265101
53.285 7.627278
53.290 7.250708
53.295 6.992436
53.300 6.899861
53.305 7.04069
53.310 6.73118
53.315 7.170321
53.320 7.989988
53.325 8.759734
53.330 9.31483
53.335 9.582179
53.340 9.524149
53.345 10.002715
53.350 10.231414
53.355 10.115813
53.360 10.327349
53.365 10.166555
53.370 9.941229
53.375 9.870196
53.380 9.510536
53.385 9.183975
53.390 8.616302
53.395 8.214449
53.400 8.019341
53.405 7.648046
53.410 7.613888
53.415 7.925691
53.420 8.251697
53.425 7.968111
53.430 7.851787
53.435 7.981774
53.440 7.935945
53.445 7.65932
53.450 7.224735
53.455 7.46949
53.460 7.925952
53.465 8.023819
53.470 8.423593
53.475 8.338552
53.480 8.465427
53.485 8.676823
53.490 8.387315
53.495 8.241917
53.500 8.277788
53.505 7.976953
53.510 8.164005
53.515 8.111519
53.520 8.051491
53.525 8.34818
53.530 8.131636
53.535 7.999725
53.540 8.460958
53.545 8.615662
53.550 8.309276
53.555 8.314939
53.560 8.214032
53.565 8.524934
53.570 8.850366
53.575 8.863039
53.580 8.989038
53.585 8.760904
53.590 8.469363
53.595 8.564517
53.600 8.588586
53.605 8.819148
53.610 8.689245
53.615 8.736831
53.620 9.288697
53.625 9.450481
53.630 9.066978
53.635 9.181325
53.640 9.165201
53.645 8.965138
53.650 9.001501
53.655 8.723346
53.660 9.0191
53.665 9.402078
53.670 9.338022
53.675 9.261812
53.680 9.336946
53.685 9.142343
53.690 8.976044
53.695 8.704569
53.700 8.271691
53.705 8.624221
53.710 8.730832
53.715 9.276732
53.720 9.424361
53.725 9.34608
53.730 9.404625
53.735 8.992973
53.740 8.47976
53.745 8.28097
53.750 8.074955
53.755 8.391372
53.760 8.880154
53.765 9.362716
53.770 9.714997
53.775 9.393169
53.780 9.511226
53.785 9.770608
53.790 9.790447
53.795 9.55687
53.800 9.039373
53.805 9.077969
53.810 9.239235
53.815 9.068326
53.820 8.644841
53.825 8.42872
53.830 8.497589
53.835 8.995477
53.840 9.178553
53.845 9.414282
53.850 9.613791
53.855 9.568216
53.860 9.030517
53.865 8.805637
53.870 8.201946
53.875 7.989097
53.880 7.930925
53.885 7.866402
53.890 8.34026
53.895 8.837662
53.900 8.799861
53.905 9.18942
53.910 9.304649
53.915 9.333888
53.920 9.134665
53.925 8.756743
53.930 8.916283
53.935 9.059421
53.940 8.890135
53.945 8.4744
53.950 8.876184
53.955 8.907702
53.960 8.97533
53.965 8.915781
53.970 8.826889
53.975 9.255792
53.980 9.240677
53.985 8.829143
53.990 8.89049
53.995 8.609363
54.000 8.710383
54.005 8.328718
54.010 7.741536
54.015 7.792367
54.020 7.817657
54.025 7.786645
54.030 7.995633
54.035 8.007234
54.040 8.452808
54.045 8.771708
54.050 8.502789
54.055 8.197555
54.060 8.043882
54.065 7.918697
54.070 7.859902
54.075 7.630186
54.080 7.762379
54.085 8.355192
54.090 8.902719
54.095 8.674276
54.100 8.838623
54.105 9.105797
54.110 9.484885
54.115 9.599608
54.120 9.332655
54.125 9.571134
54.130 9.803921
54.135 9.511143
54.140 9.629457
54.145 9.397877
54.150 9.400923
54.155 9.390128
54.160 9.5398
54.165 9.698688
54.170 9.780866
54.175 9.694428
54.180 9.346224
54.185 9.078214
54.190 8.869502
54.195 8.638024
54.200 9.118035
54.205 8.290989
54.210 8.126844
54.215 8.62828
54.220 8.893546
54.225 9.217785
54.230 8.917547
54.235 9.281597
54.240 10.142828
54.245 10.363286
54.250 10.117449
54.255 10.020974
54.260 9.77596
54.265 9.698315
54.270 9.010837
54.275 8.598232
54.280 8.346871
54.285 8.639098
54.290 9.1394
54.295 9.415611
54.300 9.361362
54.305 9.361894
54.310 9.486769
54.315 9.564748
54.320 9.090803
54.325 8.567828
54.330 8.140256
54.335 8.06202
54.340 7.961753
54.345 7.91688
54.350 8.27005
54.355 8.507882
54.360 8.935285
54.365 9.472867
54.370 9.685931
54.375 10.165807
54.380 9.623414
54.385 9.329726
54.390 8.97144
54.395 8.874845
54.400 8.812314
54.405 8.48617
54.410 8.147124
54.415 8.24181
54.420 8.053214
54.425 8.08547
54.430 7.901069
54.435 7.723307
54.440 7.882672
54.445 8.106605
54.450 8.465637
54.455 8.183646
54.460 8.079622
54.465 8.001313
54.470 8.063941
54.475 7.932947
54.480 7.888607
54.485 8.026011
54.490 8.406808
54.495 8.550767
54.500 8.516685
54.505 8.259405
54.510 8.562151
54.515 8.681437
54.520 8.739233
54.525 8.646806
54.530 8.614989
54.535 8.690765
54.540 8.654705
54.545 8.404579
54.550 8.479724
54.555 8.588706
54.560 8.669764
54.565 8.776859
54.570 8.926912
54.575 8.798032
54.580 9.039413
54.585 8.781339
54.590 8.724277
54.595 8.905226
54.600 8.873436
54.605 9.041717
54.610 8.649405
54.615 8.333702
54.620 8.339148
54.625 8.064094
54.630 7.921157
54.635 7.692692
54.640 7.829801
54.645 7.778199
54.650 7.794814
54.655 7.859687
54.660 7.795018
54.665 7.573996
54.670 7.947688
54.675 8.087642
54.680 8.306451
54.685 7.996624
54.690 7.9393
54.695 7.837084
54.700 7.842235
54.705 7.804341
54.710 7.633215
54.715 7.868788
54.720 7.770995
54.725 7.789229
54.730 8.561722
54.735 8.423289
54.740 8.419238
54.745 8.703461
54.750 8.794102
54.755 8.992993
54.760 8.957873
54.765 8.843901
54.770 9.246037
54.775 8.83273
54.780 8.391436
54.785 8.532029
54.790 8.789651
54.795 8.940902
54.800 8.769388
54.805 9.063487
54.810 9.625225
54.815 9.729245
54.820 9.575506
54.825 9.580186
54.830 9.506134
54.835 9.33498
54.840 8.850623
54.845 8.536057
54.850 8.713761
54.855 8.648075
54.860 8.21314
54.865 8.09675
54.870 8.150535
54.875 8.26719
54.880 8.795424
54.885 8.423265
54.890 8.608314
54.895 8.795439
54.900 8.824677
54.905 9.00238
54.910 8.981274
54.915 8.670121
54.920 8.593656
54.925 8.815537
54.930 8.9551
54.935 9.105787
54.940 8.810354
54.945 8.876053
54.950 9.672657
54.955 10.093276
54.960 9.862451
54.965 9.759996
54.970 9.893029
54.975 10.117319
54.980 9.938068
54.985 10.012191
54.990 9.697243
54.995 9.614163
55.000 9.438076
55.005 9.108276
55.010 9.064804
55.015 9.15178
55.020 9.202678
55.025 9.731218
55.030 9.602521
55.035 9.620284
55.040 9.854281
55.045 9.852219
55.050 9.619036
55.055 9.327003
55.060 8.790865
55.065 8.733871
55.070 8.667004
55.075 8.461701
55.080 8.447466
55.085 8.653948
55.090 8.675133
55.095 9.128141
55.100 9.801607
55.105 10.069253
55.110 9.872556
55.115 9.602889
55.120 9.369013
55.125 9.055068
55.130 9.01399
55.135 8.910498
55.140 9.053641
55.145 9.583962
55.150 9.429842
55.155 9.195748
55.160 9.296984
55.165 8.56087
55.170 8.315082
55.175 8.103778
55.180 7.923035
55.185 8.138079
55.190 9.097948
55.195 9.719912
55.200 10.011279
55.205 9.787489
55.210 9.38343
55.215 9.610513
55.220 9.298956
55.225 8.512674
55.230 8.553929
55.235 8.540607
55.240 8.644979
55.245 8.778888
55.250 8.928596
55.255 9.058884
55.260 9.224679
55.265 8.858035
55.270 9.094678
55.275 9.021266
55.280 9.113153
55.285 8.92081
55.290 8.91922
55.295 8.329579
55.300 8.640199
55.305 8.691223
55.310 8.762754
55.315 8.362255
55.320 8.811916
55.325 8.939534
55.330 9.105764
55.335 8.712308
55.340 8.652717
55.345 8.819817
55.350 9.062314
55.355 8.910467
55.360 9.292092
55.365 9.335261
55.370 9.796749
55.375 9.878925
55.380 9.780766
55.385 9.676121
55.390 9.73097
55.395 9.536813
55.400 9.06985
55.405 8.598666
55.410 8.429101
55.415 8.066289
55.420 7.684537
55.425 6.974931
55.430 6.94523
55.435 7.614089
55.440 7.800931
55.445 8.140372
55.450 8.537937
55.455 8.771244
55.460 9.052629
55.465 9.413533
55.470 9.461943
55.475 9.203272
55.480 8.802752
55.485 8.810094
55.490 8.782662
55.495 9.026894
55.500 8.979522
55.505 9.130328
55.510 9.483669
55.515 9.967615
55.520 9.842155
55.525 9.526925
55.530 8.889844
55.535 8.670329
55.540 8.414357
55.545 8.255008
55.550 8.277711
55.555 8.58684
55.560 8.784165
55.565 9.265651
55.570 9.086952
55.575 9.371376
55.580 9.526294
55.585 9.592376
55.590 9.769906
55.595 9.885885
55.600 9.511143
55.605 9.310072
55.610 9.143176
55.615 8.944056
55.620 8.49213
55.625 8.10972
55.630 8.33353
55.635 8.556993
55.640 8.679167
55.645 8.288948
55.650 8.759151
55.655 8.929096
55.660 9.242085
55.665 8.851034
55.670 8.756658
55.675 8.374541
55.680 8.456946
55.685 8.341676
55.690 8.048783
55.695 7.872546
55.700 7.974962
55.705 8.345307
55.710 8.948507
55.715 8.932629
55.720 9.128444
55.725 9.541769
55.730 9.649857
55.735 9.904715
55.740 9.451954
55.745 8.777403
55.750 8.570768
55.755 8.158981
55.760 7.87184
55.765 7.448728
55.770 7.498031
55.775 8.07731
55.780 8.838034
55.785 8.877294
55.790 9.130724
55.795 9.459698
55.800 9.52117
55.805 9.237614
55.810 9.254629
55.815 9.658249
55.820 10.267112
55.825 10.015274
55.830 10.420622
55.835 10.546911
55.840 10.461457
55.845 10.430117
55.850 9.599294
55.855 9.097386
55.860 8.762698
55.865 8.374262
55.870 7.867045
55.875 7.923678
55.880 7.807328
55.885 7.955232
55.890 8.00169
55.895 8.419956
55.900 8.707829
55.905 9.360674
55.910 9.668161
55.915 10.079881
55.920 10.162326
55.925 9.961586
55.930 9.475182
55.935 9.301884
55.940 9.247593
55.945 8.953295
55.950 8.767312
55.955 8.792617
55.960 9.216352
55.965 9.490806
55.970 9.328591
55.975 8.814929
55.980 8.77064
55.985 8.733323
55.990 8.672192
55.995 8.122035
56.000 8.227817
56.005 8.494484
56.010 8.895095
56.015 8.523293
56.020 8.145226
56.025 8.28088
56.030 8.421622
56.035 8.174883
56.040 8.034861
56.045 7.695425
56.050 8.015179
56.055 8.423315
56.060 8.413026
56.065 8.480253
56.070 8.724084
56.075 8.849509
56.080 9.334232
56.085 9.437877
56.090 9.294804
56.095 9.224358
56.100 9.186905
56.105 9.049183
56.110 8.665942
56.115 8.198163
56.120 8.246823
56.125 8.445526
56.130 8.474373
56.135 8.314144
56.140 8.316137
56.145 9.072999
56.150 9.57604
56.155 9.574258
56.160 9.527909
56.165 9.592994
56.170 9.976122
56.175 10.107239
56.180 9.982086
56.185 9.66629
56.190 9.923142
56.195 10.030224
56.200 10.065754
56.205 9.634303
56.210 9.665963
56.215 9.359362
56.220 9.599369
56.225 9.59366
56.230 9.280004
56.235 9.623828
56.240 9.509541
56.245 9.29006
56.250 9.336937
56.255 8.536688
56.260 8.337266
56.265 8.681873
56.270 8.405199
56.275 8.304309
56.280 8.373755
56.285 8.302523
56.290 8.710538
56.295 8.742999
56.300 8.543131
56.305 8.632403
56.310 8.535143
56.315 8.461269
56.320 8.359863
56.325 8.263923
56.330 8.013616
56.335 7.664712
56.340 7.891728
56.345 8.018359
56.350 8.148378
56.355 8.23547
56.360 8.060363
56.365 8.331232
56.370 8.871572
56.375 8.959126
56.380 8.740491
56.385 9.091813
56.390 9.63433
56.395 9.945086
56.400 9.89044
56.405 9.625868
56.410 9.995964
56.415 10.227787
56.420 9.639727
56.425 9.06488
56.430 8.952544
56.435 8.661602
56.440 8.259096
56.445 7.769808
56.450 7.463219
56.455 8.021749
56.460 8.877584
56.465 9.011572
56.470 9.444092
56.475 9.851549
56.480 10.033579
56.485 9.880152
56.490 9.952518
56.495 10.325314
56.500 10.343758
56.505 10.334123
56.510 10.683955
56.515 10.993474
56.520 11.271556
56.525 10.607104
56.530 9.859826
56.535 9.592916
56.540 9.362095
56.545 9.12166
56.550 8.978974
56.555 9.19381
56.560 9.516174
56.565 9.509515
56.570 9.7675
56.575 9.990774
56.580 10.107115
56.585 10.041838
56.590 9.897296
56.595 9.65477
56.600 9.533085
56.605 9.728194
56.610 9.202502
56.615 9.176066
56.620 9.204741
56.625 9.335991
56.630 9.633293
56.635 9.934534
56.640 9.537927
56.645 9.546818
56.650 9.152182
56.655 8.706464
56.660 8.233674
56.665 7.626861
56.670 7.133043
56.675 7.335218
56.680 7.475457
56.685 8.114961
56.690 8.61851
56.695 9.046439
56.700 9.506289
56.705 9.604947
56.710 9.637327
56.715 9.924014
56.720 9.957697
56.725 9.997644
56.730 9.933305
56.735 10.186732
56.740 10.448158
56.745 10.672068
56.750 10.826794
56.755 10.802957
56.760 10.816488
56.765 10.773605
56.770 10.684681
56.775 10.536709
56.780 10.111362
56.785 9.890455
56.790 9.536274
56.795 9.386136
56.800 9.000978
56.805 9.24457
56.810 9.44983
56.815 9.374635
56.820 9.099981
56.825 8.900838
56.830 9.031009
56.835 9.319377
56.840 8.7076
56.845 8.960618
56.850 9.099121
56.855 9.172882
56.860 9.461743
56.865 9.268862
56.870 9.676808
56.875 9.915221
56.880 9.786184
56.885 9.676975
56.890 9.822005
56.895 9.59038
56.900 10.002372
56.905 9.596707
56.910 9.434553
56.915 9.238716
56.920 9.150097
56.925 9.380366
56.930 9.629838
56.935 8.894621
56.940 8.847788
56.945 8.979158
56.950 8.79788
56.955 8.710957
56.960 8.792841
56.965 8.797541
56.970 8.845332
56.975 8.415648
56.980 8.183948
56.985 8.374431
56.990 8.118831
56.995 8.013303
57.000 8.548498
57.005 8.722253
57.010 9.10105
57.015 9.504065
57.020 9.529961
57.025 9.914891
57.030 9.690564
57.035 9.094599
57.040 8.863605
57.045 8.770183
57.050 8.759234
57.055 8.898666
57.060 8.898074
57.065 8.775617
57.070 9.22453
57.075 9.219651
57.080 9.145846
57.085 9.321864
57.090 9.337837
57.095 8.863696
57.100 8.944232
57.105 8.568475
57.110 8.931219
57.115 9.049991
57.120 8.580635
57.125 8.608583
57.130 8.600779
57.135 8.745325
57.140 8.904708
57.145 8.883927
57.150 8.979899
57.155 8.978661
57.160 8.986439
57.165 9.296352
57.170 9.296951
57.175 8.556052
57.180 8.146969
57.185 8.10803
57.190 8.195842
57.195 8.839151
57.200 8.770469
57.205 8.667216
57.210 9.065134
57.215 9.267677
57.220 9.511
57.225 9.836807
57.230 9.414207
57.235 9.130863
57.240 9.209123
57.245 9.194831
57.250 9.166595
57.255 8.836009
57.260 8.223973
57.265 8.427706
57.270 8.870673
57.275 8.739207
57.280 8.766561
57.285 8.710634
57.290 8.986477
57.295 8.964792
57.300 9.078095
57.305 9.028332
57.310 9.085838
57.315 9.305099
57.320 9.476741
57.325 9.255369
57.330 9.196859
57.335 9.018052
57.340 9.332612
57.345 9.144316
57.350 9.255159
57.355 9.781923
57.360 10.003709
57.365 10.048416
57.370 9.956832
57.375 10.044755
57.380 10.277496
57.385 9.741817
57.390 9.035736
57.395 9.401865
57.400 9.584297
57.405 9.517588
57.410 9.347051
57.415 9.339663
57.420 9.908107
57.425 10.154505
57.430 9.753959
57.435 9.92052
57.440 9.98893
57.445 10.048897
57.450 10.043996
57.455 9.924336
57.460 9.961143
57.465 10.148522
57.470 9.7348
57.475 9.626038
57.480 10.020082
57.485 10.226114
57.490 9.775985
57.495 9.444625
57.500 9.519036
57.505 9.841511
57.510 10.040151
57.515 9.872667
57.520 9.738614
57.525 10.169193
57.530 10.15894
57.535 9.823377
57.540 9.410927
57.545 8.713382
57.550 8.32971
57.555 8.348317
57.560 8.283099
57.565 8.64384
57.570 8.763757
57.575 9.03443
57.580 9.382528
57.585 9.365799
57.590 9.733875
57.595 9.723742
57.600 9.289288
57.605 9.478626
57.610 9.332178
57.615 9.180439
57.620 9.295411
57.625 9.290839
57.630 9.52607
57.635 9.74437
57.640 9.788548
57.645 10.002522
57.650 10.231721
57.655 10.579808
57.660 10.053277
57.665 9.883508
57.670 9.935003
57.675 9.616175
57.680 9.344653
57.685 9.36105
57.690 9.319235
57.695 9.55807
57.700 9.754655
57.705 9.993268
57.710 10.141511
57.715 10.088625
57.720 9.871426
57.725 9.630388
57.730 9.365835
57.735 8.881438
57.740 8.583202
57.745 8.80015
57.750 9.214595
57.755 9.027305
57.760 9.291576
57.765 9.832689
57.770 10.126529
57.775 10.059599
57.780 9.969653
57.785 9.842202
57.790 9.885459
57.795 9.645476
57.800 8.847726
57.805 8.447728
57.810 7.990587
57.815 7.912638
57.820 7.575858
57.825 7.663139
57.830 7.734504
57.835 8.334039
57.840 8.821086
57.845 8.722382
57.850 8.910931
57.855 8.903749
57.860 9.006097
57.865 8.871582
57.870 8.740576
57.875 9.294018
57.880 9.944333
57.885 10.142563
57.890 10.212839
57.895 9.977013
57.900 9.5558
57.905 9.46896
57.910 8.773161
57.915 8.600084
57.920 8.713799
57.925 8.867386
57.930 9.162783
57.935 9.876723
57.940 10.125155
57.945 10.29175
57.950 9.941893
57.955 9.537182
57.960 9.593975
57.965 9.563709
57.970 9.103547
57.975 8.707624
57.980 8.396689
57.985 8.281719
57.990 8.723516
57.995 8.791301
58.000 8.671452
58.005 8.817883
58.010 9.159047
58.015 9.545896
58.020 9.985031
58.025 10.114229
58.030 10.036936
58.035 10.597684
58.040 10.541596
58.045 10.424897
58.050 11.009028
58.055 10.861492
58.060 10.516223
58.065 10.390294
58.070 9.753102
58.075 9.697863
58.080 9.705956
58.085 9.301912
58.090 9.483225
58.095 9.181814
58.100 9.277446
58.105 9.383585
58.110 9.198068
58.115 8.871825
58.120 8.828885
58.125 8.733583
58.130 9.005818
58.135 9.263851
58.140 9.452324
58.145 9.805745
58.150 9.962814
58.155 9.898596
58.160 9.493232
58.165 9.50281
58.170 9.259652
58.175 9.010776
58.180 8.72578
58.185 8.837366
58.190 8.780043
58.195 9.314623
58.200 9.223071
58.205 9.7315
58.210 10.000024
58.215 10.118023
58.220 9.716508
58.225 9.346538
58.230 8.966869
58.235 9.276497
58.240 8.834792
58.245 8.961052
58.250 9.072581
58.255 9.342571
58.260 9.52928
58.265 9.762479
58.270 9.723942
58.275 9.980418
58.280 9.917108
58.285 10.391356
58.290 10.584841
58.295 11.021352
58.300 10.901325
58.305 10.633561
58.310 10.051578
58.315 9.611367
58.320 9.124158
58.325 8.78381
58.330 8.509387
58.335 8.850113
58.340 8.842693
58.345 8.982623
58.350 9.068391
58.355 9.294446
58.360 9.584011
58.365 9.522415
58.370 9.261313
58.375 9.361003
58.380 9.601116
58.385 9.462318
58.390 9.603886
58.395 9.769176
58.400 9.869039
58.405 10.01544
58.410 10.439532
58.415 10.448667
58.420 10.505028
58.425 10.296889
58.430 9.751917
58.435 9.444753
58.440 9.42773
58.445 9.131631
58.450 9.590057
58.455 10.275178
58.460 10.545888
58.465 10.768693
58.470 10.821424
58.475 10.234247
58.480 10.072507
58.485 9.9505
58.490 9.637926
58.495 9.579169
58.500 9.675375
58.505 9.638757
58.510 9.848868
58.515 10.139581
58.520 10.463879
58.525 10.517106
58.530 10.602439
58.535 10.902981
58.540 11.19926
58.545 11.24573
58.550 10.802652
58.555 10.165302
58.560 10.168675
58.565 9.81738
58.570 9.331748
58.575 9.579311
58.580 9.628235
58.585 9.750557
58.590 9.578333
58.595 9.423392
58.600 9.85006
58.605 9.845175
58.610 9.58809
58.615 9.549812
58.620 9.403044
58.625 9.577812
58.630 9.334658
58.635 9.267532
58.640 9.319774
58.645 9.411239
58.650 9.396939
58.655 9.673172
58.660 9.908233
58.665 9.944697
58.670 9.790809
58.675 10.137096
58.680 10.225442
58.685 9.865999
58.690 9.813481
58.695 10.070888
58.700 10.373043
58.705 10.76445
58.710 10.77113
58.715 11.025759
58.720 11.499825
58.725 11.28955
58.730 10.91902
58.735 11.059468
58.740 10.72565
58.745 10.716359
58.750 10.82237
58.755 10.616178
58.760 10.843199
58.765 10.588454
58.770 10.540707
58.775 10.71825
58.780 10.783323
58.785 10.237019
58.790 10.486345
58.795 10.663397
58.800 11.074839
58.805 11.507277
58.810 11.232902
58.815 11.115616
58.820 11.257299
58.825 10.715018
58.830 10.301039
58.835 9.971701
58.840 9.945252
58.845 10.06944
58.850 9.834095
58.855 9.835677
58.860 10.062494
58.865 10.297877
58.870 10.087874
58.875 9.621564
58.880 9.303367
58.885 9.279731
58.890 9.391482
58.895 9.214976
58.900 9.383542
58.905 9.451275
58.910 9.908689
58.915 10.118942
58.920 10.234661
58.925 10.345211
58.930 10.614178
58.935 10.279479
58.940 10.511538
58.945 10.426721
58.950 10.918104
58.955 11.086648
58.960 11.224914
58.965 11.215065
58.970 11.353537
58.975 11.277638
58.980 10.989762
58.985 10.955462
58.990 11.097981
58.995 11.490136
59.000 11.449544
59.005 11.398971
59.010 11.409333
59.015 11.566586
59.020 11.414991
59.025 11.145245
59.030 10.873118
59.035 10.71456
59.040 10.813689
59.045 9.910048
59.050 9.506957
59.055 9.325809
59.060 9.001728
59.065 8.822662
59.070 9.073519
59.075 9.214773
59.080 9.839885
59.085 10.153046
59.090 10.069228
59.095 10.379493
59.100 10.687017
59.105 10.578314
59.110 10.664317
59.115 10.528337
59.120 10.340817
59.125 10.035158
59.130 9.633852
59.135 9.718538
59.140 9.942752
59.145 9.810255
59.150 10.070901
59.155 10.132219
59.160 10.515758
59.165 10.263556
59.170 9.736844
59.175 9.29676
59.180 8.997595
59.185 8.864635
59.190 9.276796
59.195 9.353807
59.200 9.673423
59.205 9.588428
59.210 9.846441
59.215 10.134046
59.220 10.196521
59.225 10.11606
59.230 10.190163
59.235 10.369341
59.240 10.857809
59.245 11.027148
59.250 10.749775
59.255 10.426455
59.260 9.930023
59.265 9.943711
59.270 9.589271
59.275 9.418388
59.280 9.200922
59.285 9.558963
59.290 9.88844
59.295 10.167842
59.300 10.341225
59.305 10.086409
59.310 9.702495
59.315 9.945929
59.320 10.083203
59.325 10.090362
59.330 10.460693
59.335 10.675782
59.340 11.136941
59.345 11.499437
59.350 11.323304
59.355 11.566102
59.360 11.706325
59.365 11.234127
59.370 10.927812
59.375 10.575456
59.380 10.236451
59.385 10.149984
59.390 10.365723
59.395 9.804344
59.400 9.868586
59.405 10.237533
59.410 10.505762
59.415 10.881848
59.420 10.805513
59.425 10.506083
59.430 10.809952
59.435 10.728826
59.440 10.998374
59.445 10.776786
59.450 10.722754
59.455 10.588604
59.460 10.667344
59.465 10.63062
59.470 10.689927
59.475 10.525789
59.480 10.780098
59.485 10.428462
59.490 10.334966
59.495 10.048092
59.500 10.189138
59.505 10.039689
59.510 9.727186
59.515 9.510997
59.520 9.830877
59.525 9.767314
59.530 9.58051
59.535 9.175625
59.540 9.05822
59.545 9.452131
59.550 9.485344
59.555 9.486291
59.560 9.509431
59.565 9.920952
59.570 10.180045
59.575 10.104177
59.580 9.987116
59.585 9.804437
59.590 9.925084
59.595 10.611002
59.600 10.859051
59.605 10.869711
59.610 11.132589
59.615 11.471235
59.620 12.106563
59.625 11.953105
59.630 11.435969
59.635 11.351947
59.640 11.576659
59.645 11.333733
59.650 11.000323
59.655 10.598799
59.660 10.146607
59.665 10.370937
59.670 10.247226
59.675 10.485586
59.680 10.686673
59.685 10.719424
59.690 10.615911
59.695 11.167519
59.700 11.683386
59.705 11.52025
59.710 11.41693
59.715 11.379067
59.720 11.505846
59.725 11.429743
59.730 11.081446
59.735 10.90132
59.740 10.868997
59.745 10.759091
59.750 10.212787
59.755 10.287286
59.760 10.427518
59.765 10.359195
59.770 9.601089
59.775 9.255111
59.780 9.215485
59.785 9.403597
59.790 9.754195
59.795 9.987924
59.800 10.13133
59.805 10.331218
59.810 10.635034
59.815 11.08142
59.820 10.882474
59.825 10.46708
59.830 10.309933
59.835 10.311185
59.840 10.690157
59.845 10.700077
59.850 10.457067
59.855 10.901299
59.860 10.645713
59.865 10.55036
59.870 10.488286
59.875 10.173239
59.880 10.069209
59.885 9.955935
59.890 10.042899
59.895 10.428351
59.900 10.524878
59.905 10.529213
59.910 10.363493
59.915 10.028043
59.920 10.100618
59.925 9.608045
59.930 9.343339
59.935 9.361663
59.940 9.408596
59.945 9.422124
59.950 9.953845
59.955 10.008227
59.960 10.150671
59.965 10.255391
59.970 10.085824
59.975 10.119202
59.980 10.259465
59.985 10.142524
59.990 9.799178
59.995 9.919042
60.000 10.38688
60.005 10.940481
60.010 11.492982
60.015 11.729114
60.020 11.350191
60.025 11.317336
60.030 11.130571
60.035 10.722975
60.040 10.357429
60.045 9.733504
60.050 9.339588
60.055 9.149778
60.060 9.124251
60.065 9.480832
60.070 9.306455
60.075 9.176473
60.080 8.685375
60.085 8.584912
60.090 9.121466
60.095 9.491122
60.100 9.602593
60.105 9.955298
60.110 9.935912
60.115 10.304403
60.120 10.576022
60.125 10.830881
60.130 10.617972
60.135 10.101328
60.140 9.57216
60.145 9.830606
60.150 9.972546
60.155 9.625171
60.160 9.129364
60.165 8.863831
60.170 8.976457
60.175 9.06986
60.180 8.923138
60.185 8.837519
60.190 8.938478
60.195 8.721926
60.200 8.997398
60.205 9.190646
60.210 9.414389
60.215 9.211451
60.220 9.167499
60.225 9.465099
60.230 9.87997
60.235 9.662623
60.240 9.620058
60.245 9.631133
60.250 9.901418
60.255 9.700275
60.260 9.236369
60.265 8.989093
60.270 8.919057
60.275 8.713214
60.280 8.384259
60.285 8.148307
60.290 8.6295
60.295 9.090198
60.300 9.06463
60.305 8.698358
60.310 8.705271
60.315 8.678952
60.320 8.472219
60.325 8.284477
60.330 8.09805
60.335 8.333804
60.340 9.066308
60.345 9.847466
60.350 9.920576
60.355 10.043114
60.360 9.83321
60.365 9.873603
60.370 9.394299
60.375 8.596045
60.380 8.110448
60.385 8.390478
60.390 8.562369
60.395 9.315239
60.400 9.23118
60.405 9.7249
60.410 10.111183
60.415 10.01339
60.420 10.11654
60.425 10.08474
60.430 9.391386
60.435 9.584462
60.440 9.313072
60.445 9.110366
60.450 8.827714
60.455 9.074285
60.460 8.999589
60.465 8.946882
60.470 8.986884
60.475 8.98777
60.480 9.139025
60.485 9.295056
60.490 8.673607
60.495 8.482542
60.500 8.694545
60.505 8.31978
60.510 8.346128
60.515 8.133516
60.520 8.327226
60.525 8.896095
60.530 8.993786
60.535 8.54214
60.540 8.709267
60.545 8.92128
60.550 9.065999
60.555 9.026507
60.560 8.945455
60.565 9.511375
60.570 10.530088
60.575 10.63026
60.580 10.399843
60.585 10.464533
60.590 10.650249
60.595 10.527425
60.600 10.189341
60.605 10.56143
60.610 11.209723
60.615 12.018316
60.620 12.243296
60.625 12.31061
60.630 12.441757
60.635 12.035056
60.640 11.189619
60.645 10.823661
60.650 10.38923
60.655 9.980245
60.660 9.686477
60.665 10.012317
60.670 10.370031
60.675 10.13057
60.680 9.888102
60.685 9.626057
60.690 9.356632
60.695 8.984861
60.700 9.303246
60.705 9.69153
60.710 9.979072
60.715 9.802601
60.720 9.736281
60.725 10.024358
60.730 10.056294
60.735 9.289934
60.740 8.932418
60.745 8.590974
60.750 8.798735
60.755 9.29856
60.760 9.412427
60.765 9.916809
60.770 10.358614
60.775 10.232455
60.780 10.516247
60.785 10.731947
60.790 10.709555
60.795 10.640026
60.800 10.26827
60.805 10.10539
60.810 10.06929
60.815 9.715692
60.820 9.450577
60.825 9.673592
60.830 9.909309
60.835 9.859289
60.840 9.864653
60.845 9.937136
60.850 9.906527
60.855 9.763397
60.860 9.562863
60.865 9.368613
60.870 9.542542
60.875 9.554387
60.880 9.857528
60.885 10.553129
60.890 10.668917
60.895 10.68938
60.900 10.76233
60.905 10.492863
60.910 10.377727
60.915 10.013586
60.920 9.294673
60.925 9.239388
60.930 9.386588
60.935 9.074127
60.940 8.949133
60.945 8.901781
60.950 9.101845
60.955 8.916656
60.960 8.606026
60.965 8.349302
60.970 8.59094
60.975 8.837261
60.980 8.811522
60.985 8.650596
60.990 8.902176
60.995 9.088979
61.000 8.974061
61.005 8.758657
61.010 8.503255
61.015 8.557801
61.020 8.642247
61.025 8.531507
61.030 8.759933
61.035 9.405246
61.040 9.884469
61.045 10.403482
61.050 9.979555
61.055 9.830472
61.060 10.011533
61.065 9.612587
61.070 9.020385
61.075 9.060658
61.080 8.856153
61.085 9.090582
61.090 9.360858
61.095 9.553256
61.100 9.817588
61.105 10.151796
61.110 9.72986
61.115 9.660937
61.120 9.997631
61.125 10.04521
61.130 10.15006
61.135 10.196059
61.140 10.139541
61.145 10.356426
61.150 10.495915
61.155 10.342344
61.160 9.864955
61.165 9.828569
61.170 9.666765
61.175 8.988018
61.180 8.438336
61.185 8.393801
61.190 8.544538
61.195 8.738548
61.200 8.562152
61.205 8.77923
61.210 9.479795
61.215 9.730053
61.220 9.823149
61.225 9.531301
61.230 9.526467
61.235 9.579795
61.240 9.484759
61.245 9.325901
61.250 9.377913
61.255 9.507033
61.260 9.664336
61.265 9.830602
61.270 9.998858
61.275 9.891377
61.280 9.510066
61.285 9.009653
61.290 8.90669
61.295 9.217268
61.300 8.948174
61.305 8.729031
61.310 8.49655
61.315 8.517356
61.320 8.748285
61.325 8.555409
61.330 8.070634
61.335 8.317454
61.340 8.050745
61.345 8.406473
61.350 8.670564
61.355 8.838945
61.360 9.167292
61.365 9.318815
61.370 8.96734
61.375 9.241851
61.380 9.409761
61.385 9.815981
61.390 9.713718
61.395 9.464555
61.400 9.293209
61.405 9.526037
61.410 9.697448
61.415 9.613124
61.420 9.485136
61.425 9.48706
61.430 9.417299
61.435 9.476289
61.440 9.420741
61.445 9.312107
61.450 9.584529
61.455 9.654053
61.460 9.735139
61.465 10.067615
61.470 10.901155
61.475 11.432933
61.480 11.528058
61.485 10.939087
61.490 10.562835
61.495 10.451297
61.500 10.398333
61.505 9.648425
61.510 9.104076
61.515 8.587497
61.520 8.937456
61.525 9.102605
61.530 9.343965
61.535 9.341007
61.540 9.056891
61.545 9.64687
61.550 9.928527
61.555 9.949516
61.560 9.974859
61.565 9.826488
61.570 10.196326
61.575 10.741477
61.580 10.40294
61.585 10.792676
61.590 10.752956
61.595 11.126993
61.600 11.153858
61.605 10.614476
61.610 10.147986
61.615 10.036012
61.620 9.725418
61.625 9.589029
61.630 9.081214
61.635 8.625824
61.640 8.960103
61.645 8.80832
61.650 9.156415
61.655 9.359857
61.660 9.463408
61.665 9.508448
61.670 9.878718
61.675 9.653265
61.680 9.934186
61.685 9.845412
61.690 9.728261
61.695 9.722191
61.700 9.812867
61.705 9.762896
61.710 9.954629
61.715 9.621007
61.720 9.264388
61.725 9.455023
61.730 9.897695
61.735 9.946075
61.740 9.669358
61.745 9.679248
61.750 10.110606
61.755 10.595377
61.760 10.414169
61.765 10.164349
61.770 10.336793
61.775 10.940143
61.780 10.88484
61.785 10.809584
61.790 10.390957
61.795 10.468916
61.800 10.21465
61.805 9.647313
61.810 9.483815
61.815 9.524652
61.820 9.088047
61.825 9.060059
61.830 8.860294
61.835 8.670161
61.840 9.388465
61.845 9.169248
61.850 9.680404
61.855 10.55622
61.860 11.123721
61.865 11.475372
61.870 11.584004
61.875 11.159492
61.880 11.502565
61.885 11.023325
61.890 10.355722
61.895 9.678349
61.900 9.315602
61.905 9.51826
61.910 9.875942
61.915 9.904486
61.920 10.021976
61.925 10.009804
61.930 10.194652
61.935 10.455689
61.940 10.729995
61.945 10.544526
61.950 10.355786
61.955 10.60313
61.960 10.841
61.965 10.806834
61.970 10.763524
61.975 10.886996
61.980 10.819544
61.985 11.00737
61.990 10.921552
61.995 10.591079
62.000 10.65599
62.005 10.771037
62.010 10.541589
62.015 10.465464
62.020 9.806095
62.025 9.547379
62.030 10.034918
62.035 10.241286
62.040 10.08923
62.045 10.044092
62.050 9.901934
62.055 10.119905
62.060 10.279716
62.065 9.932346
62.070 9.77464
62.075 9.379386
62.080 9.480929
62.085 9.681715
62.090 9.497715
62.095 9.173265
62.100 9.539161
62.105 10.019002
62.110 10.647344
62.115 10.621102
62.120 10.636806
62.125 10.999553
62.130 11.38946
62.135 11.065706
62.140 11.017745
62.145 10.658368
62.150 10.483893
62.155 10.434448
62.160 10.450812
62.165 10.765688
62.170 10.513461
62.175 10.36375
62.180 10.667695
62.185 11.106289
62.190 11.308396
62.195 11.604363
62.200 10.996081
62.205 10.890813
62.210 10.548501
62.215 10.293736
62.220 9.902413
62.225 9.847124
62.230 9.127913
62.235 9.606194
62.240 9.63247
62.245 9.522901
62.250 9.466018
62.255 9.534668
62.260 9.368525
62.265 9.775476
62.270 9.520288
62.275 9.776117
62.280 9.638502
62.285 9.540874
62.290 9.703344
62.295 9.748753
62.300 9.284829
62.305 9.215267
62.310 9.21368
62.315 9.687791
62.320 9.709637
62.325 9.569897
62.330 9.644206
62.335 9.698527
62.340 9.956418
62.345 9.991431
62.350 9.734002
62.355 9.905888
62.360 10.184945
62.365 10.004451
62.370 10.159498
62.375 10.074007
62.380 10.110272
62.385 9.983546
62.390 10.067367
62.395 9.638894
62.400 9.872659
62.405 9.872017
62.410 10.003794
62.415 10.014933
62.420 9.862318
62.425 9.990024
62.430 10.454107
62.435 10.465687
62.440 10.8709
62.445 10.699564
62.450 10.6408
62.455 10.776565
62.460 10.930184
62.465 10.838506
62.470 10.739459
62.475 10.389311
62.480 10.720574
62.485 10.918138
62.490 11.428226
62.495 11.258505
62.500 11.288295
62.505 11.126198
62.510 11.00701
62.515 11.003947
62.520 10.929918
62.525 10.91043
62.530 10.785967
62.535 10.710683
62.540 11.038188
62.545 11.311919
62.550 10.957496
62.555 10.978487
62.560 10.319289
62.565 10.061773
62.570 10.115605
62.575 9.920172
62.580 9.756078
62.585 9.554776
62.590 9.342379
62.595 9.719882
62.600 9.924806
62.605 9.681126
62.610 9.462496
62.615 9.396936
62.620 9.652467
62.625 9.618917
62.630 9.513984
62.635 9.620669
62.640 9.638261
62.645 9.951781
62.650 10.228323
62.655 10.275886
62.660 10.152208
62.665 10.07807
62.670 9.747739
62.675 10.360358
62.680 10.549794
62.685 10.291081
62.690 10.667405
62.695 11.354645
62.700 11.981657
62.705 12.123367
62.710 11.790509
62.715 11.391703
62.720 11.316936
62.725 10.974183
62.730 10.931503
62.735 10.468534
62.740 10.220082
62.745 10.221427
62.750 10.301117
62.755 10.462438
62.760 10.553481
62.765 10.365319
62.770 10.746362
62.775 10.8896
62.780 10.31449
62.785 10.480841
62.790 10.684584
62.795 11.089981
62.800 11.014757
62.805 10.842652
62.810 10.881913
62.815 11.229692
62.820 11.083257
62.825 11.277331
62.830 10.879266
62.835 11.028648
62.840 11.116972
62.845 11.146763
62.850 11.643442
62.855 11.784536
62.860 11.698503
62.865 11.501502
62.870 11.278089
62.875 11.094843
62.880 10.94736
62.885 10.168637
62.890 10.233615
62.895 9.811863
62.900 9.493469
62.905 9.189692
62.910 9.203274
62.915 9.556284
62.920 9.689088
62.925 9.808756
62.930 10.059103
62.935 10.446703
62.940 10.36218
62.945 10.301442
62.950 10.05042
62.955 10.282519
62.960 10.028545
62.965 10.162053
62.970 10.504926
62.975 10.739073
62.980 10.939734
62.985 11.058584
62.990 11.187872
62.995 11.042094
63.000 11.180778
63.005 10.812897
63.010 10.250372
63.015 10.35488
63.020 10.453256
63.025 10.075143
63.030 9.884514
63.035 9.187112
63.040 9.404507
63.045 9.793081
63.050 9.315473
63.055 9.064783
63.060 9.699808
63.065 10.287293
63.070 10.510187
63.075 10.271374
63.080 10.160461
63.085 9.999169
63.090 10.104477
63.095 9.674608
63.100 9.317274
63.105 9.557509
63.110 9.771376
63.115 9.961097
63.120 10.141384
63.125 10.180685
63.130 10.234591
63.135 10.647857
63.140 10.616528
63.145 10.602761
63.150 10.599936
63.155 10.878185
63.160 11.060024
63.165 10.837262
63.170 10.339297
63.175 10.151469
63.180 10.145865
63.185 9.671251
63.190 9.260705
63.195 8.708892
63.200 8.83459
63.205 9.031487
63.210 8.913616
63.215 9.182791
63.220 9.770199
63.225 10.313398
63.230 10.82797
63.235 10.847116
63.240 11.209069
63.245 11.368628
63.250 11.460088
63.255 11.404866
63.260 11.059653
63.265 10.679118
63.270 10.870872
63.275 10.393581
63.280 10.186251
63.285 10.444185
63.290 10.42986
63.295 10.839898
63.300 11.542885
63.305 11.635352
63.310 12.028201
63.315 12.27274
63.320 12.343243
63.325 12.036829
63.330 11.85719
63.335 11.503885
63.340 11.223143
63.345 10.840251
63.350 10.420672
63.355 9.770482
63.360 10.255933
63.365 10.351272
63.370 10.489453
63.375 10.595808
63.380 10.85776
63.385 11.101458
63.390 11.063188
63.395 10.763165
63.400 10.110567
63.405 9.937774
63.410 9.848766
63.415 9.736472
63.420 9.807538
63.425 10.370151
63.430 10.488769
63.435 10.662067
63.440 10.354879
63.445 10.449476
63.450 10.322238
63.455 10.360011
63.460 9.808627
63.465 9.980075
63.470 9.984915
63.475 9.944427
63.480 10.024719
63.485 10.176045
63.490 9.868022
63.495 9.831268
63.500 9.433991
63.505 9.672388
63.510 10.019967
63.515 9.7986
63.520 9.509262
63.525 9.612572
63.530 9.435528
63.535 9.458285
63.540 9.4989
63.545 9.427039
63.550 9.425145
63.555 9.581955
63.560 9.892429
63.565 10.138824
63.570 10.085967
63.575 9.939271
63.580 9.745153
63.585 9.912046
63.590 10.042882
63.595 9.524057
63.600 9.441601
63.605 9.210285
63.610 9.224181
63.615 9.433399
63.620 9.702882
63.625 9.734431
63.630 10.231556
63.635 10.672979
63.640 11.285839
63.645 11.232632
63.650 11.345743
63.655 11.479928
63.660 11.431653
63.665 11.461746
63.670 11.064206
63.675 10.824546
63.680 11.024388
63.685 11.515421
63.690 11.359893
63.695 11.304125
63.700 10.640511
63.705 10.718657
63.710 10.493978
63.715 10.270239
63.720 9.583416
63.725 9.435217
63.730 9.406275
63.735 9.91483
63.740 10.425301
63.745 10.610571
63.750 10.475014
63.755 10.634848
63.760 10.924893
63.765 11.213329
63.770 11.151158
63.775 10.941165
63.780 10.766416
63.785 10.906043
63.790 10.910391
63.795 10.364535
63.800 9.848031
63.805 9.952565
63.810 9.651209
63.815 9.906394
63.820 10.186751
63.825 10.30009
63.830 10.371443
63.835 10.554271
63.840 10.851465
63.845 11.233698
63.850 11.117265
63.855 10.599569
63.860 10.714772
63.865 11.006173
63.870 10.790206
63.875 10.545096
63.880 10.141718
63.885 9.89941
63.890 10.351334
63.895 10.20411
63.900 10.444011
63.905 10.955106
63.910 10.69499
63.915 11.176526
63.920 11.799119
63.925 11.607701
63.930 11.967411
63.935 11.982214
63.940 11.649849
63.945 11.002712
63.950 10.654719
63.955 10.351519
63.960 10.252804
63.965 9.913413
63.970 9.67293
63.975 9.763905
63.980 10.388862
63.985 10.298285
63.990 10.212686
63.995 10.239204
64.000 10.286642
64.005 10.595867
64.010 10.749796
64.015 10.808657
64.020 10.914127
64.025 10.925232
64.030 11.011287
64.035 11.373574
64.040 11.153435
64.045 11.025877
64.050 10.759128
64.055 10.560133
64.060 10.589605
64.065 10.532393
64.070 10.075741
64.075 9.527885
64.080 9.262093
64.085 9.646293
64.090 9.956495
64.095 9.945512
64.100 10.479553
64.105 10.703697
64.110 11.072826
64.115 11.100228
64.120 10.801649
64.125 10.119859
64.130 9.925259
64.135 9.200736
64.140 8.931033
64.145 9.167419
64.150 9.78133
64.155 9.928033
64.160 10.58032
64.165 11.022633
64.170 11.332121
64.175 11.34175
64.180 11.454077
64.185 11.832959
64.190 11.965818
64.195 11.749154
64.200 11.172464
64.205 10.99026
64.210 11.017911
64.215 10.694579
64.220 9.917277
64.225 9.95993
64.230 10.460766
64.235 10.863256
64.240 11.145333
64.245 11.792415
64.250 12.182585
64.255 12.323825
64.260 12.439586
64.265 12.18561
64.270 12.171419
64.275 12.05558
64.280 11.349324
64.285 11.105025
64.290 10.742422
64.295 10.181788
64.300 10.152423
64.305 10.156341
64.310 10.344938
64.315 10.615372
64.320 11.017544
64.325 11.579518
64.330 11.650675
64.335 11.522824
64.340 11.599658
64.345 11.536817
64.350 11.454782
64.355 11.340054
64.360 11.636275
64.365 12.114418
64.370 11.909813
64.375 11.562074
64.380 11.22111
64.385 11.04744
64.390 10.887944
64.395 10.791574
64.400 10.826119
64.405 10.750976
64.410 11.247546
64.415 11.707048
64.420 11.558377
64.425 11.632457
64.430 11.698798
64.435 12.136881
64.440 12.833131
64.445 12.389425
64.450 12.457304
64.455 12.933984
64.460 13.263165
64.465 13.199254
64.470 12.3096
64.475 12.126033
64.480 12.021566
64.485 11.899444
64.490 11.569248
64.495 11.530532
64.500 11.482463
64.505 11.947112
64.510 11.966289
64.515 11.938293
64.520 12.105893
64.525 12.225993
64.530 12.080486
64.535 11.747848
64.540 11.532032
64.545 11.660789
64.550 11.679476
64.555 11.398547
64.560 11.828504
64.565 12.145981
64.570 12.265059
64.575 12.040109
64.580 11.510808
64.585 11.752848
64.590 12.037991
64.595 11.183732
64.600 10.41866
64.605 9.771321
64.610 9.813034
64.615 10.131376
64.620 10.208022
64.625 9.893761
64.630 10.278971
64.635 10.79199
64.640 11.599337
64.645 12.128257
64.650 12.175088
64.655 12.366576
64.660 12.872488
64.665 12.868994
64.670 12.682793
64.675 12.816118
64.680 13.318163
64.685 13.654087
64.690 13.516482
64.695 13.540338
64.700 13.498318
64.705 14.028258
64.710 14.059837
64.715 13.647469
64.720 13.062974
64.725 12.588577
64.730 12.020915
64.735 11.864118
64.740 11.730956
64.745 11.803154
64.750 11.837469
64.755 12.409388
64.760 12.827391
64.765 13.566866
64.770 14.035858
64.775 14.07445
64.780 13.250026
64.785 13.346566
64.790 13.403185
64.795 13.246001
64.800 13.049057
64.805 12.40523
64.810 12.09973
64.815 12.997233
64.820 12.484388
64.825 12.44377
64.830 12.717802
64.835 12.606012
64.840 13.335673
64.845 13.577264
64.850 13.676244
64.855 14.236908
64.860 14.561105
64.865 15.230952
64.870 15.57393
64.875 15.311599
64.880 15.330102
64.885 15.164322
64.890 15.158086
64.895 14.948969
64.900 14.549129
64.905 14.518236
64.910 15.118657
64.915 15.582855
64.920 15.96188
64.925 15.994852
64.930 15.931861
64.935 16.023514
64.940 16.514044
64.945 16.700905
64.950 16.776411
64.955 17.105141
64.960 17.161411
64.965 17.070826
64.970 16.385172
64.975 16.638018
64.980 16.890699
64.985 16.978199
64.990 16.822289
64.995 17.188833
65.000 18.114594
65.005 18.746876
65.010 17.91046
65.015 17.377972
65.020 18.233667
65.025 18.254545
65.030 18.233231
65.035 18.439539
65.040 18.527328
65.045 19.048872
65.050 19.133263
65.055 18.472481
65.060 19.268175
65.065 19.410202
65.070 19.331085
65.075 19.513119
65.080 19.355371
65.085 19.711826
65.090 19.387838
65.095 18.370567
65.100 17.673288
65.105 17.272131
65.110 16.584688
65.115 16.583914
65.120 16.053261
65.125 15.717284
65.130 16.60631
65.135 17.630743
65.140 18.053383
65.145 18.275442
65.150 18.377682
65.155 18.924908
65.160 19.057333
65.165 18.367079
65.170 17.75543
65.175 16.862631
65.180 16.646278
65.185 15.950931
65.190 15.431639
65.195 15.546318
65.200 15.116633
65.205 14.951375
65.210 15.666196
65.215 15.817039
65.220 15.783028
65.225 15.591117
65.230 15.574256
65.235 15.659119
65.240 15.749616
65.245 15.794719
65.250 15.883487
65.255 16.451994
65.260 16.741327
65.265 16.833345
65.270 16.899185
65.275 16.802979
65.280 16.564156
65.285 16.595079
65.290 16.633259
65.295 16.094421
65.300 15.627349
65.305 14.841799
65.310 14.668591
65.315 14.719531
65.320 14.542569
65.325 14.350417
65.330 13.92369
65.335 13.572957
65.340 14.035094
65.345 13.708844
65.350 13.364726
65.355 13.016293
65.360 13.247174
65.365 14.03556
65.370 14.109913
65.375 13.682767
65.380 14.086407
65.385 13.669962
65.390 13.576789
65.395 13.395209
65.400 13.148366
65.405 12.979157
65.410 12.60432
65.415 11.774748
65.420 12.381487
65.425 12.570862
65.430 12.258264
65.435 11.919666
65.440 12.050703
65.445 12.194452
65.450 12.350417
65.455 11.969101
65.460 11.656099
65.465 11.567054
65.470 11.799728
65.475 11.823582
65.480 12.415713
65.485 12.609125
65.490 12.681876
65.495 13.19388
65.500 13.514076
65.505 13.534978
65.510 13.547259
65.515 13.787542
65.520 13.659928
65.525 13.782011
65.530 13.694506
65.535 13.835669
65.540 14.01237
65.545 14.27007
65.550 13.744929
65.555 13.591083
65.560 12.840357
65.565 12.308969
65.570 11.868509
65.575 11.932656
65.580 11.856309
65.585 12.010407
65.590 12.106366
65.595 12.538599
65.600 13.023658
65.605 13.02392
65.610 12.726987
65.615 12.77311
65.620 12.605001
65.625 13.013101
65.630 13.430187
65.635 13.467052
65.640 13.791034
65.645 13.827964
65.650 14.00761
65.655 14.085019
65.660 13.733032
65.665 13.029358
65.670 12.75766
65.675 12.51575
65.680 12.777878
65.685 12.542929
65.690 12.419335
65.695 12.290714
65.700 12.235279
65.705 12.652411
65.710 12.534019
65.715 12.679473
65.720 12.815741
65.725 12.830708
65.730 13.094707
65.735 13.41898
65.740 13.171857
65.745 13.364371
65.750 12.562638
65.755 12.345672
65.760 12.819528
65.765 12.688975
65.770 12.32379
65.775 12.469117
65.780 12.586326
65.785 12.760034
65.790 12.573565
65.795 13.198039
65.800 13.600698
65.805 13.762035
65.810 13.295293
65.815 13.383376
65.820 14.049775
65.825 14.045787
65.830 13.315729
65.835 13.317905
65.840 13.590796
65.845 13.870046
65.850 13.469381
65.855 13.415359
65.860 13.874896
65.865 13.896651
65.870 13.561479
65.875 13.217384
65.880 13.313394
65.885 13.546222
65.890 13.628777
65.895 13.386513
65.900 13.754542
65.905 14.429515
65.910 14.994891
65.915 15.270529
65.920 15.391764
65.925 14.797723
65.930 14.599412
65.935 14.405128
65.940 13.97152
65.945 14.07004
65.950 14.459902
65.955 14.85171
65.960 15.07023
65.965 15.136168
65.970 15.11696
65.975 14.813129
65.980 14.159712
65.985 13.666182
65.990 13.616476
65.995 13.528108
66.000 13.303357
66.005 13.672108
66.010 13.937591
66.015 14.663402
66.020 14.924491
66.025 14.920903
66.030 15.753181
66.035 16.13085
66.040 15.861463
66.045 16.586514
66.050 16.546398
66.055 16.768044
66.060 16.469194
66.065 15.987821
66.070 15.570347
66.075 15.55591
66.080 14.894732
66.085 14.273941
66.090 13.508087
66.095 13.93956
66.100 14.624015
66.105 14.722445
66.110 14.756913
66.115 14.5466
66.120 14.685705
66.125 15.180226
66.130 15.202066
66.135 14.797484
66.140 14.993068
66.145 15.045652
66.150 15.441885
66.155 15.780016
66.160 15.619106
66.165 15.025203
66.170 14.637847
66.175 14.957492
66.180 14.849555
66.185 15.121951
66.190 14.964309
66.195 15.384663
66.200 15.628977
66.205 15.953965
66.210 16.277946
66.215 16.368305
66.220 15.893606
66.225 15.792798
66.230 15.51768
66.235 15.851106
66.240 15.563478
66.245 14.960209
66.250 15.061815
66.255 15.203966
66.260 15.389956
66.265 15.320802
66.270 14.962377
66.275 15.185265
66.280 15.276486
66.285 15.207276
66.290 15.346907
66.295 15.231053
66.300 15.137299
66.305 15.374388
66.310 15.260142
66.315 15.298413
66.320 15.067014
66.325 14.547599
66.330 14.294257
66.335 14.386135
66.340 13.932737
66.345 13.816525
66.350 13.530886
66.355 13.850911
66.360 14.142896
66.365 13.59599
66.370 13.096463
66.375 12.853413
66.380 12.879843
66.385 12.956106
66.390 12.436007
66.395 12.164345
66.400 12.450071
66.405 12.800429
66.410 13.292115
66.415 13.729586
66.420 14.662952
66.425 15.032486
66.430 15.511518
66.435 15.984181
66.440 15.8374
66.445 15.51029
66.450 14.820687
66.455 13.907877
66.460 13.523458
66.465 12.884631
66.470 12.464211
66.475 12.586245
66.480 12.089061
66.485 11.906773
66.490 11.727118
66.495 11.673375
66.500 11.762274
66.505 11.894942
66.510 11.888638
66.515 12.121492
66.520 12.578837
66.525 12.368407
66.530 12.561325
66.535 12.565968
66.540 12.519707
66.545 12.852455
66.550 13.005741
66.555 12.499174
66.560 12.44377
66.565 12.405079
66.570 12.594323
66.575 12.337061
66.580 11.563775
66.585 11.453596
66.590 11.779456
66.595 12.007242
66.600 11.774529
66.605 11.389557
66.610 11.1944
66.615 11.461533
66.620 11.065993
66.625 10.639027
66.630 10.825841
66.635 11.130308
66.640 11.463827
66.645 11.711926
66.650 11.521318
66.655 11.938025
66.660 12.109566
66.665 11.873792
66.670 11.877335
66.675 11.403748
66.680 11.476408
66.685 11.140491
66.690 10.658514
66.695 10.370605
66.700 10.268811
66.705 10.41729
66.710 10.574132
66.715 10.37139
66.720 10.948793
66.725 11.582497
66.730 11.685909
66.735 11.759649
66.740 11.807828
66.745 11.660731
66.750 11.971706
66.755 11.334991
66.760 11.197063
66.765 11.233992
66.770 11.151555
66.775 11.227954
66.780 11.285216
66.785 11.113315
66.790 11.360149
66.795 11.15918
66.800 10.824616
66.805 10.473308
66.810 10.21721
66.815 9.970491
66.820 9.954307
66.825 9.780668
66.830 9.848371
66.835 10.366234
66.840 10.63118
66.845 10.542313
66.850 10.809699
66.855 10.953673
66.860 11.137926
66.865 11.170444
66.870 11.036536
66.875 10.810323
66.880 11.020588
66.885 10.53606
66.890 10.450594
66.895 10.653481
66.900 10.926347
66.905 11.061749
66.910 11.446198
66.915 11.240313
66.920 11.513219
66.925 11.689159
66.930 11.608608
66.935 10.990046
66.940 10.620573
66.945 10.391536
66.950 10.824051
66.955 10.921519
66.960 10.490785
66.965 10.55874
66.970 10.873307
66.975 11.446618
66.980 11.52865
66.985 11.154952
66.990 11.48821
66.995 11.334418
67.000 11.360818
67.005 11.22487
67.010 10.892199
67.015 10.906623
67.020 11.207871
67.025 11.463076
67.030 11.913762
67.035 12.29723
67.040 12.673048
67.045 12.865568
67.050 12.924707
67.055 12.208375
67.060 11.787875
67.065 11.699515
67.070 10.990737
67.075 10.612409
67.080 10.826629
67.085 11.096594
67.090 11.59117
67.095 11.842843
67.100 12.083868
67.105 12.428709
67.110 12.286338
67.115 12.216771
67.120 12.227543
67.125 12.319256
67.130 11.88536
67.135 11.257774
67.140 11.194559
67.145 11.315923
67.150 10.807597
67.155 10.577688
67.160 10.417189
67.165 10.518482
67.170 10.494597
67.175 10.236291
67.180 10.420661
67.185 10.995989
67.190 10.946059
67.195 10.531062
67.200 10.560742
67.205 10.76365
67.210 11.046422
67.215 10.6598
67.220 10.436798
67.225 10.387451
67.230 10.610164
67.235 10.662525
67.240 10.606236
67.245 9.969269
67.250 9.733915
67.255 9.750873
67.260 9.818222
67.265 10.098363
67.270 9.77112
67.275 10.167153
67.280 10.405119
67.285 10.731279
67.290 10.903423
67.295 11.013453
67.300 10.943306
67.305 11.485343
67.310 11.516906
67.315 11.896831
67.320 11.632174
67.325 11.369746
67.330 11.428518
67.335 11.330574
67.340 10.943133
67.345 10.919969
67.350 10.242419
67.355 10.219073
67.360 10.278366
67.365 10.162062
67.370 10.525813
67.375 10.435983
67.380 10.927241
67.385 11.243291
67.390 11.485698
67.395 11.549478
67.400 11.532845
67.405 11.445328
67.410 11.488609
67.415 10.814872
67.420 10.611283
67.425 10.06738
67.430 9.841798
67.435 9.730967
67.440 9.418346
67.445 9.510603
67.450 9.479136
67.455 9.676222
67.460 9.98497
67.465 10.101806
67.470 10.150718
67.475 10.151635
67.480 10.214998
67.485 10.772801
67.490 10.943368
67.495 10.851895
67.500 11.02559
67.505 11.367823
67.510 11.53228
67.515 11.381289
67.520 11.074217
67.525 11.215241
67.530 11.131631
67.535 10.659828
67.540 10.408301
67.545 10.47924
67.550 10.750843
67.555 10.938206
67.560 10.797007
67.565 11.026955
67.570 11.245048
67.575 11.021317
67.580 11.345836
67.585 11.081036
67.590 10.87924
67.595 10.351454
67.600 10.103534
67.605 9.831109
67.610 9.909513
67.615 9.28793
67.620 9.370444
67.625 9.468925
67.630 9.88589
67.635 10.293088
67.640 10.540807
67.645 10.566169
67.650 10.450767
67.655 10.746684
67.660 10.749323
67.665 10.980413
67.670 10.791135
67.675 11.052602
67.680 11.185016
67.685 11.162086
67.690 10.519561
67.695 10.745104
67.700 10.636812
67.705 10.584694
67.710 10.626716
67.715 10.48982
67.720 10.918396
67.725 11.343513
67.730 11.108027
67.735 10.946769
67.740 10.520206
67.745 10.035206
67.750 9.877324
67.755 10.014814
67.760 10.096274
67.765 9.75461
67.770 9.817635
67.775 10.140394
67.780 10.384706
67.785 10.634017
67.790 10.25711
67.795 10.317681
67.800 10.468334
67.805 10.923011
67.810 10.721733
67.815 10.405817
67.820 10.38132
67.825 10.332568
67.830 10.249869
67.835 10.793218
67.840 10.522545
67.845 10.583515
67.850 10.793345
67.855 10.605771
67.860 10.820593
67.865 11.277987
67.870 10.955233
67.875 10.784282
67.880 11.124092
67.885 11.646866
67.890 12.036596
67.895 11.690396
67.900 10.978132
67.905 10.66892
67.910 10.748825
67.915 10.638703
67.920 10.062909
67.925 9.891138
67.930 9.998631
67.935 10.02274
67.940 9.87693
67.945 9.769344
67.950 9.46788
67.955 9.508963
67.960 9.705851
67.965 10.209356
67.970 10.712682
67.975 10.62081
67.980 11.124211
67.985 11.553554
67.990 11.611516
67.995 11.406565
68.000 10.994259
68.005 11.258529
68.010 11.664443
68.015 11.398473
68.020 11.22707
68.025 11.356416
68.030 11.154225
68.035 11.15632
68.040 11.246012
68.045 11.224234
68.050 11.156195
68.055 11.178393
68.060 10.935169
68.065 11.141844
68.070 10.664762
68.075 10.748054
68.080 10.953764
68.085 11.039858
68.090 10.921346
68.095 11.15542
68.100 11.31216
68.105 11.576239
68.110 11.603159
68.115 11.178962
68.120 11.136648
68.125 11.088339
68.130 11.235277
68.135 11.106636
68.140 10.857035
68.145 10.377916
68.150 10.455698
68.155 10.141407
68.160 10.338534
68.165 10.190116
68.170 10.744308
68.175 10.712498
68.180 10.289934
68.185 10.231235
68.190 10.623741
68.195 10.763709
68.200 10.546338
68.205 10.2558
68.210 10.42597
68.215 10.565138
68.220 11.054427
68.225 11.073221
68.230 11.274007
68.235 11.38328
68.240 11.473044
68.245 11.678984
68.250 12.051662
68.255 12.029268
68.260 12.269755
68.265 12.178149
68.270 12.025854
68.275 11.498891
68.280 11.439723
68.285 11.199821
68.290 11.036827
68.295 10.980275
68.300 11.082701
68.305 10.996675
68.310 11.182603
68.315 10.943988
68.320 10.634714
68.325 10.054819
68.330 9.118926
68.335 8.733413
68.340 8.915097
68.345 8.667749
68.350 8.910963
68.355 9.350218
68.360 9.745554
68.365 9.745391
68.370 9.792109
68.375 9.724291
68.380 10.248211
68.385 10.381508
68.390 10.484778
68.395 10.759929
68.400 11.107526
68.405 11.394724
68.410 11.484564
68.415 11.023358
68.420 10.86624
68.425 10.710457
68.430 10.603326
68.435 10.578148
68.440 10.013908
68.445 9.783346
68.450 9.964672
68.455 9.979051
68.460 10.02632
68.465 10.053377
68.470 10.455046
68.475 10.901698
68.480 11.109345
68.485 11.445063
68.490 11.432703
68.495 11.480539
68.500 11.426692
68.505 10.825998
68.510 10.678465
68.515 10.461035
68.520 9.743717
68.525 9.268424
68.530 8.710393
68.535 8.344595
68.540 8.774549
68.545 8.532398
68.550 8.317724
68.555 8.265103
68.560 8.872993
68.565 9.399649
68.570 9.843745
68.575 9.974207
68.580 10.064463
68.585 10.147503
68.590 10.649511
68.595 10.725814
68.600 10.948572
68.605 10.937758
68.610 10.941891
68.615 11.711419
68.620 12.063199
68.625 12.533619
68.630 12.464705
68.635 12.847383
68.640 13.015349
68.645 12.820736
68.650 12.188113
68.655 11.764626
68.660 11.381684
68.665 10.910501
68.670 10.296546
68.675 10.455175
68.680 10.810219
68.685 11.41604
68.690 11.349646
68.695 11.503759
68.700 11.625559
68.705 11.570385
68.710 11.592203
68.715 10.716072
68.720 10.470627
68.725 10.453974
68.730 10.068735
68.735 10.132099
68.740 9.974056
68.745 10.100364
68.750 10.313499
68.755 10.432799
68.760 10.567018
68.765 10.820802
68.770 10.455935
68.775 10.222386
68.780 9.883528
68.785 9.82562
68.790 9.712281
68.795 10.501057
68.800 10.599745
68.805 10.917622
68.810 11.067266
68.815 11.155594
68.820 11.735997
68.825 11.753708
68.830 10.718263
68.835 10.373148
68.840 10.632567
68.845 10.582265
68.850 10.590096
68.855 10.333602
68.860 10.064542
68.865 10.451786
68.870 10.654727
68.875 10.36478
68.880 10.161692
68.885 10.337846
68.890 10.691783
68.895 11.262375
68.900 11.487671
68.905 11.194018
68.910 11.391349
68.915 11.552894
68.920 11.459064
68.925 11.108064
68.930 10.97782
68.935 11.072542
68.940 11.467506
68.945 11.573309
68.950 11.579499
68.955 11.50281
68.960 11.436844
68.965 11.803471
68.970 12.027431
68.975 12.309518
68.980 12.433322
68.985 12.169043
68.990 12.270333
68.995 12.289724
69.000 11.533906
69.005 11.55216
69.010 11.622882
69.015 12.248772
69.020 12.46723
69.025 12.914536
69.030 13.012044
69.035 13.480742
69.040 13.084475
69.045 12.730134
69.050 12.713457
69.055 13.048837
69.060 12.7524
69.065 12.57178
69.070 12.851891
69.075 13.322775
69.080 13.567929
69.085 12.851904
69.090 12.348888
69.095 12.29949
69.100 12.380507
69.105 11.954576
69.110 11.678445
69.115 11.720277
69.120 12.560888
69.125 12.885098
69.130 13.010953
69.135 13.122006
69.140 13.61444
69.145 13.963182
69.150 13.537453
69.155 13.391263
69.160 13.362056
69.165 13.655179
69.170 13.592581
69.175 12.453666
69.180 12.339437
69.185 12.704532
69.190 12.694392
69.195 12.629597
69.200 12.143858
69.205 12.587431
69.210 12.779359
69.215 12.517836
69.220 12.140817
69.225 12.000171
69.230 12.428915
69.235 12.636601
69.240 12.23042
69.245 12.244805
69.250 12.577779
69.255 12.678487
69.260 12.782272
69.265 12.219047
69.270 12.098802
69.275 12.273188
69.280 12.148165
69.285 12.256788
69.290 12.558164
69.295 12.932012
69.300 13.310097
69.305 13.95898
69.310 14.555802
69.315 14.703384
69.320 14.599315
69.325 14.144728
69.330 13.98581
69.335 13.878573
69.340 13.277122
69.345 12.906145
69.350 12.878408
69.355 12.930324
69.360 12.827897
69.365 12.597241
69.370 12.512836
69.375 12.421376
69.380 12.640581
69.385 12.354136
69.390 12.523527
69.395 13.023562
69.400 12.831553
69.405 12.266562
69.410 12.333534
69.415 12.766224
69.420 12.674961
69.425 12.364824
69.430 12.495151
69.435 13.166512
69.440 13.768149
69.445 13.641473
69.450 13.392509
69.455 13.986881
69.460 14.422812
69.465 14.166919
69.470 14.135873
69.475 14.016167
69.480 14.105944
69.485 14.231079
69.490 14.190451
69.495 14.296492
69.500 15.060713
69.505 15.16662
69.510 15.442841
69.515 15.262726
69.520 15.055517
69.525 14.922822
69.530 14.569894
69.535 13.91748
69.540 13.910378
69.545 13.827592
69.550 14.067909
69.555 14.197002
69.560 14.003469
69.565 14.25256
69.570 14.381399
69.575 14.698021
69.580 14.830274
69.585 14.87535
69.590 15.758378
69.595 15.735929
69.600 15.386819
69.605 15.033826
69.610 14.628304
69.615 14.406577
69.620 13.523108
69.625 12.317771
69.630 12.649134
69.635 12.839615
69.640 13.469584
69.645 13.811378
69.650 13.790387
69.655 14.510769
69.660 14.469925
69.665 14.163372
69.670 14.56474
69.675 14.434661
69.680 13.985117
69.685 14.126504
69.690 14.41597
69.695 14.678481
69.700 14.73098
69.705 13.900292
69.710 13.548561
69.715 13.485747
69.720 13.214952
69.725 13.232986
69.730 13.254895
69.735 13.163464
69.740 13.328068
69.745 13.579967
69.750 13.557243
69.755 13.592688
69.760 13.353748
69.765 13.403625
69.770 13.619507
69.775 13.530993
69.780 13.6137
69.785 14.072242
69.790 14.055179
69.795 13.994586
69.800 13.426293
69.805 13.184611
69.810 13.216476
69.815 13.130963
69.820 12.537594
69.825 12.038696
69.830 11.795795
69.835 11.977203
69.840 11.721927
69.845 11.239638
69.850 11.531469
69.855 12.113286
69.860 12.429928
69.865 12.428335
69.870 12.43419
69.875 12.299007
69.880 12.346874
69.885 11.440345
69.890 11.23966
69.895 10.899336
69.900 10.904326
69.905 10.415043
69.910 10.18453
69.915 10.469573
69.920 11.039864
69.925 10.64823
69.930 11.018393
69.935 11.511644
69.940 11.633785
69.945 11.71102
69.950 10.983814
69.955 10.645277
69.960 10.847371
69.965 10.393765
69.970 10.647108
69.975 11.154171
69.980 11.572519
69.985 12.5878
69.990 12.568937
69.995 12.79465
70.000 12.659256
70.005 12.49054
70.010 12.298313
70.015 11.853997
70.020 11.52124
70.025 11.179039
70.030 10.790299
70.035 11.13035
70.040 11.107576
70.045 10.862485
70.050 10.87194
70.055 10.772751
70.060 11.212397
70.065 11.498247
70.070 11.285272
70.075 10.897926
70.080 10.716515
70.085 10.499288
70.090 10.186351
70.095 10.123641
70.100 10.221403
70.105 10.141426
70.110 10.480312
70.115 11.236119
70.120 11.603687
70.125 12.131009
70.130 12.406997
70.135 12.250234
70.140 12.200339
70.145 12.228421
70.150 12.064709
70.155 11.807552
70.160 11.271777
70.165 10.848763
70.170 10.66585
70.175 10.613789
70.180 10.56046
70.185 10.790965
70.190 11.069992
70.195 11.406766
70.200 11.409035
70.205 11.808744
70.210 12.036829
70.215 11.649743
70.220 11.227032
70.225 11.045739
70.230 11.028384
70.235 11.185035
70.240 11.157025
70.245 10.931375
70.250 11.039883
70.255 10.902219
70.260 11.376315
70.265 11.117978
70.270 10.829019
70.275 10.420503
70.280 10.157283
70.285 10.42443
70.290 10.357352
70.295 10.124774
70.300 10.124343
70.305 10.070883
70.310 10.058819
70.315 10.20434
70.320 10.017139
70.325 10.075411
70.330 9.636762
70.335 9.571102
70.340 10.030566
70.345 10.383111
70.350 10.903744
70.355 11.32665
70.360 11.371273
70.365 11.608505
70.370 11.697018
70.375 11.810293
70.380 11.942137
70.385 11.436713
70.390 11.042709
70.395 11.222037
70.400 11.361014
70.405 11.291577
70.410 10.92124
70.415 10.729054
70.420 10.916661
70.425 10.903975
70.430 10.77981
70.435 10.696921
70.440 10.582925
70.445 10.539287
70.450 10.45295
70.455 10.428146
70.460 10.873789
70.465 11.205604
70.470 11.373539
70.475 12.069898
70.480 12.081518
70.485 12.269982
70.490 12.597682
70.495 12.341173
70.500 12.555275
70.505 12.960178
70.510 12.619985
70.515 12.840625
70.520 12.635535
70.525 12.113346
70.530 12.065835
70.535 11.477221
70.540 11.271251
70.545 11.174893
70.550 10.943332
70.555 11.233901
70.560 11.088394
70.565 10.968591
70.570 10.978395
70.575 10.62386
70.580 10.974002
70.585 10.875166
70.590 10.922883
70.595 11.030449
70.600 11.070713
70.605 11.35003
70.610 11.365271
70.615 11.171775
70.620 11.06793
70.625 10.824122
70.630 10.782542
70.635 10.574827
70.640 10.420135
70.645 10.583572
70.650 10.513572
70.655 10.335258
70.660 10.280614
70.665 9.993517
70.670 10.015002
70.675 9.684024
70.680 9.136278
70.685 9.055701
70.690 9.655034
70.695 9.904813
70.700 10.028796
70.705 10.016019
70.710 10.241681
70.715 10.73672
70.720 10.722954
70.725 10.719231
70.730 10.773987
70.735 10.95147
70.740 11.200131
70.745 10.985714
70.750 11.087248
70.755 11.205462
70.760 10.935547
70.765 10.784068
70.770 10.695077
70.775 10.476677
70.780 10.636055
70.785 10.677131
70.790 10.84131
70.795 10.861583
70.800 10.81415
70.805 10.967206
70.810 11.328213
70.815 10.836433
70.820 10.308402
70.825 9.913023
70.830 9.804231
70.835 9.848724
70.840 9.618772
70.845 9.641543
70.850 9.914397
70.855 9.767728
70.860 9.778177
70.865 10.054856
70.870 9.807684
70.875 9.627924
70.880 9.227911
70.885 9.169112
70.890 9.059093
70.895 9.314549
70.900 9.683347
70.905 9.81994
70.910 10.00826
70.915 10.205516
70.920 10.470736
70.925 10.66677
70.930 10.530917
70.935 10.396624
70.940 10.035939
70.945 10.149596
70.950 10.484086
70.955 10.696385
70.960 10.598323
70.965 10.294748
70.970 10.127573
70.975 10.351755
70.980 10.279716
70.985 10.23906
70.990 9.772433
70.995 10.394879
71.000 10.859007
71.005 10.827858
71.010 10.964083
71.015 10.848344
71.020 10.691459
71.025 10.624413
71.030 9.796015
71.035 10.016576
71.040 10.243141
71.045 10.341346
71.050 10.422719
71.055 10.53377
71.060 10.796044
71.065 11.120151
71.070 10.548413
71.075 10.318295
71.080 10.235411
71.085 10.239171
71.090 10.613197
71.095 10.850975
71.100 10.797862
71.105 11.25221
71.110 11.156766
71.115 11.217937
71.120 11.228848
71.125 10.609627
71.130 10.447841
71.135 10.393336
71.140 10.517709
71.145 10.648187
71.150 10.448829
71.155 9.945422
71.160 9.947925
71.165 9.917178
71.170 9.558565
71.175 9.358463
71.180 9.092701
71.185 9.335649
71.190 9.624462
71.195 9.740923
71.200 9.736052
71.205 10.403486
71.210 10.715521
71.215 10.683875
71.220 10.570392
71.225 10.709686
71.230 11.254937
71.235 10.838645
71.240 10.507756
71.245 10.360847
71.250 10.515716
71.255 10.530004
71.260 10.112544
71.265 9.54776
71.270 9.46319
71.275 9.429915
71.280 9.780361
71.285 9.358097
71.290 9.123455
71.295 9.419624
71.300 9.816349
71.305 10.114858
71.310 10.217698
71.315 10.107735
71.320 10.009149
71.325 10.386261
71.330 10.388371
71.335 10.141473
71.340 9.902309
71.345 9.553707
71.350 9.368333
71.355 9.631907
71.360 9.605995
71.365 9.577112
71.370 10.042887
71.375 10.20489
71.380 10.254567
71.385 10.853466
71.390 10.917493
71.395 10.93556
71.400 10.855902
71.405 10.580353
71.410 10.592119
71.415 10.921565
71.420 10.933287
71.425 10.604067
71.430 10.738594
71.435 10.685794
71.440 10.347573
71.445 9.833447
71.450 9.290422
71.455 9.351502
71.460 9.720695
71.465 9.610271
71.470 10.189985
71.475 11.290151
71.480 12.13164
71.485 12.413546
71.490 12.289754
71.495 12.257024
71.500 12.351716
71.505 12.120483
71.510 11.153782
71.515 10.765987
71.520 10.487063
71.525 10.071885
71.530 9.744169
71.535 9.573985
71.540 9.287313
71.545 9.617117
71.550 9.931478
71.555 10.225295
71.560 10.921523
71.565 10.885888
71.570 10.812227
71.575 11.040613
71.580 10.995584
71.585 11.348211
71.590 10.832417
71.595 10.295427
71.600 10.051763
71.605 9.621357
71.610 9.515347
71.615 9.335991
71.620 8.931829
71.625 9.291142
71.630 9.317408
71.635 9.420579
71.640 9.641891
71.645 9.371264
71.650 9.225436
71.655 9.347259
71.660 9.308154
71.665 9.378485
71.670 9.600212
71.675 9.905399
71.680 10.031107
71.685 9.969206
71.690 9.778667
71.695 9.807854
71.700 9.798589
71.705 9.552799
71.710 9.836136
71.715 9.946439
71.720 10.060899
71.725 10.34743
71.730 10.435719
71.735 10.917635
71.740 10.768611
71.745 10.595802
71.750 11.17973
71.755 11.816566
71.760 11.876041
71.765 11.734097
71.770 11.548378
71.775 11.809551
71.780 11.615608
71.785 10.888021
71.790 10.122177
71.795 10.163072
71.800 10.004183
71.805 9.269876
71.810 8.882658
71.815 8.779845
71.820 9.144423
71.825 9.214188
71.830 9.158779
71.835 9.973001
71.840 10.730424
71.845 10.976341
71.850 10.856204
71.855 10.809213
71.860 10.730389
71.865 10.587672
71.870 10.141273
71.875 10.215875
71.880 10.345134
71.885 10.526136
71.890 11.085206
71.895 10.967655
71.900 11.216291
71.905 11.084431
71.910 11.270181
71.915 11.162492
71.920 11.105924
71.925 11.254354
71.930 11.407466
71.935 11.512697
71.940 11.857409
71.945 11.335945
71.950 11.571524
71.955 11.347512
71.960 10.885801
71.965 10.928801
71.970 10.706811
71.975 10.564571
71.980 10.456247
71.985 9.773049
71.990 9.614084
71.995 10.354989
72.000 10.721501
72.005 10.809669
72.010 10.76318
72.015 11.304068
72.020 11.830513
72.025 11.884653
72.030 11.087945
72.035 10.453819
72.040 9.931268
72.045 10.279622
72.050 10.088769
72.055 10.061217
72.060 9.955641
72.065 10.625823
72.070 11.301233
72.075 11.595537
72.080 11.633151
72.085 11.601336
72.090 11.350665
72.095 10.952994
72.100 10.57356
72.105 10.830696
72.110 10.746723
72.115 10.328636
72.120 10.806044
72.125 10.894215
72.130 11.022244
72.135 10.978868
72.140 10.583816
72.145 10.771832
72.150 11.020393
72.155 11.239559
72.160 11.592762
72.165 11.755587
72.170 11.52569
72.175 11.897123
72.180 11.884919
72.185 11.703152
72.190 10.911782
72.195 10.545594
72.200 10.259506
72.205 10.47481
72.210 10.039021
72.215 9.774487
72.220 9.588024
72.225 9.504616
72.230 9.661952
72.235 9.926556
72.240 9.727622
72.245 9.82749
72.250 9.912406
72.255 10.427255
72.260 10.808033
72.265 10.806773
72.270 10.50964
72.275 11.218385
72.280 11.0823
72.285 10.832287
72.290 10.869141
72.295 10.537204
72.300 10.464643
72.305 10.419062
72.310 9.98162
72.315 10.251875
72.320 10.45042
72.325 10.468802
72.330 10.624729
72.335 10.480226
72.340 10.131946
72.345 9.993624
72.350 10.629958
72.355 10.576888
72.360 10.877597
72.365 10.843304
72.370 11.181355
72.375 11.502345
72.380 11.635275
72.385 10.924232
72.390 11.078821
72.395 10.877204
72.400 10.915845
72.405 10.772882
72.410 10.808182
72.415 10.656829
72.420 10.874287
72.425 11.093844
72.430 11.423076
72.435 11.347773
72.440 10.918015
72.445 10.807769
72.450 10.976166
72.455 10.840168
72.460 10.546357
72.465 10.269976
72.470 10.308836
72.475 10.327001
72.480 10.075653
72.485 9.86897
72.490 9.537267
72.495 9.54088
72.500 9.429993
72.505 9.355783
72.510 9.379133
72.515 9.296274
72.520 9.548985
72.525 9.527133
72.530 9.50464
72.535 9.800274
72.540 10.131393
72.545 10.080936
72.550 10.215243
72.555 10.08215
72.560 10.220288
72.565 9.945735
72.570 9.664549
72.575 9.750575
72.580 10.013903
72.585 9.795149
72.590 9.701776
72.595 9.250736
72.600 9.404763
72.605 9.832937
72.610 9.835312
72.615 10.13776
72.620 9.949656
72.625 10.366849
72.630 10.338926
72.635 10.318709
72.640 10.185429
72.645 9.943461
72.650 9.517597
72.655 10.057161
72.660 10.20717
72.665 10.763531
72.670 10.626722
72.675 10.237466
72.680 9.987615
72.685 9.907508
72.690 9.25396
72.695 8.943563
72.700 8.475454
72.705 8.555333
72.710 8.569626
72.715 8.673873
72.720 8.717411
72.725 9.771544
72.730 9.899033
72.735 10.180307
72.740 10.381063
72.745 10.619342
72.750 10.420781
72.755 9.939
72.760 9.313308
72.765 9.467975
72.770 9.090997
72.775 9.172038
72.780 9.57697
72.785 9.872802
72.790 9.875509
72.795 9.843591
72.800 10.429736
72.805 10.742074
72.810 10.582412
72.815 10.372235
72.820 10.685429
72.825 10.956161
72.830 10.719402
72.835 10.598473
72.840 10.487391
72.845 10.863635
72.850 11.019109
72.855 10.582047
72.860 10.452886
72.865 10.430287
72.870 10.291751
72.875 10.599863
72.880 10.455495
72.885 10.442458
72.890 10.869391
72.895 10.851226
72.900 10.835407
72.905 10.641238
72.910 10.339187
72.915 9.878459
72.920 9.769105
72.925 8.793884
72.930 8.141089
72.935 8.001242
72.940 7.757939
72.945 7.870541
72.950 8.125113
72.955 8.624002
72.960 9.46102
72.965 10.121242
72.970 10.231441
72.975 10.252677
72.980 10.312529
72.985 10.034647
72.990 9.953005
72.995 9.626091
73.000 9.374166
