!@!!GADDS PLOTSO FILE: Chi integration type
!@!!Title/SampleName: map-169
!@!!Comment: ?
!@!!User: Bruker Instrument Administrator
!@!!Site: University of Illinois Chicago
!@!!Frame: map-169_01_000.gfrm
!@!!Wavelengths    1.54184   1.54056   1.54439
!@!!Frame angles: 2Theta: 63.000 Omega: 50.000 Phi: 0.000 Chi: 90.000
!@!!Integration range: 2Theta: 53.000 to 73.000  Gamma: -105.000 to -75.000
!@!!Integration method: bin normalized
!@!N
!@!SS
!@!M
!@!L 0.0 0.0 0.0 0.0
!@!XDegrees
!@!YCounts
53.000 3.569538
53.005 3.71083
53.010 3.799779
53.015 3.932597
53.020 4.23043
53.025 4.21467
53.030 4.388962
53.035 4.355132
53.040 4.311487
53.045 4.341314
53.050 4.283122
53.055 4.39003
53.060 3.988536
53.065 3.815276
53.070 3.634294
53.075 3.752011
53.080 3.73753
53.085 3.53913
53.090 3.632421
53.095 4.093829
53.100 3.867301
53.105 3.878173
53.110 3.873581
53.115 3.790802
53.120 3.784209
53.125 3.413818
53.130 3.259743
53.135 3.595953
53.140 3.603615
53.145 3.823564
53.150 3.974747
53.155 4.160522
53.160 4.247805
53.165 4.366205
53.170 4.021478
53.175 3.670622
53.180 3.177128
53.185 3.196974
53.190 3.221122
53.195 3.223325
53.200 3.165223
53.205 3.39646
53.210 3.561751
53.215 3.776226
53.220 3.867141
53.225 3.462639
53.230 3.354776
53.235 3.276629
53.240 3.273554
53.245 3.140021
53.250 2.918415
53.255 2.964124
53.260 3.597519
53.265 3.763354
53.270 3.828329
53.275 3.760428
53.280 4.136425
53.285 4.314671
53.290 4.291584
53.295 4.06129
53.300 4.18217
53.305 4.225055
53.310 4.229583
53.315 3.96627
53.320 3.737639
53.325 3.423735
53.330 3.597604
53.335 3.776595
53.340 3.697221
53.345 3.710187
53.350 3.816914
53.355 4.23945
53.360 4.483528
53.365 4.114371
53.370 4.044882
53.375 4.191202
53.380 4.088593
53.385 3.952771
53.390 3.903019
53.395 3.72387
53.400 3.734503
53.405 3.55373
53.410 3.553043
53.415 3.542375
53.420 3.643401
53.425 3.163415
53.430 2.89661
53.435 2.996556
53.440 2.818011
53.445 2.578308
53.450 2.725565
53.455 2.518595
53.460 2.924912
53.465 2.916989
53.470 3.045702
53.475 3.376182
53.480 3.38842
53.485 3.404289
53.490 3.411696
53.495 3.329673
53.500 3.147686
53.505 3.016547
53.510 3.22143
53.515 3.459955
53.520 3.278458
53.525 3.549984
53.530 4.011411
53.535 4.481201
53.540 4.538963
53.545 4.443401
53.550 4.413958
53.555 4.427435
53.560 4.271147
53.565 3.961914
53.570 3.938126
53.575 3.751028
53.580 3.621074
53.585 3.884453
53.590 4.565768
53.595 4.60586
53.600 4.665791
53.605 4.230065
53.610 4.002092
53.615 3.908806
53.620 3.229845
53.625 2.754968
53.630 2.708344
53.635 2.711038
53.640 3.190975
53.645 3.457847
53.650 3.568797
53.655 3.768687
53.660 3.815211
53.665 3.638731
53.670 3.54838
53.675 3.544737
53.680 3.83676
53.685 3.918932
53.690 4.086226
53.695 4.259591
53.700 4.399184
53.705 4.724783
53.710 4.700828
53.715 4.370849
53.720 4.281359
53.725 3.971204
53.730 3.743196
53.735 3.629358
53.740 3.311837
53.745 3.321795
53.750 3.407569
53.755 3.353664
53.760 3.675816
53.765 3.814586
53.770 3.990778
53.775 4.153354
53.780 4.283353
53.785 4.494442
53.790 4.513794
53.795 4.315738
53.800 4.266607
53.805 4.120487
53.810 3.747679
53.815 3.337489
53.820 2.987669
53.825 3.218872
53.830 3.334392
53.835 3.470897
53.840 3.623909
53.845 3.663128
53.850 3.898681
53.855 3.664631
53.860 3.567724
53.865 3.546117
53.870 3.268058
53.875 3.464951
53.880 3.508038
53.885 3.662591
53.890 3.924471
53.895 3.74986
53.900 3.931674
53.905 3.932692
53.910 3.656126
53.915 3.816519
53.920 3.772207
53.925 3.669215
53.930 3.805642
53.935 3.774159
53.940 3.92644
53.945 3.857463
53.950 3.733823
53.955 3.647878
53.960 3.759155
53.965 3.417916
53.970 3.299474
53.975 3.33025
53.980 3.409947
53.985 3.49527
53.990 3.51302
53.995 3.39647
54.000 3.559577
54.005 3.452921
54.010 3.460901
54.015 3.452777
54.020 3.654307
54.025 3.888937
54.030 4.016833
54.035 4.080577
54.040 4.115047
54.045 4.039401
54.050 3.920383
54.055 3.803339
54.060 3.576023
54.065 3.447631
54.070 3.644022
54.075 3.709009
54.080 3.661659
54.085 3.795302
54.090 4.109315
54.095 4.163717
54.100 3.998387
54.105 3.753698
54.110 3.895506
54.115 4.184251
54.120 3.964879
54.125 3.627442
54.130 3.529433
54.135 3.560669
54.140 3.462294
54.145 3.498432
54.150 3.263813
54.155 3.259855
54.160 3.118102
54.165 3.126168
54.170 3.011853
54.175 2.765327
54.180 2.52039
54.185 2.596373
54.190 2.87636
54.195 3.158438
54.200 3.495035
54.205 3.605613
54.210 3.683339
54.215 3.628078
54.220 3.533475
54.225 3.34293
54.230 3.44994
54.235 3.232863
54.240 3.337641
54.245 3.320224
54.250 3.485759
54.255 3.626833
54.260 3.463538
54.265 3.078079
54.270 3.24122
54.275 3.623321
54.280 3.686449
54.285 3.518463
54.290 3.398051
54.295 3.560604
54.300 3.732663
54.305 3.295396
54.310 3.045052
54.315 3.039492
54.320 3.273953
54.325 3.313019
54.330 3.317628
54.335 3.492249
54.340 3.77263
54.345 3.792358
54.350 3.618805
54.355 3.501969
54.360 3.609288
54.365 3.53815
54.370 3.703243
54.375 3.592516
54.380 3.543099
54.385 3.424289
54.390 3.405226
54.395 3.526791
54.400 3.36505
54.405 2.951244
54.410 3.069718
54.415 3.190869
54.420 3.438338
54.425 3.484228
54.430 3.138547
54.435 3.175138
54.440 3.443648
54.445 3.420166
54.450 3.544847
54.455 3.136296
54.460 2.985676
54.465 3.309235
54.470 3.246101
54.475 2.876019
54.480 2.927287
54.485 2.91773
54.490 3.271868
54.495 3.6741
54.500 3.826737
54.505 4.093344
54.510 4.205018
54.515 4.144556
54.520 4.319933
54.525 4.367424
54.530 4.308937
54.535 4.267524
54.540 4.368591
54.545 4.385531
54.550 4.133117
54.555 3.954276
54.560 4.053362
54.565 3.702198
54.570 3.666995
54.575 3.845489
54.580 4.383052
54.585 4.843931
54.590 4.899106
54.595 4.867946
54.600 4.792785
54.605 4.641393
54.610 4.502838
54.615 4.127934
54.620 4.051763
54.625 3.797554
54.630 3.90089
54.635 4.076949
54.640 4.131523
54.645 4.100358
54.650 4.06521
54.655 4.060802
54.660 4.094721
54.665 3.876963
54.670 3.710001
54.675 3.709461
54.680 3.944858
54.685 3.773336
54.690 3.475572
54.695 3.507138
54.700 3.536403
54.705 3.535357
54.710 3.448107
54.715 3.166384
54.720 3.329512
54.725 3.536268
54.730 3.727273
54.735 3.804545
54.740 3.78411
54.745 3.722631
54.750 3.662959
54.755 3.67405
54.760 3.671678
54.765 3.787728
54.770 3.889686
54.775 3.818029
54.780 3.604146
54.785 3.540005
54.790 3.55404
54.795 3.374148
54.800 3.362679
54.805 3.326037
54.810 3.52578
54.815 3.778997
54.820 3.880981
54.825 3.816404
54.830 3.806594
54.835 3.724802
54.840 3.597642
54.845 3.583631
54.850 3.519681
54.855 3.684963
54.860 3.685146
54.865 3.723354
54.870 3.715708
54.875 3.688601
54.880 3.71884
54.885 3.682685
54.890 3.635123
54.895 3.772065
54.900 3.600386
54.905 3.868556
54.910 4.06388
54.915 4.072039
54.920 4.159897
54.925 4.203559
54.930 4.405224
54.935 4.509121
54.940 4.440025
54.945 4.490398
54.950 4.667865
54.955 4.91703
54.960 4.707067
54.965 4.585797
54.970 4.482242
54.975 4.365491
54.980 4.206691
54.985 3.935124
54.990 3.503339
54.995 3.426635
55.000 3.3494
55.005 3.396596
55.010 3.433524
55.015 3.735572
55.020 3.843732
55.025 4.176569
55.030 4.264513
55.035 4.403128
55.040 4.582108
55.045 4.634473
55.050 4.498313
55.055 4.43557
55.060 4.414378
55.065 4.308372
55.070 4.211093
55.075 4.064011
55.080 3.816355
55.085 3.706753
55.090 3.761741
55.095 3.726735
55.100 3.805935
55.105 3.959352
55.110 3.982771
55.115 3.914423
55.120 4.15195
55.125 4.016923
55.130 3.712955
55.135 3.554703
55.140 3.288358
55.145 3.077636
55.150 3.086369
55.155 3.019722
55.160 3.044068
55.165 3.13638
55.170 3.039762
55.175 2.935166
55.180 3.246536
55.185 3.203849
55.190 3.017795
55.195 3.149709
55.200 3.13119
55.205 3.16848
55.210 3.081941
55.215 3.076107
55.220 3.125594
55.225 3.320451
55.230 3.387978
55.235 3.638208
55.240 3.982398
55.245 4.149809
55.250 4.352946
55.255 4.336174
55.260 4.553106
55.265 4.823059
55.270 4.920627
55.275 4.735517
55.280 4.757632
55.285 4.692305
55.290 4.76093
55.295 4.674892
55.300 4.398664
55.305 4.437569
55.310 4.425488
55.315 4.309034
55.320 4.508958
55.325 4.167917
55.330 3.811867
55.335 3.784373
55.340 3.660779
55.345 3.600947
55.350 3.865993
55.355 4.012989
55.360 4.162137
55.365 4.289169
55.370 4.199151
55.375 4.355921
55.380 4.510589
55.385 4.128474
55.390 3.855714
55.395 4.173157
55.400 4.35502
55.405 4.459354
55.410 4.372401
55.415 4.491816
55.420 4.478362
55.425 4.69132
55.430 4.535789
55.435 4.376557
55.440 4.520073
55.445 4.601866
55.450 4.364637
55.455 4.431643
55.460 4.21227
55.465 4.189447
55.470 4.180664
55.475 3.862163
55.480 3.596377
55.485 3.732636
55.490 3.367187
55.495 3.399815
55.500 3.47191
55.505 3.39174
55.510 3.699804
55.515 3.905153
55.520 3.797886
55.525 3.893305
55.530 3.819442
55.535 3.705475
55.540 3.516586
55.545 3.466602
55.550 3.6279
55.555 3.50198
55.560 3.555968
55.565 3.752727
55.570 3.997553
55.575 4.157187
55.580 3.797482
55.585 3.729528
55.590 3.868042
55.595 3.575538
55.600 2.988672
55.605 2.876875
55.610 2.837403
55.615 3.039048
55.620 3.136362
55.625 3.221736
55.630 3.571171
55.635 3.888292
55.640 3.878144
55.645 3.727473
55.650 3.647067
55.655 3.816783
55.660 3.852286
55.665 3.604908
55.670 3.541187
55.675 3.581504
55.680 3.805045
55.685 3.59955
55.690 3.556195
55.695 3.488336
55.700 3.49779
55.705 3.641994
55.710 3.657366
55.715 3.5672
55.720 3.816835
55.725 3.808791
55.730 3.834136
55.735 3.869177
55.740 3.630162
55.745 3.798821
55.750 3.915991
55.755 3.421402
55.760 3.45429
55.765 3.620003
55.770 3.733866
55.775 3.80801
55.780 3.646577
55.785 3.790951
55.790 3.936266
55.795 3.707045
55.800 3.464228
55.805 3.32561
55.810 3.446524
55.815 3.49189
55.820 3.561589
55.825 3.585618
55.830 4.105138
55.835 4.375176
55.840 4.419285
55.845 4.363666
55.850 4.299385
55.855 4.162208
55.860 4.119869
55.865 3.58596
55.870 3.357419
55.875 3.402784
55.880 3.514192
55.885 3.660685
55.890 3.648159
55.895 3.620015
55.900 3.650683
55.905 3.606523
55.910 3.893154
55.915 3.646889
55.920 3.611655
55.925 3.780699
55.930 3.954752
55.935 4.357637
55.940 4.751814
55.945 4.993848
55.950 5.053595
55.955 4.97562
55.960 4.773026
55.965 4.667428
55.970 4.246333
55.975 3.707432
55.980 3.36989
55.985 3.203825
55.990 3.028944
55.995 3.19231
56.000 3.210166
56.005 3.118743
56.010 2.857748
56.015 2.776822
56.020 2.920808
56.025 2.934546
56.030 2.709121
56.035 2.927721
56.040 3.07752
56.045 3.182997
56.050 3.192278
56.055 3.337789
56.060 3.714923
56.065 4.113892
56.070 3.995558
56.075 4.101406
56.080 4.268866
56.085 4.350663
56.090 4.194621
56.095 3.978162
56.100 3.600233
56.105 3.892143
56.110 4.261249
56.115 4.429237
56.120 4.495042
56.125 4.663084
56.130 4.633405
56.135 4.884619
56.140 4.511451
56.145 4.153052
56.150 3.967028
56.155 3.859336
56.160 3.731412
56.165 3.523687
56.170 3.229653
56.175 3.523449
56.180 3.585027
56.185 3.592307
56.190 3.809814
56.195 4.116047
56.200 4.406643
56.205 4.710437
56.210 4.464373
56.215 4.68888
56.220 4.548104
56.225 4.333755
56.230 4.332082
56.235 4.148021
56.240 4.045728
56.245 4.24503
56.250 4.398108
56.255 4.453073
56.260 4.23637
56.265 4.373667
56.270 4.547204
56.275 4.422432
56.280 4.055081
56.285 3.5112
56.290 3.640429
56.295 3.957121
56.300 3.687034
56.305 3.878134
56.310 4.003426
56.315 4.029283
56.320 4.140098
56.325 4.076223
56.330 4.086372
56.335 4.298589
56.340 4.559387
56.345 4.583792
56.350 4.921896
56.355 5.11927
56.360 4.972465
56.365 4.869002
56.370 4.573429
56.375 4.107639
56.380 4.294539
56.385 4.687783
56.390 4.688497
56.395 4.482663
56.400 4.387419
56.405 4.359377
56.410 4.355567
56.415 3.993846
56.420 3.341686
56.425 3.385966
56.430 3.647038
56.435 3.415035
56.440 3.427608
56.445 3.392351
56.450 3.500457
56.455 3.443421
56.460 3.266267
56.465 3.340285
56.470 3.408031
56.475 3.55439
56.480 3.643552
56.485 3.815587
56.490 4.213541
56.495 4.536386
56.500 4.724701
56.505 5.056568
56.510 4.997069
56.515 5.187949
56.520 5.300721
56.525 5.092596
56.530 4.84651
56.535 4.795203
56.540 4.690361
56.545 4.981364
56.550 4.785501
56.555 4.612968
56.560 4.597231
56.565 4.596605
56.570 4.762509
56.575 4.671498
56.580 4.286737
56.585 4.275962
56.590 4.40285
56.595 4.515605
56.600 4.462561
56.605 4.251319
56.610 4.133599
56.615 4.220019
56.620 4.204413
56.625 4.188125
56.630 4.022049
56.635 4.053968
56.640 4.04775
56.645 4.243373
56.650 4.077791
56.655 4.058094
56.660 4.256546
56.665 4.518447
56.670 4.644278
56.675 5.091875
56.680 5.183561
56.685 5.422059
56.690 5.25553
56.695 4.938214
56.700 4.481478
56.705 4.042203
56.710 3.711933
56.715 3.7779
56.720 4.174168
56.725 4.419116
56.730 4.515796
56.735 4.85636
56.740 5.223104
56.745 5.329026
56.750 5.457427
56.755 5.370983
56.760 5.382723
56.765 5.387499
56.770 5.178233
56.775 5.047897
56.780 4.927732
56.785 4.72061
56.790 4.389269
56.795 4.5731
56.800 4.734353
56.805 4.707848
56.810 4.583997
56.815 4.501811
56.820 4.368363
56.825 4.676365
56.830 4.423606
56.835 4.278441
56.840 4.413763
56.845 4.495714
56.850 4.69296
56.855 4.931594
56.860 4.85341
56.865 4.982702
56.870 4.999817
56.875 4.845664
56.880 4.810304
56.885 4.593618
56.890 4.50009
56.895 4.411086
56.900 4.463901
56.905 4.551373
56.910 4.459595
56.915 4.360192
56.920 4.364858
56.925 4.228359
56.930 4.351112
56.935 3.895156
56.940 3.917384
56.945 4.068408
56.950 4.269165
56.955 4.626576
56.960 4.64923
56.965 4.575523
56.970 4.906614
56.975 4.835367
56.980 4.795755
56.985 4.6826
56.990 4.401583
56.995 4.489519
57.000 4.633833
57.005 4.615243
57.010 4.770123
57.015 5.109441
57.020 5.309835
57.025 5.578001
57.030 5.42684
57.035 5.268291
57.040 5.018943
57.045 4.80049
57.050 4.849294
57.055 4.487432
57.060 4.302679
57.065 4.304416
57.070 4.2459
57.075 4.434309
57.080 4.451715
57.085 4.262472
57.090 4.343925
57.095 4.304879
57.100 4.198503
57.105 4.080985
57.110 4.346502
57.115 4.625719
57.120 4.605166
57.125 4.503405
57.130 4.499543
57.135 4.518838
57.140 4.511812
57.145 4.024891
57.150 3.717577
57.155 3.76
57.160 3.998772
57.165 4.096357
57.170 4.232623
57.175 4.576246
57.180 4.977663
57.185 5.074608
57.190 5.0462
57.195 4.949037
57.200 4.768541
57.205 4.727224
57.210 4.421631
57.215 3.941179
57.220 3.690812
57.225 3.82822
57.230 3.90501
57.235 4.077015
57.240 4.150785
57.245 4.418376
57.250 4.709673
57.255 4.897674
57.260 4.749008
57.265 4.716263
57.270 4.645588
57.275 4.541362
57.280 4.730857
57.285 4.809387
57.290 4.72131
57.295 4.624261
57.300 4.553368
57.305 4.278275
57.310 4.041657
57.315 3.928573
57.320 3.832463
57.325 3.940514
57.330 4.201729
57.335 4.854421
57.340 5.162501
57.345 5.369307
57.350 5.083507
57.355 5.019332
57.360 4.848357
57.365 4.769705
57.370 4.747243
57.375 4.860737
57.380 4.89376
57.385 4.911777
57.390 4.813544
57.395 4.851027
57.400 4.793132
57.405 4.320105
57.410 4.008144
57.415 3.888001
57.420 4.150795
57.425 4.464557
57.430 4.149618
57.435 4.096313
57.440 4.415222
57.445 4.639653
57.450 4.640825
57.455 4.628998
57.460 4.558818
57.465 5.016194
57.470 5.040411
57.475 4.89819
57.480 4.777388
57.485 4.925932
57.490 4.763341
57.495 4.831397
57.500 4.732364
57.505 4.739793
57.510 4.860663
57.515 5.059403
57.520 5.025882
57.525 5.139295
57.530 5.097003
57.535 5.066049
57.540 4.658304
57.545 4.433757
57.550 4.372219
57.555 4.415087
57.560 4.400511
57.565 4.425806
57.570 4.377296
57.575 4.665375
57.580 4.98218
57.585 5.153155
57.590 4.901526
57.595 5.030956
57.600 5.022915
57.605 4.856839
57.610 5.132583
57.615 5.203185
57.620 5.319025
57.625 5.527373
57.630 5.294615
57.635 5.282749
57.640 5.482271
57.645 5.205476
57.650 4.939536
57.655 4.727991
57.660 4.50163
57.665 4.294114
57.670 4.253499
57.675 4.177182
57.680 4.025494
57.685 4.044911
57.690 4.305695
57.695 4.287817
57.700 4.177257
57.705 3.980792
57.710 3.856974
57.715 4.09023
57.720 3.883102
57.725 3.827849
57.730 3.755428
57.735 3.938281
57.740 4.332784
57.745 4.466612
57.750 4.534595
57.755 4.346612
57.760 4.480392
57.765 4.673393
57.770 4.785232
57.775 4.673237
57.780 4.509919
57.785 4.447643
57.790 4.573145
57.795 4.626681
57.800 4.918187
57.805 4.595233
57.810 4.558239
57.815 4.655581
57.820 4.798108
57.825 4.661006
57.830 4.320931
57.835 4.304847
57.840 4.569671
57.845 4.641301
57.850 5.166236
57.855 5.179893
57.860 5.235826
57.865 5.112721
57.870 5.014505
57.875 4.789683
57.880 4.771326
57.885 4.464617
57.890 4.503821
57.895 4.573534
57.900 4.777146
57.905 4.779228
57.910 5.045249
57.915 5.003919
57.920 4.82368
57.925 4.841478
57.930 4.942949
57.935 5.182853
57.940 5.271579
57.945 5.026437
57.950 4.870155
57.955 4.94863
57.960 4.893568
57.965 5.023015
57.970 5.176239
57.975 4.923482
57.980 4.927949
57.985 4.724539
57.990 4.702097
57.995 4.924663
58.000 4.843748
58.005 4.493328
58.010 4.611545
58.015 4.937845
58.020 5.274256
58.025 5.298589
58.030 4.929281
58.035 4.789981
58.040 4.875878
58.045 4.718297
58.050 4.658886
58.055 4.686246
58.060 4.612742
58.065 4.771836
58.070 4.917752
58.075 5.09622
58.080 5.074053
58.085 4.880942
58.090 4.935521
58.095 5.252115
58.100 5.525328
58.105 5.343107
58.110 5.0457
58.115 5.236772
58.120 5.337911
58.125 5.178281
58.130 4.818463
58.135 4.600123
58.140 4.851995
58.145 4.926525
58.150 4.674687
58.155 4.582802
58.160 4.766892
58.165 4.665173
58.170 4.611741
58.175 4.365751
58.180 4.476807
58.185 4.734493
58.190 4.507453
58.195 4.324873
58.200 4.530276
58.205 4.728225
58.210 4.766083
58.215 4.920207
58.220 5.027558
58.225 5.132609
58.230 5.374022
58.235 5.420568
58.240 5.452873
58.245 5.774416
58.250 5.674703
58.255 5.690795
58.260 5.840933
58.265 5.745039
58.270 5.722669
58.275 5.766907
58.280 5.550052
58.285 5.200339
58.290 4.957187
58.295 5.030952
58.300 4.954031
58.305 4.650869
58.310 4.694459
58.315 4.925223
58.320 5.153586
58.325 5.292717
58.330 5.283867
58.335 5.201775
58.340 5.240192
58.345 4.962161
58.350 5.096624
58.355 5.339721
58.360 5.249889
58.365 5.040071
58.370 4.876632
58.375 4.944943
58.380 4.925478
58.385 4.880475
58.390 4.77325
58.395 4.750623
58.400 4.892232
58.405 5.101189
58.410 5.019467
58.415 5.388028
58.420 5.209986
58.425 5.161574
58.430 5.022501
58.435 4.727176
58.440 4.475433
58.445 4.444551
58.450 4.110786
58.455 4.14781
58.460 4.093729
58.465 4.172184
58.470 4.567616
58.475 4.645737
58.480 4.461889
58.485 4.328812
58.490 4.316611
58.495 4.349896
58.500 4.648685
58.505 4.749311
58.510 4.964065
58.515 5.09996
58.520 5.023165
58.525 4.880971
58.530 5.1359
58.535 4.916491
58.540 4.641734
58.545 4.598936
58.550 4.375854
58.555 4.472901
58.560 4.390936
58.565 4.328511
58.570 4.30342
58.575 4.233799
58.580 4.089168
58.585 4.330482
58.590 4.524972
58.595 4.854683
58.600 5.099606
58.605 4.935769
58.610 4.855758
58.615 4.8277
58.620 4.970922
58.625 4.789309
58.630 4.34471
58.635 4.111081
58.640 4.569895
58.645 4.698559
58.650 4.923211
58.655 4.897819
58.660 5.224437
58.665 5.333376
58.670 5.004499
58.675 4.664695
58.680 4.783403
58.685 4.710715
58.690 4.687767
58.695 4.615504
58.700 4.457241
58.705 4.493896
58.710 4.584051
58.715 4.970553
58.720 5.014197
58.725 4.898917
58.730 4.72753
58.735 4.794413
58.740 5.052465
58.745 5.156741
58.750 4.661599
58.755 4.757051
58.760 4.689273
58.765 4.619143
58.770 4.541043
58.775 4.199395
58.780 3.941563
58.785 3.99413
58.790 4.076962
58.795 4.476777
58.800 4.622197
58.805 4.78842
58.810 4.823226
58.815 4.97087
58.820 5.057323
58.825 4.606212
58.830 4.264967
58.835 4.347963
58.840 4.543052
58.845 4.746597
58.850 4.716864
58.855 4.773181
58.860 5.003704
58.865 5.142925
58.870 5.106997
58.875 5.102072
58.880 5.375928
58.885 5.362176
58.890 4.998977
58.895 5.070338
58.900 5.082182
58.905 5.044925
58.910 4.838633
58.915 4.678262
58.920 4.918625
58.925 5.2392
58.930 5.018533
58.935 4.745063
58.940 4.632997
58.945 4.990671
58.950 4.788911
58.955 4.626998
58.960 4.419264
58.965 4.512585
58.970 4.762197
58.975 4.794969
58.980 4.57734
58.985 4.3358
58.990 4.09394
58.995 4.088824
59.000 4.090929
59.005 4.011499
59.010 4.000106
59.015 3.896266
59.020 3.968205
59.025 4.380943
59.030 4.569795
59.035 4.643106
59.040 4.596529
59.045 4.359327
59.050 4.538808
59.055 4.728674
59.060 4.650792
59.065 4.819675
59.070 5.175397
59.075 5.618681
59.080 6.211942
59.085 5.971524
59.090 6.056539
59.095 6.022384
59.100 5.734851
59.105 5.151087
59.110 4.670452
59.115 4.427329
59.120 4.386016
59.125 4.517474
59.130 4.790548
59.135 4.746378
59.140 4.881846
59.145 5.102117
59.150 5.01905
59.155 5.237979
59.160 5.110859
59.165 5.154878
59.170 5.629712
59.175 5.733225
59.180 5.820364
59.185 5.749815
59.190 5.485633
59.195 5.281609
59.200 4.95381
59.205 4.534806
59.210 4.381327
59.215 4.166462
59.220 4.400678
59.225 4.546122
59.230 4.620719
59.235 4.724329
59.240 4.995418
59.245 5.296808
59.250 5.454548
59.255 5.772768
59.260 5.827789
59.265 5.91178
59.270 5.840303
59.275 5.617959
59.280 5.615627
59.285 5.617759
59.290 5.510914
59.295 5.571897
59.300 5.359505
59.305 5.563797
59.310 5.619908
59.315 5.487319
59.320 5.498267
59.325 5.313726
59.330 5.217321
59.335 5.529334
59.340 5.397275
59.345 5.394482
59.350 5.342536
59.355 5.515367
59.360 5.73848
59.365 5.810841
59.370 5.81044
59.375 5.70278
59.380 5.840295
59.385 5.875318
59.390 5.665879
59.395 5.52314
59.400 5.747344
59.405 5.717267
59.410 5.523536
59.415 5.401814
59.420 5.512067
59.425 5.55359
59.430 5.498296
59.435 5.045259
59.440 4.711343
59.445 4.735198
59.450 4.723334
59.455 4.440655
59.460 4.591139
59.465 4.871042
59.470 5.084266
59.475 5.364406
59.480 5.640079
59.485 5.603117
59.490 5.800039
59.495 5.770162
59.500 5.538304
59.505 5.684309
59.510 5.589655
59.515 5.613515
59.520 5.976419
59.525 6.31122
59.530 6.045444
59.535 5.968358
59.540 5.881064
59.545 5.890436
59.550 5.690895
59.555 5.501282
59.560 5.18631
59.565 5.041805
59.570 4.662313
59.575 4.494939
59.580 4.37297
59.585 4.284373
59.590 4.315464
59.595 4.353059
59.600 4.516467
59.605 4.773549
59.610 4.932516
59.615 5.127903
59.620 5.199715
59.625 5.058768
59.630 5.085049
59.635 4.978909
59.640 5.068479
59.645 5.100807
59.650 5.043485
59.655 4.813174
59.660 4.798953
59.665 4.844923
59.670 5.031664
59.675 5.089574
59.680 4.834481
59.685 4.583234
59.690 4.842552
59.695 4.857925
59.700 5.015692
59.705 4.99339
59.710 4.94249
59.715 5.056798
59.720 5.499616
59.725 5.467073
59.730 5.247083
59.735 4.908083
59.740 4.687391
59.745 4.631875
59.750 4.813256
59.755 4.547585
59.760 4.535388
59.765 4.736823
59.770 4.971901
59.775 5.057282
59.780 5.319263
59.785 5.507958
59.790 5.513038
59.795 5.338997
59.800 5.362825
59.805 5.530616
59.810 5.461091
59.815 5.392999
59.820 5.02236
59.825 5.182681
59.830 5.367782
59.835 5.172439
59.840 5.129197
59.845 5.201835
59.850 5.073996
59.855 5.326711
59.860 5.662881
59.865 5.676738
59.870 5.484069
59.875 5.461139
59.880 5.696965
59.885 5.560816
59.890 5.759098
59.895 5.685075
59.900 5.769886
59.905 6.042497
59.910 5.864231
59.915 5.49865
59.920 5.5692
59.925 5.427567
59.930 5.250942
59.935 5.132175
59.940 5.154285
59.945 5.463883
59.950 5.79617
59.955 5.768853
59.960 5.446844
59.965 5.365336
59.970 5.361492
59.975 5.280622
59.980 5.412125
59.985 5.384014
59.990 5.358035
59.995 5.271368
60.000 5.50973
60.005 5.834428
60.010 6.188237
60.015 5.946351
60.020 5.906385
60.025 5.847144
60.030 5.972053
60.035 5.691832
60.040 5.295259
60.045 5.147696
60.050 5.040674
60.055 5.15731
60.060 5.201775
60.065 5.245073
60.070 5.27318
60.075 5.486333
60.080 5.479767
60.085 5.713205
60.090 5.724569
60.095 6.119187
60.100 6.06022
60.105 5.940897
60.110 5.755857
60.115 5.95274
60.120 6.004102
60.125 5.824495
60.130 5.431278
60.135 5.489056
60.140 5.56184
60.145 5.209513
60.150 4.571583
60.155 4.608865
60.160 4.864942
60.165 4.927378
60.170 5.013556
60.175 5.010146
60.180 5.263595
60.185 5.222188
60.190 4.556232
60.195 4.245502
60.200 4.259107
60.205 4.170774
60.210 4.157917
60.215 4.185786
60.220 4.636298
60.225 4.807196
60.230 4.948577
60.235 5.010862
60.240 5.335956
60.245 5.519547
60.250 5.63123
60.255 5.667568
60.260 5.717462
60.265 5.760933
60.270 5.671434
60.275 5.543787
60.280 6.041098
60.285 6.093236
60.290 5.839094
60.295 5.931664
60.300 5.831149
60.305 5.903405
60.310 5.520257
60.315 4.960646
60.320 4.87463
60.325 4.95596
60.330 5.093184
60.335 4.927626
60.340 4.776152
60.345 5.173038
60.350 5.397536
60.355 5.581206
60.360 5.571584
60.365 5.75302
60.370 5.951058
60.375 5.974092
60.380 5.611287
60.385 5.328249
60.390 4.84231
60.395 4.876052
60.400 4.540226
60.405 4.188619
60.410 3.852928
60.415 4.009104
60.420 4.117101
60.425 4.314103
60.430 4.458672
60.435 4.456116
60.440 4.86987
60.445 5.285623
60.450 5.387757
60.455 5.561927
60.460 5.648352
60.465 5.487833
60.470 5.758592
60.475 5.650069
60.480 5.65635
60.485 5.413103
60.490 5.162925
60.495 5.276362
60.500 5.281016
60.505 5.17151
60.510 5.155854
60.515 4.8677
60.520 5.038964
60.525 5.043632
60.530 4.961247
60.535 4.847892
60.540 4.925378
60.545 5.536063
60.550 6.29334
60.555 6.543229
60.560 6.55799
60.565 6.506655
60.570 6.622515
60.575 6.320336
60.580 5.673377
60.585 4.989669
60.590 5.090268
60.595 5.377259
60.600 5.713779
60.605 5.716166
60.610 5.728755
60.615 5.766647
60.620 6.180895
60.625 5.99559
60.630 5.711195
60.635 5.537568
60.640 5.892945
60.645 6.007515
60.650 6.151667
60.655 6.127478
60.660 6.261739
60.665 6.423436
60.670 6.359946
60.675 6.020799
60.680 6.025346
60.685 5.773771
60.690 5.522018
60.695 5.478036
60.700 5.22517
60.705 5.340407
60.710 5.334198
60.715 5.175726
60.720 5.397687
60.725 5.366841
60.730 5.411901
60.735 5.338606
60.740 5.159823
60.745 5.214094
60.750 5.343478
60.755 5.249623
60.760 5.168025
60.765 5.123619
60.770 5.064231
60.775 5.138281
60.780 5.156233
60.785 5.525698
60.790 5.460641
60.795 5.715338
60.800 5.669472
60.805 5.795631
60.810 5.619139
60.815 5.59827
60.820 5.202286
60.825 5.056975
60.830 4.957527
60.835 5.129143
60.840 5.110412
60.845 5.328747
60.850 5.49689
60.855 5.862513
60.860 6.076335
60.865 6.024577
60.870 5.956082
60.875 5.918768
60.880 5.626634
60.885 5.337324
60.890 5.12258
60.895 5.063509
60.900 4.726964
60.905 4.676819
60.910 5.072014
60.915 5.370606
60.920 5.333014
60.925 5.076756
60.930 4.943361
60.935 5.250937
60.940 5.273007
60.945 5.343894
60.950 5.492577
60.955 5.909804
60.960 6.05895
60.965 6.225919
60.970 6.238811
60.975 6.088776
60.980 5.916898
60.985 5.464513
60.990 5.088382
60.995 5.203058
61.000 5.18095
61.005 5.125487
61.010 5.221954
61.015 5.066536
61.020 4.98335
61.025 4.910549
61.030 4.811994
61.035 4.604004
61.040 4.758265
61.045 4.660465
61.050 4.611938
61.055 4.939254
61.060 4.788283
61.065 4.683855
61.070 4.599276
61.075 4.374054
61.080 4.630796
61.085 4.852968
61.090 5.199271
61.095 5.535702
61.100 5.351617
61.105 5.130506
61.110 5.216332
61.115 4.827422
61.120 4.672518
61.125 4.57905
61.130 4.615886
61.135 5.131042
61.140 5.710104
61.145 5.843338
61.150 5.934759
61.155 5.619618
61.160 5.396764
61.165 5.790722
61.170 5.609195
61.175 5.252209
61.180 5.260344
61.185 5.440538
61.190 5.552513
61.195 5.911538
61.200 5.7779
61.205 6.074412
61.210 6.46505
61.215 6.382513
61.220 6.761239
61.225 6.935195
61.230 6.49252
61.235 6.154321
61.240 6.01081
61.245 5.772565
61.250 5.940609
61.255 5.515708
61.260 5.187794
61.265 5.544166
61.270 5.810952
61.275 6.209479
61.280 6.243729
61.285 5.909828
61.290 6.049499
61.295 6.256953
61.300 5.957472
61.305 6.079439
61.310 5.798538
61.315 5.848995
61.320 5.794472
61.325 5.582955
61.330 5.387244
61.335 5.548533
61.340 5.542627
61.345 5.324518
61.350 5.33674
61.355 5.646313
61.360 5.904369
61.365 6.367758
61.370 6.092196
61.375 5.711126
61.380 5.919718
61.385 5.59773
61.390 5.378742
61.395 5.266845
61.400 5.219664
61.405 5.365885
61.410 5.40766
61.415 5.161171
61.420 5.37421
61.425 5.502586
61.430 5.306907
61.435 4.967762
61.440 5.309176
61.445 5.423
61.450 5.770483
61.455 5.838152
61.460 5.82332
61.465 6.126908
61.470 6.255088
61.475 6.02395
61.480 6.044254
61.485 5.787332
61.490 5.766717
61.495 5.876799
61.500 5.514429
61.505 5.516367
61.510 5.285475
61.515 5.040466
61.520 5.096779
61.525 5.100551
61.530 5.206015
61.535 5.418215
61.540 5.345211
61.545 5.682743
61.550 5.912014
61.555 5.976819
61.560 5.861193
61.565 5.802556
61.570 6.080608
61.575 6.424048
61.580 6.438418
61.585 6.432811
61.590 6.607012
61.595 6.395246
61.600 6.287597
61.605 5.950658
61.610 5.475893
61.615 5.317273
61.620 5.362278
61.625 5.092991
61.630 5.110621
61.635 4.975747
61.640 5.237994
61.645 5.434961
61.650 5.572768
61.655 5.46073
61.660 5.767337
61.665 5.8592
61.670 5.820268
61.675 5.592276
61.680 5.639033
61.685 5.728577
61.690 5.841597
61.695 5.583505
61.700 5.844887
61.705 6.009517
61.710 6.035959
61.715 5.587593
61.720 5.477438
61.725 5.366658
61.730 5.346226
61.735 5.12145
61.740 5.014569
61.745 5.166569
61.750 5.293334
61.755 5.099884
61.760 4.762349
61.765 4.664101
61.770 4.905429
61.775 4.78044
61.780 4.646325
61.785 4.572954
61.790 4.464625
61.795 4.726939
61.800 4.531855
61.805 4.461485
61.810 4.567811
61.815 5.204078
61.820 5.712774
61.825 5.938584
61.830 6.293753
61.835 6.843078
61.840 7.10977
61.845 6.886943
61.850 6.267102
61.855 6.103821
61.860 5.875192
61.865 5.766407
61.870 5.407677
61.875 5.243992
61.880 5.82476
61.885 5.879113
61.890 5.923075
61.895 5.850801
61.900 5.935872
61.905 5.953618
61.910 5.832719
61.915 5.618194
61.920 5.542691
61.925 5.928872
61.930 6.055758
61.935 6.098032
61.940 6.054332
61.945 6.023123
61.950 5.766652
61.955 5.699547
61.960 5.365278
61.965 5.456573
61.970 5.228234
61.975 5.085956
61.980 4.922071
61.985 5.268303
61.990 5.446729
61.995 5.289419
62.000 5.306
62.005 5.625144
62.010 6.153912
62.015 6.416703
62.020 6.042367
62.025 5.827277
62.030 5.986833
62.035 6.098292
62.040 6.03856
62.045 5.748829
62.050 5.796015
62.055 6.248293
62.060 6.620224
62.065 6.819117
62.070 6.635924
62.075 6.274547
62.080 6.400048
62.085 6.391365
62.090 6.233071
62.095 5.98088
62.100 5.258823
62.105 5.132096
62.110 5.195894
62.115 5.18051
62.120 4.961101
62.125 4.987657
62.130 4.99949
62.135 5.597686
62.140 5.704549
62.145 5.889212
62.150 5.940766
62.155 6.011044
62.160 5.893973
62.165 6.328668
62.170 6.331236
62.175 6.751565
62.180 6.705898
62.185 6.339804
62.190 6.468206
62.195 6.526704
62.200 6.486957
62.205 6.370003
62.210 6.012058
62.215 5.877518
62.220 5.982454
62.225 5.433053
62.230 5.048839
62.235 4.572043
62.240 4.430231
62.245 4.345552
62.250 4.189673
62.255 4.226554
62.260 4.380951
62.265 4.660014
62.270 5.009867
62.275 5.340832
62.280 5.356091
62.285 5.510595
62.290 5.834496
62.295 6.069124
62.300 5.84277
62.305 5.469154
62.310 5.572703
62.315 5.787823
62.320 5.92417
62.325 5.807684
62.330 5.888112
62.335 6.344581
62.340 6.300421
62.345 5.798734
62.350 5.528157
62.355 5.462112
62.360 5.398462
62.365 5.331393
62.370 4.973785
62.375 5.086042
62.380 5.205074
62.385 5.465877
62.390 5.417452
62.395 5.566936
62.400 5.77892
62.405 6.118899
62.410 6.591707
62.415 7.046387
62.420 6.8319
62.425 7.18177
62.430 7.38314
62.435 7.195652
62.440 7.162315
62.445 6.873905
62.450 6.61415
62.455 6.716348
62.460 6.508003
62.465 6.278564
62.470 6.366348
62.475 6.320427
62.480 6.043088
62.485 6.172766
62.490 5.919486
62.495 5.895552
62.500 6.042386
62.505 5.781192
62.510 5.745646
62.515 6.026649
62.520 6.016878
62.525 6.213798
62.530 6.140093
62.535 6.16219
62.540 6.293937
62.545 6.052597
62.550 5.860202
62.555 5.975029
62.560 5.859249
62.565 5.81642
62.570 5.626612
62.575 5.50608
62.580 5.662826
62.585 6.019231
62.590 6.018239
62.595 6.184579
62.600 6.189994
62.605 6.304886
62.610 6.508063
62.615 6.556374
62.620 6.133523
62.625 6.196634
62.630 6.33049
62.635 6.932812
62.640 7.230209
62.645 6.946237
62.650 6.804914
62.655 7.185932
62.660 7.07243
62.665 6.728471
62.670 6.230169
62.675 6.084666
62.680 6.241141
62.685 6.485617
62.690 6.501849
62.695 6.991034
62.700 7.163454
62.705 7.108287
62.710 7.119172
62.715 7.108141
62.720 7.28683
62.725 7.257612
62.730 6.798305
62.735 6.848069
62.740 6.913851
62.745 7.259604
62.750 7.456722
62.755 7.404448
62.760 6.88592
62.765 6.934451
62.770 6.903639
62.775 6.669432
62.780 6.329624
62.785 5.929662
62.790 5.467104
62.795 5.927008
62.800 6.004847
62.805 5.812117
62.810 6.080382
62.815 6.377199
62.820 6.754077
62.825 7.306485
62.830 7.185927
62.835 6.899552
62.840 7.10133
62.845 6.581861
62.850 6.440594
62.855 6.263752
62.860 5.971744
62.865 6.317545
62.870 6.519756
62.875 6.311517
62.880 6.671751
62.885 6.740089
62.890 6.958372
62.895 6.8754
62.900 6.267351
62.905 6.077417
62.910 6.024635
62.915 5.868301
62.920 5.575217
62.925 5.157969
62.930 5.230188
62.935 5.486109
62.940 5.499731
62.945 5.522516
62.950 5.488657
62.955 5.40836
62.960 5.34195
62.965 5.438904
62.970 5.695186
62.975 5.807262
62.980 5.893603
62.985 5.68725
62.990 6.006485
62.995 6.278488
63.000 6.443245
63.005 6.215889
63.010 6.162008
63.015 6.167068
63.020 6.085768
63.025 5.915105
63.030 5.627821
63.035 5.238466
63.040 5.229846
63.045 5.056765
63.050 5.004413
63.055 5.285778
63.060 5.337535
63.065 5.528982
63.070 5.504645
63.075 5.331286
63.080 5.75127
63.085 5.903195
63.090 5.891845
63.095 5.881873
63.100 5.847129
63.105 5.921009
63.110 6.00282
63.115 6.06769
63.120 6.099418
63.125 6.003649
63.130 5.984954
63.135 6.278299
63.140 6.777359
63.145 7.02028
63.150 6.682895
63.155 6.569241
63.160 6.567243
63.165 6.730492
63.170 6.45898
63.175 5.844262
63.180 5.474831
63.185 5.258273
63.190 5.182429
63.195 5.008709
63.200 5.036544
63.205 5.366141
63.210 5.548182
63.215 5.518038
63.220 5.825696
63.225 5.70898
63.230 5.503047
63.235 5.241158
63.240 4.758427
63.245 4.82084
63.250 5.235505
63.255 5.205124
63.260 5.304351
63.265 5.597911
63.270 5.6369
63.275 5.729649
63.280 5.641171
63.285 5.398359
63.290 5.543056
63.295 5.73563
63.300 6.000128
63.305 6.101241
63.310 6.238849
63.315 6.454739
63.320 6.399894
63.325 6.382151
63.330 6.378025
63.335 5.868996
63.340 6.103714
63.345 6.206936
63.350 6.354145
63.355 6.670322
63.360 6.740344
63.365 7.093541
63.370 7.286328
63.375 6.963779
63.380 7.026894
63.385 7.011616
63.390 7.213531
63.395 7.468446
63.400 7.356703
63.405 7.307365
63.410 7.477021
63.415 7.631181
63.420 7.533194
63.425 7.390987
63.430 7.036856
63.435 7.136699
63.440 7.029307
63.445 6.927086
63.450 6.714192
63.455 6.865456
63.460 7.271035
63.465 7.577739
63.470 7.235197
63.475 7.494197
63.480 7.402774
63.485 7.084575
63.490 6.7283
63.495 6.048704
63.500 5.785811
63.505 6.161798
63.510 5.982875
63.515 6.348474
63.520 6.416467
63.525 6.652187
63.530 6.552799
63.535 6.535176
63.540 6.433521
63.545 6.30458
63.550 5.886098
63.555 5.745521
63.560 5.666419
63.565 6.174792
63.570 5.831893
63.575 5.630212
63.580 5.757549
63.585 6.033881
63.590 6.023766
63.595 6.057491
63.600 5.928066
63.605 6.19123
63.610 6.260553
63.615 6.044333
63.620 5.874597
63.625 6.018463
63.630 6.155919
63.635 6.177954
63.640 6.330867
63.645 6.291498
63.650 6.818924
63.655 7.098693
63.660 6.916478
63.665 6.780005
63.670 6.805349
63.675 6.838047
63.680 6.763013
63.685 6.288353
63.690 6.079548
63.695 6.078712
63.700 5.901649
63.705 5.79396
63.710 5.830492
63.715 5.742166
63.720 5.710204
63.725 5.759953
63.730 5.830595
63.735 6.235746
63.740 6.520241
63.745 6.378376
63.750 6.501959
63.755 6.624915
63.760 6.954977
63.765 7.149685
63.770 6.783852
63.775 6.530229
63.780 6.615622
63.785 6.721234
63.790 6.657933
63.795 6.22888
63.800 6.120552
63.805 6.083146
63.810 5.658438
63.815 5.489305
63.820 5.513447
63.825 5.830339
63.830 6.178323
63.835 6.467396
63.840 6.234762
63.845 6.309761
63.850 6.474298
63.855 6.315698
63.860 6.056324
63.865 6.043075
63.870 5.809399
63.875 5.677654
63.880 5.526221
63.885 5.644587
63.890 5.97991
63.895 5.760172
63.900 5.181641
63.905 5.32855
63.910 5.661729
63.915 5.692299
63.920 5.489422
63.925 5.250421
63.930 5.424604
63.935 5.523546
63.940 5.376148
63.945 5.688728
63.950 5.684552
63.955 5.545482
63.960 5.458781
63.965 5.591441
63.970 5.707482
63.975 5.926855
63.980 6.098119
63.985 6.141237
63.990 6.15
63.995 6.627976
64.000 6.729037
64.005 6.419881
64.010 6.277479
64.015 6.051286
64.020 6.018546
64.025 6.117026
64.030 5.778125
64.035 5.929551
64.040 6.304261
64.045 6.457845
64.050 6.507348
64.055 6.304295
64.060 6.128522
64.065 6.082745
64.070 6.161443
64.075 6.021129
64.080 5.756055
64.085 5.627878
64.090 5.861147
64.095 5.985532
64.100 5.920331
64.105 5.741484
64.110 5.675712
64.115 5.55797
64.120 5.595271
64.125 5.759274
64.130 5.855636
64.135 6.105807
64.140 6.16788
64.145 6.510462
64.150 6.631453
64.155 6.734737
64.160 6.600852
64.165 6.591053
64.170 6.343125
64.175 6.394708
64.180 6.043685
64.185 6.002501
64.190 5.883278
64.195 6.15639
64.200 6.199949
64.205 6.392416
64.210 6.334361
64.215 6.394609
64.220 6.46412
64.225 6.536211
64.230 6.343366
64.235 6.315437
64.240 6.178955
64.245 6.127841
64.250 6.26369
64.255 6.410462
64.260 6.33708
64.265 6.161263
64.270 5.762866
64.275 5.675789
64.280 5.77151
64.285 5.736202
64.290 6.168008
64.295 6.436338
64.300 6.532047
64.305 6.811049
64.310 7.020188
64.315 7.231554
64.320 7.296309
64.325 6.677619
64.330 6.726585
64.335 6.613818
64.340 6.425527
64.345 6.094842
64.350 5.866451
64.355 5.969831
64.360 6.029061
64.365 5.363269
64.370 5.78125
64.375 6.078309
64.380 6.070199
64.385 5.80804
64.390 5.553618
64.395 5.323038
64.400 5.796397
64.405 5.262001
64.410 5.080083
64.415 4.980574
64.420 4.84711
64.425 4.869107
64.430 4.952014
64.435 4.792718
64.440 4.805933
64.445 4.66894
64.450 5.006565
64.455 5.380424
64.460 5.715066
64.465 5.940364
64.470 5.881326
64.475 5.919691
64.480 6.429476
64.485 6.418241
64.490 6.418874
64.495 5.918019
64.500 5.847114
64.505 6.209787
64.510 6.23234
64.515 6.171033
64.520 6.087269
64.525 5.998558
64.530 6.271555
64.535 6.284824
64.540 6.427069
64.545 6.412112
64.550 6.128348
64.555 6.31363
64.560 6.35352
64.565 6.645683
64.570 6.629447
64.575 6.260895
64.580 6.158371
64.585 6.228438
64.590 6.025712
64.595 6.177367
64.600 5.840209
64.605 5.804651
64.610 6.010312
64.615 6.684977
64.620 7.0664
64.625 7.303359
64.630 7.337002
64.635 7.570857
64.640 7.908809
64.645 7.934705
64.650 7.117659
64.655 6.750144
64.660 6.555189
64.665 6.305328
64.670 6.23769
64.675 5.998337
64.680 5.840899
64.685 6.421875
64.690 6.602674
64.695 6.792606
64.700 6.787508
64.705 6.541294
64.710 6.515162
64.715 6.565526
64.720 6.266714
64.725 6.396517
64.730 6.279484
64.735 6.20496
64.740 6.405813
64.745 6.600475
64.750 6.890625
64.755 6.980775
64.760 6.942073
64.765 6.841546
64.770 6.685619
64.775 6.660157
64.780 6.541532
64.785 6.136693
64.790 5.880676
64.795 5.385696
64.800 5.317071
64.805 5.6737
64.810 5.592962
64.815 5.411824
64.820 5.176014
64.825 5.401968
64.830 5.809241
64.835 6.040614
64.840 6.000467
64.845 6.252985
64.850 6.634028
64.855 6.766038
64.860 6.725161
64.865 6.6042
64.870 6.661335
64.875 6.637268
64.880 6.474502
64.885 6.772743
64.890 7.064718
64.895 7.125632
64.900 7.557334
64.905 7.582512
64.910 7.908068
64.915 7.980702
64.920 7.852342
64.925 7.769059
64.930 7.46017
64.935 6.957872
64.940 7.069553
64.945 6.832278
64.950 6.759993
64.955 6.755692
64.960 6.827638
64.965 7.127725
64.970 7.557278
64.975 7.148518
64.980 7.0746
64.985 6.932337
64.990 6.784126
64.995 6.699957
65.000 6.584414
65.005 6.46471
65.010 6.630775
65.015 6.343422
65.020 6.467814
65.025 6.470788
65.030 6.752428
65.035 6.692163
65.040 7.07649
65.045 7.238746
65.050 7.261152
65.055 6.917681
65.060 7.072148
65.065 7.058372
65.070 6.895694
65.075 6.413566
65.080 6.721722
65.085 6.948344
65.090 7.119437
65.095 7.191322
65.100 7.260671
65.105 7.410493
65.110 7.486964
65.115 6.87112
65.120 6.646891
65.125 6.569268
65.130 6.71333
65.135 7.097819
65.140 7.272635
65.145 7.631912
65.150 7.874429
65.155 7.703373
65.160 7.794385
65.165 7.298846
65.170 6.858339
65.175 6.625823
65.180 6.434629
65.185 6.697383
65.190 7.352049
65.195 7.343188
65.200 7.206511
65.205 7.512816
65.210 7.53956
65.215 7.508476
65.220 7.466325
65.225 7.119112
65.230 7.297837
65.235 7.359313
65.240 6.797285
65.245 6.716547
65.250 6.680474
65.255 6.974603
65.260 7.017594
65.265 6.829891
65.270 6.40663
65.275 6.432255
65.280 6.322601
65.285 6.129743
65.290 5.954115
65.295 5.92342
65.300 6.117544
65.305 6.451643
65.310 6.751926
65.315 7.000874
65.320 6.923682
65.325 6.747491
65.330 6.554354
65.335 6.326207
65.340 6.429552
65.345 6.244327
65.350 6.089835
65.355 5.956393
65.360 5.881241
65.365 5.863554
65.370 5.65188
65.375 6.190161
65.380 6.446623
65.385 6.654916
65.390 6.633324
65.395 6.699876
65.400 7.102553
65.405 7.287529
65.410 6.759668
65.415 6.535138
65.420 6.703538
65.425 6.854425
65.430 6.692146
65.435 6.426815
65.440 6.317628
65.445 6.095248
65.450 5.905139
65.455 5.556987
65.460 5.760615
65.465 5.927266
65.470 5.997146
65.475 5.987278
65.480 6.038661
65.485 6.267318
65.490 6.088791
65.495 5.934729
65.500 6.112864
65.505 5.87736
65.510 5.610504
65.515 5.764134
65.520 5.878273
65.525 6.220101
65.530 6.29462
65.535 6.059498
65.540 6.295146
65.545 6.640665
65.550 6.667095
65.555 6.600791
65.560 6.522274
65.565 6.622847
65.570 6.660206
65.575 6.204281
65.580 5.979298
65.585 5.888368
65.590 5.655818
65.595 5.368924
65.600 5.000984
65.605 5.14773
65.610 5.442359
65.615 5.750852
65.620 6.005131
65.625 6.127848
65.630 6.177989
65.635 6.406173
65.640 6.382461
65.645 6.257025
65.650 6.119459
65.655 5.982285
65.660 5.867704
65.665 5.962645
65.670 5.760852
65.675 5.921202
65.680 6.516279
65.685 6.770837
65.690 6.481436
65.695 6.358709
65.700 6.338946
65.705 6.30709
65.710 6.154695
65.715 5.679132
65.720 5.418369
65.725 5.537925
65.730 5.686105
65.735 5.862796
65.740 5.810642
65.745 5.723495
65.750 5.862468
65.755 6.031944
65.760 6.121641
65.765 6.245723
65.770 6.237103
65.775 6.213762
65.780 6.094671
65.785 5.85076
65.790 5.549019
65.795 5.769001
65.800 5.705804
65.805 5.76242
65.810 6.467501
65.815 6.541182
65.820 6.468151
65.825 6.589627
65.830 6.415934
65.835 6.620013
65.840 6.440452
65.845 5.890895
65.850 6.01334
65.855 6.206782
65.860 6.257403
65.865 6.047159
65.870 5.67766
65.875 5.501653
65.880 5.227784
65.885 5.341672
65.890 5.461075
65.895 5.324963
65.900 5.438617
65.905 5.922984
65.910 6.252178
65.915 6.61692
65.920 6.37586
65.925 6.194311
65.930 6.156047
65.935 6.022804
65.940 5.778316
65.945 5.828181
65.950 5.836798
65.955 5.899742
65.960 5.954432
65.965 6.24262
65.970 6.450605
65.975 6.489232
65.980 6.150269
65.985 6.145736
65.990 6.431594
65.995 6.291349
66.000 5.656411
66.005 5.406681
66.010 5.656221
66.015 6.234212
66.020 6.571712
66.025 6.637708
66.030 6.88389
66.035 7.423084
66.040 7.471944
66.045 7.332557
66.050 7.172074
66.055 6.774143
66.060 6.52827
66.065 6.796619
66.070 6.779779
66.075 6.90167
66.080 6.578312
66.085 6.372667
66.090 6.388842
66.095 6.355575
66.100 6.116289
66.105 5.86137
66.110 5.837019
66.115 5.879097
66.120 5.697728
66.125 5.687247
66.130 5.728908
66.135 5.554653
66.140 5.594819
66.145 5.489577
66.150 5.790483
66.155 6.063223
66.160 6.110147
66.165 5.972859
66.170 6.032375
66.175 6.222462
66.180 6.148706
66.185 5.886944
66.190 6.040335
66.195 6.000972
66.200 6.210057
66.205 6.296418
66.210 6.322074
66.215 6.67279
66.220 6.935299
66.225 6.793922
66.230 6.728012
66.235 6.574546
66.240 6.673171
66.245 6.710215
66.250 6.29176
66.255 6.174253
66.260 6.265066
66.265 6.372213
66.270 6.300426
66.275 5.838932
66.280 5.447433
66.285 5.027673
66.290 4.89857
66.295 4.825022
66.300 5.145037
66.305 5.430752
66.310 5.738104
66.315 6.211522
66.320 6.740175
66.325 6.593718
66.330 6.535338
66.335 6.381208
66.340 6.091112
66.345 5.721059
66.350 5.193746
66.355 5.225368
66.360 5.499169
66.365 5.393797
66.370 5.303569
66.375 5.691374
66.380 6.285349
66.385 6.659486
66.390 6.375898
66.395 6.546392
66.400 6.731309
66.405 6.790452
66.410 6.54361
66.415 6.453399
66.420 6.705606
66.425 7.108863
66.430 7.043892
66.435 6.941527
66.440 6.693798
66.445 7.051897
66.450 7.186685
66.455 6.598642
66.460 6.484922
66.465 6.31347
66.470 6.553825
66.475 6.488158
66.480 5.801592
66.485 5.652187
66.490 5.729113
66.495 5.33384
66.500 5.025758
66.505 5.163455
66.510 5.654797
66.515 6.036618
66.520 6.146671
66.525 6.364666
66.530 6.533942
66.535 6.840952
66.540 6.875522
66.545 6.523996
66.550 6.440581
66.555 6.394371
66.560 6.666458
66.565 6.66501
66.570 6.763524
66.575 6.659833
66.580 6.71863
66.585 6.841219
66.590 6.946116
66.595 6.785392
66.600 6.760766
66.605 6.597097
66.610 6.606194
66.615 6.932333
66.620 6.489105
66.625 6.456281
66.630 6.163494
66.635 6.146456
66.640 5.836318
66.645 5.65725
66.650 5.480051
66.655 5.774094
66.660 5.801924
66.665 6.078175
66.670 5.978291
66.675 6.123742
66.680 6.318138
66.685 6.352951
66.690 6.527828
66.695 6.61595
66.700 6.536542
66.705 6.773168
66.710 6.739589
66.715 6.548435
66.720 6.471882
66.725 6.118683
66.730 6.029976
66.735 5.747427
66.740 5.741772
66.745 5.838678
66.750 5.835255
66.755 6.138406
66.760 5.987765
66.765 5.898115
66.770 6.117695
66.775 5.842205
66.780 6.08429
66.785 6.118567
66.790 6.042111
66.795 6.550109
66.800 6.724867
66.805 6.576084
66.810 6.924131
66.815 6.793695
66.820 6.621877
66.825 6.184813
66.830 5.888693
66.835 5.857503
66.840 5.89695
66.845 5.820656
66.850 5.55279
66.855 5.677332
66.860 5.871506
66.865 5.76338
66.870 5.544408
66.875 5.495669
66.880 5.205457
66.885 5.115079
66.890 5.016759
66.895 5.420701
66.900 5.4972
66.905 5.785412
66.910 5.949506
66.915 5.98105
66.920 6.09416
66.925 6.12687
66.930 5.778497
66.935 5.874607
66.940 5.968628
66.945 5.945026
66.950 6.168542
66.955 6.330939
66.960 6.453234
66.965 6.188365
66.970 6.054825
66.975 6.148699
66.980 6.202917
66.985 6.048663
66.990 6.063988
66.995 6.010794
67.000 6.464646
67.005 6.5761
67.010 6.26438
67.015 5.949187
67.020 5.961635
67.025 5.743629
67.030 5.749134
67.035 5.661687
67.040 5.741548
67.045 5.844431
67.050 6.672492
67.055 6.942372
67.060 7.098179
67.065 6.941846
67.070 6.643661
67.075 6.569768
67.080 6.740919
67.085 6.427259
67.090 6.273077
67.095 5.876649
67.100 6.219116
67.105 6.370851
67.110 6.738075
67.115 6.56004
67.120 6.454278
67.125 6.524347
67.130 6.822324
67.135 6.586055
67.140 6.825824
67.145 6.708226
67.150 6.970276
67.155 7.089468
67.160 7.424909
67.165 7.545856
67.170 7.726907
67.175 7.541289
67.180 7.770997
67.185 7.628668
67.190 7.384056
67.195 7.127243
67.200 7.049132
67.205 6.969103
67.210 6.831101
67.215 6.398768
67.220 6.429573
67.225 6.758923
67.230 6.545084
67.235 6.339426
67.240 6.489599
67.245 6.436191
67.250 6.464742
67.255 6.112781
67.260 5.677712
67.265 5.857828
67.270 6.147696
67.275 5.984994
67.280 5.765329
67.285 5.631568
67.290 5.743919
67.295 5.824305
67.300 5.725261
67.305 5.745535
67.310 6.199271
67.315 6.564792
67.320 6.76702
67.325 6.952283
67.330 7.299269
67.335 7.240705
67.340 6.981886
67.345 7.132267
67.350 6.948685
67.355 6.577836
67.360 6.683085
67.365 6.743899
67.370 6.791512
67.375 7.353673
67.380 7.254967
67.385 7.511455
67.390 7.734429
67.395 7.389896
67.400 7.310678
67.405 7.610315
67.410 7.409222
67.415 7.345333
67.420 7.602111
67.425 7.703028
67.430 7.541759
67.435 7.27178
67.440 6.814312
67.445 6.499746
67.450 6.020383
67.455 5.488859
67.460 5.274558
67.465 5.752426
67.470 5.827374
67.475 5.625981
67.480 5.816011
67.485 6.442719
67.490 6.821501
67.495 7.243353
67.500 7.350847
67.505 7.555454
67.510 7.884637
67.515 7.773512
67.520 7.302223
67.525 7.02422
67.530 6.871202
67.535 7.028677
67.540 6.859149
67.545 6.725777
67.550 6.971076
67.555 7.537515
67.560 7.610254
67.565 7.306324
67.570 7.376812
67.575 7.351606
67.580 7.699337
67.585 7.480043
67.590 7.249088
67.595 7.517975
67.600 7.39401
67.605 6.981376
67.610 6.856825
67.615 6.39269
67.620 6.54931
67.625 6.835726
67.630 6.847695
67.635 7.19879
67.640 7.373861
67.645 7.356487
67.650 7.420593
67.655 7.237396
67.660 6.579477
67.665 6.174116
67.670 6.060136
67.675 6.179135
67.680 6.477378
67.685 6.535226
67.690 6.273583
67.695 6.758221
67.700 6.779916
67.705 6.947039
67.710 6.682871
67.715 6.690027
67.720 6.842542
67.725 7.287134
67.730 7.366224
67.735 7.331575
67.740 7.268558
67.745 7.245351
67.750 7.122838
67.755 6.710515
67.760 6.565974
67.765 6.151698
67.770 6.113853
67.775 6.383598
67.780 6.241284
67.785 6.10862
67.790 5.979624
67.795 5.97663
67.800 6.399502
67.805 6.049619
67.810 5.598229
67.815 5.73729
67.820 5.837659
67.825 6.073061
67.830 6.23752
67.835 6.641124
67.840 7.079625
67.845 7.347276
67.850 7.623006
67.855 7.823925
67.860 7.699975
67.865 7.492189
67.870 7.09574
67.875 7.180325
67.880 7.331917
67.885 7.237588
67.890 7.276807
67.895 7.532076
67.900 7.470163
67.905 7.497023
67.910 7.74095
67.915 7.876767
67.920 8.024442
67.925 8.008992
67.930 8.06663
67.935 7.881551
67.940 8.165433
67.945 8.049189
67.950 7.738613
67.955 7.442336
67.960 7.480731
67.965 7.298081
67.970 7.539664
67.975 6.96958
67.980 6.527518
67.985 6.693392
67.990 7.032037
67.995 7.135211
68.000 7.139013
68.005 7.007688
68.010 6.914594
68.015 7.091597
68.020 7.222019
68.025 6.794743
68.030 6.896498
68.035 7.019475
68.040 7.029625
68.045 7.298253
68.050 7.410231
68.055 7.170591
68.060 7.544541
68.065 7.27287
68.070 7.143286
68.075 7.326862
68.080 7.181613
68.085 7.175169
68.090 7.248652
68.095 6.631212
68.100 6.446982
68.105 6.390356
68.110 6.797065
68.115 6.919139
68.120 6.666479
68.125 6.619878
68.130 7.15656
68.135 7.608456
68.140 7.533019
68.145 7.037999
68.150 7.322918
68.155 7.274076
68.160 7.124213
68.165 6.724035
68.170 6.298422
68.175 6.278225
68.180 6.299103
68.185 5.905863
68.190 5.885179
68.195 6.220078
68.200 6.616546
68.205 6.73559
68.210 7.090193
68.215 7.087955
68.220 7.288515
68.225 7.355864
68.230 7.010054
68.235 6.84737
68.240 7.005496
68.245 6.992644
68.250 7.048063
68.255 7.252313
68.260 7.576677
68.265 7.790863
68.270 7.562023
68.275 7.310071
68.280 7.142536
68.285 7.469504
68.290 7.174855
68.295 7.175946
68.300 7.202609
68.305 7.286235
68.310 7.187211
68.315 6.603532
68.320 6.339866
68.325 6.509911
68.330 6.041408
68.335 5.92047
68.340 5.722806
68.345 5.881964
68.350 6.211165
68.355 6.066602
68.360 6.024627
68.365 6.039917
68.370 6.040056
68.375 6.133595
68.380 5.951409
68.385 5.767117
68.390 5.560869
68.395 5.383677
68.400 5.450315
68.405 5.708542
68.410 5.634889
68.415 5.900913
68.420 6.071689
68.425 5.903878
68.430 6.127585
68.435 6.318164
68.440 5.982526
68.445 6.127215
68.450 5.504739
68.455 5.647938
68.460 5.71575
68.465 5.641037
68.470 5.381261
68.475 5.821331
68.480 5.967176
68.485 5.908751
68.490 5.910097
68.495 6.067894
68.500 6.204158
68.505 6.001672
68.510 5.642574
68.515 5.458047
68.520 5.975817
68.525 6.311325
68.530 6.504067
68.535 6.358376
68.540 6.446206
68.545 6.501232
68.550 6.485309
68.555 6.263821
68.560 6.298564
68.565 6.299935
68.570 6.619084
68.575 7.168391
68.580 6.988635
68.585 7.109926
68.590 7.086616
68.595 6.979699
68.600 6.721466
68.605 6.610558
68.610 6.515872
68.615 7.141821
68.620 7.417442
68.625 7.466155
68.630 7.021326
68.635 7.049828
68.640 6.900904
68.645 6.74649
68.650 6.191242
68.655 5.99357
68.660 5.957748
68.665 5.950386
68.670 5.660636
68.675 5.765053
68.680 6.137378
68.685 6.460026
68.690 6.894507
68.695 7.510056
68.700 7.663762
68.705 8.005064
68.710 7.887372
68.715 7.490337
68.720 7.335691
68.725 6.949266
68.730 6.476971
68.735 6.555316
68.740 6.55445
68.745 6.483134
68.750 6.844441
68.755 6.924793
68.760 7.060522
68.765 7.081765
68.770 7.018797
68.775 7.255867
68.780 7.393745
68.785 7.084375
68.790 6.754132
68.795 6.649091
68.800 7.063947
68.805 6.859219
68.810 6.396628
68.815 6.657889
68.820 6.737307
68.825 6.958503
68.830 6.75869
68.835 6.419192
68.840 6.92719
68.845 6.939888
68.850 6.793317
68.855 6.959005
68.860 6.686645
68.865 6.711803
68.870 6.818676
68.875 6.407086
68.880 6.41686
68.885 6.588245
68.890 6.584515
68.895 6.646454
68.900 6.78011
68.905 6.771703
68.910 6.639403
68.915 6.543828
68.920 6.519216
68.925 6.62358
68.930 6.73907
68.935 6.707354
68.940 7.169726
68.945 7.227005
68.950 7.214073
68.955 7.103412
68.960 7.341456
68.965 7.424245
68.970 7.570456
68.975 7.35886
68.980 7.243897
68.985 7.084222
68.990 7.103629
68.995 6.7591
69.000 6.772607
69.005 6.656421
69.010 6.69363
69.015 6.950135
69.020 7.295614
69.025 7.288149
69.030 7.411346
69.035 7.412521
69.040 6.881584
69.045 6.931534
69.050 7.032593
69.055 7.325642
69.060 7.37381
69.065 7.485006
69.070 7.509753
69.075 7.531807
69.080 7.786715
69.085 7.857283
69.090 7.560136
69.095 7.522768
69.100 7.771738
69.105 7.984703
69.110 8.406929
69.115 8.38778
69.120 8.16704
69.125 8.062413
69.130 7.53103
69.135 7.25631
69.140 6.87346
69.145 6.534146
69.150 6.094297
69.155 6.468392
69.160 6.690885
69.165 6.756528
69.170 6.615162
69.175 6.450884
69.180 6.349348
69.185 6.464738
69.190 6.179195
69.195 6.066847
69.200 6.251999
69.205 6.827887
69.210 7.44209
69.215 7.371012
69.220 7.250143
69.225 7.309257
69.230 7.518695
69.235 7.297894
69.240 6.752141
69.245 6.527456
69.250 6.950967
69.255 7.357565
69.260 7.356565
69.265 7.435629
69.270 7.290095
69.275 7.640775
69.280 8.102435
69.285 7.816427
69.290 7.624776
69.295 7.48262
69.300 7.679226
69.305 7.985567
69.310 7.892382
69.315 7.566931
69.320 7.617419
69.325 7.385208
69.330 6.998575
69.335 6.748559
69.340 6.45879
69.345 6.132212
69.350 5.72218
69.355 5.861123
69.360 6.013051
69.365 6.310635
69.370 6.445657
69.375 6.351749
69.380 6.52402
69.385 6.580118
69.390 6.577023
69.395 6.747766
69.400 6.621355
69.405 6.208424
69.410 6.45922
69.415 6.790214
69.420 6.837875
69.425 6.736073
69.430 6.703176
69.435 7.021106
69.440 7.263437
69.445 7.597177
69.450 7.70875
69.455 7.6891
69.460 7.505559
69.465 7.435562
69.470 7.010281
69.475 6.796684
69.480 6.239156
69.485 5.984448
69.490 6.235342
69.495 6.116909
69.500 6.034934
69.505 5.975354
69.510 6.17454
69.515 6.304754
69.520 6.279782
69.525 5.855975
69.530 5.975381
69.535 6.035855
69.540 6.134567
69.545 6.23546
69.550 6.24546
69.555 6.176147
69.560 6.801831
69.565 6.867988
69.570 7.131001
69.575 7.300647
69.580 7.179265
69.585 7.132235
69.590 6.752058
69.595 6.297415
69.600 6.473843
69.605 6.134635
69.610 6.288399
69.615 6.861198
69.620 6.81793
69.625 6.809645
69.630 6.660594
69.635 6.766172
69.640 7.00309
69.645 6.779554
69.650 6.481151
69.655 6.468615
69.660 7.018221
69.665 7.123481
69.670 6.855683
69.675 6.653268
69.680 6.470354
69.685 6.365284
69.690 6.339877
69.695 6.260349
69.700 6.164986
69.705 6.160347
69.710 5.880495
69.715 6.269358
69.720 6.460147
69.725 6.832307
69.730 6.875158
69.735 7.157507
69.740 7.184617
69.745 7.299565
69.750 6.787481
69.755 6.65764
69.760 6.57119
69.765 6.240671
69.770 5.871977
69.775 5.928492
69.780 5.932704
69.785 6.085044
69.790 6.426198
69.795 6.615937
69.800 6.900778
69.805 7.120697
69.810 7.333394
69.815 7.423433
69.820 7.496255
69.825 6.988502
69.830 6.441614
69.835 6.078996
69.840 5.680229
69.845 5.331924
69.850 5.229219
69.855 4.986399
69.860 5.111952
69.865 5.594861
69.870 6.066322
69.875 6.093912
69.880 6.328648
69.885 6.478747
69.890 6.671926
69.895 6.736327
69.900 6.544354
69.905 6.617474
69.910 6.853019
69.915 6.656958
69.920 6.409617
69.925 6.247607
69.930 6.340013
69.935 6.508118
69.940 6.000916
69.945 5.728579
69.950 5.6974
69.955 6.177836
69.960 6.311693
69.965 6.032142
69.970 5.985044
69.975 6.321576
69.980 6.63366
69.985 6.810187
69.990 6.580173
69.995 6.694702
70.000 7.100672
70.005 7.283667
70.010 7.360074
70.015 7.640186
70.020 7.663282
70.025 7.757561
70.030 7.626494
70.035 7.186217
70.040 6.969824
70.045 6.754389
70.050 6.350421
70.055 6.265135
70.060 5.913186
70.065 5.874839
70.070 5.861588
70.075 5.962374
70.080 5.828782
70.085 5.938967
70.090 6.06
70.095 6.145919
70.100 6.352168
70.105 6.176839
70.110 6.457489
70.115 6.651519
70.120 6.559863
70.125 6.588588
70.130 6.874196
70.135 7.053923
70.140 7.065853
70.145 6.954604
70.150 6.849451
70.155 6.969126
70.160 7.211487
70.165 7.029875
70.170 7.168959
70.175 7.404224
70.180 7.776803
70.185 7.639268
70.190 7.530176
70.195 7.096177
70.200 7.008184
70.205 6.489864
70.210 6.371177
70.215 6.429818
70.220 6.820155
70.225 6.890632
70.230 6.923083
70.235 7.309455
70.240 7.525912
70.245 7.216118
70.250 6.893757
70.255 7.143331
70.260 7.263477
70.265 7.229891
70.270 6.83287
70.275 6.905183
70.280 7.024696
70.285 6.887742
70.290 6.444636
70.295 6.549948
70.300 6.91108
70.305 7.20047
70.310 7.305964
70.315 7.37767
70.320 7.502443
70.325 7.559885
70.330 7.516075
70.335 7.295606
70.340 7.11004
70.345 7.319228
70.350 7.517159
70.355 7.567033
70.360 7.741121
70.365 7.659529
70.370 7.735762
70.375 7.957542
70.380 7.700293
70.385 7.888937
70.390 7.788966
70.395 7.32871
70.400 7.244508
70.405 7.155687
70.410 7.007052
70.415 7.183074
70.420 6.780348
70.425 6.649073
70.430 6.61521
70.435 6.707986
70.440 7.06698
70.445 6.946293
70.450 6.805431
70.455 6.861919
70.460 7.191262
70.465 7.638181
70.470 7.713663
70.475 7.228362
70.480 7.247688
70.485 7.208658
70.490 7.277911
70.495 7.408814
70.500 7.247438
70.505 7.27191
70.510 7.457764
70.515 7.445247
70.520 7.520795
70.525 7.394127
70.530 7.182258
70.535 6.912166
70.540 6.739248
70.545 6.537038
70.550 6.449553
70.555 6.385446
70.560 6.721598
70.565 6.725022
70.570 6.763705
70.575 6.587966
70.580 6.530725
70.585 6.480049
70.590 6.487833
70.595 6.185868
70.600 6.195512
70.605 6.248865
70.610 6.233232
70.615 6.330618
70.620 6.422399
70.625 6.288173
70.630 6.544923
70.635 6.745116
70.640 7.036247
70.645 7.374116
70.650 7.593339
70.655 7.753345
70.660 7.652208
70.665 7.516102
70.670 7.557552
70.675 7.904612
70.680 7.792015
70.685 7.672421
70.690 7.756742
70.695 7.96781
70.700 7.991549
70.705 7.48052
70.710 7.18193
70.715 6.616082
70.720 6.641687
70.725 6.274117
70.730 6.321763
70.735 6.397425
70.740 6.618452
70.745 6.912488
70.750 7.524404
70.755 7.790985
70.760 7.975357
70.765 8.000535
70.770 7.721992
70.775 7.527892
70.780 7.387398
70.785 6.751521
70.790 6.547647
70.795 6.379467
70.800 6.206991
70.805 6.561614
70.810 6.801235
70.815 7.009438
70.820 7.638716
70.825 7.998914
70.830 8.388175
70.835 8.485227
70.840 8.3001
70.845 7.964082
70.850 7.476049
70.855 6.631516
70.860 6.37423
70.865 6.15697
70.870 6.14105
70.875 6.305976
70.880 6.689147
70.885 7.282352
70.890 7.452219
70.895 7.05231
70.900 6.999135
70.905 6.937061
70.910 6.580014
70.915 6.325558
70.920 5.986254
70.925 5.828269
70.930 6.067372
70.935 6.041234
70.940 6.149669
70.945 6.16109
70.950 6.438115
70.955 6.773856
70.960 7.011166
70.965 7.110777
70.970 6.840595
70.975 6.888556
70.980 6.548572
70.985 6.285182
70.990 6.505746
70.995 6.592933
71.000 6.459604
71.005 6.495633
71.010 6.441877
71.015 6.963032
71.020 7.011466
71.025 6.517452
71.030 6.316426
71.035 6.540229
71.040 6.544981
71.045 6.303158
71.050 6.304476
71.055 6.434484
71.060 6.594061
71.065 6.42684
71.070 6.264749
71.075 6.542029
71.080 6.694557
71.085 6.356258
71.090 6.245472
71.095 5.993789
71.100 6.295347
71.105 6.422464
71.110 6.081465
71.115 6.292213
71.120 6.620588
71.125 6.767685
71.130 7.088561
71.135 7.039361
71.140 7.086172
71.145 6.870521
71.150 6.475333
71.155 6.360855
71.160 6.231719
71.165 6.090106
71.170 6.050584
71.175 6.405245
71.180 6.867791
71.185 6.909103
71.190 6.8499
71.195 6.799459
71.200 7.025424
71.205 6.998219
71.210 7.138237
71.215 7.134585
71.220 7.302917
71.225 7.016657
71.230 6.789243
71.235 6.767891
71.240 6.670297
71.245 6.315953
71.250 6.257777
71.255 6.389401
71.260 6.645201
71.265 7.216145
71.270 7.383518
71.275 7.27989
71.280 7.213394
71.285 7.177595
71.290 6.945946
71.295 6.898443
71.300 6.558144
71.305 6.064626
71.310 5.920101
71.315 6.157531
71.320 6.196887
71.325 6.41787
71.330 6.285305
71.335 6.270665
71.340 6.337132
71.345 6.350736
71.350 6.428368
71.355 6.643218
71.360 6.649267
71.365 6.242383
71.370 6.347545
71.375 6.784549
71.380 7.030053
71.385 6.825335
71.390 6.282117
71.395 6.357901
71.400 6.69733
71.405 6.483162
71.410 6.472617
71.415 6.428989
71.420 6.806702
71.425 7.106379
71.430 7.464472
71.435 7.535709
71.440 7.422847
71.445 7.301553
71.450 7.265871
71.455 7.206403
71.460 7.139364
71.465 6.612659
71.470 6.45347
71.475 6.749547
71.480 6.48575
71.485 6.480625
71.490 6.317049
71.495 6.228178
71.500 6.562168
71.505 6.579241
71.510 5.936848
71.515 5.905525
71.520 5.689146
71.525 5.558167
71.530 5.207433
71.535 5.545112
71.540 5.799625
71.545 6.263152
71.550 6.78052
71.555 7.092632
71.560 7.183498
71.565 7.069144
71.570 6.559381
71.575 6.375775
71.580 6.069505
71.585 5.665493
71.590 5.745346
71.595 5.892742
71.600 6.187117
71.605 6.275721
71.610 6.508655
71.615 6.796519
71.620 6.842042
71.625 6.699301
71.630 6.856588
71.635 7.122546
71.640 7.404265
71.645 6.93008
71.650 6.768009
71.655 6.465271
71.660 6.377034
71.665 6.459467
71.670 6.193867
71.675 6.39546
71.680 6.637135
71.685 6.665858
71.690 6.962187
71.695 7.01959
71.700 6.88816
71.705 6.988733
71.710 6.799206
71.715 6.527032
71.720 6.5571
71.725 6.497752
71.730 6.331557
71.735 6.268713
71.740 5.96253
71.745 6.16732
71.750 6.158803
71.755 6.172801
71.760 6.091789
71.765 6.048401
71.770 5.92786
71.775 6.066142
71.780 6.377914
71.785 6.475453
71.790 6.459397
71.795 6.740114
71.800 7.031353
71.805 7.027009
71.810 7.098742
71.815 7.205499
71.820 7.287376
71.825 7.053879
71.830 7.290697
71.835 7.22366
71.840 7.113377
71.845 6.888195
71.850 6.868845
71.855 6.944605
71.860 6.993339
71.865 6.988628
71.870 7.086491
71.875 7.363853
71.880 7.222866
71.885 7.157319
71.890 7.210567
71.895 6.979156
71.900 6.465301
71.905 6.380427
71.910 6.090042
71.915 5.850675
71.920 5.86843
71.925 5.70818
71.930 5.75208
71.935 5.99122
71.940 6.316497
71.945 6.244085
71.950 6.080902
71.955 5.897161
71.960 6.055809
71.965 6.191445
71.970 5.876148
71.975 5.935457
71.980 6.030784
71.985 6.385268
71.990 6.326023
71.995 6.10366
72.000 6.054405
72.005 6.095026
72.010 5.951882
72.015 6.039366
72.020 5.945023
72.025 6.308593
72.030 6.312819
72.035 6.451856
72.040 6.580754
72.045 6.729126
72.050 6.90478
72.055 6.604026
72.060 6.547055
72.065 6.639765
72.070 6.211562
72.075 6.154799
72.080 6.159568
72.085 5.95114
72.090 6.127454
72.095 6.017045
72.100 6.141547
72.105 6.348123
72.110 6.384691
72.115 6.329827
72.120 6.236835
72.125 6.098519
72.130 6.381042
72.135 6.137507
72.140 5.947084
72.145 5.684246
72.150 5.964665
72.155 6.127012
72.160 6.236258
72.165 6.007293
72.170 6.493986
72.175 6.745997
72.180 6.865942
72.185 7.031822
72.190 7.229779
72.195 7.241665
72.200 7.5303
72.205 7.294148
72.210 7.520486
72.215 7.418864
72.220 7.203734
72.225 7.112157
72.230 7.105475
72.235 7.233338
72.240 7.193347
72.245 6.795959
72.250 6.755926
72.255 6.888572
72.260 6.735197
72.265 6.43433
72.270 6.238299
72.275 6.360473
72.280 6.346751
72.285 6.395317
72.290 7.001147
72.295 7.366505
72.300 7.511615
72.305 7.977425
72.310 8.055853
72.315 8.422179
72.320 8.081916
72.325 7.504147
72.330 7.576154
72.335 7.551546
72.340 7.141715
72.345 6.831327
72.350 6.911942
72.355 6.712809
72.360 6.564026
72.365 6.602593
72.370 6.401288
72.375 6.464761
72.380 6.838715
72.385 6.768531
72.390 7.116339
72.395 6.878788
72.400 6.710855
72.405 6.994086
72.410 6.914676
72.415 6.630542
72.420 6.489563
72.425 6.553967
72.430 6.764153
72.435 7.185335
72.440 6.954844
72.445 6.926666
72.450 7.012706
72.455 6.950556
72.460 6.921219
72.465 6.867846
72.470 6.66824
72.475 6.78477
72.480 6.903258
72.485 6.723811
72.490 6.637136
72.495 6.512401
72.500 6.276476
72.505 6.324391
72.510 6.376344
72.515 6.534274
72.520 6.812441
72.525 6.677562
72.530 6.654271
72.535 6.758167
72.540 6.660202
72.545 6.380222
72.550 6.233281
72.555 6.785476
72.560 7.557868
72.565 7.470552
72.570 7.743349
72.575 7.712841
72.580 8.016618
72.585 8.135476
72.590 7.521969
72.595 6.881006
72.600 6.833387
72.605 6.772243
72.610 6.836849
72.615 6.603869
72.620 6.087782
72.625 6.072536
72.630 5.953695
72.635 5.7507
72.640 6.145514
72.645 6.21525
72.650 6.266394
72.655 6.50652
72.660 6.567031
72.665 6.764239
72.670 6.741089
72.675 7.044356
72.680 7.252227
72.685 7.120403
72.690 6.927375
72.695 7.108586
72.700 7.171337
72.705 6.957501
72.710 6.364821
72.715 6.300959
72.720 6.500357
72.725 6.862413
72.730 6.769979
72.735 6.8445
72.740 6.623622
72.745 6.658737
72.750 6.55402
72.755 6.671148
72.760 6.951059
72.765 6.87203
72.770 6.495832
72.775 6.440658
72.780 6.578904
72.785 6.715315
72.790 6.230199
72.795 5.96304
72.800 6.093255
72.805 6.838142
72.810 6.873463
72.815 6.813975
72.820 6.770145
72.825 6.7172
72.830 6.553596
72.835 6.390466
72.840 6.030663
72.845 6.124341
72.850 5.958487
72.855 5.859049
72.860 6.045919
72.865 6.210917
72.870 6.334439
72.875 6.549864
72.880 6.418172
72.885 6.335639
72.890 6.252198
72.895 6.09667
72.900 6.219985
72.905 6.317892
72.910 6.184909
72.915 6.740139
72.920 6.877797
72.925 7.493674
72.930 7.472728
72.935 7.103903
72.940 6.693714
72.945 6.506209
72.950 6.257382
72.955 6.21998
72.960 6.364116
72.965 6.497532
72.970 6.470251
72.975 6.753871
72.980 6.652089
72.985 6.630062
72.990 6.648765
72.995 6.572869
73.000 6.712114
