!@!!GADDS PLOTSO FILE: Chi integration type
!@!!Title/SampleName: map-5e
!@!!Comment: ?
!@!!User: Bruker Instrument Administrator
!@!!Site: University of Illinois Chicago
!@!!Frame: map-5e_01_000.gfrm
!@!!Wavelengths    1.54184   1.54056   1.54439
!@!!Frame angles: 2Theta: 63.000 Omega: 50.000 Phi: 0.000 Chi: 90.000
!@!!Integration range: 2Theta: 53.000 to 73.000  Gamma: -105.000 to -75.000
!@!!Integration method: bin normalized
!@!N
!@!SS
!@!M
!@!L 0.0 0.0 0.0 0.0
!@!XDegrees
!@!YCounts
53.000 8.015723
53.005 8.234797
53.010 8.585154
53.015 8.364302
53.020 8.264165
53.025 7.745062
53.030 7.464931
53.035 7.519141
53.040 7.31618
53.045 7.562094
53.050 7.915182
53.055 7.824054
53.060 8.335679
53.065 8.678341
53.070 8.755467
53.075 9.085141
53.080 9.066695
53.085 9.081327
53.090 9.196583
53.095 8.622416
53.100 8.186872
53.105 8.290192
53.110 8.547215
53.115 8.597536
53.120 8.710978
53.125 8.7783
53.130 9.235139
53.135 9.408966
53.140 8.96823
53.145 8.864573
53.150 9.212901
53.155 9.313754
53.160 9.312803
53.165 9.324261
53.170 9.429842
53.175 9.097278
53.180 8.95615
53.185 8.756823
53.190 8.799086
53.195 8.676823
53.200 8.866716
53.205 8.816427
53.210 9.12798
53.215 8.792555
53.220 8.723861
53.225 9.03214
53.230 8.957466
53.235 8.849267
53.240 8.897099
53.245 8.976961
53.250 9.111134
53.255 9.21771
53.260 9.006588
53.265 9.253428
53.270 9.56189
53.275 9.721416
53.280 9.827033
53.285 9.787136
53.290 9.718814
53.295 9.575519
53.300 9.264428
53.305 9.19555
53.310 9.256302
53.315 9.317007
53.320 9.23518
53.325 8.736093
53.330 8.910259
53.335 9.049653
53.340 8.527083
53.345 8.54982
53.350 8.316636
53.355 8.612025
53.360 9.03088
53.365 9.202588
53.370 9.426441
53.375 9.846542
53.380 9.865417
53.385 9.98369
53.390 9.757341
53.395 9.873496
53.400 9.867991
53.405 9.691133
53.410 9.643742
53.415 9.605076
53.420 9.856119
53.425 10.014634
53.430 9.839967
53.435 9.336868
53.440 9.085412
53.445 8.823792
53.450 8.537423
53.455 8.067062
53.460 7.674027
53.465 7.818759
53.470 8.211748
53.475 8.722057
53.480 8.672622
53.485 8.7288
53.490 8.802013
53.495 9.034565
53.500 9.031381
53.505 8.979847
53.510 8.599329
53.515 8.541883
53.520 8.613177
53.525 8.967812
53.530 9.064525
53.535 9.081573
53.540 8.986601
53.545 9.547426
53.550 9.460265
53.555 9.314569
53.560 9.236507
53.565 9.39091
53.570 9.212452
53.575 9.141461
53.580 8.759112
53.585 9.042356
53.590 9.320759
53.595 9.124209
53.600 8.946571
53.605 9.071002
53.610 8.899498
53.615 9.037088
53.620 9.124421
53.625 9.465714
53.630 9.672094
53.635 9.829651
53.640 9.628973
53.645 9.618602
53.650 9.600228
53.655 9.418346
53.660 8.941514
53.665 8.468483
53.670 8.475882
53.675 9.268596
53.680 9.328267
53.685 8.952755
53.690 8.752074
53.695 9.119483
53.700 9.819799
53.705 9.962829
53.710 9.235175
53.715 9.310119
53.720 9.647508
53.725 9.866958
53.730 9.310506
53.735 8.893997
53.740 8.657213
53.745 8.719022
53.750 8.37902
53.755 8.614587
53.760 9.29608
53.765 9.9404
53.770 9.942808
53.775 9.819138
53.780 10.13004
53.785 10.71497
53.790 10.437435
53.795 10.075306
53.800 9.692538
53.805 9.606557
53.810 10.118606
53.815 10.421559
53.820 10.13798
53.825 9.978145
53.830 9.385186
53.835 9.20551
53.840 9.459842
53.845 9.359213
53.850 9.435635
53.855 9.391777
53.860 9.745518
53.865 9.795232
53.870 9.82123
53.875 9.704222
53.880 9.35006
53.885 8.985814
53.890 8.669279
53.895 8.457131
53.900 8.370304
53.905 8.624821
53.910 8.533616
53.915 8.337015
53.920 8.460204
53.925 8.695163
53.930 8.998016
53.935 9.215797
53.940 8.932809
53.945 8.750123
53.950 8.902122
53.955 8.64388
53.960 8.637289
53.965 8.835979
53.970 9.02107
53.975 9.300235
53.980 9.733641
53.985 9.680468
53.990 9.900348
53.995 9.956456
54.000 9.662971
54.005 9.507719
54.010 9.308367
54.015 9.152383
54.020 9.317473
54.025 9.211897
54.030 9.01729
54.035 9.275823
54.040 9.33285
54.045 9.6393
54.050 9.405432
54.055 9.124399
54.060 9.315073
54.065 9.263358
54.070 8.812757
54.075 8.958716
54.080 9.066442
54.085 9.356131
54.090 9.958169
54.095 9.660282
54.100 9.462235
54.105 9.448397
54.110 9.400361
54.115 9.503558
54.120 9.40139
54.125 8.877764
54.130 8.916331
54.135 9.8968
54.140 10.213686
54.145 10.196781
54.150 10.092191
54.155 9.762255
54.160 10.4719
54.165 10.380122
54.170 10.077361
54.175 10.007087
54.180 9.530313
54.185 9.602744
54.190 9.645208
54.195 9.53505
54.200 10.104738
54.205 9.809926
54.210 10.072778
54.215 10.669594
54.220 10.794168
54.225 11.2376
54.230 11.373206
54.235 11.603985
54.240 11.756388
54.245 11.87764
54.250 11.356887
54.255 11.158824
54.260 10.67614
54.265 10.263514
54.270 10.279904
54.275 9.938766
54.280 9.851278
54.285 10.18126
54.290 10.444789
54.295 10.417176
54.300 10.031666
54.305 9.255934
54.310 9.259237
54.315 9.377174
54.320 9.419109
54.325 9.292823
54.330 9.002582
54.335 9.449465
54.340 9.841589
54.345 9.772684
54.350 9.472771
54.355 9.432922
54.360 9.614016
54.365 10.130939
54.370 10.217901
54.375 10.056242
54.380 10.418973
54.385 10.55659
54.390 10.25086
54.395 10.447823
54.400 10.438908
54.405 10.605199
54.410 10.590214
54.415 10.535991
54.420 10.883233
54.425 11.088755
54.430 11.136987
54.435 10.662802
54.440 10.61939
54.445 10.389529
54.450 10.434752
54.455 10.039389
54.460 9.716899
54.465 9.736739
54.470 9.694383
54.475 9.309589
54.480 9.814757
54.485 9.914181
54.490 10.641091
54.495 10.758192
54.500 11.031763
54.505 11.2726
54.510 11.240398
54.515 11.10413
54.520 10.590549
54.525 10.105862
54.530 10.020462
54.535 9.573177
54.540 9.847573
54.545 9.990067
54.550 10.060836
54.555 10.499005
54.560 10.40049
54.565 10.159842
54.570 10.280951
54.575 10.177773
54.580 9.998102
54.585 9.778401
54.590 9.721676
54.595 9.733395
54.600 9.868405
54.605 10.098083
54.610 10.612602
54.615 11.042548
54.620 11.21388
54.625 11.213956
54.630 11.107062
54.635 11.039327
54.640 10.914026
54.645 10.405609
54.650 10.353209
54.655 10.744099
54.660 11.18913
54.665 11.670578
54.670 11.757104
54.675 11.434161
54.680 11.5578
54.685 11.264654
54.690 10.333521
54.695 10.055761
54.700 9.778261
54.705 9.964027
54.710 10.235909
54.715 9.977494
54.720 9.715788
54.725 9.576203
54.730 9.574255
54.735 9.430276
54.740 9.631815
54.745 9.795889
54.750 9.461181
54.755 9.366006
54.760 9.244108
54.765 9.174902
54.770 9.087867
54.775 8.578581
54.780 8.581112
54.785 9.021893
54.790 9.41845
54.795 9.928082
54.800 10.113841
54.805 10.329977
54.810 10.27795
54.815 10.3378
54.820 10.170193
54.825 10.340014
54.830 10.938773
54.835 11.080268
54.840 11.139152
54.845 11.396259
54.850 11.556591
54.855 11.931104
54.860 11.938179
54.865 11.528436
54.870 11.614485
54.875 11.343352
54.880 11.150861
54.885 11.11481
54.890 10.484625
54.895 10.239711
54.900 10.393957
54.905 10.286968
54.910 10.851571
54.915 11.022802
54.920 10.856918
54.925 11.12748
54.930 11.004394
54.935 10.48972
54.940 10.302231
54.945 9.787528
54.950 9.112006
54.955 9.336748
54.960 9.158343
54.965 9.332547
54.970 9.41211
54.975 9.323846
54.980 9.743461
54.985 10.845901
54.990 11.540413
54.995 11.769466
55.000 11.620172
55.005 11.707863
55.010 11.990342
55.015 12.048465
55.020 10.966468
55.025 10.331078
55.030 10.309518
55.035 10.674865
55.040 10.601765
55.045 10.518048
55.050 10.142056
55.055 11.176534
55.060 11.555492
55.065 11.683573
55.070 11.379667
55.075 11.310096
55.080 11.17117
55.085 11.218693
55.090 10.784126
55.095 10.438311
55.100 10.653195
55.105 11.191486
55.110 11.359725
55.115 11.152526
55.120 11.304179
55.125 11.241857
55.130 11.121941
55.135 10.858072
55.140 10.447766
55.145 10.430998
55.150 10.830743
55.155 10.83814
55.160 11.071304
55.165 11.384366
55.170 11.113017
55.175 11.072445
55.180 11.439837
55.185 11.835827
55.190 12.116559
55.195 11.370369
55.200 11.138124
55.205 11.588557
55.210 11.398004
55.215 11.231293
55.220 10.848245
55.225 10.521929
55.230 10.946661
55.235 11.004552
55.240 11.193835
55.245 11.705735
55.250 11.44656
55.255 11.473119
55.260 11.104779
55.265 10.754997
55.270 10.581817
55.275 10.589237
55.280 10.821057
55.285 10.656986
55.290 11.031846
55.295 11.44334
55.300 11.939328
55.305 12.604509
55.310 12.25011
55.315 12.084604
55.320 12.180137
55.325 11.619516
55.330 11.389776
55.335 11.06754
55.340 10.504768
55.345 10.883847
55.350 10.922276
55.355 11.311975
55.360 11.936934
55.365 12.038837
55.370 11.962732
55.375 11.902659
55.380 11.414787
55.385 11.010101
55.390 10.939146
55.395 10.944337
55.400 10.567102
55.405 10.289555
55.410 10.301868
55.415 10.489591
55.420 10.552008
55.425 10.372618
55.430 10.315523
55.435 11.059738
55.440 11.545126
55.445 11.756067
55.450 11.871052
55.455 11.732047
55.460 11.492938
55.465 11.497245
55.470 11.548456
55.475 11.411555
55.480 11.537085
55.485 11.37229
55.490 11.377668
55.495 11.314052
55.500 10.959143
55.505 10.780946
55.510 10.78587
55.515 10.53837
55.520 10.535878
55.525 10.767449
55.530 10.622314
55.535 11.195658
55.540 11.234966
55.545 11.176191
55.550 11.573454
55.555 11.326212
55.560 11.31655
55.565 11.945048
55.570 11.560699
55.575 11.560185
55.580 11.331658
55.585 11.436592
55.590 12.173644
55.595 12.533137
55.600 11.66818
55.605 11.464838
55.610 11.966523
55.615 12.123816
55.620 12.034641
55.625 11.414768
55.630 10.868731
55.635 11.374036
55.640 11.282349
55.645 10.907814
55.650 10.611477
55.655 10.469986
55.660 10.496343
55.665 10.679769
55.670 10.697145
55.675 10.74943
55.680 10.90349
55.685 11.109988
55.690 11.582741
55.695 11.916967
55.700 11.846194
55.705 11.894474
55.710 12.000625
55.715 12.085533
55.720 12.848259
55.725 12.787528
55.730 13.07938
55.735 13.261061
55.740 13.01751
55.745 12.623955
55.750 12.452609
55.755 11.573784
55.760 11.399277
55.765 10.520664
55.770 10.577708
55.775 10.959201
55.780 10.920911
55.785 10.959736
55.790 11.540179
55.795 11.684399
55.800 11.935321
55.805 11.813028
55.810 11.784431
55.815 11.779894
55.820 11.587077
55.825 11.665483
55.830 11.846789
55.835 12.442003
55.840 12.81578
55.845 13.168839
55.850 13.463617
55.855 13.689265
55.860 13.350782
55.865 13.158829
55.870 12.794085
55.875 12.855796
55.880 12.62135
55.885 12.250551
55.890 11.921764
55.895 11.858098
55.900 11.848825
55.905 11.940349
55.910 11.787457
55.915 11.553188
55.920 11.755734
55.925 11.933501
55.930 11.938475
55.935 12.003339
55.940 12.133246
55.945 12.145106
55.950 12.722859
55.955 12.345611
55.960 11.804368
55.965 11.550794
55.970 11.498123
55.975 11.706115
55.980 11.68399
55.985 11.405985
55.990 11.336196
55.995 11.298553
56.000 11.471729
56.005 11.388692
56.010 10.697683
56.015 10.609453
56.020 10.341432
56.025 10.842778
56.030 11.187676
56.035 11.014339
56.040 10.886083
56.045 10.968829
56.050 11.281451
56.055 11.325105
56.060 10.910331
56.065 10.847892
56.070 10.573426
56.075 10.226639
56.080 10.304596
56.085 10.366062
56.090 10.847322
56.095 11.012603
56.100 11.143041
56.105 11.273031
56.110 11.435906
56.115 11.74121
56.120 11.749658
56.125 11.903353
56.130 12.072716
56.135 12.574034
56.140 13.260688
56.145 13.353404
56.150 13.117358
56.155 12.725173
56.160 12.478111
56.165 12.055615
56.170 11.443614
56.175 10.888799
56.180 10.429766
56.185 10.281345
56.190 10.384595
56.195 10.645616
56.200 11.016075
56.205 11.364922
56.210 11.547792
56.215 12.188173
56.220 12.584234
56.225 12.697551
56.230 12.818981
56.235 12.865242
56.240 13.183281
56.245 13.204967
56.250 12.663746
56.255 12.567001
56.260 12.60053
56.265 12.845216
56.270 12.905142
56.275 12.680951
56.280 12.908937
56.285 13.070901
56.290 13.153431
56.295 13.038571
56.300 12.718605
56.305 13.067055
56.310 13.305475
56.315 13.590519
56.320 13.125896
56.325 12.718561
56.330 12.646331
56.335 12.811152
56.340 12.345417
56.345 11.904969
56.350 11.429622
56.355 12.059166
56.360 11.991741
56.365 11.73015
56.370 11.27683
56.375 11.342017
56.380 11.427171
56.385 11.628472
56.390 11.250171
56.395 11.387741
56.400 11.558778
56.405 11.708633
56.410 11.725051
56.415 11.752584
56.420 11.69593
56.425 12.213353
56.430 12.047103
56.435 12.119274
56.440 12.050892
56.445 12.032177
56.450 12.048351
56.455 11.629292
56.460 11.696774
56.465 11.928217
56.470 11.925527
56.475 12.159008
56.480 12.105219
56.485 12.245472
56.490 12.301558
56.495 11.968787
56.500 11.679117
56.505 11.199478
56.510 11.085025
56.515 10.884621
56.520 11.335702
56.525 11.747836
56.530 12.118404
56.535 13.060035
56.540 13.292002
56.545 13.100168
56.550 13.28193
56.555 13.321796
56.560 13.264994
56.565 13.192327
56.570 13.124187
56.575 13.279706
56.580 13.607683
56.585 13.597209
56.590 13.350096
56.595 13.656342
56.600 13.310055
56.605 12.905685
56.610 13.227955
56.615 13.220174
56.620 13.274207
56.625 12.938125
56.630 12.4482
56.635 12.283843
56.640 12.276412
56.645 11.787376
56.650 11.965844
56.655 11.879012
56.660 12.135744
56.665 12.543499
56.670 12.653295
56.675 12.819067
56.680 12.89017
56.685 12.817275
56.690 13.417132
56.695 13.487277
56.700 13.223377
56.705 13.402581
56.710 12.990939
56.715 12.85839
56.720 12.87437
56.725 12.32212
56.730 12.441154
56.735 13.16715
56.740 13.189765
56.745 13.448675
56.750 13.190399
56.755 13.116632
56.760 13.262367
56.765 12.653607
56.770 12.228946
56.775 12.846171
56.780 13.114197
56.785 13.396903
56.790 12.938016
56.795 12.712582
56.800 12.773231
56.805 12.289382
56.810 11.607671
56.815 11.516748
56.820 11.613552
56.825 12.224944
56.830 12.695402
56.835 13.373367
56.840 13.552146
56.845 13.816501
56.850 13.736502
56.855 13.535589
56.860 13.168579
56.865 13.04225
56.870 12.8304
56.875 13.113047
56.880 13.144873
56.885 13.374518
56.890 13.535829
56.895 13.618999
56.900 13.24092
56.905 12.797124
56.910 12.365666
56.915 12.338688
56.920 12.237091
56.925 12.850269
56.930 13.393599
56.935 14.094525
56.940 14.85928
56.945 14.984459
56.950 15.152421
56.955 14.863026
56.960 14.336165
56.965 13.870172
56.970 13.430134
56.975 13.108912
56.980 13.359751
56.985 13.261278
56.990 13.299506
56.995 13.226413
57.000 13.569706
57.005 13.511706
57.010 13.670251
57.015 13.38648
57.020 13.509568
57.025 13.610378
57.030 13.600924
57.035 13.288263
57.040 13.292465
57.045 12.754297
57.050 12.432394
57.055 12.014264
57.060 11.953756
57.065 12.085485
57.070 11.972783
57.075 11.927943
57.080 12.797518
57.085 13.332613
57.090 13.554675
57.095 13.526718
57.100 13.448657
57.105 13.593186
57.110 13.61919
57.115 13.057747
57.120 12.814227
57.125 12.613556
57.130 12.639451
57.135 12.894121
57.140 13.382795
57.145 13.74089
57.150 13.587163
57.155 13.496807
57.160 13.516447
57.165 13.367805
57.170 12.969301
57.175 12.306458
57.180 12.345687
57.185 12.648984
57.190 12.839325
57.195 13.104789
57.200 13.446372
57.205 14.038024
57.210 14.173572
57.215 13.818863
57.220 14.012877
57.225 14.097972
57.230 13.889676
57.235 13.632037
57.240 13.440362
57.245 13.698736
57.250 13.905922
57.255 13.642635
57.260 13.783242
57.265 13.922522
57.270 14.106397
57.275 14.159323
57.280 13.9589
57.285 13.921209
57.290 14.462914
57.295 14.838561
57.300 14.491861
57.305 14.235624
57.310 13.726761
57.315 13.398885
57.320 13.087898
57.325 12.921855
57.330 12.792866
57.335 12.654158
57.340 12.376438
57.345 12.657054
57.350 13.277751
57.355 13.649153
57.360 13.437534
57.365 13.631912
57.370 14.37446
57.375 14.828355
57.380 14.972967
57.385 15.230863
57.390 15.270233
57.395 14.819147
57.400 14.401461
57.405 13.741512
57.410 13.233871
57.415 13.102628
57.420 12.383971
57.425 12.263944
57.430 12.349889
57.435 12.388764
57.440 12.65581
57.445 12.887202
57.450 13.101753
57.455 13.164732
57.460 12.963326
57.465 13.027207
57.470 13.306692
57.475 13.366139
57.480 13.51752
57.485 13.868107
57.490 14.002346
57.495 14.202642
57.500 14.68148
57.505 14.812924
57.510 14.790565
57.515 14.390858
57.520 13.9227
57.525 14.02571
57.530 13.891954
57.535 13.496808
57.540 13.505367
57.545 13.845454
57.550 14.00973
57.555 13.795957
57.560 13.975044
57.565 13.806895
57.570 13.766705
57.575 13.518458
57.580 13.268172
57.585 13.428556
57.590 13.509229
57.595 13.090416
57.600 13.118973
57.605 13.189131
57.610 13.201058
57.615 13.167439
57.620 12.786755
57.625 13.052167
57.630 13.438298
57.635 13.212394
57.640 12.820611
57.645 12.785307
57.650 12.891287
57.655 13.106445
57.660 12.708632
57.665 12.630282
57.670 12.679388
57.675 12.838268
57.680 12.994029
57.685 13.21603
57.690 13.199484
57.695 13.325041
57.700 13.453076
57.705 13.997074
57.710 14.358502
57.715 14.587271
57.720 14.78337
57.725 15.160096
57.730 15.630214
57.735 16.279305
57.740 16.529869
57.745 16.022671
57.750 15.991581
57.755 15.66742
57.760 15.496752
57.765 15.295198
57.770 14.34755
57.775 14.054445
57.780 14.298841
57.785 14.45569
57.790 14.2654
57.795 14.094303
57.800 13.417985
57.805 13.262562
57.810 13.019511
57.815 13.168522
57.820 13.494335
57.825 14.050268
57.830 14.104156
57.835 14.294603
57.840 14.700637
57.845 14.674029
57.850 14.127754
57.855 13.638647
57.860 13.3209
57.865 13.607732
57.870 13.555211
57.875 13.22488
57.880 13.344827
57.885 13.432383
57.890 13.368388
57.895 13.287213
57.900 13.099115
57.905 13.341833
57.910 13.718974
57.915 13.96664
57.920 13.835789
57.925 13.320088
57.930 13.153155
57.935 12.812873
57.940 13.040015
57.945 12.885016
57.950 12.730471
57.955 12.539229
57.960 12.972985
57.965 13.23954
57.970 13.851502
57.975 13.636027
57.980 13.469691
57.985 13.422293
57.990 13.980942
57.995 13.837071
58.000 14.071549
58.005 13.898806
58.010 14.007206
58.015 14.640126
58.020 15.080276
58.025 14.883364
58.030 14.852582
58.035 14.780748
58.040 14.769757
58.045 14.556248
58.050 14.47506
58.055 14.624546
58.060 14.56228
58.065 14.986373
58.070 14.743918
58.075 14.686582
58.080 14.977736
58.085 14.588959
58.090 14.185307
58.095 14.194478
58.100 13.991653
58.105 13.954666
58.110 13.898526
58.115 14.146774
58.120 14.504619
58.125 14.381493
58.130 14.562595
58.135 14.616747
58.140 15.228978
58.145 15.281183
58.150 14.786976
58.155 15.289792
58.160 15.756566
58.165 15.63254
58.170 15.401634
58.175 15.165503
58.180 15.615634
58.185 15.551301
58.190 14.609421
58.195 13.783847
58.200 13.581936
58.205 13.708816
58.210 13.765401
58.215 13.225202
58.220 13.17185
58.225 12.955706
58.230 12.886749
58.235 12.502522
58.240 11.979279
58.245 11.37784
58.250 11.301629
58.255 11.60638
58.260 12.236939
58.265 12.774781
58.270 13.063278
58.275 13.186413
58.280 13.858757
58.285 14.194293
58.290 14.117476
58.295 14.570629
58.300 15.045295
58.305 15.212272
58.310 15.349352
58.315 15.091894
58.320 14.855589
58.325 15.263891
58.330 15.029865
58.335 14.829424
58.340 14.904353
58.345 14.798017
58.350 15.211125
58.355 15.384325
58.360 15.275637
58.365 15.345035
58.370 15.152681
58.375 14.938375
58.380 14.676512
58.385 14.020127
58.390 13.640718
58.395 14.188676
58.400 14.807378
58.405 15.417951
58.410 15.852739
58.415 15.942108
58.420 15.938
58.425 16.33774
58.430 15.694076
58.435 14.844535
58.440 14.539061
58.445 14.834408
58.450 15.231883
58.455 15.301742
58.460 15.178341
58.465 15.339044
58.470 15.82085
58.475 15.65097
58.480 15.823857
58.485 15.62591
58.490 15.820806
58.495 15.608347
58.500 14.954379
58.505 13.955581
58.510 13.849465
58.515 13.615524
58.520 13.758845
58.525 13.637748
58.530 14.100733
58.535 14.572948
58.540 15.029572
58.545 14.958404
58.550 14.704954
58.555 14.923503
58.560 15.639516
58.565 15.400254
58.570 15.246857
58.575 15.043873
58.580 14.88579
58.585 15.070867
58.590 15.082885
58.595 14.593347
58.600 14.431824
58.605 15.138975
58.610 15.623075
58.615 15.663952
58.620 15.467648
58.625 15.750819
58.630 16.082218
58.635 16.289799
58.640 15.621325
58.645 15.571348
58.650 15.921253
58.655 16.371059
58.660 16.084633
58.665 15.652723
58.670 15.203665
58.675 15.231372
58.680 14.681541
58.685 14.410341
58.690 14.519983
58.695 14.312669
58.700 14.864938
58.705 15.446342
58.710 15.5443
58.715 15.641041
58.720 15.591065
58.725 15.684756
58.730 15.905457
58.735 15.610509
58.740 15.591638
58.745 16.338203
58.750 17.089441
58.755 16.889261
58.760 16.809816
58.765 16.55755
58.770 16.46081
58.775 16.325136
58.780 15.892418
58.785 15.53547
58.790 15.137287
58.795 14.876776
58.800 15.085756
58.805 15.000747
58.810 14.903121
58.815 14.51336
58.820 14.293178
58.825 14.714167
58.830 14.884235
58.835 14.602053
58.840 14.223436
58.845 13.961852
58.850 14.086461
58.855 14.791517
58.860 15.343282
58.865 15.516181
58.870 16.543219
58.875 17.491127
58.880 17.721567
58.885 17.836809
58.890 17.222036
58.895 16.538876
58.900 16.311428
58.905 15.712498
58.910 15.121855
58.915 15.361316
58.920 14.959692
58.925 14.810124
58.930 14.353539
58.935 13.988867
58.940 12.969029
58.945 13.039568
58.950 13.111988
58.955 13.386762
58.960 13.838786
58.965 14.379924
58.970 15.046476
58.975 15.847642
58.980 16.403599
58.985 16.768942
58.990 17.066813
58.995 17.189714
59.000 17.318748
59.005 16.837952
59.010 16.245512
59.015 15.744408
59.020 15.30686
59.025 14.770884
59.030 14.784143
59.035 14.436975
59.040 14.795457
59.045 14.868927
59.050 14.740181
59.055 14.980623
59.060 15.805655
59.065 16.009195
59.070 16.467144
59.075 16.767645
59.080 17.122292
59.085 17.504738
59.090 17.553368
59.095 16.61647
59.100 15.894146
59.105 15.946815
59.110 15.961393
59.115 16.327522
59.120 15.643081
59.125 15.236534
59.130 15.558662
59.135 15.867064
59.140 15.683135
59.145 15.283438
59.150 14.518395
59.155 15.017739
59.160 14.938148
59.165 14.718706
59.170 14.712245
59.175 14.652775
59.180 14.946207
59.185 15.313489
59.190 15.283712
59.195 15.611705
59.200 15.250648
59.205 15.139078
59.210 14.70561
59.215 14.470614
59.220 14.380342
59.225 14.520865
59.230 14.56371
59.235 14.751575
59.240 14.617931
59.245 14.803057
59.250 14.482394
59.255 14.847092
59.260 14.71562
59.265 14.451862
59.270 14.865162
59.275 15.44831
59.280 15.99085
59.285 16.129965
59.290 15.902398
59.295 16.052048
59.300 16.301666
59.305 15.849686
59.310 14.954633
59.315 14.558161
59.320 14.618811
59.325 14.611665
59.330 14.477068
59.335 14.146357
59.340 14.517945
59.345 15.280457
59.350 14.840295
59.355 14.959526
59.360 15.377975
59.365 15.896276
59.370 16.383411
59.375 16.365019
59.380 16.401234
59.385 17.051306
59.390 17.429827
59.395 17.076183
59.400 17.001532
59.405 17.109339
59.410 16.853424
59.415 17.025089
59.420 17.588213
59.425 17.469435
59.430 17.746717
59.435 17.530985
59.440 17.151556
59.445 17.347763
59.450 17.15247
59.455 16.6495
59.460 17.060036
59.465 16.781513
59.470 16.548462
59.475 16.983141
59.480 16.561255
59.485 16.330503
59.490 16.101303
59.495 15.679019
59.500 15.895354
59.505 16.104036
59.510 16.539755
59.515 17.25548
59.520 17.184444
59.525 17.415432
59.530 17.267893
59.535 17.401739
59.540 16.926466
59.545 16.68918
59.550 16.547976
59.555 16.776497
59.560 16.719006
59.565 17.049135
59.570 17.348574
59.575 17.780869
59.580 17.333675
59.585 17.146339
59.590 17.02467
59.595 16.495049
59.600 16.011936
59.605 16.256317
59.610 16.516289
59.615 16.181149
59.620 15.907595
59.625 16.163441
59.630 16.591402
59.635 16.917149
59.640 16.353683
59.645 16.213139
59.650 16.934681
59.655 17.215281
59.660 17.714796
59.665 17.61512
59.670 17.098721
59.675 17.08489
59.680 17.033201
59.685 16.95586
59.690 17.20286
59.695 17.296581
59.700 17.691034
59.705 17.681749
59.710 17.772854
59.715 18.040728
59.720 17.736773
59.725 17.460308
59.730 17.32482
59.735 17.955011
59.740 18.284096
59.745 18.408949
59.750 18.132652
59.755 19.051765
59.760 19.298542
59.765 19.156794
59.770 18.193319
59.775 17.730663
59.780 17.801853
59.785 17.72028
59.790 17.22117
59.795 17.080292
59.800 17.399738
59.805 17.873413
59.810 18.158375
59.815 18.182938
59.820 18.563681
59.825 18.673077
59.830 18.71357
59.835 18.218859
59.840 17.809063
59.845 18.114887
59.850 17.70166
59.855 17.225882
59.860 17.574057
59.865 17.533802
59.870 18.120436
59.875 18.720684
59.880 18.619829
59.885 19.023739
59.890 19.291733
59.895 18.634222
59.900 18.457863
59.905 17.997723
59.910 17.774714
59.915 18.240095
59.920 19.008226
59.925 19.431206
59.930 20.281464
59.935 20.830854
59.940 21.099432
59.945 21.327194
59.950 21.534344
59.955 21.383568
59.960 21.002407
59.965 20.809404
59.970 20.221127
59.975 20.568348
59.980 20.864025
59.985 20.325663
59.990 19.954815
59.995 20.457687
60.000 20.255312
60.005 20.828426
60.010 20.867617
60.015 20.54133
60.020 20.34059
60.025 20.400293
60.030 19.917439
60.035 20.027544
60.040 19.958546
60.045 19.880823
60.050 20.134172
60.055 20.399065
60.060 21.114021
60.065 21.570608
60.070 22.0266
60.075 22.257421
60.080 22.504847
60.085 23.233072
60.090 23.916479
60.095 23.892672
60.100 23.709352
60.105 23.715883
60.110 23.554956
60.115 23.353422
60.120 23.350653
60.125 23.117126
60.130 23.0961
60.135 23.211557
60.140 23.339956
60.145 24.088249
60.150 24.023115
60.155 23.738312
60.160 23.274771
60.165 23.074566
60.170 22.753777
60.175 22.180183
60.180 21.643503
60.185 21.680048
60.190 21.114748
60.195 21.152777
60.200 21.24132
60.205 21.139931
60.210 21.054798
60.215 20.961515
60.220 20.496056
60.225 21.009874
60.230 20.970764
60.235 21.051722
60.240 20.930429
60.245 20.729881
60.250 20.669317
60.255 20.6133
60.260 20.196102
60.265 19.577738
60.270 19.448538
60.275 19.880936
60.280 20.718351
60.285 21.125071
60.290 22.208164
60.295 22.509373
60.300 23.191071
60.305 23.400299
60.310 23.380819
60.315 22.644796
60.320 22.7213
60.325 22.520355
60.330 22.528097
60.335 22.749399
60.340 23.265543
60.345 23.486952
60.350 23.732929
60.355 23.131712
60.360 22.493895
60.365 22.347689
60.370 21.463985
60.375 20.911322
60.380 20.607321
60.385 20.415398
60.390 20.904413
60.395 21.458279
60.400 21.499767
60.405 22.254616
60.410 22.610449
60.415 22.526234
60.420 22.486265
60.425 21.940149
60.430 21.676386
60.435 21.099915
60.440 20.105555
60.445 19.983841
60.450 20.432674
60.455 20.241459
60.460 19.99297
60.465 20.106579
60.470 20.937243
60.475 21.426294
60.480 21.554914
60.485 21.997053
60.490 22.993347
60.495 23.315489
60.500 22.791315
60.505 21.998257
60.510 21.411934
60.515 20.780722
60.520 19.837734
60.525 18.924652
60.530 18.210987
60.535 17.871241
60.540 18.328867
60.545 18.75215
60.550 18.695858
60.555 19.139688
60.560 19.722651
60.565 19.893917
60.570 19.675104
60.575 19.453384
60.580 19.387794
60.585 19.474533
60.590 19.221703
60.595 19.395077
60.600 19.725996
60.605 20.007826
60.610 20.39267
60.615 20.283428
60.620 20.063143
60.625 19.550333
60.630 18.871994
60.635 18.81823
60.640 19.329069
60.645 19.065687
60.650 18.621698
60.655 18.200266
60.660 18.06455
60.665 18.446657
60.670 18.749176
60.675 18.831381
60.680 19.027945
60.685 19.573727
60.690 20.095058
60.695 20.674931
60.700 20.670742
60.705 20.667727
60.710 20.359043
60.715 19.969606
60.720 20.485111
60.725 20.269123
60.730 20.055017
60.735 20.195313
60.740 20.337349
60.745 20.030907
60.750 19.926275
60.755 19.587374
60.760 19.922207
60.765 19.821236
60.770 19.971901
60.775 20.025688
60.780 20.039518
60.785 19.763557
60.790 19.656796
60.795 19.459152
60.800 18.907854
60.805 18.261269
60.810 18.462183
60.815 18.977097
60.820 19.31073
60.825 19.555662
60.830 19.500668
60.835 18.82305
60.840 18.310652
60.845 17.492794
60.850 17.439629
60.855 17.462711
60.860 17.562487
60.865 18.110352
60.870 18.728477
60.875 18.699467
60.880 18.584803
60.885 17.711527
60.890 17.763823
60.895 17.3088
60.900 17.314499
60.905 17.63871
60.910 17.927448
60.915 17.789524
60.920 18.113607
60.925 17.766735
60.930 17.628685
60.935 17.840885
60.940 18.176094
60.945 18.580444
60.950 19.105265
60.955 19.207891
60.960 19.065042
60.965 18.653847
60.970 18.613394
60.975 17.962135
60.980 17.434256
60.985 17.117952
60.990 17.168768
60.995 17.171659
61.000 17.013987
61.005 16.609606
61.010 16.88982
61.015 17.096092
61.020 17.044958
61.025 17.33849
61.030 17.57118
61.035 17.300295
61.040 17.401583
61.045 17.141176
61.050 16.847342
61.055 16.356266
61.060 15.714871
61.065 15.91464
61.070 16.608116
61.075 16.560751
61.080 16.816326
61.085 16.721706
61.090 16.81912
61.095 16.766714
61.100 16.540325
61.105 16.044659
61.110 15.740729
61.115 15.517147
61.120 15.716109
61.125 15.718002
61.130 16.148315
61.135 16.215446
61.140 16.29154
61.145 16.724396
61.150 16.404406
61.155 17.115047
61.160 18.032726
61.165 17.585394
61.170 17.866579
61.175 17.886368
61.180 17.713066
61.185 18.013172
61.190 17.463779
61.195 16.513319
61.200 17.134659
61.205 17.896297
61.210 18.96501
61.215 19.172585
61.220 18.854492
61.225 18.896547
61.230 19.301968
61.235 18.969595
61.240 17.827042
61.245 16.960196
61.250 16.679575
61.255 16.776875
61.260 16.980595
61.265 16.80654
61.270 16.778275
61.275 17.039442
61.280 17.560221
61.285 17.685637
61.290 17.657476
61.295 17.214151
61.300 16.781698
61.305 16.659
61.310 16.369263
61.315 15.714977
61.320 16.421335
61.325 16.533237
61.330 16.471842
61.335 16.111652
61.340 16.227999
61.345 16.241449
61.350 16.172869
61.355 15.779649
61.360 16.090199
61.365 16.445688
61.370 16.490999
61.375 16.452633
61.380 16.502926
61.385 16.47525
61.390 16.241735
61.395 15.88588
61.400 15.697982
61.405 16.179495
61.410 15.848406
61.415 15.672652
61.420 15.995826
61.425 16.168957
61.430 16.072067
61.435 15.936532
61.440 16.650822
61.445 16.699368
61.450 17.09
61.455 16.801199
61.460 16.712488
61.465 16.897919
61.470 17.076216
61.475 16.351105
61.480 16.706203
61.485 16.602451
61.490 17.222107
61.495 17.071211
61.500 17.224657
61.505 17.096148
61.510 17.282581
61.515 17.491362
61.520 17.795677
61.525 18.104143
61.530 18.612253
61.535 18.740801
61.540 19.304758
61.545 19.771536
61.550 19.836868
61.555 19.131985
61.560 18.782192
61.565 18.318893
61.570 17.660547
61.575 17.401146
61.580 17.157202
61.585 16.49967
61.590 16.189016
61.595 16.038771
61.600 16.268654
61.605 16.704624
61.610 16.51396
61.615 16.406328
61.620 17.108601
61.625 17.487467
61.630 17.441961
61.635 17.440842
61.640 17.146824
61.645 17.31505
61.650 17.458754
61.655 17.531141
61.660 17.546843
61.665 17.482292
61.670 17.685432
61.675 17.864494
61.680 17.731106
61.685 17.25827
61.690 17.046686
61.695 17.23782
61.700 17.710957
61.705 17.667629
61.710 17.505932
61.715 17.267965
61.720 17.374975
61.725 17.899393
61.730 18.153191
61.735 17.533463
61.740 17.553068
61.745 17.088169
61.750 16.576702
61.755 16.625982
61.760 15.883035
61.765 15.539883
61.770 15.760007
61.775 15.633487
61.780 15.944079
61.785 16.09067
61.790 16.117632
61.795 15.996037
61.800 15.983656
61.805 15.912391
61.810 16.328732
61.815 16.683035
61.820 16.441206
61.825 16.241776
61.830 16.761477
61.835 16.297873
61.840 15.754115
61.845 15.5785
61.850 15.641893
61.855 16.482477
61.860 16.607073
61.865 16.616596
61.870 16.794428
61.875 17.444344
61.880 17.66721
61.885 18.278591
61.890 18.970852
61.895 18.899872
61.900 18.958494
61.905 19.748619
61.910 19.663322
61.915 19.005714
61.920 18.374411
61.925 17.537895
61.930 16.870064
61.935 16.7493
61.940 16.325489
61.945 16.186195
61.950 16.331499
61.955 16.282288
61.960 16.226124
61.965 16.23974
61.970 16.151585
61.975 16.363274
61.980 15.992691
61.985 16.138935
61.990 16.250196
61.995 16.612013
62.000 16.957472
62.005 16.954264
62.010 16.568705
62.015 17.151335
62.020 17.009857
62.025 16.881895
62.030 16.655218
62.035 16.624561
62.040 16.735701
62.045 17.425806
62.050 17.485027
62.055 17.263556
62.060 16.951597
62.065 16.766411
62.070 16.674992
62.075 16.009501
62.080 15.638373
62.085 15.650504
62.090 15.738445
62.095 15.722623
62.100 15.11434
62.105 14.753773
62.110 15.049362
62.115 14.605824
62.120 14.891232
62.125 15.107835
62.130 15.620348
62.135 16.45245
62.140 16.777248
62.145 16.847387
62.150 16.947281
62.155 16.615282
62.160 17.084255
62.165 17.274836
62.170 17.333652
62.175 17.780081
62.180 17.615044
62.185 17.332655
62.190 17.286903
62.195 16.976065
62.200 16.742651
62.205 16.21722
62.210 15.962485
62.215 16.144747
62.220 16.241554
62.225 16.019875
62.230 16.292753
62.235 15.984528
62.240 16.035784
62.245 16.327835
62.250 16.283348
62.255 16.663464
62.260 17.027431
62.265 16.776667
62.270 17.224241
62.275 17.19488
62.280 16.888887
62.285 17.100504
62.290 16.759283
62.295 16.428349
62.300 16.049255
62.305 15.714147
62.310 15.503076
62.315 15.431867
62.320 15.767735
62.325 16.350321
62.330 16.392746
62.335 17.050827
62.340 17.009483
62.345 17.080418
62.350 17.070086
62.355 16.52803
62.360 15.826156
62.365 15.460874
62.370 15.167488
62.375 15.460617
62.380 15.796054
62.385 15.694591
62.390 15.449184
62.395 16.386532
62.400 16.994255
62.405 16.802071
62.410 16.959955
62.415 17.508272
62.420 17.815617
62.425 18.162659
62.430 17.622065
62.435 17.517099
62.440 17.823263
62.445 18.205532
62.450 18.49453
62.455 19.006271
62.460 18.880852
62.465 18.125072
62.470 17.782732
62.475 17.388906
62.480 17.082043
62.485 16.30529
62.490 15.603617
62.495 15.935355
62.500 16.209503
62.505 16.646206
62.510 16.504084
62.515 15.994759
62.520 15.846075
62.525 15.91751
62.530 15.754528
62.535 16.196421
62.540 16.328333
62.545 16.767212
62.550 17.573961
62.555 17.475115
62.560 17.487152
62.565 17.525433
62.570 17.117577
62.575 16.395567
62.580 16.487867
62.585 15.798725
62.590 15.866765
62.595 15.194221
62.600 15.167036
62.605 15.569068
62.610 16.600697
62.615 16.638578
62.620 16.718075
62.625 16.94677
62.630 17.468973
62.635 17.37845
62.640 17.118238
62.645 16.438206
62.650 16.440857
62.655 16.383049
62.660 16.589048
62.665 16.401333
62.670 16.767199
62.675 16.911558
62.680 16.856428
62.685 16.870878
62.690 16.988644
62.695 16.573511
62.700 16.457531
62.705 16.03927
62.710 16.066938
62.715 16.412828
62.720 16.474529
62.725 16.351742
62.730 17.48444
62.735 17.883116
62.740 18.315996
62.745 18.269253
62.750 17.935028
62.755 17.671139
62.760 17.907803
62.765 17.40333
62.770 17.465538
62.775 17.033123
62.780 16.587843
62.785 16.944912
62.790 16.94058
62.795 16.485006
62.800 16.488203
62.805 16.911581
62.810 17.594656
62.815 17.993345
62.820 17.536287
62.825 17.762123
62.830 18.4879
62.835 18.32123
62.840 17.742678
62.845 16.990108
62.850 16.876684
62.855 17.245722
62.860 17.480362
62.865 17.317419
62.870 17.831144
62.875 17.986549
62.880 18.297525
62.885 18.368286
62.890 17.791155
62.895 17.286348
62.900 17.064295
62.905 16.256001
62.910 16.084055
62.915 16.201748
62.920 15.997396
62.925 16.355087
62.930 16.786663
62.935 17.007458
62.940 17.237234
62.945 17.047735
62.950 17.077871
62.955 17.900337
62.960 18.296581
62.965 18.023935
62.970 18.667751
62.975 18.937902
62.980 19.12919
62.985 19.024382
62.990 18.510929
62.995 18.454344
63.000 18.316162
63.005 17.633663
63.010 17.444588
63.015 17.510714
63.020 17.80784
63.025 18.070856
63.030 17.514196
63.035 17.419827
63.040 17.549675
63.045 17.785921
63.050 17.91186
63.055 17.565813
63.060 17.296476
63.065 17.376316
63.070 17.263123
63.075 16.827677
63.080 16.508265
63.085 16.639969
63.090 17.330278
63.095 17.614115
63.100 17.60256
63.105 18.071554
63.110 18.257246
63.115 18.362717
63.120 18.179218
63.125 17.616987
63.130 17.611341
63.135 17.974939
63.140 18.111433
63.145 18.254549
63.150 18.280384
63.155 17.770956
63.160 17.61783
63.165 17.191799
63.170 16.568094
63.175 16.605042
63.180 16.893785
63.185 16.649969
63.190 16.696465
63.195 16.759754
63.200 16.580402
63.205 16.661345
63.210 16.357294
63.215 15.824069
63.220 16.250803
63.225 16.498524
63.230 16.570005
63.235 16.675688
63.240 16.622303
63.245 16.567286
63.250 16.112446
63.255 15.965722
63.260 15.735976
63.265 15.507238
63.270 15.581431
63.275 15.637024
63.280 15.70155
63.285 16.818209
63.290 17.063078
63.295 17.308058
63.300 17.613708
63.305 18.150412
63.310 18.199142
63.315 18.611647
63.320 18.208586
63.325 18.597988
63.330 18.68359
63.335 19.163437
63.340 19.338953
63.345 19.342398
63.350 18.679659
63.355 18.433178
63.360 18.326372
63.365 18.07272
63.370 17.460077
63.375 16.754642
63.380 16.721668
63.385 17.211298
63.390 17.651758
63.395 17.312332
63.400 17.245659
63.405 17.01215
63.410 17.111105
63.415 17.191437
63.420 16.955069
63.425 16.795809
63.430 17.037535
63.435 16.652046
63.440 16.668081
63.445 16.438143
63.450 16.670696
63.455 16.988693
63.460 16.366566
63.465 16.568796
63.470 16.997374
63.475 17.385542
63.480 17.908159
63.485 18.081575
63.490 17.876989
63.495 17.936987
63.500 17.384541
63.505 17.498621
63.510 17.951696
63.515 17.935499
63.520 18.131382
63.525 18.474951
63.530 18.419394
63.535 18.661911
63.540 18.699961
63.545 18.078217
63.550 17.794447
63.555 17.484627
63.560 17.057728
63.565 17.384417
63.570 17.112194
63.575 17.403908
63.580 17.638895
63.585 17.205891
63.590 16.973114
63.595 17.689165
63.600 17.958187
63.605 18.355389
63.610 17.875677
63.615 17.782156
63.620 17.866863
63.625 17.644743
63.630 17.025471
63.635 16.364956
63.640 15.968675
63.645 16.130199
63.650 16.631292
63.655 16.764935
63.660 17.364853
63.665 17.678362
63.670 17.857309
63.675 18.048037
63.680 17.682608
63.685 17.748449
63.690 18.170507
63.695 18.08256
63.700 18.256468
63.705 19.455469
63.710 20.100985
63.715 20.417738
63.720 19.881651
63.725 19.210251
63.730 19.25371
63.735 18.785423
63.740 17.905806
63.745 17.655653
63.750 17.630011
63.755 17.425184
63.760 17.720861
63.765 17.695787
63.770 17.878939
63.775 17.916149
63.780 17.436712
63.785 17.413723
63.790 17.67477
63.795 16.877718
63.800 16.839649
63.805 17.407288
63.810 18.044794
63.815 18.93873
63.820 19.003305
63.825 19.222065
63.830 19.842812
63.835 19.954624
63.840 19.511707
63.845 19.005829
63.850 18.089544
63.855 17.679804
63.860 17.614954
63.865 17.732187
63.870 17.246746
63.875 17.214281
63.880 17.1527
63.885 17.064474
63.890 17.734173
63.895 17.84955
63.900 17.870623
63.905 17.924677
63.910 18.010441
63.915 17.799654
63.920 18.111135
63.925 18.014133
63.930 17.96686
63.935 17.651432
63.940 17.562799
63.945 17.107904
63.950 17.63438
63.955 17.527285
63.960 17.410273
63.965 17.567823
63.970 17.662571
63.975 18.290272
63.980 18.412054
63.985 18.74184
63.990 19.215502
63.995 19.539206
64.000 19.677504
64.005 19.891411
64.010 20.293322
64.015 20.740974
64.020 20.314108
64.025 20.32489
64.030 20.599276
64.035 20.868397
64.040 20.796368
64.045 19.801876
64.050 19.060648
64.055 18.491436
64.060 18.124947
64.065 17.545145
64.070 16.433372
64.075 16.123037
64.080 15.91169
64.085 15.902499
64.090 16.574661
64.095 16.26306
64.100 16.505077
64.105 17.797924
64.110 18.201441
64.115 19.111761
64.120 19.728004
64.125 19.350195
64.130 19.30348
64.135 19.592855
64.140 19.777212
64.145 19.733446
64.150 19.444525
64.155 18.496176
64.160 18.359272
64.165 19.138828
64.170 18.695572
64.175 17.947989
64.180 17.899336
64.185 17.425688
64.190 18.336914
64.195 18.376703
64.200 17.888256
64.205 17.545404
64.210 17.063131
64.215 16.649292
64.220 16.85314
64.225 16.981316
64.230 17.239054
64.235 17.479067
64.240 17.491787
64.245 18.122786
64.250 18.369875
64.255 18.470512
64.260 17.871321
64.265 17.53299
64.270 17.57378
64.275 18.016283
64.280 17.526815
64.285 17.508373
64.290 17.553654
64.295 18.144363
64.300 18.390783
64.305 18.413887
64.310 18.346508
64.315 19.04804
64.320 19.275175
64.325 18.870689
64.330 18.387989
64.335 17.810293
64.340 17.280008
64.345 17.328773
64.350 17.304029
64.355 17.246592
64.360 17.394938
64.365 17.416462
64.370 18.030226
64.375 18.794928
64.380 19.495781
64.385 19.686125
64.390 19.78245
64.395 20.104485
64.400 20.189987
64.405 19.950235
64.410 19.490927
64.415 19.075068
64.420 18.812107
64.425 18.484116
64.430 17.921709
64.435 18.194021
64.440 18.609039
64.445 18.728975
64.450 18.519333
64.455 18.19562
64.460 18.228691
64.465 18.415953
64.470 17.873346
64.475 17.669931
64.480 17.553116
64.485 17.700249
64.490 18.08983
64.495 18.421907
64.500 19.277138
64.505 19.491022
64.510 19.624966
64.515 19.488304
64.520 19.326494
64.525 19.362036
64.530 19.340351
64.535 18.112766
64.540 18.327526
64.545 18.398844
64.550 18.259869
64.555 18.570341
64.560 18.179754
64.565 18.210066
64.570 18.549807
64.575 18.177094
64.580 17.776152
64.585 17.684559
64.590 17.385183
64.595 17.099888
64.600 17.222282
64.605 17.370544
64.610 17.769918
64.615 17.756741
64.620 17.611229
64.625 17.646852
64.630 17.4916
64.635 17.268105
64.640 17.561653
64.645 17.599825
64.650 17.7239
64.655 17.948189
64.660 17.899872
64.665 18.201639
64.670 18.02136
64.675 18.2736
64.680 17.876524
64.685 17.388624
64.690 17.541067
64.695 18.342516
64.700 18.822018
64.705 19.26535
64.710 18.688427
64.715 19.33889
64.720 19.81646
64.725 19.878464
64.730 19.745966
64.735 19.45303
64.740 19.309313
64.745 19.618465
64.750 19.939053
64.755 20.430901
64.760 20.377712
64.765 19.945202
64.770 20.185843
64.775 20.300407
64.780 20.383247
64.785 19.656471
64.790 19.356867
64.795 19.376141
64.800 19.770149
64.805 20.025881
64.810 19.741686
64.815 19.135479
64.820 19.458769
64.825 19.301447
64.830 19.223345
64.835 19.229858
64.840 19.061213
64.845 18.999462
64.850 18.918018
64.855 19.526049
64.860 19.497011
64.865 19.394445
64.870 19.178745
64.875 18.764694
64.880 19.780567
64.885 19.959139
64.890 19.375202
64.895 20.24254
64.900 21.193565
64.905 21.556585
64.910 21.863752
64.915 21.242266
64.920 21.487722
64.925 21.385761
64.930 20.447067
64.935 19.812515
64.940 20.065647
64.945 20.351692
64.950 20.597145
64.955 20.815046
64.960 21.205372
64.965 21.461964
64.970 21.435614
64.975 21.345966
64.980 20.696352
64.985 20.514208
64.990 21.12723
64.995 21.888557
65.000 22.508322
65.005 22.062115
65.010 21.881556
65.015 22.577591
65.020 23.195557
65.025 22.480854
65.030 21.334894
65.035 21.219822
65.040 21.697178
65.045 22.35313
65.050 22.368952
65.055 21.68594
65.060 21.691616
65.065 22.098087
65.070 22.497425
65.075 22.275917
65.080 21.778574
65.085 21.730711
65.090 22.09778
65.095 22.841322
65.100 22.174603
65.105 21.801214
65.110 21.828741
65.115 21.493774
65.120 20.681374
65.125 20.111773
65.130 19.706352
65.135 20.421368
65.140 20.431044
65.145 20.280529
65.150 21.176014
65.155 22.316221
65.160 22.720255
65.165 22.870863
65.170 23.161053
65.175 23.49011
65.180 23.473112
65.185 23.457668
65.190 23.218493
65.195 23.385592
65.200 23.382957
65.205 23.416096
65.210 23.469778
65.215 23.54582
65.220 23.110369
65.225 22.855759
65.230 22.390356
65.235 22.656075
65.240 22.151941
65.245 22.103802
65.250 22.272131
65.255 22.370157
65.260 22.806215
65.265 23.42198
65.270 22.649111
65.275 22.32139
65.280 22.005569
65.285 21.745815
65.290 21.806747
65.295 21.738485
65.300 21.153627
65.305 21.085691
65.310 22.105921
65.315 22.180231
65.320 21.983065
65.325 21.908377
65.330 22.302376
65.335 23.046738
65.340 23.111288
65.345 22.274704
65.350 22.745651
65.355 23.475134
65.360 23.452248
65.365 23.223778
65.370 22.938231
65.375 23.110222
65.380 23.292641
65.385 23.104385
65.390 23.20281
65.395 23.537973
65.400 23.543409
65.405 23.916847
65.410 24.232666
65.415 24.808012
65.420 24.54915
65.425 24.735231
65.430 24.111723
65.435 24.019842
65.440 23.116604
65.445 23.212824
65.450 23.294798
65.455 23.204445
65.460 22.77462
65.465 23.256111
65.470 23.43112
65.475 23.886335
65.480 23.95998
65.485 23.729387
65.490 23.713699
65.495 24.023462
65.500 24.693939
65.505 25.290977
65.510 26.062576
65.515 26.018652
65.520 26.096512
65.525 26.113817
65.530 26.263702
65.535 26.124952
65.540 25.742487
65.545 25.282919
65.550 25.084238
65.555 25.459803
65.560 25.889683
65.565 25.153814
65.570 24.856424
65.575 25.518328
65.580 26.571518
65.585 26.681339
65.590 27.094738
65.595 26.697422
65.600 27.367241
65.605 27.891024
65.610 28.21623
65.615 27.94492
65.620 28.477493
65.625 28.755499
65.630 29.852362
65.635 30.183655
65.640 30.346273
65.645 30.447374
65.650 31.20928
65.655 31.805466
65.660 32.035057
65.665 31.409267
65.670 31.340946
65.675 30.850971
65.680 30.880287
65.685 30.551971
65.690 30.552187
65.695 30.91576
65.700 30.929754
65.705 31.217457
65.710 31.704163
65.715 31.406246
65.720 31.592112
65.725 31.950066
65.730 31.982347
65.735 31.983841
65.740 31.840054
65.745 31.782991
65.750 32.563515
65.755 33.225231
65.760 33.806244
65.765 34.081577
65.770 35.105133
65.775 35.346226
65.780 36.499512
65.785 36.255074
65.790 35.932091
65.795 36.143581
65.800 36.792763
65.805 36.841068
65.810 36.612206
65.815 35.535938
65.820 35.186501
65.825 35.864685
65.830 35.916862
65.835 35.957336
65.840 36.546799
65.845 37.469337
65.850 38.473515
65.855 39.906448
65.860 40.042961
65.865 40.081112
65.870 39.937408
65.875 39.714821
65.880 39.79744
65.885 39.997753
65.890 39.363316
65.895 39.016438
65.900 38.51828
65.905 38.614681
65.910 38.928581
65.915 38.001453
65.920 37.311115
65.925 36.80534
65.930 36.487999
65.935 37.121456
65.940 36.949322
65.945 37.01656
65.950 38.235245
65.955 39.105267
65.960 39.797684
65.965 40.257393
65.970 40.492126
65.975 40.518284
65.980 40.200371
65.985 39.226982
65.990 38.295036
65.995 37.685253
66.000 37.318821
66.005 37.169914
66.010 37.398087
66.015 36.804161
66.020 37.724792
66.025 38.345985
66.030 39.001675
66.035 38.591953
66.040 38.062893
66.045 37.571297
66.050 38.466877
66.055 37.857643
66.060 37.411407
66.065 36.298344
66.070 36.586716
66.075 36.447769
66.080 35.985889
66.085 35.577694
66.090 36.012863
66.095 36.317783
66.100 37.432358
66.105 37.244846
66.110 37.337547
66.115 37.837456
66.120 37.120922
66.125 36.957104
66.130 37.379051
66.135 36.799549
66.140 36.926468
66.145 36.218559
66.150 36.479454
66.155 36.642136
66.160 35.762211
66.165 34.625057
66.170 34.686405
66.175 34.608551
66.180 34.842342
66.185 35.028126
66.190 35.492767
66.195 36.218067
66.200 36.604095
66.205 36.32832
66.210 36.617619
66.215 36.843315
66.220 36.228836
66.225 35.164303
66.230 34.059143
66.235 34.210308
66.240 34.08588
66.245 34.134258
66.250 34.111313
66.255 34.451828
66.260 34.931664
66.265 35.385303
66.270 35.560688
66.275 34.622662
66.280 33.567791
66.285 32.605808
66.290 32.097012
66.295 31.793413
66.300 31.227383
66.305 30.865564
66.310 30.951681
66.315 30.953249
66.320 31.310295
66.325 30.930998
66.330 30.629341
66.335 30.868982
66.340 30.43449
66.345 30.127661
66.350 30.214369
66.355 30.408911
66.360 30.484018
66.365 30.182728
66.370 30.069778
66.375 30.273663
66.380 31.005281
66.385 31.045486
66.390 30.651819
66.395 30.65082
66.400 31.199034
66.405 31.501011
66.410 31.872929
66.415 31.149254
66.420 30.994581
66.425 31.142859
66.430 31.551363
66.435 30.99786
66.440 30.295162
66.445 29.790398
66.450 29.420944
66.455 29.316479
66.460 28.768162
66.465 28.517391
66.470 28.660641
66.475 28.098717
66.480 27.851343
66.485 28.287706
66.490 27.97574
66.495 28.405199
66.500 28.642511
66.505 28.957363
66.510 29.414125
66.515 29.480036
66.520 29.722744
66.525 29.829189
66.530 29.400194
66.535 29.002829
66.540 28.556812
66.545 27.7579
66.550 27.66083
66.555 27.152281
66.560 27.172106
66.565 26.826967
66.570 26.53297
66.575 26.450294
66.580 26.16901
66.585 26.449574
66.590 26.673191
66.595 26.340147
66.600 26.423832
66.605 26.501915
66.610 26.9041
66.615 27.030809
66.620 26.324594
66.625 25.475821
66.630 25.281706
66.635 24.985662
66.640 25.198505
66.645 24.399441
66.650 24.403521
66.655 25.154478
66.660 25.674566
66.665 25.433302
66.670 25.195965
66.675 24.529577
66.680 24.684011
66.685 25.468836
66.690 24.997816
66.695 25.032509
66.700 25.16489
66.705 25.797356
66.710 25.808578
66.715 26.364622
66.720 25.379984
66.725 24.788115
66.730 24.72291
66.735 24.91287
66.740 24.81329
66.745 25.263006
66.750 25.503839
66.755 25.646202
66.760 25.766691
66.765 25.462906
66.770 24.972515
66.775 24.401096
66.780 23.538401
66.785 22.630455
66.790 22.156403
66.795 22.227633
66.800 22.547447
66.805 22.938564
66.810 23.51807
66.815 23.888617
66.820 24.26865
66.825 25.357231
66.830 24.715351
66.835 23.741121
66.840 23.032084
66.845 22.251057
66.850 21.894424
66.855 21.511946
66.860 20.413555
66.865 20.452923
66.870 21.125093
66.875 22.134634
66.880 22.358419
66.885 22.886852
66.890 23.135218
66.895 23.849127
66.900 23.588123
66.905 23.30028
66.910 22.879936
66.915 23.061331
66.920 23.02099
66.925 22.754559
66.930 22.016727
66.935 22.593996
66.940 22.333628
66.945 22.221584
66.950 21.90333
66.955 21.902834
66.960 21.83029
66.965 22.864639
66.970 22.716066
66.975 23.187756
66.980 23.525646
66.985 24.090376
66.990 24.16053
66.995 24.158508
67.000 23.709944
67.005 23.827461
67.010 23.941315
67.015 23.826752
67.020 23.317026
67.025 23.395147
67.030 23.406471
67.035 22.787329
67.040 22.698429
67.045 22.1049
67.050 21.39702
67.055 21.358126
67.060 21.143831
67.065 21.078932
67.070 21.427885
67.075 21.182035
67.080 21.710707
67.085 22.327023
67.090 21.84684
67.095 21.385397
67.100 20.722265
67.105 20.404154
67.110 20.636873
67.115 20.44842
67.120 20.558201
67.125 21.081812
67.130 22.068699
67.135 22.673944
67.140 22.831472
67.145 23.458637
67.150 23.528055
67.155 23.260979
67.160 23.438412
67.165 22.763439
67.170 23.132229
67.175 23.502558
67.180 22.986319
67.185 22.515051
67.190 22.550194
67.195 21.750856
67.200 22.126863
67.205 21.931366
67.210 21.68638
67.215 21.767303
67.220 22.108805
67.225 22.4559
67.230 22.859188
67.235 22.960197
67.240 22.641945
67.245 22.375477
67.250 22.221075
67.255 22.074451
67.260 21.251053
67.265 21.295666
67.270 21.175652
67.275 21.029152
67.280 21.163797
67.285 21.445873
67.290 21.537066
67.295 21.750546
67.300 21.828777
67.305 21.711309
67.310 21.760954
67.315 21.640745
67.320 21.349346
67.325 21.666599
67.330 21.657846
67.335 21.831591
67.340 21.459522
67.345 21.048992
67.350 21.149315
67.355 20.816248
67.360 21.218451
67.365 21.237513
67.370 20.93111
67.375 21.017149
67.380 21.305008
67.385 21.231773
67.390 21.623608
67.395 21.146465
67.400 21.324915
67.405 21.331682
67.410 21.728739
67.415 21.790888
67.420 21.495039
67.425 21.260256
67.430 21.023378
67.435 21.012598
67.440 21.015682
67.445 20.822582
67.450 21.272949
67.455 21.535582
67.460 21.328794
67.465 21.412374
67.470 21.329283
67.475 20.938566
67.480 21.359863
67.485 22.107742
67.490 22.271233
67.495 22.832029
67.500 22.848494
67.505 23.51589
67.510 23.707912
67.515 23.464901
67.520 22.415472
67.525 21.637865
67.530 21.160276
67.535 21.149858
67.540 20.844944
67.545 20.98098
67.550 20.940039
67.555 21.024744
67.560 22.047966
67.565 22.315784
67.570 22.221989
67.575 22.092318
67.580 21.87265
67.585 21.768551
67.590 21.947954
67.595 21.770885
67.600 21.890537
67.605 21.636557
67.610 21.391863
67.615 21.08569
67.620 21.577974
67.625 21.392046
67.630 21.570156
67.635 21.936455
67.640 21.782541
67.645 21.888483
67.650 22.250582
67.655 21.620173
67.660 21.940348
67.665 21.755756
67.670 21.26704
67.675 21.143423
67.680 20.780058
67.685 20.785862
67.690 20.758602
67.695 19.843719
67.700 19.591463
67.705 20.017633
67.710 20.36051
67.715 20.639582
67.720 20.658371
67.725 21.377642
67.730 21.837187
67.735 21.510326
67.740 21.189703
67.745 21.106083
67.750 20.439087
67.755 20.149744
67.760 20.2339
67.765 20.821289
67.770 21.010626
67.775 20.901285
67.780 21.272243
67.785 21.759453
67.790 21.503546
67.795 20.847265
67.800 20.788424
67.805 20.769732
67.810 20.38653
67.815 20.64636
67.820 21.174614
67.825 21.249147
67.830 21.266426
67.835 20.850952
67.840 20.908455
67.845 21.961395
67.850 21.874582
67.855 21.509848
67.860 21.68622
67.865 21.672068
67.870 22.069517
67.875 22.011404
67.880 21.689703
67.885 22.009569
67.890 22.131699
67.895 22.016394
67.900 21.762625
67.905 21.802965
67.910 21.789013
67.915 21.122623
67.920 20.257555
67.925 20.137325
67.930 20.164482
67.935 20.100988
67.940 19.933453
67.945 20.153259
67.950 20.298994
67.955 20.624584
67.960 20.87676
67.965 20.505781
67.970 19.75946
67.975 19.523996
67.980 19.474762
67.985 19.268412
67.990 19.694365
67.995 19.19117
68.000 19.051712
68.005 19.734856
68.010 20.185413
68.015 20.577871
68.020 21.21204
68.025 21.46911
68.030 21.890779
68.035 22.247601
68.040 22.639328
68.045 22.364878
68.050 22.122812
68.055 21.525587
68.060 21.179953
68.065 21.429888
68.070 21.166414
68.075 21.032564
68.080 20.735842
68.085 20.551651
68.090 20.560299
68.095 20.198475
68.100 20.014263
68.105 20.516169
68.110 19.807812
68.115 19.92144
68.120 20.153969
68.125 20.054726
68.130 20.14123
68.135 20.21854
68.140 20.482599
68.145 21.381517
68.150 21.218937
68.155 20.744123
68.160 20.937674
68.165 21.004747
68.170 20.735289
68.175 20.328556
68.180 20.91176
68.185 21.236446
68.190 21.476915
68.195 21.507074
68.200 21.622938
68.205 22.00824
68.210 21.840805
68.215 21.326408
68.220 21.283924
68.225 21.751001
68.230 21.579111
68.235 21.522175
68.240 21.014595
68.245 21.417564
68.250 21.069365
68.255 21.012039
68.260 20.398848
68.265 20.708038
68.270 21.670336
68.275 22.071503
68.280 21.467194
68.285 21.2341
68.290 21.386789
68.295 21.437117
68.300 21.279711
68.305 20.345901
68.310 20.240602
68.315 19.910494
68.320 20.014492
68.325 20.241978
68.330 20.094709
68.335 19.817022
68.340 19.572674
68.345 20.011461
68.350 20.969358
68.355 21.596867
68.360 21.692362
68.365 21.996819
68.370 22.201035
68.375 22.065973
68.380 21.757278
68.385 21.264065
68.390 21.232117
68.395 21.336679
68.400 20.827291
68.405 21.127237
68.410 21.243856
68.415 20.957302
68.420 21.55537
68.425 21.399101
68.430 21.009171
68.435 21.009718
68.440 20.823811
68.445 21.150141
68.450 21.738062
68.455 21.13932
68.460 20.486576
68.465 20.910957
68.470 21.312531
68.475 20.610836
68.480 20.572123
68.485 20.427753
68.490 20.803469
68.495 21.220783
68.500 21.307941
68.505 21.142916
68.510 21.766003
68.515 22.164967
68.520 22.717613
68.525 22.951372
68.530 23.104017
68.535 22.590921
68.540 23.069256
68.545 23.193144
68.550 22.869608
68.555 23.204615
68.560 23.532991
68.565 23.576538
68.570 23.733948
68.575 22.949495
68.580 23.057232
68.585 22.8256
68.590 21.478172
68.595 20.782623
68.600 20.992716
68.605 20.906076
68.610 21.304792
68.615 21.469149
68.620 21.456596
68.625 22.033222
68.630 21.902456
68.635 21.791756
68.640 21.870621
68.645 21.299364
68.650 21.771709
68.655 21.401354
68.660 21.440638
68.665 21.673838
68.670 21.751513
68.675 22.451601
68.680 23.15831
68.685 22.771738
68.690 22.640059
68.695 22.405207
68.700 21.897903
68.705 21.951523
68.710 21.569899
68.715 21.153374
68.720 21.712391
68.725 22.294468
68.730 22.74452
68.735 23.445292
68.740 23.141367
68.745 22.739035
68.750 22.793425
68.755 22.584665
68.760 22.402729
68.765 22.457222
68.770 22.204924
68.775 21.802845
68.780 21.42024
68.785 21.086132
68.790 20.872271
68.795 20.977869
68.800 20.936514
68.805 20.832714
68.810 21.249033
68.815 22.271967
68.820 22.871595
68.825 22.639009
68.830 22.544451
68.835 22.306437
68.840 22.560627
68.845 22.88768
68.850 22.283871
68.855 21.775528
68.860 21.686169
68.865 21.751274
68.870 21.557961
68.875 21.601578
68.880 21.518682
68.885 21.272888
68.890 21.479582
68.895 21.955618
68.900 22.585629
68.905 23.134529
68.910 23.310347
68.915 23.435429
68.920 23.593735
68.925 23.784695
68.930 23.895224
68.935 23.693079
68.940 23.693455
68.945 23.570768
68.950 23.752111
68.955 24.587997
68.960 24.421148
68.965 25.019753
68.970 25.298454
68.975 25.123495
68.980 25.228491
68.985 24.643738
68.990 23.921215
68.995 23.668598
69.000 22.843615
69.005 23.165466
69.010 23.046816
69.015 23.041111
69.020 23.689255
69.025 23.970297
69.030 23.82251
69.035 23.909519
69.040 24.432781
69.045 24.533279
69.050 24.398005
69.055 24.110477
69.060 24.169046
69.065 24.66284
69.070 24.58503
69.075 23.986782
69.080 24.174603
69.085 24.197935
69.090 24.06296
69.095 23.972801
69.100 24.388145
69.105 24.734442
69.110 24.980324
69.115 24.707115
69.120 25.358442
69.125 25.581846
69.130 25.277296
69.135 24.762943
69.140 24.310938
69.145 24.011028
69.150 24.017395
69.155 23.960135
69.160 24.151625
69.165 24.711792
69.170 24.800087
69.175 25.215456
69.180 25.347158
69.185 25.698929
69.190 25.536581
69.195 25.958897
69.200 25.693192
69.205 25.470396
69.210 24.827963
69.215 24.631929
69.220 24.014395
69.225 23.636826
69.230 23.676218
69.235 23.894459
69.240 24.815147
69.245 25.525015
69.250 26.204826
69.255 27.280584
69.260 27.354729
69.265 27.59094
69.270 27.301727
69.275 26.625849
69.280 26.64921
69.285 26.615812
69.290 26.526962
69.295 26.280241
69.300 26.078249
69.305 26.310091
69.310 26.36602
69.315 26.330219
69.320 25.515968
69.325 24.773891
69.330 25.012325
69.335 25.120678
69.340 25.160221
69.345 25.600084
69.350 26.373671
69.355 27.290779
69.360 27.498941
69.365 27.934498
69.370 28.016037
69.375 28.142252
69.380 27.62822
69.385 26.879375
69.390 27.435835
69.395 27.644777
69.400 27.618818
69.405 27.756552
69.410 28.25666
69.415 28.940693
69.420 29.482002
69.425 29.302689
69.430 29.805546
69.435 29.217936
69.440 28.806326
69.445 28.869648
69.450 28.189301
69.455 28.037502
69.460 28.408688
69.465 28.709946
69.470 29.71394
69.475 29.680288
69.480 29.755201
69.485 30.216774
69.490 29.5874
69.495 29.329462
69.500 29.107124
69.505 28.852753
69.510 29.212381
69.515 29.29154
69.520 29.710312
69.525 30.163357
69.530 30.082167
69.535 29.36628
69.540 29.54809
69.545 29.682787
69.550 29.367149
69.555 29.097382
69.560 29.248413
69.565 29.642187
69.570 30.966381
69.575 31.346415
69.580 31.140671
69.585 31.170145
69.590 30.544985
69.595 29.803276
69.600 29.268667
69.605 28.265228
69.610 27.355841
69.615 27.180803
69.620 27.748869
69.625 28.389158
69.630 28.635904
69.635 28.65246
69.640 28.703796
69.645 28.95162
69.650 29.203335
69.655 28.513796
69.660 28.62903
69.665 28.207722
69.670 27.711481
69.675 27.62929
69.680 27.377127
69.685 27.214888
69.690 27.009363
69.695 27.101849
69.700 27.488796
69.705 27.652391
69.710 27.401102
69.715 27.03723
69.720 27.223948
69.725 27.414822
69.730 26.423035
69.735 25.740366
69.740 25.689501
69.745 25.299894
69.750 25.269596
69.755 25.016937
69.760 25.536234
69.765 26.275826
69.770 26.627783
69.775 26.722454
69.780 27.753284
69.785 28.590635
69.790 28.700115
69.795 28.21744
69.800 28.637295
69.805 29.143999
69.810 28.549854
69.815 27.681602
69.820 27.110138
69.825 26.151718
69.830 25.459436
69.835 25.375637
69.840 24.639059
69.845 25.152552
69.850 25.128897
69.855 24.886858
69.860 25.615248
69.865 25.653229
69.870 24.948383
69.875 25.190874
69.880 24.921682
69.885 24.556599
69.890 24.107883
69.895 23.562359
69.900 23.792458
69.905 24.252951
69.910 24.391693
69.915 24.077829
69.920 24.685143
69.925 24.886454
69.930 24.865328
69.935 24.505049
69.940 23.505478
69.945 23.498219
69.950 22.886122
69.955 22.369282
69.960 22.387045
69.965 22.499678
69.970 22.011387
69.975 21.973677
69.980 21.752394
69.985 21.745543
69.990 21.470364
69.995 20.821289
70.000 20.469278
70.005 20.901159
70.010 20.454138
70.015 20.255089
70.020 20.545107
70.025 21.124392
70.030 21.771751
70.035 22.355455
70.040 22.417692
70.045 22.890213
70.050 23.349483
70.055 23.357393
70.060 22.853111
70.065 22.904617
70.070 22.048563
70.075 22.523987
70.080 22.561689
70.085 22.172897
70.090 22.404531
70.095 21.961233
70.100 22.221836
70.105 23.093082
70.110 22.842171
70.115 23.068668
70.120 22.914486
70.125 23.246405
70.130 23.596588
70.135 23.540981
70.140 23.288284
70.145 23.152594
70.150 22.435383
70.155 21.907774
70.160 21.031572
70.165 20.698879
70.170 19.253189
70.175 18.403723
70.180 18.025864
70.185 18.06023
70.190 18.132822
70.195 18.1052
70.200 18.304438
70.205 18.997253
70.210 19.2827
70.215 19.945431
70.220 20.572611
70.225 20.325521
70.230 20.426876
70.235 19.608683
70.240 19.371027
70.245 19.739853
70.250 19.498436
70.255 19.733446
70.260 19.908396
70.265 20.473907
70.270 21.230001
70.275 21.497845
70.280 20.828932
70.285 20.876925
70.290 20.490173
70.295 20.935287
70.300 20.814787
70.305 20.412825
70.310 20.585083
70.315 21.255695
70.320 21.911898
70.325 22.017553
70.330 21.577185
70.335 21.121986
70.340 20.463871
70.345 20.013159
70.350 19.113506
70.355 18.329191
70.360 17.852737
70.365 17.880226
70.370 18.109993
70.375 18.639526
70.380 18.623087
70.385 19.256016
70.390 19.047852
70.395 19.168837
70.400 18.92515
70.405 18.774216
70.410 17.870157
70.415 17.634371
70.420 16.902861
70.425 17.057228
70.430 17.32411
70.435 17.553898
70.440 18.144451
70.445 18.332733
70.450 18.592491
70.455 19.323315
70.460 19.561071
70.465 19.586903
70.470 19.63855
70.475 20.06702
70.480 20.111048
70.485 19.458412
70.490 19.003244
70.495 18.949087
70.500 19.427429
70.505 19.161972
70.510 19.412773
70.515 20.732828
70.520 21.674561
70.525 22.057775
70.530 21.645082
70.535 20.901741
70.540 21.089087
70.545 20.823977
70.550 19.792797
70.555 19.695473
70.560 19.661947
70.565 20.503325
70.570 20.899338
70.575 20.506733
70.580 20.538137
70.585 20.70401
70.590 20.924257
70.595 21.262188
70.600 20.999088
70.605 21.597845
70.610 21.984106
70.615 21.864363
70.620 21.61503
70.625 21.362837
70.630 20.372702
70.635 19.492315
70.640 18.564114
70.645 18.846638
70.650 19.718237
70.655 19.831125
70.660 20.0322
70.665 20.139778
70.670 20.281513
70.675 19.895706
70.680 18.775003
70.685 18.021093
70.690 17.673822
70.695 17.137918
70.700 17.490255
70.705 17.559839
70.710 17.8885
70.715 18.062416
70.720 17.377836
70.725 17.698048
70.730 17.395033
70.735 17.240641
70.740 17.424488
70.745 16.853188
70.750 17.124552
70.755 17.272619
70.760 17.33428
70.765 17.847914
70.770 17.9783
70.775 18.300097
70.780 18.799417
70.785 19.289131
70.790 19.683792
70.795 19.497507
70.800 19.515316
70.805 19.361258
70.810 19.258427
70.815 19.571722
70.820 19.071091
70.825 19.43535
70.830 19.623045
70.835 19.523769
70.840 19.802485
70.845 19.882954
70.850 19.910231
70.855 19.445162
70.860 18.871775
70.865 18.635227
70.870 18.826366
70.875 18.748056
70.880 18.664721
70.885 18.736958
70.890 19.248055
70.895 19.914478
70.900 20.180571
70.905 19.833561
70.910 19.830639
70.915 20.12022
70.920 19.761839
70.925 19.553846
70.930 19.231628
70.935 19.315687
70.940 19.092789
70.945 18.817467
70.950 18.325111
70.955 18.600683
70.960 18.5191
70.965 18.171827
70.970 18.283148
70.975 18.818844
70.980 19.027611
70.985 18.777849
70.990 18.756817
70.995 18.822376
71.000 19.075628
71.005 18.86636
71.010 18.803667
71.015 18.635525
71.020 18.864416
71.025 19.108711
71.030 19.02022
71.035 18.915228
71.040 18.76915
71.045 18.575609
71.050 19.035454
71.055 19.429167
71.060 19.724632
71.065 19.140249
71.070 18.718058
71.075 18.583128
71.080 18.594038
71.085 18.259489
71.090 18.480293
71.095 17.689093
71.100 17.744022
71.105 17.937725
71.110 17.778913
71.115 18.248257
71.120 18.214417
71.125 18.467361
71.130 19.353907
71.135 19.986853
71.140 20.653881
71.145 20.72864
71.150 20.289801
71.155 19.683071
71.160 18.756407
71.165 18.86194
71.170 18.58926
71.175 18.277796
71.180 18.11833
71.185 18.123035
71.190 18.334059
71.195 18.569418
71.200 18.418726
71.205 18.580954
71.210 18.597523
71.215 18.655127
71.220 18.763697
71.225 19.03739
71.230 18.956799
71.235 19.201675
71.240 19.673834
71.245 19.441254
71.250 18.780031
71.255 18.206167
71.260 18.038321
71.265 18.639744
71.270 18.659233
71.275 18.752684
71.280 19.028034
71.285 19.711594
71.290 19.991749
71.295 20.21347
71.300 20.295307
71.305 19.84589
71.310 19.964731
71.315 20.296543
71.320 20.208179
71.325 19.875032
71.330 19.197592
71.335 18.883106
71.340 18.763729
71.345 18.822567
71.350 19.095589
71.355 18.936094
71.360 19.254797
71.365 19.436548
71.370 19.478813
71.375 19.335278
71.380 19.178707
71.385 18.789433
71.390 19.096991
71.395 18.545406
71.400 18.046524
71.405 18.056799
71.410 18.03334
71.415 17.896851
71.420 18.348999
71.425 18.598299
71.430 19.049952
71.435 19.315063
71.440 18.644802
71.445 18.82328
71.450 18.293207
71.455 17.655537
71.460 17.0583
71.465 16.844482
71.470 16.95615
71.475 16.692051
71.480 16.77882
71.485 17.146132
71.490 17.461523
71.495 17.761023
71.500 17.4751
71.505 18.042036
71.510 18.224443
71.515 18.068197
71.520 17.845831
71.525 17.771154
71.530 17.491394
71.535 17.482208
71.540 17.895983
71.545 18.347866
71.550 18.886057
71.555 19.598997
71.560 20.289961
71.565 20.795639
71.570 20.482073
71.575 19.47415
71.580 19.21624
71.585 19.075157
71.590 18.735689
71.595 18.081614
71.600 17.8309
71.605 17.209499
71.610 16.82342
71.615 16.365925
71.620 16.082993
71.625 15.799395
71.630 15.692656
71.635 16.270996
71.640 17.044054
71.645 17.564817
71.650 18.172886
71.655 18.085112
71.660 18.394125
71.665 18.928417
71.670 19.036358
71.675 18.623613
71.680 18.484228
71.685 18.061644
71.690 18.331234
71.695 18.252228
71.700 17.934494
71.705 18.083422
71.710 18.261587
71.715 18.825783
71.720 19.651873
71.725 19.675728
71.730 19.871113
71.735 19.692904
71.740 19.954517
71.745 20.187115
71.750 19.335106
71.755 19.159189
71.760 19.112123
71.765 19.111229
71.770 19.736107
71.775 19.575735
71.780 19.451136
71.785 19.457304
71.790 19.555412
71.795 19.512125
71.800 19.229277
71.805 19.030352
71.810 18.870609
71.815 18.620596
71.820 18.191952
71.825 17.335207
71.830 17.752504
71.835 17.378422
71.840 17.430229
71.845 18.017164
71.850 18.391445
71.855 18.572109
71.860 18.755604
71.865 18.524073
71.870 19.122469
71.875 19.335245
71.880 19.393785
71.885 19.480822
71.890 19.269745
71.895 19.253941
71.900 18.9545
71.905 18.48885
71.910 18.614431
71.915 18.397861
71.920 18.120655
71.925 17.950993
71.930 18.110933
71.935 18.187773
71.940 18.015308
71.945 17.324337
71.950 17.550482
71.955 18.73488
71.960 19.468653
71.965 18.835192
71.970 18.807899
71.975 18.55665
71.980 18.702572
71.985 18.523787
71.990 18.171724
71.995 18.499361
72.000 18.946804
72.005 19.319532
72.010 19.833006
72.015 20.318497
72.020 20.212809
72.025 19.338127
72.030 18.608953
72.035 18.393589
72.040 17.777361
72.045 17.777618
72.050 17.894707
72.055 17.795654
72.060 17.971634
72.065 18.351429
72.070 18.879715
72.075 19.178349
72.080 18.971342
72.085 18.861481
72.090 18.860237
72.095 18.837301
72.100 19.062794
72.105 19.034405
72.110 18.746161
72.115 18.311893
72.120 18.400894
72.125 18.5737
72.130 18.551891
72.135 18.611149
72.140 18.667995
72.145 18.430676
72.150 17.763695
72.155 17.694185
72.160 17.243462
72.165 17.185934
72.170 17.055927
72.175 17.359715
72.180 18.077127
72.185 18.320749
72.190 18.868567
72.195 19.629896
72.200 19.628929
72.205 19.458862
72.210 19.044579
72.215 18.895117
72.220 19.097124
72.225 19.234913
72.230 18.83777
72.235 19.272654
72.240 19.055693
72.245 19.13736
72.250 19.485802
72.255 19.040228
72.260 19.013472
72.265 18.894821
72.270 18.454399
72.275 18.819878
72.280 18.972456
72.285 18.934023
72.290 18.568747
72.295 18.484573
72.300 18.774181
72.305 18.744606
72.310 18.550697
72.315 18.514765
72.320 18.581276
72.325 18.660053
72.330 18.206663
72.335 18.490429
72.340 18.579369
72.345 18.277946
72.350 17.8885
72.355 17.646835
72.360 18.300224
72.365 18.566345
72.370 17.983908
72.375 17.904655
72.380 17.972668
72.385 18.014193
72.390 17.964075
72.395 17.474537
72.400 17.266245
72.405 16.934824
72.410 16.939417
72.415 16.927731
72.420 17.437063
72.425 17.272028
72.430 17.381439
72.435 17.735174
72.440 17.969057
72.445 18.199503
72.450 18.207962
72.455 18.401949
72.460 18.603443
72.465 18.978247
72.470 18.740831
72.475 18.751364
72.480 18.699657
72.485 18.568457
72.490 18.288197
72.495 18.108715
72.500 17.756697
72.505 17.506769
72.510 17.606386
72.515 17.218643
72.520 17.376436
72.525 17.478695
72.530 17.617971
72.535 18.063478
72.540 18.037281
72.545 18.126469
72.550 18.35895
72.555 18.565042
72.560 18.305948
72.565 17.680058
72.570 17.30072
72.575 17.695629
72.580 18.025461
72.585 18.256702
72.590 17.991673
72.595 18.741848
72.600 18.792936
72.605 18.780981
72.610 18.175327
72.615 17.514706
72.620 17.532864
72.625 16.621811
72.630 16.34935
72.635 16.95339
72.640 17.535923
72.645 17.376268
72.650 17.662931
72.655 17.954128
72.660 18.311832
72.665 18.398184
72.670 18.344107
72.675 17.930601
72.680 18.125704
72.685 17.80382
72.690 17.845755
72.695 17.584223
72.700 17.494932
72.705 18.373085
72.710 19.182562
72.715 19.897291
72.720 19.758411
72.725 20.274338
72.730 20.240524
72.735 20.474844
72.740 19.915131
72.745 19.191715
72.750 18.99123
72.755 18.946507
72.760 18.139475
72.765 18.28937
72.770 17.767162
72.775 17.534964
72.780 17.508198
72.785 17.339806
72.790 17.21228
72.795 17.374443
72.800 17.236399
72.805 17.180229
72.810 17.248178
72.815 17.393066
72.820 17.125505
72.825 17.792103
72.830 17.337107
72.835 17.313742
72.840 17.348993
72.845 16.737305
72.850 16.661057
72.855 17.152277
72.860 16.779984
72.865 17.009741
72.870 17.342239
72.875 17.134279
72.880 17.43968
72.885 16.637484
72.890 16.450861
72.895 16.472002
72.900 16.387403
72.905 15.947286
72.910 16.235064
72.915 16.198627
72.920 17.022165
72.925 17.246262
72.930 16.514969
72.935 16.271887
72.940 16.711679
72.945 17.606375
72.950 17.881168
72.955 17.560854
72.960 17.54735
72.965 17.871571
72.970 17.735577
72.975 16.767431
72.980 16.153353
72.985 15.524276
72.990 15.327169
72.995 15.314408
73.000 15.540592
