!@!!GADDS PLOTSO FILE: Chi integration type
!@!!Title/SampleName: map-107
!@!!Comment: ?
!@!!User: Bruker Instrument Administrator
!@!!Site: University of Illinois Chicago
!@!!Frame: map-107_01_000.gfrm
!@!!Wavelengths    1.54184   1.54056   1.54439
!@!!Frame angles: 2Theta: 63.000 Omega: 50.000 Phi: 0.000 Chi: 90.000
!@!!Integration range: 2Theta: 53.000 to 73.000  Gamma: -105.000 to -75.000
!@!!Integration method: bin normalized
!@!N
!@!SS
!@!M
!@!L 0.0 0.0 0.0 0.0
!@!XDegrees
!@!YCounts
53.000 10.492559
53.005 10.899563
53.010 10.637738
53.015 10.485778
53.020 10.705383
53.025 10.454258
53.030 9.561881
53.035 8.887273
53.040 8.6911
53.045 9.211164
53.050 9.091537
53.055 9.152525
53.060 9.256616
53.065 9.707262
53.070 10.093072
53.075 10.13063
53.080 9.680252
53.085 9.466017
53.090 9.45108
53.095 9.372438
53.100 9.37881
53.105 9.205298
53.110 9.728318
53.115 10.375136
53.120 10.227604
53.125 10.005466
53.130 9.882306
53.135 9.57429
53.140 9.273736
53.145 8.958055
53.150 9.036153
53.155 9.189704
53.160 9.702024
53.165 10.017663
53.170 10.351707
53.175 10.287677
53.180 10.216185
53.185 10.42683
53.190 10.498779
53.195 10.515763
53.200 10.654528
53.205 10.336072
53.210 10.501861
53.215 10.150238
53.220 10.18025
53.225 10.570515
53.230 10.188996
53.235 9.920943
53.240 10.280781
53.245 10.406712
53.250 10.847205
53.255 10.677236
53.260 10.031769
53.265 9.918881
53.270 9.99674
53.275 9.387508
53.280 9.052328
53.285 8.546885
53.290 8.925422
53.295 9.026685
53.300 9.355069
53.305 9.833942
53.310 10.077941
53.315 9.933661
53.320 9.867905
53.325 9.936672
53.330 10.090594
53.335 10.101906
53.340 9.713763
53.345 9.546676
53.350 9.99323
53.355 10.207521
53.360 10.610652
53.365 10.809926
53.370 11.230353
53.375 11.788538
53.380 11.692265
53.385 11.361778
53.390 11.282714
53.395 11.037184
53.400 11.189195
53.405 11.162152
53.410 11.400456
53.415 11.504907
53.420 11.322906
53.425 10.900599
53.430 10.600617
53.435 9.87689
53.440 9.693404
53.445 9.930511
53.450 10.053399
53.455 10.280736
53.460 10.517891
53.465 10.934167
53.470 11.695799
53.475 11.645905
53.480 11.230326
53.485 11.129662
53.490 10.95073
53.495 10.983759
53.500 10.82071
53.505 10.121127
53.510 9.865554
53.515 10.112764
53.520 10.254193
53.525 10.214539
53.530 9.477379
53.535 9.622966
53.540 10.108529
53.545 10.40764
53.550 10.639412
53.555 10.870317
53.560 11.427069
53.565 11.289768
53.570 10.881485
53.575 10.399892
53.580 10.379088
53.585 10.530605
53.590 10.249393
53.595 10.53521
53.600 11.047815
53.605 11.867463
53.610 11.993579
53.615 11.498696
53.620 11.044499
53.625 10.931936
53.630 10.594076
53.635 10.401244
53.640 9.928444
53.645 10.082183
53.650 10.267886
53.655 10.585645
53.660 10.828199
53.665 10.970944
53.670 10.521499
53.675 10.042823
53.680 10.080299
53.685 10.850458
53.690 10.896259
53.695 10.560794
53.700 10.677644
53.705 10.720878
53.710 11.007164
53.715 10.669782
53.720 9.867791
53.725 10.065067
53.730 10.283442
53.735 10.238031
53.740 10.17194
53.745 9.927211
53.750 9.924026
53.755 9.892556
53.760 9.036982
53.765 8.958822
53.770 9.121113
53.775 9.31469
53.780 9.664315
53.785 9.886067
53.790 9.886116
53.795 10.406049
53.800 10.502215
53.805 10.565132
53.810 10.699
53.815 10.62955
53.820 10.488832
53.825 10.776818
53.830 10.902714
53.835 11.232478
53.840 11.196526
53.845 11.091466
53.850 11.151865
53.855 11.607546
53.860 11.852478
53.865 11.420097
53.870 10.828664
53.875 10.875039
53.880 11.057839
53.885 10.858603
53.890 10.414023
53.895 10.06778
53.900 10.19864
53.905 10.279404
53.910 10.359315
53.915 10.415005
53.920 10.181129
53.925 9.986718
53.930 10.200685
53.935 10.454833
53.940 10.248343
53.945 10.03204
53.950 10.040545
53.955 10.579512
53.960 10.338633
53.965 9.95255
53.970 9.971564
53.975 10.373132
53.980 10.758665
53.985 10.098859
53.990 10.219372
53.995 10.975016
54.000 11.142537
54.005 10.854737
54.010 10.662565
54.015 10.918166
54.020 10.981501
54.025 10.865353
54.030 10.798141
54.035 10.690506
54.040 10.63557
54.045 10.72549
54.050 10.761621
54.055 10.958134
54.060 10.915704
54.065 11.014505
54.070 11.139511
54.075 11.086668
54.080 11.302193
54.085 11.19195
54.090 10.855166
54.095 10.762095
54.100 10.946478
54.105 11.419274
54.110 11.187603
54.115 10.937653
54.120 11.184799
54.125 11.897004
54.130 12.012159
54.135 11.970252
54.140 12.029116
54.145 11.90646
54.150 11.438553
54.155 11.119468
54.160 10.918531
54.165 10.346078
54.170 10.417206
54.175 10.342949
54.180 10.404495
54.185 10.676094
54.190 10.566491
54.195 10.581824
54.200 11.38519
54.205 11.265333
54.210 11.761765
54.215 11.956429
54.220 12.116001
54.225 12.962466
54.230 12.866444
54.235 12.056779
54.240 12.138737
54.245 12.049083
54.250 11.981918
54.255 11.322504
54.260 10.413197
54.265 10.555426
54.270 10.713849
54.275 10.472249
54.280 10.768209
54.285 10.997656
54.290 11.72669
54.295 12.072146
54.300 11.820565
54.305 12.028758
54.310 11.979623
54.315 11.644959
54.320 11.355058
54.325 11.016223
54.330 10.782159
54.335 11.181993
54.340 11.268928
54.345 11.266823
54.350 11.359545
54.355 11.454232
54.360 11.26934
54.365 11.17468
54.370 10.537277
54.375 10.202938
54.380 10.468102
54.385 10.342224
54.390 10.300594
54.395 10.444617
54.400 10.790133
54.405 11.331815
54.410 11.42547
54.415 11.039516
54.420 10.81475
54.425 10.781232
54.430 10.897287
54.435 10.873902
54.440 11.050732
54.445 11.399231
54.450 12.452954
54.455 13.364993
54.460 13.268023
54.465 13.260503
54.470 12.777655
54.475 12.330157
54.480 11.848167
54.485 10.971075
54.490 10.184967
54.495 10.21411
54.500 10.419829
54.505 10.78752
54.510 11.187257
54.515 11.23036
54.520 11.415245
54.525 11.799417
54.530 11.840379
54.535 11.638329
54.540 11.38868
54.545 11.142842
54.550 11.149955
54.555 11.584126
54.560 11.921062
54.565 11.894534
54.570 12.107704
54.575 12.152283
54.580 12.189254
54.585 12.117174
54.590 11.866335
54.595 11.793686
54.600 11.609322
54.605 11.315779
54.610 11.187075
54.615 11.116817
54.620 11.491835
54.625 11.681094
54.630 11.419394
54.635 11.655696
54.640 11.921491
54.645 12.07331
54.650 12.412873
54.655 12.199743
54.660 12.287179
54.665 12.69629
54.670 12.806481
54.675 12.804228
54.680 12.650072
54.685 12.31113
54.690 12.173103
54.695 12.249605
54.700 12.276702
54.705 12.075316
54.710 12.498439
54.715 12.623636
54.720 12.65572
54.725 12.64785
54.730 11.966249
54.735 11.988209
54.740 12.120728
54.745 11.781537
54.750 12.039368
54.755 11.736094
54.760 12.207418
54.765 12.46231
54.770 12.663401
54.775 13.019322
54.780 13.126517
54.785 13.032702
54.790 13.355812
54.795 13.458719
54.800 13.304409
54.805 13.074962
54.810 12.812741
54.815 13.053855
54.820 12.886605
54.825 12.858593
54.830 12.429222
54.835 12.3138
54.840 12.037692
54.845 12.087137
54.850 11.757169
54.855 11.484853
54.860 10.84023
54.865 11.028477
54.870 11.478952
54.875 11.544118
54.880 11.969299
54.885 12.593302
54.890 12.653437
54.895 12.539423
54.900 12.405706
54.905 12.568569
54.910 12.854478
54.915 12.36752
54.920 12.253723
54.925 12.575568
54.930 13.009366
54.935 13.082644
54.940 13.074382
54.945 12.873897
54.950 13.050311
54.955 12.863021
54.960 13.00933
54.965 12.916457
54.970 12.766932
54.975 12.245306
54.980 11.808765
54.985 11.602445
54.990 11.662631
54.995 11.624511
55.000 11.870496
55.005 12.158607
55.010 12.868917
55.015 13.570322
55.020 13.64666
55.025 13.510171
55.030 13.720434
55.035 13.702757
55.040 13.556492
55.045 13.245045
55.050 13.099237
55.055 13.176562
55.060 13.454134
55.065 13.105488
55.070 13.220973
55.075 13.497477
55.080 13.860052
55.085 13.250798
55.090 13.268771
55.095 13.056036
55.100 13.036792
55.105 12.801611
55.110 12.705269
55.115 12.851776
55.120 13.329144
55.125 13.414845
55.130 13.107761
55.135 13.399136
55.140 13.439416
55.145 13.416937
55.150 13.054332
55.155 12.988916
55.160 13.046146
55.165 13.396973
55.170 13.045147
55.175 12.52782
55.180 12.494183
55.185 13.024519
55.190 13.972039
55.195 13.855338
55.200 13.930632
55.205 14.005276
55.210 13.738874
55.215 13.508655
55.220 12.699296
55.225 11.700279
55.230 12.429481
55.235 12.716271
55.240 13.197492
55.245 13.302751
55.250 12.979752
55.255 13.086417
55.260 13.102172
55.265 12.116
55.270 11.692844
55.275 11.378643
55.280 11.381989
55.285 11.792481
55.290 11.904928
55.295 12.027263
55.300 12.058372
55.305 12.193807
55.310 12.279215
55.315 12.171175
55.320 11.988931
55.325 11.792214
55.330 11.769145
55.335 12.307924
55.340 12.181886
55.345 12.335648
55.350 12.536015
55.355 12.57373
55.360 12.824649
55.365 12.698433
55.370 12.713711
55.375 12.603477
55.380 12.321839
55.385 12.424905
55.390 12.566061
55.395 12.678444
55.400 12.388194
55.405 11.668521
55.410 11.705088
55.415 11.791491
55.420 11.920691
55.425 11.948582
55.430 11.986895
55.435 12.338801
55.440 12.725847
55.445 12.888752
55.450 12.819963
55.455 12.823409
55.460 12.81
55.465 12.275165
55.470 12.025423
55.475 12.005008
55.480 12.75559
55.485 13.031058
55.490 12.799092
55.495 13.257606
55.500 13.755221
55.505 13.97374
55.510 14.061703
55.515 13.741792
55.520 13.702691
55.525 13.697121
55.530 13.174656
55.535 12.611655
55.540 12.580371
55.545 12.374638
55.550 12.371931
55.555 12.773711
55.560 12.98935
55.565 13.444041
55.570 13.97254
55.575 13.962619
55.580 13.459829
55.585 13.883757
55.590 14.011144
55.595 13.765172
55.600 13.802008
55.605 14.191967
55.610 14.611595
55.615 14.635068
55.620 14.301758
55.625 13.701324
55.630 13.610299
55.635 13.14571
55.640 12.76629
55.645 12.271955
55.650 12.302608
55.655 11.988471
55.660 12.395544
55.665 12.594425
55.670 12.704678
55.675 12.918103
55.680 13.01235
55.685 12.97686
55.690 13.461337
55.695 13.281957
55.700 12.880902
55.705 12.992324
55.710 12.664905
55.715 12.916586
55.720 13.179038
55.725 12.78177
55.730 12.749557
55.735 12.351955
55.740 12.072453
55.745 11.959896
55.750 11.755081
55.755 11.39268
55.760 11.478055
55.765 11.959949
55.770 12.289946
55.775 12.463912
55.780 12.725256
55.785 12.459291
55.790 12.351012
55.795 12.780557
55.800 12.693161
55.805 12.976019
55.810 13.426722
55.815 14.166299
55.820 14.773451
55.825 14.449436
55.830 13.943379
55.835 13.859413
55.840 13.871004
55.845 13.259574
55.850 12.159989
55.855 12.328808
55.860 12.672765
55.865 13.029669
55.870 13.499537
55.875 14.058194
55.880 14.38815
55.885 14.535256
55.890 14.323717
55.895 14.013491
55.900 13.914895
55.905 13.616311
55.910 13.286275
55.915 13.081912
55.920 13.093943
55.925 12.822481
55.930 13.136061
55.935 13.081989
55.940 13.148787
55.945 13.53715
55.950 13.750589
55.955 13.716472
55.960 13.86614
55.965 13.72824
55.970 13.235999
55.975 12.789018
55.980 12.136885
55.985 12.140804
55.990 12.406152
55.995 12.835098
56.000 13.234604
56.005 13.811532
56.010 14.090487
56.015 13.910919
56.020 14.066673
56.025 13.715636
56.030 13.565395
56.035 13.124602
56.040 12.592543
56.045 12.492082
56.050 12.715906
56.055 12.781607
56.060 12.952763
56.065 13.26806
56.070 13.2953
56.075 12.978122
56.080 12.624874
56.085 12.587793
56.090 12.468831
56.095 12.098736
56.100 11.83269
56.105 12.14198
56.110 12.736677
56.115 12.910753
56.120 12.84143
56.125 13.01848
56.130 12.912728
56.135 12.888375
56.140 13.370386
56.145 13.948231
56.150 14.342525
56.155 14.683117
56.160 14.351635
56.165 14.207568
56.170 13.698537
56.175 13.282253
56.180 12.807374
56.185 13.106656
56.190 13.208392
56.195 13.385407
56.200 13.885055
56.205 14.215722
56.210 14.259419
56.215 14.338317
56.220 14.174515
56.225 14.493804
56.230 14.912676
56.235 14.950471
56.240 14.855273
56.245 14.993982
56.250 15.232167
56.255 15.242848
56.260 14.68693
56.265 14.651641
56.270 14.540152
56.275 14.491429
56.280 14.285172
56.285 14.03824
56.290 14.248582
56.295 14.798164
56.300 14.674222
56.305 14.582419
56.310 14.694689
56.315 14.807174
56.320 14.705575
56.325 14.29081
56.330 13.695506
56.335 13.41143
56.340 13.626752
56.345 13.499629
56.350 13.748688
56.355 14.365892
56.360 14.381598
56.365 14.862414
56.370 15.052594
56.375 15.18926
56.380 15.64618
56.385 15.072322
56.390 14.270154
56.395 14.071013
56.400 14.429706
56.405 14.006174
56.410 13.351257
56.415 12.660455
56.420 12.300731
56.425 12.639275
56.430 12.600312
56.435 11.937169
56.440 12.00139
56.445 12.124195
56.450 12.025421
56.455 11.988083
56.460 12.503207
56.465 12.799419
56.470 12.937701
56.475 12.925121
56.480 12.935346
56.485 13.416089
56.490 13.745409
56.495 13.855374
56.500 14.511626
56.505 15.021508
56.510 15.483626
56.515 15.144769
56.520 15.009962
56.525 14.877835
56.530 14.310132
56.535 14.0061
56.540 13.287066
56.545 13.57033
56.550 14.23456
56.555 14.552598
56.560 14.700726
56.565 14.508628
56.570 14.290147
56.575 14.436592
56.580 14.28302
56.585 13.898548
56.590 13.772828
56.595 13.383897
56.600 13.113149
56.605 12.921297
56.610 13.637794
56.615 13.995104
56.620 14.364085
56.625 14.2102
56.630 14.3282
56.635 14.472041
56.640 14.62898
56.645 13.778243
56.650 13.326062
56.655 13.315276
56.660 12.887609
56.665 12.927239
56.670 13.351972
56.675 13.648297
56.680 13.74966
56.685 13.924142
56.690 14.069306
56.695 14.170165
56.700 14.140906
56.705 13.925674
56.710 13.836587
56.715 13.643502
56.720 13.84845
56.725 14.04137
56.730 14.355865
56.735 14.211653
56.740 14.179182
56.745 14.366544
56.750 14.394771
56.755 14.129489
56.760 14.090215
56.765 14.099272
56.770 14.899458
56.775 14.674472
56.780 14.779688
56.785 14.673427
56.790 14.575077
56.795 14.580891
56.800 14.442013
56.805 14.520534
56.810 14.588283
56.815 14.580868
56.820 14.423538
56.825 13.888608
56.830 13.956131
56.835 13.899067
56.840 12.878577
56.845 12.563373
56.850 12.772394
56.855 13.174026
56.860 13.948442
56.865 14.164824
56.870 14.688106
56.875 15.436228
56.880 15.727215
56.885 15.350465
56.890 15.10277
56.895 14.797247
56.900 14.766114
56.905 14.279126
56.910 14.362186
56.915 14.614975
56.920 14.87693
56.925 15.640003
56.930 16.285439
56.935 16.294764
56.940 16.233023
56.945 16.111681
56.950 15.649493
56.955 15.686784
56.960 15.387235
56.965 14.893364
56.970 14.773147
56.975 14.573627
56.980 14.302344
56.985 14.60345
56.990 14.259201
56.995 14.334866
57.000 14.69369
57.005 15.118905
57.010 15.333326
57.015 15.74217
57.020 15.866449
57.025 15.721324
57.030 15.503306
57.035 14.944434
57.040 14.685608
57.045 14.543745
57.050 14.742565
57.055 14.516418
57.060 14.395656
57.065 14.033797
57.070 13.857395
57.075 13.662987
57.080 13.849358
57.085 13.555816
57.090 13.9627
57.095 13.913265
57.100 14.002924
57.105 14.455757
57.110 14.833144
57.115 14.999313
57.120 14.899047
57.125 14.594516
57.130 14.489884
57.135 14.778364
57.140 14.489294
57.145 13.808155
57.150 13.308243
57.155 13.291688
57.160 13.878901
57.165 14.130668
57.170 13.808979
57.175 13.782914
57.180 13.968386
57.185 14.003179
57.190 14.488002
57.195 13.881138
57.200 14.0095
57.205 14.292584
57.210 14.724276
57.215 14.669006
57.220 14.80308
57.225 14.379149
57.230 14.412502
57.235 14.276827
57.240 13.798736
57.245 13.773033
57.250 14.302208
57.255 14.057365
57.260 14.43099
57.265 14.931508
57.270 15.055908
57.275 15.255795
57.280 15.129033
57.285 14.864547
57.290 14.746696
57.295 14.824417
57.300 14.850056
57.305 15.149561
57.310 15.157498
57.315 15.203069
57.320 15.475668
57.325 15.45489
57.330 14.958213
57.335 14.444324
57.340 14.174839
57.345 14.18208
57.350 13.868603
57.355 14.302074
57.360 14.46702
57.365 14.33578
57.370 14.40645
57.375 14.214335
57.380 14.42151
57.385 14.622685
57.390 14.5025
57.395 14.321834
57.400 14.841748
57.405 14.671074
57.410 14.375504
57.415 14.495417
57.420 14.25072
57.425 13.82655
57.430 13.931034
57.435 13.533503
57.440 13.725983
57.445 14.084069
57.450 13.981647
57.455 13.881216
57.460 14.678987
57.465 14.606054
57.470 14.925558
57.475 15.128266
57.480 15.156453
57.485 15.161592
57.490 15.079124
57.495 14.732762
57.500 14.743365
57.505 14.699939
57.510 14.476731
57.515 14.446208
57.520 14.391129
57.525 13.903289
57.530 13.521352
57.535 13.655717
57.540 13.305129
57.545 13.267169
57.550 13.191855
57.555 13.063454
57.560 13.362561
57.565 13.583905
57.570 13.864505
57.575 14.432706
57.580 14.566916
57.585 14.469615
57.590 14.505828
57.595 14.960985
57.600 14.846011
57.605 14.659079
57.610 14.620308
57.615 14.560158
57.620 14.720436
57.625 14.586201
57.630 14.100918
57.635 14.032681
57.640 14.061138
57.645 13.979878
57.650 14.249596
57.655 14.322351
57.660 15.100586
57.665 16.00108
57.670 16.102808
57.675 15.794847
57.680 15.563168
57.685 15.675629
57.690 15.849833
57.695 15.875416
57.700 15.752748
57.705 16.709002
57.710 16.84429
57.715 16.96097
57.720 16.971956
57.725 17.047138
57.730 16.221582
57.735 15.89545
57.740 15.962123
57.745 15.980067
57.750 15.839749
57.755 15.650455
57.760 15.743062
57.765 16.536341
57.770 16.015944
57.775 15.350626
57.780 15.711808
57.785 16.350264
57.790 16.078838
57.795 16.275743
57.800 16.501728
57.805 16.180395
57.810 16.19706
57.815 15.980927
57.820 15.965061
57.825 15.930781
57.830 15.531662
57.835 15.079068
57.840 15.723575
57.845 15.782053
57.850 16.04533
57.855 15.991414
57.860 16.553207
57.865 16.650965
57.870 16.504923
57.875 16.266411
57.880 16.28297
57.885 16.176113
57.890 15.640982
57.895 15.054846
57.900 14.908705
57.905 14.88903
57.910 14.914809
57.915 14.510252
57.920 14.194869
57.925 14.102036
57.930 14.180101
57.935 13.986692
57.940 14.552052
57.945 14.48749
57.950 14.354771
57.955 14.290708
57.960 14.317637
57.965 14.553129
57.970 14.409738
57.975 14.224451
57.980 14.741223
57.985 15.25814
57.990 15.50596
57.995 15.385962
58.000 15.445114
58.005 15.828894
58.010 16.001631
58.015 15.6188
58.020 15.083186
58.025 14.961042
58.030 15.198149
58.035 15.015261
58.040 14.815307
58.045 14.434623
58.050 14.664883
58.055 15.52753
58.060 16.078156
58.065 16.25012
58.070 16.073101
58.075 15.825009
58.080 16.263716
58.085 16.103161
58.090 15.679338
58.095 15.602462
58.100 15.560323
58.105 15.511454
58.110 15.800955
58.115 15.311637
58.120 14.943659
58.125 14.920527
58.130 15.029983
58.135 15.119819
58.140 15.314417
58.145 15.110093
58.150 15.437128
58.155 15.496536
58.160 15.092378
58.165 14.684576
58.170 14.337077
58.175 14.010425
58.180 14.074314
58.185 14.155796
58.190 14.41305
58.195 14.526797
58.200 14.590877
58.205 14.406057
58.210 14.804074
58.215 14.800975
58.220 14.875674
58.225 15.317374
58.230 15.630141
58.235 16.081861
58.240 16.551792
58.245 16.120968
58.250 15.926195
58.255 16.046555
58.260 15.936288
58.265 16.12295
58.270 16.380589
58.275 16.478556
58.280 16.79265
58.285 16.955774
58.290 16.95331
58.295 17.203121
58.300 16.761084
58.305 16.956438
58.310 17.266987
58.315 17.520761
58.320 17.580153
58.325 17.343643
58.330 17.011087
58.335 16.962328
58.340 16.811047
58.345 16.697666
58.350 16.952913
58.355 17.238297
58.360 17.219831
58.365 16.914846
58.370 17.173273
58.375 16.903265
58.380 16.397705
58.385 16.247904
58.390 15.912321
58.395 15.658922
58.400 16.157364
58.405 15.62132
58.410 15.343025
58.415 15.263236
58.420 15.317857
58.425 15.63131
58.430 15.914956
58.435 15.44873
58.440 15.178017
58.445 15.636343
58.450 15.456384
58.455 14.992237
58.460 14.410579
58.465 14.142125
58.470 14.767015
58.475 14.675395
58.480 14.283435
58.485 14.974746
58.490 15.729803
58.495 16.597862
58.500 16.565083
58.505 16.824598
58.510 17.631859
58.515 17.97661
58.520 18.107712
58.525 17.991415
58.530 17.406296
58.535 17.472679
58.540 17.408432
58.545 17.372869
58.550 17.61791
58.555 16.984842
58.560 16.366415
58.565 16.528109
58.570 16.522928
58.575 16.528763
58.580 16.570093
58.585 15.7297
58.590 16.445724
58.595 17.324568
58.600 17.351236
58.605 17.413652
58.610 17.155045
58.615 17.242712
58.620 17.592606
58.625 17.179897
58.630 16.719625
58.635 17.514482
58.640 18.214233
58.645 17.930546
58.650 17.658991
58.655 17.467634
58.660 17.646044
58.665 17.442623
58.670 16.68074
58.675 16.445063
58.680 16.705551
58.685 16.822783
58.690 16.988041
58.695 17.232296
58.700 17.296835
58.705 17.381613
58.710 17.151186
58.715 17.207415
58.720 17.181217
58.725 17.06118
58.730 17.01808
58.735 17.015791
58.740 17.376331
58.745 17.274527
58.750 16.899488
58.755 16.993835
58.760 17.29092
58.765 16.935776
58.770 16.976004
58.775 16.211424
58.780 15.991234
58.785 16.252689
58.790 16.296467
58.795 16.012632
58.800 16.338612
58.805 16.415298
58.810 16.685188
58.815 17.313522
58.820 17.658319
58.825 17.7276
58.830 17.694464
58.835 16.949667
58.840 16.696949
58.845 16.400129
58.850 15.895102
58.855 15.997396
58.860 15.799635
58.865 15.566813
58.870 16.022573
58.875 16.046368
58.880 15.85308
58.885 15.418207
58.890 15.259005
58.895 15.516013
58.900 15.553576
58.905 15.51272
58.910 15.766619
58.915 15.936506
58.920 16.108324
58.925 15.971528
58.930 15.64805
58.935 15.94171
58.940 16.117172
58.945 16.381954
58.950 16.454308
58.955 16.177454
58.960 15.765758
58.965 16.026741
58.970 15.86233
58.975 15.390426
58.980 15.334629
58.985 15.367739
58.990 15.72933
58.995 15.69562
59.000 15.740044
59.005 16.168476
59.010 17.190407
59.015 17.088081
59.020 17.069313
59.025 17.727472
59.030 18.686533
59.035 18.628872
59.040 18.561255
59.045 18.337654
59.050 18.701084
59.055 18.378796
59.060 17.798346
59.065 17.555189
59.070 17.743269
59.075 17.656179
59.080 17.628159
59.085 17.501965
59.090 18.105566
59.095 18.264818
59.100 18.110638
59.105 18.274687
59.110 18.532198
59.115 18.372295
59.120 18.16501
59.125 17.876759
59.130 17.655775
59.135 17.156532
59.140 17.163929
59.145 16.262527
59.150 16.202648
59.155 16.219744
59.160 16.538761
59.165 16.570637
59.170 16.695265
59.175 16.85487
59.180 17.567482
59.185 18.11698
59.190 18.07593
59.195 17.618336
59.200 17.746614
59.205 17.866125
59.210 17.293478
59.215 16.919682
59.220 16.49308
59.225 15.757464
59.230 15.711978
59.235 15.718423
59.240 16.029831
59.245 16.376772
59.250 16.686693
59.255 16.515453
59.260 17.083229
59.265 17.18292
59.270 16.734007
59.275 16.26247
59.280 15.926386
59.285 15.668237
59.290 15.98155
59.295 16.723347
59.300 17.114561
59.305 17.483784
59.310 17.681465
59.315 18.110697
59.320 17.935261
59.325 18.02914
59.330 18.18737
59.335 18.191839
59.340 17.723448
59.345 17.19216
59.350 17.055874
59.355 17.68482
59.360 17.799437
59.365 17.667229
59.370 17.942917
59.375 18.042665
59.380 18.296989
59.385 18.30271
59.390 19.266319
59.395 19.336601
59.400 19.072636
59.405 18.48979
59.410 18.452497
59.415 18.63233
59.420 18.412594
59.425 17.770922
59.430 17.481651
59.435 17.29266
59.440 18.160122
59.445 19.188326
59.450 19.173447
59.455 18.828634
59.460 18.175907
59.465 17.881618
59.470 17.663639
59.475 17.172779
59.480 16.332022
59.485 16.746675
59.490 17.295658
59.495 16.969486
59.500 17.199059
59.505 17.373371
59.510 17.210434
59.515 17.521553
59.520 16.947819
59.525 16.934128
59.530 17.539476
59.535 17.807236
59.540 17.953037
59.545 18.651726
59.550 19.034361
59.555 19.389496
59.560 19.967001
59.565 20.02767
59.570 20.038475
59.575 19.882154
59.580 19.876165
59.585 19.853693
59.590 20.185532
59.595 19.94993
59.600 19.791054
59.605 19.780954
59.610 20.162361
59.615 20.218885
59.620 20.039701
59.625 19.650379
59.630 20.067883
59.635 20.370157
59.640 21.420584
59.645 21.280489
59.650 21.318598
59.655 21.311705
59.660 21.445292
59.665 21.192648
59.670 21.172295
59.675 20.824512
59.680 21.342443
59.685 21.54512
59.690 21.890713
59.695 22.082094
59.700 22.529411
59.705 22.08654
59.710 21.7577
59.715 21.585159
59.720 21.53064
59.725 21.405115
59.730 21.097305
59.735 20.695877
59.740 20.871073
59.745 21.030119
59.750 20.990694
59.755 20.622118
59.760 20.537151
59.765 20.393522
59.770 20.386856
59.775 20.95764
59.780 20.988781
59.785 20.303925
59.790 20.181465
59.795 20.246437
59.800 20.457941
59.805 20.134842
59.810 19.645676
59.815 19.675594
59.820 20.384321
59.825 20.823416
59.830 20.691437
59.835 20.798203
59.840 21.666277
59.845 21.862986
59.850 21.830652
59.855 22.071814
59.860 22.113102
59.865 22.633799
59.870 23.027491
59.875 22.421337
59.880 22.323717
59.885 22.183058
59.890 22.262245
59.895 22.374008
59.900 22.267118
59.905 22.041824
59.910 21.764801
59.915 21.592426
59.920 21.386395
59.925 21.433943
59.930 21.132177
59.935 20.653061
59.940 21.042471
59.945 21.973309
59.950 22.706379
59.955 22.952921
59.960 22.495552
59.965 23.004221
59.970 22.910334
59.975 22.014629
59.980 21.398256
59.985 21.734833
59.990 22.001417
59.995 22.260992
60.000 22.30052
60.005 22.659647
60.010 23.465284
60.015 23.735325
60.020 22.794392
60.025 22.703817
60.030 22.535568
60.035 22.243174
60.040 22.331131
60.045 22.650581
60.050 23.057507
60.055 23.322279
60.060 23.788433
60.065 24.119757
60.070 24.154881
60.075 24.237759
60.080 24.032869
60.085 24.55673
60.090 24.726662
60.095 24.543276
60.100 24.628679
60.105 24.710451
60.110 25.102869
60.115 24.714186
60.120 24.069839
60.125 23.595881
60.130 22.934509
60.135 22.658298
60.140 22.117321
60.145 21.716038
60.150 22.166407
60.155 23.089693
60.160 23.586075
60.165 23.875742
60.170 24.049793
60.175 24.136255
60.180 23.793003
60.185 23.389063
60.190 22.971838
60.195 22.722582
60.200 22.793333
60.205 22.916731
60.210 23.015118
60.215 23.186136
60.220 22.958324
60.225 22.456631
60.230 22.73925
60.235 23.373634
60.240 23.631779
60.245 24.239368
60.250 24.586905
60.255 23.890896
60.260 23.849386
60.265 23.515369
60.270 22.707346
60.275 22.222092
60.280 21.636549
60.285 20.997002
60.290 22.123882
60.295 22.220371
60.300 22.086538
60.305 21.659803
60.310 21.612213
60.315 22.239037
60.320 22.34561
60.325 21.671944
60.330 21.474449
60.335 21.446489
60.340 22.223148
60.345 21.847559
60.350 21.388197
60.355 21.654295
60.360 21.911989
60.365 21.795216
60.370 21.793243
60.375 21.61109
60.380 22.218643
60.385 22.199841
60.390 21.985365
60.395 22.006516
60.400 21.923986
60.405 21.816853
60.410 21.16894
60.415 20.817032
60.420 20.829971
60.425 20.464138
60.430 20.613234
60.435 20.317701
60.440 20.183788
60.445 20.755909
60.450 20.610144
60.455 20.495256
60.460 20.347061
60.465 19.656887
60.470 20.441669
60.475 21.338968
60.480 21.348162
60.485 21.376362
60.490 21.438133
60.495 22.049828
60.500 22.431072
60.505 22.098818
60.510 21.61701
60.515 20.81498
60.520 20.482693
60.525 20.58112
60.530 20.145248
60.535 19.495871
60.540 19.184996
60.545 19.035749
60.550 19.871538
60.555 20.707848
60.560 20.920055
60.565 20.975849
60.570 21.030861
60.575 20.679869
60.580 20.224133
60.585 20.002329
60.590 19.657257
60.595 19.638712
60.600 19.686758
60.605 20.312115
60.610 20.462755
60.615 20.729931
60.620 19.877356
60.625 19.749723
60.630 19.180403
60.635 19.034727
60.640 18.872782
60.645 19.643736
60.650 20.184803
60.655 20.52577
60.660 20.706968
60.665 21.062538
60.670 21.063332
60.675 20.622824
60.680 19.618387
60.685 18.838818
60.690 18.950682
60.695 18.707949
60.700 18.214409
60.705 17.948942
60.710 18.411615
60.715 18.905449
60.720 19.449446
60.725 19.447243
60.730 19.059479
60.735 19.247295
60.740 19.054565
60.745 18.829582
60.750 18.93187
60.755 18.552681
60.760 19.105024
60.765 19.451408
60.770 19.521578
60.775 19.812378
60.780 19.892355
60.785 19.867683
60.790 19.411898
60.795 18.782612
60.800 18.89809
60.805 19.402534
60.810 19.705862
60.815 18.957687
60.820 18.814337
60.825 19.618191
60.830 19.844046
60.835 19.694567
60.840 19.299463
60.845 18.710695
60.850 19.073946
60.855 19.617542
60.860 19.165798
60.865 18.817373
60.870 18.220774
60.875 18.149961
60.880 18.632046
60.885 18.653866
60.890 18.561316
60.895 18.916004
60.900 19.027117
60.905 19.500868
60.910 19.778471
60.915 20.105547
60.920 19.851688
60.925 19.522726
60.930 19.708647
60.935 20.102188
60.940 19.943935
60.945 19.494862
60.950 18.868946
60.955 18.690008
60.960 19.104666
60.965 18.992449
60.970 18.658165
60.975 18.131598
60.980 18.590361
60.985 19.479919
60.990 19.743509
60.995 18.859167
61.000 18.981325
61.005 19.037767
61.010 19.31703
61.015 19.13479
61.020 18.509989
61.025 18.382227
61.030 18.29954
61.035 17.886587
61.040 18.085255
61.045 17.898499
61.050 17.591307
61.055 16.669744
61.060 16.377335
61.065 16.474594
61.070 16.366211
61.075 16.179213
61.080 16.403934
61.085 16.558908
61.090 17.545403
61.095 18.218008
61.100 18.589636
61.105 18.429081
61.110 18.517551
61.115 18.265663
61.120 17.761065
61.125 16.848734
61.130 16.551634
61.135 16.832619
61.140 17.116228
61.145 17.077381
61.150 17.089514
61.155 17.661184
61.160 17.869923
61.165 17.854771
61.170 17.737064
61.175 18.107105
61.180 18.685255
61.185 19.133718
61.190 19.813679
61.195 20.399206
61.200 20.2108
61.205 20.106558
61.210 20.007725
61.215 19.590754
61.220 19.078911
61.225 18.563623
61.230 17.807833
61.235 17.757927
61.240 17.135675
61.245 17.266384
61.250 17.120394
61.255 17.393089
61.260 17.149502
61.265 17.421103
61.270 17.472147
61.275 17.410023
61.280 17.29402
61.285 17.430077
61.290 17.278889
61.295 17.290152
61.300 17.466047
61.305 17.63588
61.310 17.911165
61.315 18.015181
61.320 18.084703
61.325 18.332029
61.330 18.460861
61.335 17.863829
61.340 17.488091
61.345 17.257818
61.350 17.361423
61.355 17.292015
61.360 17.19681
61.365 17.173998
61.370 17.322908
61.375 17.715071
61.380 17.562515
61.385 17.148344
61.390 16.889839
61.395 16.565266
61.400 16.627941
61.405 16.620279
61.410 16.240282
61.415 16.267406
61.420 16.562927
61.425 17.18261
61.430 17.462482
61.435 17.748474
61.440 18.379858
61.445 18.961538
61.450 18.750937
61.455 18.736694
61.460 17.690487
61.465 17.052103
61.470 17.152061
61.475 16.865643
61.480 16.238319
61.485 16.003601
61.490 16.060452
61.495 16.764917
61.500 17.714851
61.505 17.865311
61.510 17.396978
61.515 17.490929
61.520 17.684771
61.525 17.459908
61.530 17.170061
61.535 16.942856
61.540 16.595726
61.545 17.384129
61.550 17.816261
61.555 18.280039
61.560 18.468403
61.565 18.159395
61.570 17.697382
61.575 17.466272
61.580 17.248728
61.585 17.374445
61.590 16.780836
61.595 16.469398
61.600 16.635653
61.605 16.996267
61.610 17.033995
61.615 16.96826
61.620 16.578098
61.625 16.718443
61.630 16.901854
61.635 17.054073
61.640 17.012457
61.645 17.418499
61.650 17.510851
61.655 17.742964
61.660 18.270191
61.665 18.473829
61.670 18.19771
61.675 18.180634
61.680 17.992908
61.685 18.081356
61.690 18.438959
61.695 18.007284
61.700 18.496464
61.705 18.700377
61.710 18.580374
61.715 18.755859
61.720 18.766388
61.725 18.33823
61.730 18.327599
61.735 18.2712
61.740 18.711136
61.745 19.200258
61.750 18.416172
61.755 17.939157
61.760 17.858685
61.765 17.785019
61.770 17.399754
61.775 17.399929
61.780 17.343651
61.785 17.355824
61.790 17.864136
61.795 18.27932
61.800 18.19952
61.805 18.071993
61.810 17.683996
61.815 17.792725
61.820 19.043749
61.825 19.455421
61.830 19.188993
61.835 19.261787
61.840 19.086046
61.845 19.218731
61.850 19.13607
61.855 18.008396
61.860 17.587662
61.865 18.141417
61.870 18.976982
61.875 19.402956
61.880 19.862572
61.885 20.056887
61.890 21.14566
61.895 21.255064
61.900 20.865028
61.905 20.109514
61.910 20.041451
61.915 19.338257
61.920 18.712648
61.925 17.318371
61.930 16.535004
61.935 16.498829
61.940 16.353302
61.945 16.407907
61.950 16.594376
61.955 16.668652
61.960 17.471704
61.965 17.843351
61.970 17.549637
61.975 17.862057
61.980 17.310587
61.985 17.172884
61.990 17.689123
61.995 16.606203
62.000 15.979742
62.005 15.87682
62.010 15.839385
62.015 16.024534
62.020 15.549731
62.025 15.184868
62.030 16.499929
62.035 17.124475
62.040 17.569775
62.045 17.377497
62.050 17.831491
62.055 18.090126
62.060 18.371597
62.065 17.659193
62.070 17.903261
62.075 18.212816
62.080 18.394329
62.085 18.146261
62.090 18.058283
62.095 17.466049
62.100 17.160189
62.105 16.681831
62.110 16.152199
62.115 15.986372
62.120 15.852165
62.125 16.380936
62.130 17.239508
62.135 18.170698
62.140 18.009584
62.145 18.567471
62.150 18.455496
62.155 18.955221
62.160 18.342403
62.165 18.225246
62.170 18.79656
62.175 19.156981
62.180 18.854811
62.185 19.529356
62.190 19.216291
62.195 18.863762
62.200 18.954092
62.205 18.567833
62.210 18.585598
62.215 18.436686
62.220 17.825857
62.225 17.815474
62.230 17.687634
62.235 16.674459
62.240 16.155468
62.245 16.395367
62.250 16.540804
62.255 16.915901
62.260 17.319979
62.265 17.646824
62.270 17.556421
62.275 17.531149
62.280 17.537558
62.285 17.391537
62.290 17.473759
62.295 17.386164
62.300 17.438869
62.305 17.962528
62.310 17.920835
62.315 17.498434
62.320 17.437622
62.325 17.285128
62.330 17.127453
62.335 16.837698
62.340 16.932264
62.345 16.666018
62.350 16.436733
62.355 16.788139
62.360 16.847319
62.365 17.098858
62.370 17.501886
62.375 17.427299
62.380 17.985275
62.385 18.260561
62.390 17.778379
62.395 17.788122
62.400 18.101343
62.405 18.552372
62.410 19.398222
62.415 19.667124
62.420 19.644123
62.425 19.779652
62.430 19.538443
62.435 19.47352
62.440 19.273123
62.445 18.222193
62.450 17.45994
62.455 17.733494
62.460 17.809151
62.465 17.921261
62.470 17.674253
62.475 17.942842
62.480 18.903439
62.485 19.115976
62.490 18.692068
62.495 19.045593
62.500 19.284813
62.505 18.896595
62.510 18.198225
62.515 17.794563
62.520 18.28528
62.525 18.977678
62.530 18.780672
62.535 18.708202
62.540 19.12569
62.545 19.372108
62.550 19.505955
62.555 19.251146
62.560 18.838728
62.565 18.63139
62.570 18.291943
62.575 17.967615
62.580 17.613781
62.585 17.190239
62.590 16.962545
62.595 17.250505
62.600 17.628508
62.605 17.611633
62.610 17.648138
62.615 18.076094
62.620 18.601801
62.625 18.662619
62.630 17.863882
62.635 17.504822
62.640 18.209448
62.645 18.575157
62.650 18.325497
62.655 17.827835
62.660 17.694849
62.665 17.403578
62.670 17.460688
62.675 17.550482
62.680 17.531656
62.685 17.690525
62.690 17.569328
62.695 17.670467
62.700 18.197304
62.705 18.173716
62.710 18.127882
62.715 18.228043
62.720 18.080004
62.725 18.482615
62.730 19.555893
62.735 19.797392
62.740 19.972532
62.745 19.728323
62.750 19.500948
62.755 19.679466
62.760 19.284904
62.765 18.260704
62.770 17.51272
62.775 16.982929
62.780 16.467722
62.785 16.261934
62.790 16.592308
62.795 17.103661
62.800 17.254818
62.805 17.983135
62.810 18.006485
62.815 18.32016
62.820 19.013657
62.825 18.25808
62.830 17.83359
62.835 17.412998
62.840 17.455643
62.845 17.832533
62.850 17.871426
62.855 17.516205
62.860 17.596699
62.865 17.346754
62.870 17.755312
62.875 17.21368
62.880 16.716591
62.885 16.722166
62.890 16.481239
62.895 16.603447
62.900 17.060884
62.905 16.962585
62.910 16.96657
62.915 16.943567
62.920 16.760443
62.925 16.873989
62.930 16.476465
62.935 16.328333
62.940 16.493444
62.945 17.012157
62.950 17.049412
62.955 17.140049
62.960 17.087393
62.965 17.811398
62.970 18.486322
62.975 19.261648
62.980 19.299795
62.985 19.291227
62.990 19.887417
62.995 20.278572
63.000 19.900253
63.005 19.223093
63.010 18.472223
63.015 18.030491
63.020 18.089033
63.025 18.062654
63.030 18.112961
63.035 18.45236
63.040 18.642763
63.045 18.85717
63.050 19.411554
63.055 18.988657
63.060 18.624275
63.065 18.475815
63.070 18.142229
63.075 17.486513
63.080 17.268438
63.085 16.954306
63.090 17.050066
63.095 16.890871
63.100 16.43837
63.105 16.510626
63.110 16.754751
63.115 17.069662
63.120 16.970789
63.125 17.21015
63.130 17.422022
63.135 17.864443
63.140 17.550409
63.145 17.714537
63.150 17.519056
63.155 17.634737
63.160 17.700277
63.165 17.711527
63.170 18.050154
63.175 17.746201
63.180 17.834946
63.185 18.135647
63.190 18.284163
63.195 18.337172
63.200 18.654562
63.205 18.427485
63.210 18.879572
63.215 18.905937
63.220 18.961439
63.225 19.052019
63.230 18.741827
63.235 18.326685
63.240 18.200054
63.245 18.082085
63.250 17.745522
63.255 17.605059
63.260 17.546938
63.265 17.527962
63.270 17.741205
63.275 17.814732
63.280 17.39809
63.285 17.373945
63.290 18.113771
63.295 18.470938
63.300 18.931423
63.305 18.752115
63.310 19.013372
63.315 19.866657
63.320 19.79669
63.325 18.926434
63.330 18.741966
63.335 18.275242
63.340 18.133795
63.345 17.765392
63.350 17.47123
63.355 17.597399
63.360 17.50013
63.365 17.47249
63.370 17.393414
63.375 17.423719
63.380 17.81473
63.385 17.980433
63.390 17.882135
63.395 18.195137
63.400 18.685474
63.405 18.913778
63.410 19.016329
63.415 19.047787
63.420 19.225529
63.425 19.264521
63.430 18.961763
63.435 18.206797
63.440 18.177317
63.445 18.561487
63.450 18.697594
63.455 18.407623
63.460 18.928394
63.465 19.512074
63.470 20.028597
63.475 20.517679
63.480 20.299725
63.485 19.864485
63.490 19.927292
63.495 19.32593
63.500 19.085918
63.505 19.135773
63.510 19.004025
63.515 18.595402
63.520 18.703911
63.525 19.105553
63.530 19.533253
63.535 19.832117
63.540 19.968168
63.545 19.569365
63.550 19.358032
63.555 19.341269
63.560 19.036707
63.565 18.691252
63.570 17.785851
63.575 17.676165
63.580 17.832603
63.585 18.419754
63.590 18.587013
63.595 18.803389
63.600 18.752283
63.605 19.417858
63.610 19.107319
63.615 18.600939
63.620 17.781906
63.625 17.103966
63.630 16.79685
63.635 16.226089
63.640 15.79251
63.645 16.111561
63.650 16.378553
63.655 17.309664
63.660 17.776474
63.665 18.129192
63.670 18.895269
63.675 19.743008
63.680 19.577744
63.685 19.818834
63.690 19.964283
63.695 20.039396
63.700 19.849478
63.705 19.352671
63.710 18.822401
63.715 19.090717
63.720 18.881144
63.725 18.518757
63.730 18.378574
63.735 18.227718
63.740 18.60924
63.745 18.680799
63.750 17.993521
63.755 17.72761
63.760 17.636993
63.765 17.568396
63.770 17.32686
63.775 17.119505
63.780 16.672327
63.785 17.202019
63.790 17.255569
63.795 17.421701
63.800 17.244638
63.805 17.261148
63.810 17.81039
63.815 18.141912
63.820 17.788185
63.825 17.286276
63.830 17.224667
63.835 17.319511
63.840 17.52305
63.845 17.416668
63.850 17.308304
63.855 17.736923
63.860 18.750418
63.865 18.783941
63.870 19.158449
63.875 19.245331
63.880 19.245893
63.885 19.69805
63.890 20.045485
63.895 19.614605
63.900 19.699463
63.905 19.207508
63.910 19.177053
63.915 19.813744
63.920 19.75568
63.925 19.032558
63.930 19.192387
63.935 19.597689
63.940 19.55267
63.945 19.329224
63.950 18.803375
63.955 18.62776
63.960 18.86549
63.965 18.755743
63.970 18.762627
63.975 19.667263
63.980 19.790344
63.985 19.566031
63.990 19.84589
63.995 20.006887
64.000 20.513973
64.005 20.620487
64.010 20.567558
64.015 20.46879
64.020 20.134836
64.025 19.538612
64.030 19.226839
64.035 18.467815
64.040 18.152872
64.045 17.929972
64.050 18.266794
64.055 17.977755
64.060 17.715677
64.065 18.096935
64.070 18.847925
64.075 18.955797
64.080 18.694855
64.085 18.817657
64.090 19.680326
64.095 20.252125
64.100 19.784084
64.105 19.347267
64.110 18.866665
64.115 18.964785
64.120 19.18091
64.125 18.794601
64.130 18.642597
64.135 19.312735
64.140 19.658905
64.145 19.543135
64.150 19.156172
64.155 19.259306
64.160 19.673185
64.165 19.741058
64.170 19.268333
64.175 18.651834
64.180 18.668018
64.185 18.458471
64.190 18.08321
64.195 18.160378
64.200 18.132895
64.205 18.20071
64.210 18.500267
64.215 18.391451
64.220 18.290073
64.225 17.808468
64.230 17.970325
64.235 18.447315
64.240 18.682882
64.245 18.826048
64.250 18.714632
64.255 19.574289
64.260 19.607809
64.265 18.966841
64.270 18.820145
64.275 18.782469
64.280 18.811068
64.285 18.960642
64.290 18.305939
64.295 17.559418
64.300 17.508299
64.305 16.935551
64.310 16.426613
64.315 16.832621
64.320 17.13505
64.325 17.416178
64.330 18.071028
64.335 18.071392
64.340 18.018782
64.345 18.580883
64.350 18.302227
64.355 18.355154
64.360 18.607929
64.365 18.996067
64.370 19.21771
64.375 19.351313
64.380 19.299931
64.385 19.073511
64.390 19.020506
64.395 18.419249
64.400 18.791338
64.405 19.430744
64.410 19.259768
64.415 18.728481
64.420 18.933302
64.425 19.372343
64.430 20.027575
64.435 20.064966
64.440 20.23225
64.445 20.305183
64.450 20.900486
64.455 20.579594
64.460 19.966089
64.465 19.793295
64.470 19.282528
64.475 18.88266
64.480 19.128977
64.485 18.979492
64.490 19.439381
64.495 19.922855
64.500 20.24394
64.505 20.487194
64.510 20.925991
64.515 20.358017
64.520 20.257059
64.525 19.609436
64.530 19.545097
64.535 19.336437
64.540 19.09716
64.545 18.981417
64.550 19.587656
64.555 19.929893
64.560 20.159821
64.565 19.792572
64.570 19.362892
64.575 19.469599
64.580 19.396904
64.585 19.528025
64.590 19.792158
64.595 20.143646
64.600 20.628216
64.605 21.294559
64.610 21.138617
64.615 21.02927
64.620 21.357534
64.625 21.33707
64.630 21.309364
64.635 21.284431
64.640 20.563828
64.645 20.905338
64.650 20.922001
64.655 20.892662
64.660 20.637072
64.665 20.618521
64.670 20.651012
64.675 21.101784
64.680 20.618073
64.685 20.743891
64.690 19.907576
64.695 19.749102
64.700 19.833086
64.705 19.445894
64.710 19.23152
64.715 19.543818
64.720 19.125172
64.725 19.324268
64.730 19.277702
64.735 19.226496
64.740 19.835407
64.745 20.33964
64.750 20.434929
64.755 20.474041
64.760 20.613415
64.765 20.699829
64.770 20.683819
64.775 20.589771
64.780 20.405699
64.785 19.809816
64.790 19.39238
64.795 19.488352
64.800 19.560394
64.805 19.612257
64.810 19.322447
64.815 19.611256
64.820 20.049391
64.825 20.208708
64.830 20.571171
64.835 20.731251
64.840 20.508671
64.845 20.50325
64.850 20.790258
64.855 21.461288
64.860 21.501715
64.865 20.930859
64.870 21.129429
64.875 21.752205
64.880 21.806566
64.885 21.259563
64.890 21.337984
64.895 21.969564
64.900 22.784248
64.905 22.719885
64.910 22.200388
64.915 22.466364
64.920 22.426462
64.925 21.997835
64.930 21.433487
64.935 20.913496
64.940 21.134893
64.945 20.797169
64.950 20.70203
64.955 21.183611
64.960 21.611179
64.965 22.051233
64.970 21.716265
64.975 21.158157
64.980 21.834175
64.985 22.169247
64.990 22.260151
64.995 22.404829
65.000 22.084848
65.005 22.219612
65.010 22.238203
65.015 21.89954
65.020 23.235954
65.025 23.41642
65.030 22.963316
65.035 23.359221
65.040 23.874893
65.045 24.223703
65.050 24.161833
65.055 23.015839
65.060 22.768604
65.065 23.012125
65.070 22.829283
65.075 22.890675
65.080 23.109209
65.085 23.280947
65.090 22.757208
65.095 22.803223
65.100 22.759186
65.105 23.212164
65.110 23.076576
65.115 22.787155
65.120 22.48049
65.125 22.295961
65.130 22.134972
65.135 22.456108
65.140 22.828558
65.145 22.827993
65.150 22.545172
65.155 22.853117
65.160 23.532873
65.165 23.973286
65.170 23.583839
65.175 23.130629
65.180 23.685766
65.185 24.203516
65.190 24.054602
65.195 23.694849
65.200 23.969194
65.205 24.013857
65.210 24.102009
65.215 23.824717
65.220 23.839733
65.225 24.027596
65.230 24.212339
65.235 24.232941
65.240 24.493296
65.245 24.321331
65.250 24.636837
65.255 24.331148
65.260 23.969549
65.265 24.0114
65.270 23.500755
65.275 23.375414
65.280 22.974775
65.285 22.76755
65.290 22.899561
65.295 22.56809
65.300 21.932257
65.305 22.036497
65.310 21.96348
65.315 22.018559
65.320 22.204681
65.325 22.344923
65.330 22.759502
65.335 23.128653
65.340 22.402817
65.345 21.992453
65.350 21.891447
65.355 21.797512
65.360 21.444038
65.365 21.355873
65.370 21.195927
65.375 21.717358
65.380 22.671152
65.385 22.967083
65.390 23.549559
65.395 23.947266
65.400 23.988548
65.405 25.024317
65.410 26.062542
65.415 26.049564
65.420 26.125324
65.425 25.228472
65.430 25.563015
65.435 25.731997
65.440 25.307547
65.445 25.207073
65.450 25.588757
65.455 25.896349
65.460 26.571259
65.465 26.454758
65.470 26.579908
65.475 25.754774
65.480 25.025743
65.485 25.097898
65.490 25.308552
65.495 25.925343
65.500 26.447304
65.505 26.782934
65.510 28.099367
65.515 28.132013
65.520 28.569426
65.525 28.90752
65.530 28.677399
65.535 28.56608
65.540 28.828154
65.545 28.926943
65.550 29.310129
65.555 28.868475
65.560 28.60725
65.565 28.814571
65.570 29.441656
65.575 29.760796
65.580 29.881126
65.585 30.238718
65.590 30.218901
65.595 30.579569
65.600 30.708931
65.605 30.859192
65.610 31.087835
65.615 32.257252
65.620 32.65641
65.625 33.317341
65.630 33.136852
65.635 33.219528
65.640 33.767689
65.645 33.693726
65.650 33.206444
65.655 32.832047
65.660 32.666897
65.665 32.952591
65.670 33.0998
65.675 32.442917
65.680 32.452316
65.685 32.453758
65.690 33.327209
65.695 33.730534
65.700 33.731075
65.705 33.508965
65.710 34.04266
65.715 34.249638
65.720 34.690693
65.725 34.400276
65.730 35.250294
65.735 35.412868
65.740 35.69017
65.745 35.241447
65.750 35.409679
65.755 36.031685
65.760 35.994892
65.765 35.645496
65.770 35.66972
65.775 36.437275
65.780 36.995506
65.785 37.080799
65.790 36.643227
65.795 36.441723
65.800 36.23468
65.805 36.387955
65.810 35.905067
65.815 36.639984
65.820 37.559784
65.825 37.648678
65.830 37.731789
65.835 37.842789
65.840 38.6661
65.845 39.178871
65.850 38.578728
65.855 37.765141
65.860 37.749905
65.865 38.608551
65.870 38.680576
65.875 38.551842
65.880 38.611198
65.885 38.969345
65.890 39.496887
65.895 39.745125
65.900 39.772968
65.905 39.999165
65.910 39.199165
65.915 38.927933
65.920 39.044487
65.925 39.55389
65.930 40.309715
65.935 40.819382
65.940 41.103661
65.945 40.825153
65.950 40.869156
65.955 40.277081
65.960 39.998371
65.965 39.029179
65.970 37.904739
65.975 38.049225
65.980 38.983028
65.985 39.076767
65.990 38.946762
65.995 39.113396
66.000 39.275356
66.005 39.336693
66.010 39.371891
66.015 39.540226
66.020 40.397949
66.025 40.427383
66.030 40.267094
66.035 40.484024
66.040 40.816883
66.045 40.958603
66.050 41.057594
66.055 40.757805
66.060 41.493759
66.065 41.833958
66.070 42.307663
66.075 42.313622
66.080 42.1637
66.085 41.177109
66.090 40.482521
66.095 39.077057
66.100 37.473629
66.105 36.30262
66.110 35.985889
66.115 35.814804
66.120 36.480473
66.125 37.330166
66.130 37.806576
66.135 38.374691
66.140 38.971306
66.145 38.510017
66.150 38.029472
66.155 38.281723
66.160 37.814663
66.165 38.147488
66.170 38.632515
66.175 39.149437
66.180 39.729397
66.185 39.356403
66.190 38.974049
66.195 38.735905
66.200 38.217953
66.205 37.865513
66.210 37.824169
66.215 37.387489
66.220 36.804848
66.225 36.236763
66.230 35.653084
66.235 35.60302
66.240 35.441189
66.245 33.924358
66.250 34.017124
66.255 35.273457
66.260 35.66116
66.265 36.376389
66.270 35.151268
66.275 34.703297
66.280 35.082752
66.285 34.954975
66.290 33.955551
66.295 33.485867
66.300 33.094799
66.305 33.476799
66.310 33.320679
66.315 33.72002
66.320 33.421299
66.325 33.703892
66.330 33.619904
66.335 33.416153
66.340 32.68388
66.345 32.503056
66.350 31.793926
66.355 31.348482
66.360 31.256149
66.365 30.968025
66.370 31.028782
66.375 31.985012
66.380 31.054001
66.385 30.888113
66.390 30.667238
66.395 30.35652
66.400 30.236834
66.405 29.992737
66.410 30.049269
66.415 30.942009
66.420 30.529938
66.425 30.849884
66.430 31.007475
66.435 31.12808
66.440 30.991493
66.445 30.399355
66.450 29.745102
66.455 29.708893
66.460 28.872131
66.465 27.963945
66.470 27.390263
66.475 27.526649
66.480 27.787498
66.485 28.106976
66.490 28.54611
66.495 28.253435
66.500 28.165211
66.505 28.062727
66.510 28.122288
66.515 28.388603
66.520 28.004129
66.525 27.497293
66.530 27.712446
66.535 28.190784
66.540 28.586088
66.545 28.308891
66.550 28.007488
66.555 28.501532
66.560 28.956938
66.565 29.126064
66.570 28.841475
66.575 28.165243
66.580 27.978161
66.585 27.387781
66.590 26.65806
66.595 26.498972
66.600 26.380602
66.605 26.1357
66.610 26.067265
66.615 25.158381
66.620 25.178854
66.625 25.117252
66.630 25.095835
66.635 25.130186
66.640 25.353161
66.645 25.883839
66.650 26.484173
66.655 26.558764
66.660 26.584372
66.665 26.613621
66.670 26.808924
66.675 26.61764
66.680 26.430698
66.685 26.5042
66.690 27.100124
66.695 27.270021
66.700 27.111561
66.705 27.003088
66.710 26.852825
66.715 26.460592
66.720 26.577866
66.725 25.877392
66.730 25.336842
66.735 25.666464
66.740 26.009359
66.745 25.835575
66.750 25.531733
66.755 25.16827
66.760 25.328854
66.765 25.307678
66.770 24.746361
66.775 24.233692
66.780 24.311304
66.785 23.942627
66.790 23.691982
66.795 23.659775
66.800 23.659124
66.805 24.141956
66.810 24.320261
66.815 24.799297
66.820 25.302542
66.825 25.165684
66.830 24.998512
66.835 24.322256
66.840 23.732721
66.845 23.511656
66.850 23.47929
66.855 22.783613
66.860 22.764231
66.865 22.676229
66.870 22.67634
66.875 22.209755
66.880 21.851557
66.885 22.058994
66.890 22.34409
66.895 22.43347
66.900 22.347639
66.905 22.820543
66.910 23.286806
66.915 23.305723
66.920 22.611547
66.925 22.607813
66.930 23.083403
66.935 23.501322
66.940 23.200443
66.945 23.293753
66.950 23.016157
66.955 22.683933
66.960 22.359673
66.965 21.91433
66.970 21.386847
66.975 21.820913
66.980 21.720589
66.985 22.190556
66.990 22.878359
66.995 23.337923
67.000 22.901037
67.005 22.923178
67.010 22.388414
67.015 22.574898
67.020 22.895214
67.025 22.685547
67.030 22.066587
67.035 22.319387
67.040 22.294827
67.045 22.09882
67.050 21.850859
67.055 21.777002
67.060 22.070915
67.065 22.514805
67.070 22.42823
67.075 23.234146
67.080 23.745428
67.085 24.560465
67.090 24.351221
67.095 24.102365
67.100 23.878965
67.105 23.804571
67.110 23.295275
67.115 22.655912
67.120 21.994474
67.125 21.697966
67.130 21.863407
67.135 21.734409
67.140 22.108894
67.145 22.562443
67.150 22.707668
67.155 22.833385
67.160 23.004181
67.165 22.703543
67.170 23.074722
67.175 22.605782
67.180 22.147722
67.185 21.955225
67.190 21.686697
67.195 21.831297
67.200 22.153389
67.205 21.767395
67.210 21.63237
67.215 21.677383
67.220 22.058722
67.225 21.860403
67.230 21.355379
67.235 20.847828
67.240 20.748302
67.245 20.793179
67.250 20.533035
67.255 20.641222
67.260 21.075039
67.265 21.413691
67.270 21.694218
67.275 21.777807
67.280 21.708126
67.285 21.645584
67.290 21.184669
67.295 21.584116
67.300 21.113129
67.305 20.565407
67.310 21.59342
67.315 21.562536
67.320 21.709082
67.325 22.276726
67.330 22.159531
67.335 23.090406
67.340 23.169777
67.345 23.120533
67.350 24.154985
67.355 24.162163
67.360 24.182175
67.365 24.175676
67.370 23.526855
67.375 23.882124
67.380 23.940451
67.385 23.395086
67.390 23.010614
67.395 22.220617
67.400 21.816019
67.405 21.912121
67.410 21.531595
67.415 20.893875
67.420 20.364616
67.425 20.659113
67.430 21.00654
67.435 21.073103
67.440 20.948515
67.445 21.303045
67.450 20.675404
67.455 21.514282
67.460 21.874466
67.465 21.88875
67.470 21.969084
67.475 21.486666
67.480 21.505676
67.485 22.241302
67.490 21.469782
67.495 21.389042
67.500 21.691706
67.505 21.786407
67.510 22.132553
67.515 21.584682
67.520 21.027367
67.525 21.432405
67.530 22.081326
67.535 21.46151
67.540 21.669073
67.545 22.077772
67.550 23.129244
67.555 23.949696
67.560 23.089296
67.565 22.333248
67.570 22.526005
67.575 22.309334
67.580 21.658686
67.585 21.233707
67.590 20.813385
67.595 20.822371
67.600 21.100864
67.605 21.781382
67.610 22.377434
67.615 22.721228
67.620 22.824305
67.625 22.651077
67.630 22.641413
67.635 22.263506
67.640 21.410675
67.645 21.222601
67.650 21.219095
67.655 21.535696
67.660 21.782484
67.665 21.969662
67.670 22.475639
67.675 22.40546
67.680 22.459358
67.685 22.335526
67.690 21.238194
67.695 20.974649
67.700 20.689077
67.705 21.077305
67.710 21.358803
67.715 21.224525
67.720 21.54215
67.725 22.671646
67.730 24.108669
67.735 24.815788
67.740 24.897064
67.745 24.514524
67.750 24.45521
67.755 24.119871
67.760 23.890116
67.765 22.930624
67.770 23.091663
67.775 22.507612
67.780 22.729044
67.785 22.611639
67.790 22.703035
67.795 23.443214
67.800 23.506241
67.805 23.336727
67.810 23.789721
67.815 24.196955
67.820 24.601944
67.825 23.803312
67.830 23.070545
67.835 22.938541
67.840 22.315485
67.845 22.531132
67.850 21.996531
67.855 22.160097
67.860 22.436504
67.865 21.606987
67.870 21.849102
67.875 21.828991
67.880 21.274145
67.885 21.604462
67.890 21.75684
67.895 22.046638
67.900 22.265759
67.905 21.893114
67.910 21.638721
67.915 21.649168
67.920 21.328428
67.925 20.983931
67.930 21.084005
67.935 20.286545
67.940 20.065254
67.945 20.099058
67.950 19.709805
67.955 19.819925
67.960 19.535015
67.965 19.446825
67.970 20.355356
67.975 20.866802
67.980 20.775648
67.985 20.88625
67.990 20.743196
67.995 21.322504
68.000 21.981802
68.005 21.69902
68.010 21.61483
68.015 22.021143
68.020 22.183746
68.025 21.761728
68.030 21.70727
68.035 21.566736
68.040 21.68714
68.045 22.379025
68.050 22.214663
68.055 22.35759
68.060 23.211706
68.065 22.816256
68.070 22.245167
68.075 21.801085
68.080 20.919569
68.085 21.030809
68.090 20.938911
68.095 20.309603
68.100 20.303659
68.105 20.875914
68.110 21.080183
68.115 21.403135
68.120 21.542194
68.125 21.775848
68.130 21.592588
68.135 21.481634
68.140 21.926939
68.145 22.144096
68.150 21.666473
68.155 21.775879
68.160 21.966003
68.165 22.204475
68.170 22.214806
68.175 21.987022
68.180 21.646662
68.185 21.707287
68.190 21.131748
68.195 20.998831
68.200 20.490927
68.205 19.91086
68.210 18.849047
68.215 19.305248
68.220 19.24184
68.225 18.988312
68.230 18.53401
68.235 18.633278
68.240 19.025232
68.245 19.680717
68.250 20.040443
68.255 20.610207
68.260 20.76738
68.265 21.158733
68.270 21.702215
68.275 22.018444
68.280 21.763502
68.285 21.016207
68.290 20.647282
68.295 20.93545
68.300 21.324125
68.305 21.261795
68.310 20.61916
68.315 20.742704
68.320 20.950787
68.325 20.971451
68.330 20.157612
68.335 20.095263
68.340 20.274918
68.345 21.185545
68.350 21.329426
68.355 21.473085
68.360 21.800137
68.365 22.134024
68.370 21.646097
68.375 21.263906
68.380 20.602615
68.385 20.23313
68.390 19.612141
68.395 19.408997
68.400 19.493006
68.405 19.76787
68.410 19.910801
68.415 20.358027
68.420 21.041542
68.425 21.437565
68.430 21.468126
68.435 21.423281
68.440 21.291815
68.445 20.988819
68.450 20.074841
68.455 19.458883
68.460 19.660456
68.465 19.869844
68.470 19.892435
68.475 20.22271
68.480 21.200884
68.485 21.788689
68.490 22.589413
68.495 22.832485
68.500 22.563103
68.505 22.786112
68.510 22.230089
68.515 21.661602
68.520 22.170401
68.525 21.915314
68.530 22.114882
68.535 22.025095
68.540 21.955271
68.545 22.660723
68.550 22.976856
68.555 22.778872
68.560 22.682341
68.565 22.637442
68.570 22.842918
68.575 22.68947
68.580 21.711519
68.585 21.644367
68.590 21.495817
68.595 20.926748
68.600 20.316727
68.605 20.997154
68.610 21.8055
68.615 22.297867
68.620 21.910507
68.625 22.080156
68.630 22.682005
68.635 22.944693
68.640 22.417721
68.645 22.283646
68.650 22.668869
68.655 22.942217
68.660 23.118114
68.665 22.931923
68.670 23.147804
68.675 22.703976
68.680 21.980883
68.685 21.782387
68.690 21.210983
68.695 20.608318
68.700 20.468378
68.705 20.105473
68.710 19.986208
68.715 19.973907
68.720 20.284737
68.725 20.823086
68.730 21.638132
68.735 21.8423
68.740 22.3613
68.745 23.327742
68.750 23.540243
68.755 23.637167
68.760 23.456236
68.765 22.734343
68.770 23.418423
68.775 23.576595
68.780 22.995499
68.785 22.548315
68.790 22.226086
68.795 22.058477
68.800 22.522234
68.805 21.675694
68.810 21.406349
68.815 21.478615
68.820 21.463024
68.825 21.855507
68.830 21.857071
68.835 21.935617
68.840 22.223272
68.845 22.312963
68.850 22.219397
68.855 22.004871
68.860 21.339981
68.865 20.52272
68.870 19.985741
68.875 19.530119
68.880 18.945551
68.885 19.496513
68.890 19.767693
68.895 21.077629
68.900 22.467642
68.905 23.769453
68.910 24.56885
68.915 24.790678
68.920 25.132891
68.925 25.539993
68.930 25.375956
68.935 25.161753
68.940 24.384232
68.945 24.310303
68.950 24.344862
68.955 23.719187
68.960 23.258905
68.965 22.597099
68.970 22.304857
68.975 21.862717
68.980 22.333963
68.985 22.815256
68.990 23.264664
68.995 23.463421
69.000 23.446556
69.005 23.151419
69.010 22.991821
69.015 22.645744
69.020 22.102461
69.025 21.759348
69.030 21.653889
69.035 21.385447
69.040 22.092031
69.045 22.186523
69.050 22.374113
69.055 23.062761
69.060 24.279495
69.065 25.103563
69.070 26.237215
69.075 26.774151
69.080 27.499165
69.085 28.33197
69.090 28.808342
69.095 28.585485
69.100 28.909687
69.105 29.201134
69.110 28.712557
69.115 28.280611
69.120 27.588587
69.125 26.66198
69.130 26.595119
69.135 26.429596
69.140 26.386597
69.145 26.252333
69.150 26.197517
69.155 26.038794
69.160 26.735977
69.165 26.698904
69.170 26.679716
69.175 26.598078
69.180 27.010609
69.185 27.778677
69.190 28.308277
69.195 27.72978
69.200 27.352844
69.205 26.836388
69.210 26.054953
69.215 25.84697
69.220 25.096804
69.225 24.861265
69.230 24.807711
69.235 24.934179
69.240 24.627308
69.245 24.85615
69.250 25.016073
69.255 24.997366
69.260 25.303543
69.265 24.962877
69.270 25.74896
69.275 27.014469
69.280 28.153315
69.285 28.577238
69.290 28.291271
69.295 28.076925
69.300 27.967997
69.305 27.41848
69.310 26.670431
69.315 26.32793
69.320 26.186956
69.325 27.042858
69.330 27.087223
69.335 27.471964
69.340 27.365141
69.345 27.606527
69.350 27.308065
69.355 27.324373
69.360 27.404827
69.365 28.000814
69.370 28.083887
69.375 28.477524
69.380 28.4792
69.385 28.550249
69.390 29.08119
69.395 29.178413
69.400 29.656631
69.405 29.966093
69.410 29.675724
69.415 29.727163
69.420 29.626955
69.425 29.118511
69.430 29.037222
69.435 28.815491
69.440 29.112776
69.445 29.248793
69.450 29.858513
69.455 30.314278
69.460 30.112083
69.465 29.967543
69.470 30.212959
69.475 30.360197
69.480 30.717613
69.485 30.822468
69.490 30.865181
69.495 30.702803
69.500 30.590195
69.505 30.770664
69.510 30.118439
69.515 29.216141
69.520 28.246218
69.525 27.581299
69.530 27.603073
69.535 27.640438
69.540 27.116505
69.545 27.550838
69.550 28.057163
69.555 28.356922
69.560 28.840471
69.565 29.148321
69.570 29.309975
69.575 29.824596
69.580 30.301151
69.585 30.958649
69.590 30.774666
69.595 31.215277
69.600 31.486183
69.605 31.497118
69.610 31.764664
69.615 31.513956
69.620 31.724142
69.625 31.806852
69.630 30.911562
69.635 30.813778
69.640 30.536972
69.645 29.99432
69.650 29.768091
69.655 30.086216
69.660 30.375048
69.665 30.548887
69.670 29.985645
69.675 29.243116
69.680 29.202366
69.685 29.309689
69.690 29.183455
69.695 29.507904
69.700 29.178982
69.705 29.797655
69.710 29.775873
69.715 29.528536
69.720 29.562922
69.725 29.71999
69.730 29.767557
69.735 29.91024
69.740 29.673985
69.745 29.795357
69.750 29.762478
69.755 29.301949
69.760 28.730309
69.765 28.977976
69.770 29.147682
69.775 28.794378
69.780 28.585953
69.785 28.219429
69.790 27.71019
69.795 26.501255
69.800 25.884159
69.805 26.148478
69.810 26.125334
69.815 25.950758
69.820 26.059366
69.825 26.548742
69.830 26.601942
69.835 27.064211
69.840 26.837389
69.845 26.942604
69.850 26.792177
69.855 26.546638
69.860 26.265533
69.865 26.253799
69.870 25.796988
69.875 25.718258
69.880 25.750875
69.885 25.767439
69.890 25.601931
69.895 25.951704
69.900 25.69623
69.905 25.251827
69.910 24.616102
69.915 24.458031
69.920 24.412601
69.925 24.50712
69.930 24.228495
69.935 23.991127
69.940 23.446537
69.945 23.340517
69.950 22.858412
69.955 22.918423
69.960 22.649439
69.965 22.235239
69.970 22.489279
69.975 23.289228
69.980 23.531906
69.985 24.011948
69.990 23.697334
69.995 23.50878
70.000 24.106321
70.005 23.703732
70.010 23.107052
70.015 23.492287
70.020 23.518332
70.025 24.026505
70.030 24.213171
70.035 24.477324
70.040 24.225239
70.045 23.406172
70.050 22.990461
70.055 22.904253
70.060 22.221851
70.065 21.870943
70.070 21.572294
70.075 21.77858
70.080 22.089312
70.085 21.78303
70.090 21.620453
70.095 21.623411
70.100 21.482874
70.105 21.200592
70.110 21.373678
70.115 21.879463
70.120 22.124321
70.125 22.454273
70.130 22.652151
70.135 22.430092
70.140 22.493736
70.145 22.395952
70.150 22.205275
70.155 21.598291
70.160 21.300848
70.165 21.195313
70.170 21.343372
70.175 21.317152
70.180 21.261972
70.185 21.167019
70.190 21.462999
70.195 21.167263
70.200 21.08988
70.205 21.409952
70.210 21.615253
70.215 21.644115
70.220 21.906898
70.225 21.939253
70.230 22.031738
70.235 21.788342
70.240 21.717522
70.245 21.653444
70.250 22.266369
70.255 22.06892
70.260 21.589424
70.265 21.565306
70.270 21.047819
70.275 20.75156
70.280 20.364948
70.285 19.677309
70.290 19.653631
70.295 19.759562
70.300 20.147921
70.305 20.682644
70.310 20.678438
70.315 20.84671
70.320 20.823601
70.325 21.004131
70.330 20.997288
70.335 20.245058
70.340 19.88283
70.345 20.128172
70.350 20.239721
70.355 20.033136
70.360 19.450113
70.365 20.21195
70.370 20.501387
70.375 19.839743
70.380 19.507685
70.385 19.856771
70.390 20.077335
70.395 20.593628
70.400 20.274693
70.405 20.230398
70.410 20.302126
70.415 19.923006
70.420 20.089075
70.425 20.172409
70.430 19.909811
70.435 19.756239
70.440 20.562521
70.445 21.390337
70.450 21.859999
70.455 21.510332
70.460 21.63273
70.465 21.762131
70.470 21.734684
70.475 21.187902
70.480 21.095793
70.485 20.501877
70.490 20.173719
70.495 19.644373
70.500 19.664316
70.505 19.953554
70.510 20.02479
70.515 20.047117
70.520 20.187346
70.525 20.094963
70.530 19.655048
70.535 19.254011
70.540 19.287828
70.545 19.328579
70.550 19.152555
70.555 19.095634
70.560 19.074541
70.565 19.603939
70.570 19.800173
70.575 20.008337
70.580 19.350401
70.585 19.49544
70.590 19.852558
70.595 20.282873
70.600 19.936377
70.605 19.591803
70.610 20.042162
70.615 20.737839
70.620 20.827282
70.625 20.382748
70.630 20.501211
70.635 20.703257
70.640 21.103817
70.645 20.694365
70.650 20.57366
70.655 20.548931
70.660 20.783167
70.665 21.137384
70.670 21.245255
70.675 21.427315
70.680 20.786512
70.685 20.916216
70.690 20.897095
70.695 21.604088
70.700 21.704121
70.705 21.402811
70.710 20.939714
70.715 21.260244
70.720 20.550104
70.725 20.278322
70.730 19.301088
70.735 19.017141
70.740 18.56007
70.745 18.108969
70.750 18.432518
70.755 18.820129
70.760 18.427763
70.765 18.278412
70.770 17.57127
70.775 18.078806
70.780 18.548641
70.785 18.13596
70.790 18.376719
70.795 19.204966
70.800 19.59042
70.805 19.827499
70.810 19.711945
70.815 19.335558
70.820 19.836586
70.825 19.718447
70.830 19.818462
70.835 19.891533
70.840 20.194567
70.845 20.123415
70.850 20.116621
70.855 19.688831
70.860 19.439842
70.865 19.287922
70.870 18.844803
70.875 18.749165
70.880 18.865911
70.885 18.653316
70.890 19.459328
70.895 19.8319
70.900 20.233198
70.905 20.890369
70.910 21.194036
70.915 21.682049
70.920 21.444902
70.925 21.246496
70.930 21.346289
70.935 21.148378
70.940 20.48406
70.945 20.35215
70.950 20.363571
70.955 20.479008
70.960 19.372684
70.965 19.054598
70.970 19.511978
70.975 19.836578
70.980 19.923985
70.985 19.791361
70.990 20.270323
70.995 20.783434
71.000 19.959639
71.005 19.378277
71.010 19.193155
71.015 19.072769
71.020 19.064526
71.025 18.000137
71.030 17.797625
71.035 18.313251
71.040 18.485432
71.045 18.390034
71.050 18.562311
71.055 18.311098
71.060 19.101963
71.065 19.216272
71.070 19.079281
71.075 18.467182
71.080 17.9006
71.085 18.330282
71.090 19.58779
71.095 20.348413
71.100 20.392605
71.105 20.774582
71.110 21.212379
71.115 21.178095
71.120 20.142767
71.125 18.776413
71.130 18.403379
71.135 19.036339
71.140 18.757359
71.145 18.386999
71.150 18.248075
71.155 18.209568
71.160 18.197432
71.165 17.733805
71.170 17.366055
71.175 17.612057
71.180 18.239754
71.185 18.502357
71.190 18.913603
71.195 19.240751
71.200 19.069138
71.205 19.091187
71.210 19.188007
71.215 18.888655
71.220 18.415628
71.225 17.956007
71.230 17.793659
71.235 17.9091
71.240 17.818356
71.245 17.493496
71.250 17.80389
71.255 18.073589
71.260 18.327667
71.265 18.785089
71.270 19.282761
71.275 18.972549
71.280 18.646519
71.285 18.69894
71.290 19.267561
71.295 19.086994
71.300 18.610447
71.305 18.48065
71.310 18.852051
71.315 19.039145
71.320 19.819633
71.325 19.789688
71.330 19.777548
71.335 20.013275
71.340 19.720455
71.345 20.645245
71.350 20.250996
71.355 19.094511
71.360 19.160374
71.365 18.548649
71.370 18.377161
71.375 18.615179
71.380 17.98806
71.385 17.970224
71.390 18.138086
71.395 18.067194
71.400 18.654247
71.405 18.543816
71.410 18.418877
71.415 18.645163
71.420 19.075655
71.425 19.74301
71.430 19.829754
71.435 19.766897
71.440 20.001608
71.445 20.114784
71.450 19.987785
71.455 19.324062
71.460 19.532482
71.465 19.888201
71.470 19.437563
71.475 19.287523
71.480 19.383116
71.485 19.60323
71.490 19.6492
71.495 19.123346
71.500 19.121187
71.505 19.001598
71.510 18.282885
71.515 18.176483
71.520 17.941339
71.525 18.026335
71.530 17.867641
71.535 18.828711
71.540 19.6521
71.545 20.336983
71.550 20.46929
71.555 20.394714
71.560 20.480204
71.565 20.653118
71.570 19.427534
71.575 19.028912
71.580 18.544817
71.585 18.612642
71.590 18.738775
71.595 18.567339
71.600 18.629587
71.605 19.180651
71.610 19.783707
71.615 19.955202
71.620 19.888924
71.625 19.43927
71.630 19.487411
71.635 19.638216
71.640 19.6576
71.645 19.392994
71.650 19.632915
71.655 19.747196
71.660 20.481581
71.665 20.074312
71.670 19.984224
71.675 20.098291
71.680 20.119486
71.685 20.044081
71.690 20.277679
71.695 20.152452
71.700 19.710695
71.705 19.118822
71.710 18.76981
71.715 18.706579
71.720 18.778135
71.725 18.270151
71.730 18.563919
71.735 18.882397
71.740 19.014566
71.745 18.827309
71.750 18.745247
71.755 18.514278
71.760 18.724834
71.765 18.754747
71.770 18.511786
71.775 18.205654
71.780 18.064806
71.785 17.958178
71.790 17.969242
71.795 18.130333
71.800 18.21769
71.805 17.958693
71.810 18.469339
71.815 18.695057
71.820 18.84234
71.825 19.038826
71.830 18.596546
71.835 18.806255
71.840 18.957327
71.845 19.490814
71.850 20.12067
71.855 19.947054
71.860 19.925688
71.865 19.851711
71.870 20.130968
71.875 21.072418
71.880 20.680824
71.885 20.4042
71.890 20.383251
71.895 20.432539
71.900 20.90366
71.905 20.579008
71.910 20.344116
71.915 20.596033
71.920 21.088938
71.925 21.188532
71.930 21.230825
71.935 20.85861
71.940 20.932394
71.945 20.87392
71.950 20.90456
71.955 20.142754
71.960 20.211695
71.965 20.466558
71.970 20.64575
71.975 19.866638
71.980 19.449316
71.985 19.5816
71.990 19.425301
71.995 19.06151
72.000 18.770283
72.005 18.441572
72.010 18.865339
72.015 19.063242
72.020 19.427769
72.025 19.79825
72.030 19.767122
72.035 20.322842
72.040 20.957668
72.045 20.640593
72.050 20.352245
72.055 19.860258
72.060 19.995241
72.065 19.868807
72.070 19.266279
72.075 18.936312
72.080 18.728024
72.085 18.513838
72.090 18.388508
72.095 17.946182
72.100 17.926252
72.105 18.157888
72.110 18.348339
72.115 18.957218
72.120 19.434753
72.125 19.666008
72.130 19.840309
72.135 19.454016
72.140 19.148943
72.145 18.666117
72.150 17.95751
72.155 18.038746
72.160 18.128967
72.165 18.600348
72.170 18.664513
72.175 18.909031
72.180 18.999006
72.185 18.749918
72.190 17.931526
72.195 17.240692
72.200 16.85788
72.205 17.054537
72.210 16.924501
72.215 16.968908
72.220 17.765705
72.225 18.36664
72.230 18.65803
72.235 18.522396
72.240 19.063354
72.245 19.78586
72.250 20.124241
72.255 19.677721
72.260 20.030193
72.265 20.027437
72.270 19.567524
72.275 19.047302
72.280 18.337322
72.285 18.288286
72.290 18.023169
72.295 17.582619
72.300 17.708513
72.305 18.036489
72.310 17.845432
72.315 17.783407
72.320 17.502209
72.325 17.793472
72.330 17.796885
72.335 17.85545
72.340 18.362661
72.345 18.638239
72.350 18.841595
72.355 18.766212
72.360 18.512739
72.365 18.453411
72.370 18.75156
72.375 18.7313
72.380 18.988131
72.385 18.622349
72.390 18.984549
72.395 19.504986
72.400 19.554798
72.405 19.157793
72.410 18.57935
72.415 18.080469
72.420 18.273178
72.425 17.487259
72.430 17.628523
72.435 17.133148
72.440 17.034971
72.445 17.296288
72.450 17.559664
72.455 17.919975
72.460 18.38138
72.465 18.602343
72.470 19.047632
72.475 19.294016
72.480 19.412033
72.485 19.461241
72.490 19.258446
72.495 19.229408
72.500 18.774036
72.505 18.840351
72.510 19.084793
72.515 18.946089
72.520 19.103121
72.525 19.422915
72.530 19.141415
72.535 19.121096
72.540 18.839199
72.545 18.607525
72.550 18.828457
72.555 19.207573
72.560 19.283491
72.565 19.523003
72.570 19.528591
72.575 19.613121
72.580 19.63022
72.585 19.163973
72.590 18.6166
72.595 18.214968
72.600 18.11717
72.605 18.471636
72.610 18.549231
72.615 18.154293
72.620 18.02825
72.625 18.595621
72.630 19.13303
72.635 19.154976
72.640 18.481102
72.645 18.114115
72.650 17.955057
72.655 18.260519
72.660 17.969994
72.665 17.683908
72.670 18.334352
72.675 18.950211
72.680 19.163525
72.685 19.293024
72.690 18.775698
72.695 19.00391
72.700 18.723244
72.705 18.70838
72.710 18.333185
72.715 18.196028
72.720 18.40387
72.725 18.018196
72.730 17.906193
72.735 17.243929
72.740 16.646313
72.745 16.775576
72.750 16.687525
72.755 16.488138
72.760 16.640898
72.765 16.821934
72.770 17.345041
72.775 17.410889
72.780 17.309134
72.785 17.568483
72.790 17.199558
72.795 16.852757
72.800 16.923504
72.805 17.37344
72.810 17.881176
72.815 17.826006
72.820 17.655304
72.825 17.974321
72.830 18.135983
72.835 17.698177
72.840 16.677895
72.845 16.166046
72.850 16.341694
72.855 16.275322
72.860 16.190117
72.865 16.390339
72.870 16.822561
72.875 17.537031
72.880 17.700619
72.885 18.213484
72.890 19.13253
72.895 19.088449
72.900 18.707468
72.905 18.864794
72.910 18.723209
72.915 18.396833
72.920 18.004732
72.925 17.803932
72.930 17.804131
72.935 17.775116
72.940 17.307486
72.945 17.394148
72.950 17.415464
72.955 17.297274
72.960 17.834036
72.965 18.104683
72.970 18.167387
72.975 18.455595
72.980 18.829132
72.985 19.149466
72.990 19.417158
72.995 18.79928
73.000 18.780443
