!@!!GADDS PLOTSO FILE: Chi integration type
!@!!Title/SampleName: map-148
!@!!Comment: ?
!@!!User: Bruker Instrument Administrator
!@!!Site: University of Illinois Chicago
!@!!Frame: map-148_01_000.gfrm
!@!!Wavelengths    1.54184   1.54056   1.54439
!@!!Frame angles: 2Theta: 63.000 Omega: 50.000 Phi: 0.000 Chi: 90.000
!@!!Integration range: 2Theta: 53.000 to 73.000  Gamma: -105.000 to -75.000
!@!!Integration method: bin normalized
!@!N
!@!SS
!@!M
!@!L 0.0 0.0 0.0 0.0
!@!XDegrees
!@!YCounts
53.000 8.455956
53.005 8.437653
53.010 8.423569
53.015 8.496733
53.020 8.67729
53.025 8.721144
53.030 8.894053
53.035 8.872842
53.040 8.834792
53.045 8.695019
53.050 8.40703
53.055 8.268366
53.060 8.378991
53.065 8.133629
53.070 8.269698
53.075 8.524786
53.080 8.535426
53.085 8.493589
53.090 8.425743
53.095 7.96931
53.100 8.150619
53.105 8.138221
53.110 8.162503
53.115 7.937417
53.120 7.832331
53.125 7.960068
53.130 8.548083
53.135 8.483054
53.140 8.106368
53.145 7.919123
53.150 8.252379
53.155 8.48173
53.160 8.510519
53.165 7.847772
53.170 8.122513
53.175 8.460796
53.180 8.869429
53.185 8.583645
53.190 8.636789
53.195 8.560895
53.200 9.118694
53.205 8.837586
53.210 8.552934
53.215 8.690533
53.220 9.216602
53.225 9.35553
53.230 9.028833
53.235 8.695247
53.240 8.713046
53.245 8.422422
53.250 7.885292
53.255 7.376052
53.260 7.620576
53.265 7.797067
53.270 7.901369
53.275 8.025112
53.280 8.065629
53.285 8.423944
53.290 8.589893
53.295 8.190842
53.300 8.369928
53.305 8.393806
53.310 8.544868
53.315 8.594668
53.320 8.080754
53.325 7.759844
53.330 7.815097
53.335 7.417432
53.340 7.192096
53.345 7.30302
53.350 7.620918
53.355 8.142089
53.360 8.441371
53.365 8.571249
53.370 8.808057
53.375 8.988025
53.380 8.725105
53.385 8.407086
53.390 8.326662
53.395 8.319268
53.400 8.526054
53.405 8.599474
53.410 8.703118
53.415 8.83032
53.420 8.419064
53.425 8.754664
53.430 8.996935
53.435 9.058507
53.440 8.785365
53.445 8.588091
53.450 8.816809
53.455 9.311067
53.460 8.863002
53.465 8.593444
53.470 8.583493
53.475 8.79875
53.480 9.135855
53.485 9.167916
53.490 9.126472
53.495 9.069173
53.500 9.698947
53.505 9.935293
53.510 9.553068
53.515 9.266096
53.520 8.813468
53.525 8.731877
53.530 9.061751
53.535 8.11676
53.540 8.05142
53.545 8.404579
53.550 8.749609
53.555 9.409002
53.560 9.259987
53.565 8.92395
53.570 8.844801
53.575 8.792666
53.580 8.937227
53.585 8.750211
53.590 8.498389
53.595 8.838658
53.600 8.950795
53.605 9.175176
53.610 9.114599
53.615 8.710899
53.620 8.768995
53.625 8.99116
53.630 8.910932
53.635 9.84031
53.640 10.024804
53.645 10.03743
53.650 10.059171
53.655 10.126615
53.660 10.160932
53.665 10.200463
53.670 9.717172
53.675 9.700331
53.680 9.743453
53.685 9.794568
53.690 9.287182
53.695 8.700065
53.700 8.603801
53.705 8.791238
53.710 9.228299
53.715 9.450131
53.720 9.378199
53.725 9.87466
53.730 9.869395
53.735 10.09287
53.740 10.457694
53.745 10.430492
53.750 10.424107
53.755 10.418015
53.760 10.440771
53.765 10.51811
53.770 9.928702
53.775 9.405182
53.780 9.638994
53.785 9.343819
53.790 9.371751
53.795 9.475799
53.800 9.502749
53.805 9.436942
53.810 9.283939
53.815 9.057083
53.820 9.29183
53.825 8.955831
53.830 8.466512
53.835 8.538664
53.840 8.648149
53.845 8.213328
53.850 8.017351
53.855 7.964619
53.860 8.276033
53.865 8.764899
53.870 8.956669
53.875 9.108403
53.880 9.348188
53.885 9.69472
53.890 9.792722
53.895 9.945551
53.900 9.734204
53.905 9.368943
53.910 9.13709
53.915 8.939819
53.920 9.035548
53.925 9.462519
53.930 9.628963
53.935 9.643498
53.940 9.744199
53.945 10.134693
53.950 10.153214
53.955 9.866098
53.960 9.765865
53.965 9.849545
53.970 10.055173
53.975 9.692696
53.980 9.42138
53.985 9.243547
53.990 9.114907
53.995 8.841577
54.000 8.76163
54.005 9.143682
54.010 9.705032
54.015 10.028422
54.020 10.100439
54.025 10.097254
54.030 10.111689
54.035 9.981176
54.040 9.768594
54.045 9.588629
54.050 9.773402
54.055 9.630417
54.060 9.471672
54.065 9.00589
54.070 9.163445
54.075 9.223964
54.080 9.265002
54.085 9.530155
54.090 9.892382
54.095 10.37443
54.100 10.755821
54.105 10.493752
54.110 10.548511
54.115 10.218147
54.120 9.805338
54.125 9.564834
54.130 9.237701
54.135 9.063564
54.140 9.024299
54.145 8.963907
54.150 9.061351
54.155 9.450525
54.160 9.41622
54.165 9.534603
54.170 9.588645
54.175 9.265907
54.180 9.283869
54.185 9.050873
54.190 8.723721
54.195 9.061261
54.200 9.270341
54.205 9.317456
54.210 9.415467
54.215 9.271898
54.220 9.35397
54.225 9.459288
54.230 9.370441
54.235 9.317582
54.240 9.442423
54.245 9.778777
54.250 9.857884
54.255 10.028667
54.260 10.000078
54.265 10.112261
54.270 10.129621
54.275 9.811071
54.280 9.657798
54.285 9.510972
54.290 9.562891
54.295 9.427204
54.300 9.034882
54.305 9.678165
54.310 10.034114
54.315 10.248606
54.320 10.493675
54.325 10.297317
54.330 10.695317
54.335 10.646536
54.340 10.089007
54.345 10.070624
54.350 10.414846
54.355 10.454858
54.360 10.939617
54.365 10.794468
54.370 10.799112
54.375 10.782426
54.380 10.321362
54.385 9.916421
54.390 9.469602
54.395 8.973566
54.400 9.192872
54.405 9.380926
54.410 9.976813
54.415 10.156021
54.420 10.606487
54.425 11.07098
54.430 11.082035
54.435 10.77275
54.440 10.548549
54.445 10.341913
54.450 10.348945
54.455 9.936661
54.460 9.937634
54.465 10.11239
54.470 10.720445
54.475 10.889447
54.480 10.607682
54.485 10.423084
54.490 10.822585
54.495 11.000354
54.500 10.879907
54.505 10.485149
54.510 10.433238
54.515 10.643375
54.520 10.880748
54.525 10.464486
54.530 10.464205
54.535 10.762194
54.540 10.754147
54.545 10.903174
54.550 10.622103
54.555 10.590574
54.560 10.491935
54.565 10.153659
54.570 9.800887
54.575 9.600271
54.580 9.800941
54.585 9.945908
54.590 9.90323
54.595 9.745957
54.600 9.5614
54.605 10.008841
54.610 10.269677
54.615 10.28626
54.620 10.539801
54.625 10.326992
54.630 10.396903
54.635 10.344146
54.640 9.557527
54.645 9.242147
54.650 9.479315
54.655 9.579768
54.660 9.670045
54.665 9.779542
54.670 9.97496
54.675 10.36545
54.680 10.606072
54.685 10.237079
54.690 10.038933
54.695 10.567269
54.700 10.792049
54.705 10.742074
54.710 10.669615
54.715 10.028275
54.720 10.063076
54.725 10.106726
54.730 9.933063
54.735 9.858003
54.740 9.760408
54.745 9.786306
54.750 10.203612
54.755 10.21126
54.760 10.128814
54.765 9.694488
54.770 9.340739
54.775 9.329244
54.780 9.262756
54.785 9.027015
54.790 9.201697
54.795 9.588988
54.800 10.144251
54.805 9.979937
54.810 9.764602
54.815 10.112346
54.820 10.246993
54.825 10.307393
54.830 10.168257
54.835 10.183018
54.840 10.456467
54.845 10.788564
54.850 10.638925
54.855 10.072243
54.860 9.702293
54.865 9.470568
54.870 9.605312
54.875 9.70428
54.880 9.472321
54.885 9.593992
54.890 10.023161
54.895 10.533392
54.900 11.051122
54.905 11.092142
54.910 11.35346
54.915 11.429892
54.920 11.350661
54.925 11.110918
54.930 10.662978
54.935 10.554293
54.940 10.620764
54.945 10.644014
54.950 10.721931
54.955 10.647389
54.960 10.581796
54.965 10.107141
54.970 10.011657
54.975 10.217724
54.980 10.328047
54.985 10.754758
54.990 11.012376
54.995 11.335693
55.000 11.704843
55.005 11.761435
55.010 12.149636
55.015 12.073956
55.020 11.866998
55.025 11.492328
55.030 11.366756
55.035 11.196657
55.040 10.926628
55.045 10.570721
55.050 10.289693
55.055 10.465801
55.060 10.819403
55.065 11.050891
55.070 11.357423
55.075 11.30521
55.080 11.523227
55.085 11.764883
55.090 11.984889
55.095 11.911519
55.100 11.793957
55.105 11.476649
55.110 11.078661
55.115 10.806793
55.120 11.395015
55.125 11.633616
55.130 11.966488
55.135 11.765164
55.140 11.755525
55.145 11.69491
55.150 11.835374
55.155 11.138182
55.160 10.920315
55.165 10.763172
55.170 11.02351
55.175 11.331591
55.180 12.216408
55.185 12.249804
55.190 12.0928
55.195 12.297925
55.200 12.204067
55.205 12.173174
55.210 12.114037
55.215 11.288075
55.220 10.964026
55.225 10.775706
55.230 10.437431
55.235 10.36956
55.240 10.865692
55.245 11.090075
55.250 11.456226
55.255 11.508987
55.260 11.092277
55.265 11.259728
55.270 11.375336
55.275 10.60462
55.280 10.391091
55.285 10.550218
55.290 10.855575
55.295 11.498237
55.300 11.386165
55.305 11.376143
55.310 11.727255
55.315 11.645598
55.320 11.603139
55.325 12.28085
55.330 12.154789
55.335 12.56094
55.340 12.760476
55.345 12.58024
55.350 12.40501
55.355 12.086527
55.360 11.458222
55.365 11.624801
55.370 11.271567
55.375 10.839418
55.380 11.070198
55.385 11.451949
55.390 11.675596
55.395 11.672271
55.400 11.590379
55.405 11.600783
55.410 11.779545
55.415 11.376866
55.420 10.961321
55.425 10.678855
55.430 10.534547
55.435 10.534695
55.440 10.481075
55.445 10.256054
55.450 10.563511
55.455 10.748761
55.460 10.58054
55.465 10.709805
55.470 10.345388
55.475 10.413988
55.480 10.456377
55.485 10.633785
55.490 10.419661
55.495 10.273735
55.500 10.281076
55.505 10.571731
55.510 10.721813
55.515 10.750531
55.520 10.986547
55.525 11.00585
55.530 10.906781
55.535 10.955901
55.540 11.045741
55.545 11.207855
55.550 11.206817
55.555 11.024645
55.560 11.286435
55.565 11.812452
55.570 12.033687
55.575 12.096505
55.580 12.090912
55.585 11.871121
55.590 11.755462
55.595 12.010275
55.600 12.076358
55.605 12.011145
55.610 11.845296
55.615 11.878822
55.620 12.219245
55.625 12.900391
55.630 12.545994
55.635 12.150054
55.640 12.003992
55.645 12.256586
55.650 12.233152
55.655 11.839391
55.660 11.330726
55.665 11.376378
55.670 11.317885
55.675 11.124965
55.680 10.980791
55.685 11.296904
55.690 11.642154
55.695 11.600375
55.700 12.046216
55.705 12.058651
55.710 12.161177
55.715 12.084894
55.720 12.27831
55.725 12.27232
55.730 12.209215
55.735 12.18641
55.740 12.20309
55.745 12.03838
55.750 11.833369
55.755 11.22086
55.760 10.869805
55.765 10.255054
55.770 9.875059
55.775 10.42893
55.780 10.473133
55.785 10.366456
55.790 10.580168
55.795 11.184759
55.800 12.130343
55.805 12.725995
55.810 12.298775
55.815 12.629425
55.820 13.071615
55.825 13.260724
55.830 13.286153
55.835 13.161376
55.840 12.998322
55.845 13.091903
55.850 12.968133
55.855 12.798831
55.860 12.432416
55.865 11.779111
55.870 11.642463
55.875 11.816291
55.880 11.877148
55.885 12.008991
55.890 11.546678
55.895 11.579697
55.900 11.970762
55.905 11.72308
55.910 12.1662
55.915 11.63761
55.920 11.026686
55.925 10.886526
55.930 10.9206
55.935 11.184697
55.940 11.645752
55.945 11.390696
55.950 11.616446
55.955 12.114216
55.960 12.295716
55.965 12.12179
55.970 11.626673
55.975 11.086131
55.980 10.876394
55.985 11.328658
55.990 11.056133
55.995 11.024049
56.000 11.058371
56.005 11.184993
56.010 11.281319
56.015 11.262386
56.020 11.280397
56.025 11.929935
56.030 12.19826
56.035 12.345047
56.040 12.384583
56.045 12.408956
56.050 12.741555
56.055 13.241945
56.060 13.131221
56.065 13.035627
56.070 12.963063
56.075 13.125369
56.080 12.637826
56.085 11.989464
56.090 10.910963
56.095 10.281528
56.100 10.542899
56.105 10.435769
56.110 9.970073
56.115 10.040036
56.120 10.270705
56.125 11.033875
56.130 11.208241
56.135 10.535651
56.140 10.739887
56.145 11.122171
56.150 11.032341
56.155 10.981334
56.160 10.643355
56.165 10.746873
56.170 11.388433
56.175 11.451943
56.180 11.974526
56.185 11.885784
56.190 11.674163
56.195 11.814671
56.200 11.927567
56.205 12.060084
56.210 12.357831
56.215 12.81772
56.220 13.531549
56.225 13.602354
56.230 13.377814
56.235 13.019273
56.240 12.782055
56.245 12.465964
56.250 12.006598
56.255 11.810872
56.260 12.106081
56.265 12.738278
56.270 12.389072
56.275 12.023754
56.280 11.816191
56.285 11.623057
56.290 11.252046
56.295 11.062554
56.300 11.051963
56.305 11.505806
56.310 11.6245
56.315 11.821199
56.320 11.985205
56.325 12.286853
56.330 12.113667
56.335 12.215799
56.340 12.450967
56.345 12.702723
56.350 13.043719
56.355 13.302649
56.360 12.728703
56.365 12.692462
56.370 12.674685
56.375 12.553596
56.380 12.45431
56.385 11.753227
56.390 11.431607
56.395 12.238686
56.400 12.190581
56.405 12.128868
56.410 12.023944
56.415 11.512869
56.420 12.072053
56.425 12.281532
56.430 12.590335
56.435 12.599998
56.440 12.356028
56.445 12.704844
56.450 12.995585
56.455 12.70448
56.460 12.272932
56.465 11.857491
56.470 12.297336
56.475 12.532187
56.480 12.412192
56.485 12.413258
56.490 12.99889
56.495 13.762815
56.500 13.783255
56.505 13.474618
56.510 13.795753
56.515 13.559445
56.520 13.319728
56.525 13.042018
56.530 12.61055
56.535 12.738383
56.540 12.643505
56.545 12.319301
56.550 12.318999
56.555 12.36066
56.560 12.601147
56.565 12.841143
56.570 13.196184
56.575 13.618757
56.580 14.082933
56.585 14.126502
56.590 14.348282
56.595 14.200299
56.600 14.311803
56.605 14.419737
56.610 13.987985
56.615 13.508598
56.620 13.812762
56.625 13.461651
56.630 13.331871
56.635 12.759969
56.640 12.070724
56.645 12.507713
56.650 12.998631
56.655 13.03779
56.660 13.16023
56.665 12.749814
56.670 12.652635
56.675 12.316203
56.680 12.133199
56.685 11.929713
56.690 11.774097
56.695 11.289347
56.700 11.066938
56.705 11.757983
56.710 11.855842
56.715 11.589848
56.720 11.630246
56.725 11.649235
56.730 12.341351
56.735 12.688953
56.740 12.936465
56.745 13.472785
56.750 13.763826
56.755 13.826022
56.760 14.19817
56.765 14.254205
56.770 14.474397
56.775 14.787879
56.780 15.399817
56.785 15.633202
56.790 15.654128
56.795 15.474819
56.800 15.099777
56.805 14.958789
56.810 14.017933
56.815 13.081715
56.820 12.431951
56.825 12.304511
56.830 12.317111
56.835 12.370638
56.840 12.125414
56.845 12.104949
56.850 12.295514
56.855 12.179367
56.860 11.811365
56.865 11.607418
56.870 12.159312
56.875 12.308524
56.880 12.397637
56.885 12.706085
56.890 13.138398
56.895 13.528795
56.900 14.01251
56.905 13.479919
56.910 13.071258
56.915 12.824082
56.920 13.020123
56.925 13.155395
56.930 12.891809
56.935 12.459446
56.940 12.49757
56.945 12.859624
56.950 12.775501
56.955 12.376007
56.960 12.417842
56.965 12.51979
56.970 12.408082
56.975 12.213778
56.980 11.712873
56.985 11.600419
56.990 11.631063
56.995 11.417645
57.000 11.502631
57.005 11.743893
57.010 12.249386
57.015 13.047457
57.020 13.256891
57.025 13.360544
57.030 13.40689
57.035 14.086139
57.040 14.339997
57.045 14.246841
57.050 14.289618
57.055 13.983513
57.060 14.084878
57.065 14.25697
57.070 13.365623
57.075 13.413164
57.080 13.16569
57.085 12.692526
57.090 12.662433
57.095 12.438166
57.100 12.405019
57.105 12.636465
57.110 12.186156
57.115 12.656343
57.120 13.281884
57.125 13.360586
57.130 13.559489
57.135 13.943631
57.140 14.138685
57.145 14.167146
57.150 14.204858
57.155 14.143433
57.160 14.12606
57.165 13.969489
57.170 13.840832
57.175 13.413299
57.180 13.214106
57.185 12.561356
57.190 12.567405
57.195 12.569804
57.200 12.483651
57.205 12.288615
57.210 12.455293
57.215 12.455892
57.220 12.704203
57.225 12.273549
57.230 12.135983
57.235 12.119971
57.240 12.055606
57.245 12.260652
57.250 12.247266
57.255 12.561276
57.260 12.95025
57.265 12.833373
57.270 12.487522
57.275 12.466137
57.280 12.410302
57.285 12.211375
57.290 12.189156
57.295 12.446902
57.300 13.291393
57.305 13.72991
57.310 14.199805
57.315 14.92365
57.320 15.410006
57.325 15.596435
57.330 15.415519
57.335 14.807429
57.340 14.467019
57.345 13.920206
57.350 13.724661
57.355 13.195669
57.360 12.826893
57.365 12.44153
57.370 12.788869
57.375 12.922015
57.380 13.041467
57.385 12.959608
57.390 13.335472
57.395 13.854793
57.400 13.891953
57.405 13.71762
57.410 13.819834
57.415 13.701457
57.420 13.061325
57.425 12.578211
57.430 12.629448
57.435 12.911463
57.440 12.961728
57.445 13.559546
57.450 14.367019
57.455 15.162329
57.460 15.684972
57.465 15.503929
57.470 15.622808
57.475 15.601921
57.480 14.971904
57.485 14.202518
57.490 13.700018
57.495 13.347194
57.500 13.656947
57.505 13.349757
57.510 13.063404
57.515 12.87343
57.520 12.722998
57.525 12.764947
57.530 12.57098
57.535 12.501483
57.540 13.018444
57.545 13.105439
57.550 13.302557
57.555 13.746177
57.560 13.443839
57.565 13.310809
57.570 13.192644
57.575 13.170306
57.580 13.057831
57.585 13.231119
57.590 13.074656
57.595 13.41855
57.600 13.477652
57.605 12.922461
57.610 13.011215
57.615 13.160108
57.620 13.546582
57.625 13.681883
57.630 13.736705
57.635 14.259237
57.640 14.514697
57.645 14.108112
57.650 14.103598
57.655 13.548736
57.660 13.542084
57.665 13.385919
57.670 12.889201
57.675 12.853362
57.680 13.000817
57.685 12.538404
57.690 12.364191
57.695 12.704671
57.700 12.983582
57.705 13.337891
57.710 13.353361
57.715 13.217323
57.720 13.454197
57.725 13.769853
57.730 13.590098
57.735 13.265349
57.740 13.111816
57.745 12.689835
57.750 12.373136
57.755 12.401657
57.760 12.208583
57.765 12.197451
57.770 12.512065
57.775 12.351233
57.780 12.693674
57.785 13.276532
57.790 13.449098
57.795 13.241485
57.800 12.670718
57.805 12.365679
57.810 12.598164
57.815 13.106565
57.820 13.16842
57.825 13.456608
57.830 13.368745
57.835 13.144143
57.840 13.239576
57.845 12.897758
57.850 12.074974
57.855 11.225894
57.860 10.73772
57.865 11.126702
57.870 11.222503
57.875 11.504962
57.880 11.975735
57.885 12.658422
57.890 12.874974
57.895 12.877723
57.900 13.100505
57.905 13.789511
57.910 12.995758
57.915 12.853937
57.920 13.199596
57.925 13.54741
57.930 13.583694
57.935 13.326985
57.940 13.395925
57.945 14.20157
57.950 14.748342
57.955 14.337955
57.960 14.301633
57.965 14.374663
57.970 14.639786
57.975 14.667184
57.980 14.354962
57.985 13.955783
57.990 13.74246
57.995 13.72217
58.000 13.974451
58.005 14.161429
58.010 14.082689
58.015 14.173891
58.020 14.285608
58.025 14.613304
58.030 14.715167
58.035 13.985806
58.040 13.876204
58.045 13.839293
58.050 13.792082
58.055 13.620451
58.060 13.653785
58.065 13.408703
58.070 13.924776
58.075 13.969824
58.080 13.988825
58.085 14.420753
58.090 14.91308
58.095 15.052216
58.100 15.579965
58.105 15.069173
58.110 14.902039
58.115 14.702648
58.120 13.944036
58.125 13.314388
58.130 13.325637
58.135 12.912729
58.140 13.347857
58.145 13.910925
58.150 14.393785
58.155 14.368761
58.160 14.641921
58.165 14.407552
58.170 14.972342
58.175 15.236615
58.180 14.841605
58.185 14.442129
58.190 14.892329
58.195 14.59606
58.200 14.650908
58.205 14.40734
58.210 13.98371
58.215 13.549184
58.220 13.098648
58.225 13.228645
58.230 12.941154
58.235 12.928973
58.240 12.873302
58.245 12.856412
58.250 13.551218
58.255 14.481079
58.260 14.441754
58.265 14.742138
58.270 14.639651
58.275 14.534265
58.280 14.35342
58.285 14.193
58.290 13.107419
58.295 13.28651
58.300 13.395457
58.305 13.360146
58.310 12.827901
58.315 12.419067
58.320 12.587351
58.325 13.238132
58.330 12.976877
58.335 13.317327
58.340 13.561257
58.345 13.916005
58.350 14.404141
58.355 14.388057
58.360 14.569856
58.365 15.375525
58.370 15.267591
58.375 15.552857
58.380 15.384367
58.385 14.97513
58.390 14.885325
58.395 14.938483
58.400 14.523208
58.405 14.469858
58.410 14.10547
58.415 14.409289
58.420 15.082314
58.425 15.323442
58.430 15.22569
58.435 15.213281
58.440 15.799151
58.445 16.337383
58.450 16.750029
58.455 16.785776
58.460 16.392963
58.465 15.998146
58.470 15.463857
58.475 15.050821
58.480 14.950377
58.485 14.326568
58.490 13.53834
58.495 13.629166
58.500 14.031341
58.505 14.035647
58.510 13.878632
58.515 13.784612
58.520 14.191319
58.525 14.519093
58.530 14.344273
58.535 14.016012
58.540 14.360401
58.545 14.613846
58.550 14.494511
58.555 14.899935
58.560 14.674454
58.565 14.827648
58.570 15.584381
58.575 15.97136
58.580 16.132782
58.585 16.049524
58.590 15.175221
58.595 15.71304
58.600 15.62634
58.605 15.366136
58.610 14.768237
58.615 14.901743
58.620 15.275779
58.625 15.810352
58.630 16.099207
58.635 16.135469
58.640 16.102707
58.645 16.220453
58.650 15.993011
58.655 16.220497
58.660 16.673487
58.665 17.00877
58.670 17.132109
58.675 17.148846
58.680 17.170757
58.685 17.050659
58.690 17.185555
58.695 16.868946
58.700 15.948757
58.705 15.785043
58.710 16.227583
58.715 16.422819
58.720 16.513227
58.725 16.631147
58.730 16.87925
58.735 17.212822
58.740 17.080151
58.745 16.596485
58.750 16.283766
58.755 16.544621
58.760 16.440763
58.765 15.499624
58.770 14.884616
58.775 14.991908
58.780 15.123692
58.785 14.957377
58.790 14.462178
58.795 14.427702
58.800 15.298621
58.805 15.604243
58.810 15.552676
58.815 15.049166
58.820 14.829939
58.825 14.763287
58.830 14.499109
58.835 14.403341
58.840 14.264744
58.845 14.5603
58.850 15.398931
58.855 15.802912
58.860 15.777365
58.865 15.534718
58.870 15.10251
58.875 15.562455
58.880 14.934872
58.885 14.482042
58.890 14.497654
58.895 14.738566
58.900 15.013753
58.905 15.699076
58.910 15.482349
58.915 15.890779
58.920 15.993345
58.925 15.853374
58.930 15.681708
58.935 16.0441
58.940 15.359709
58.945 15.02439
58.950 15.278518
58.955 15.375875
58.960 16.021147
58.965 15.975374
58.970 15.535267
58.975 15.595876
58.980 15.514121
58.985 15.259016
58.990 15.195395
58.995 14.932142
59.000 14.758125
59.005 15.091751
59.010 15.713111
59.015 15.557737
59.020 16.338737
59.025 16.510839
59.030 16.125879
59.035 16.383684
59.040 16.62397
59.045 16.382349
59.050 16.533089
59.055 15.775765
59.060 15.503825
59.065 15.942735
59.070 16.014919
59.075 15.753456
59.080 15.72325
59.085 15.503407
59.090 15.450554
59.095 15.45158
59.100 16.061682
59.105 16.484612
59.110 16.741503
59.115 17.005276
59.120 17.668474
59.125 18.168987
59.130 18.75107
59.135 18.065405
59.140 17.190685
59.145 16.699417
59.150 15.956957
59.155 15.368489
59.160 15.451705
59.165 14.811749
59.170 15.034103
59.175 15.485412
59.180 16.041191
59.185 16.803444
59.190 17.298998
59.195 17.034874
59.200 17.22068
59.205 17.402435
59.210 17.45503
59.215 17.082485
59.220 16.863037
59.225 16.596106
59.230 16.163111
59.235 15.719497
59.240 15.394035
59.245 15.421497
59.250 15.20288
59.255 15.315231
59.260 14.965739
59.265 15.194661
59.270 15.293647
59.275 15.212178
59.280 14.921124
59.285 15.149309
59.290 15.114724
59.295 15.341139
59.300 15.075538
59.305 14.811125
59.310 14.949649
59.315 15.235
59.320 15.428269
59.325 15.791004
59.330 15.929556
59.335 16.245638
59.340 16.266745
59.345 15.910021
59.350 15.847482
59.355 16.147234
59.360 15.933748
59.365 16.104515
59.370 16.65118
59.375 17.233446
59.380 17.649702
59.385 17.810604
59.390 18.057842
59.395 17.787575
59.400 17.2621
59.405 16.919281
59.410 16.933979
59.415 16.887337
59.420 16.925907
59.425 16.851433
59.430 16.985134
59.435 17.316339
59.440 17.058386
59.445 16.633389
59.450 16.902006
59.455 16.631939
59.460 16.29266
59.465 16.198595
59.470 16.247589
59.475 16.52861
59.480 17.161053
59.485 17.459648
59.490 17.25914
59.495 17.095604
59.500 16.825102
59.505 16.643415
59.510 16.644094
59.515 16.344875
59.520 16.095053
59.525 16.546875
59.530 16.830824
59.535 17.10535
59.540 17.50778
59.545 17.732344
59.550 17.660994
59.555 17.318584
59.560 16.915495
59.565 16.552763
59.570 16.728275
59.575 16.7731
59.580 16.354597
59.585 16.341524
59.590 16.715935
59.595 16.841585
59.600 16.811745
59.605 16.614508
59.610 16.580135
59.615 16.977507
59.620 17.020449
59.625 16.830254
59.630 17.543148
59.635 17.561998
59.640 17.273113
59.645 17.37361
59.650 17.328167
59.655 17.540735
59.660 17.278872
59.665 16.439241
59.670 16.947117
59.675 17.214851
59.680 17.064697
59.685 16.804726
59.690 16.597343
59.695 16.935608
59.700 18.113567
59.705 17.889936
59.710 17.513494
59.715 17.500015
59.720 17.652559
59.725 17.869501
59.730 18.055895
59.735 17.788338
59.740 17.816504
59.745 18.238089
59.750 18.806772
59.755 19.354168
59.760 19.769814
59.765 19.308325
59.770 19.036613
59.775 19.587852
59.780 19.715755
59.785 18.989765
59.790 18.717024
59.795 18.798716
59.800 18.944517
59.805 18.266043
59.810 18.14752
59.815 18.135172
59.820 18.391577
59.825 18.428787
59.830 17.789389
59.835 17.453138
59.840 17.908484
59.845 17.610159
59.850 17.545885
59.855 17.204128
59.860 16.470898
59.865 16.678095
59.870 17.355299
59.875 17.291866
59.880 17.623432
59.885 17.795853
59.890 18.145916
59.895 18.536854
59.900 18.521696
59.905 18.394714
59.910 18.714516
59.915 18.951826
59.920 18.8925
59.925 18.529547
59.930 18.683727
59.935 18.696774
59.940 19.039549
59.945 18.985453
59.950 19.26816
59.955 19.782154
59.960 20.024679
59.965 19.687382
59.970 19.424444
59.975 19.146923
59.980 19.574282
59.985 18.82373
59.990 18.437998
59.995 18.313627
60.000 18.313848
60.005 18.547678
60.010 19.441317
60.015 19.586414
60.020 20.067579
60.025 19.987881
60.030 19.715607
60.035 19.647562
60.040 19.313694
60.045 18.622604
60.050 18.079491
60.055 18.497084
60.060 19.059093
60.065 19.796654
60.070 19.970417
60.075 19.951735
60.080 19.690842
60.085 19.53013
60.090 19.267321
60.095 19.145939
60.100 19.033861
60.105 19.585371
60.110 19.5497
60.115 19.207609
60.120 18.969809
60.125 18.664476
60.130 18.402079
60.135 17.81352
60.140 17.231926
60.145 17.395329
60.150 17.810265
60.155 17.351679
60.160 17.276974
60.165 17.599669
60.170 18.021358
60.175 17.864868
60.180 17.547239
60.185 17.133841
60.190 17.194725
60.195 16.984951
60.200 16.77005
60.205 17.089979
60.210 17.848274
60.215 17.879326
60.220 17.632149
60.225 17.919941
60.230 18.393143
60.235 18.488285
60.240 17.979099
60.245 17.728863
60.250 17.879581
60.255 18.240927
60.260 17.798033
60.265 17.708984
60.270 17.596071
60.275 17.803976
60.280 17.447229
60.285 17.556871
60.290 18.144506
60.295 18.57966
60.300 18.105547
60.305 18.699114
60.310 18.819693
60.315 18.783955
60.320 18.508003
60.325 17.690496
60.330 17.242519
60.335 16.955297
60.340 16.742081
60.345 17.008942
60.350 17.381535
60.355 17.633823
60.360 17.435015
60.365 17.595808
60.370 18.000826
60.375 17.549002
60.380 17.426914
60.385 17.135754
60.390 17.372625
60.395 17.804907
60.400 17.715504
60.405 17.589111
60.410 17.453526
60.415 17.025206
60.420 16.749062
60.425 16.39781
60.430 16.233006
60.435 16.186771
60.440 16.036104
60.445 16.492628
60.450 16.846397
60.455 16.665659
60.460 16.412209
60.465 16.297709
60.470 16.867445
60.475 17.26614
60.480 17.1117
60.485 17.454508
60.490 17.955513
60.495 18.00671
60.500 17.879913
60.505 17.117609
60.510 16.696873
60.515 16.865414
60.520 16.503574
60.525 16.237541
60.530 16.253275
60.535 16.886164
60.540 16.762262
60.545 16.485926
60.550 16.432323
60.555 16.966869
60.560 17.201357
60.565 17.104956
60.570 16.719841
60.575 16.997467
60.580 17.568157
60.585 17.173193
60.590 16.901596
60.595 16.873146
60.600 17.1486
60.605 17.225517
60.610 17.253654
60.615 16.456173
60.620 16.404594
60.625 16.367151
60.630 16.715057
60.635 16.963404
60.640 17.416363
60.645 17.161421
60.650 16.803637
60.655 16.435196
60.660 15.923277
60.665 15.617569
60.670 15.253355
60.675 15.067904
60.680 15.282196
60.685 15.628969
60.690 15.733633
60.695 16.020142
60.700 15.639831
60.705 15.618459
60.710 15.677825
60.715 15.876475
60.720 16.138371
60.725 16.433575
60.730 16.163145
60.735 16.566544
60.740 16.629475
60.745 16.879051
60.750 16.761053
60.755 16.628231
60.760 16.490791
60.765 16.77618
60.770 16.983286
60.775 16.678364
60.780 16.138119
60.785 15.588772
60.790 15.930846
60.795 16.154608
60.800 16.015661
60.805 15.69102
60.810 15.967414
60.815 16.069546
60.820 16.364202
60.825 16.528324
60.830 16.492085
60.835 16.726185
60.840 16.543255
60.845 16.34466
60.850 16.782022
60.855 17.192404
60.860 17.011768
60.865 16.74242
60.870 17.115911
60.875 17.269205
60.880 17.538971
60.885 16.915308
60.890 16.467913
60.895 16.611467
60.900 17.097212
60.905 16.424381
60.910 16.18272
60.915 16.057953
60.920 16.345249
60.925 16.60441
60.930 16.482414
60.935 16.0333
60.940 16.549437
60.945 17.12986
60.950 17.208652
60.955 17.313461
60.960 17.290644
60.965 16.651615
60.970 16.510742
60.975 15.937358
60.980 15.635032
60.985 16.044487
60.990 15.820531
60.995 15.596931
61.000 15.568594
61.005 15.88698
61.010 16.189785
61.015 16.085279
61.020 15.342934
61.025 15.298911
61.030 15.002767
61.035 15.462836
61.040 15.378882
61.045 15.660493
61.050 15.378848
61.055 15.537737
61.060 15.465836
61.065 15.916345
61.070 15.628661
61.075 15.200074
61.080 14.853194
61.085 15.073663
61.090 14.523584
61.095 14.283261
61.100 13.92723
61.105 13.843039
61.110 14.124742
61.115 14.174494
61.120 14.760074
61.125 15.188437
61.130 15.928046
61.135 16.016605
61.140 16.529285
61.145 16.580477
61.150 16.2148
61.155 15.645397
61.160 15.848101
61.165 15.64719
61.170 15.649056
61.175 15.723417
61.180 15.553648
61.185 15.858075
61.190 16.2003
61.195 16.312325
61.200 16.374138
61.205 16.343189
61.210 15.744546
61.215 15.705914
61.220 15.801124
61.225 15.474258
61.230 15.596719
61.235 15.467104
61.240 15.637882
61.245 15.704228
61.250 15.581956
61.255 15.5158
61.260 15.522156
61.265 15.466391
61.270 15.190168
61.275 14.669909
61.280 15.336949
61.285 15.545802
61.290 16.083862
61.295 16.379957
61.300 16.300947
61.305 16.110168
61.310 15.961009
61.315 15.436677
61.320 15.259585
61.325 15.021049
61.330 14.868081
61.335 14.465744
61.340 14.809824
61.345 15.283976
61.350 15.546968
61.355 15.476086
61.360 15.067617
61.365 14.878016
61.370 14.985233
61.375 14.831667
61.380 14.6449
61.385 14.71368
61.390 14.819515
61.395 14.679057
61.400 14.884024
61.405 14.671744
61.410 14.725183
61.415 14.756688
61.420 14.462272
61.425 14.432823
61.430 14.616385
61.435 14.925017
61.440 15.70348
61.445 15.938343
61.450 16.221445
61.455 17.305445
61.460 17.380285
61.465 17.530947
61.470 17.377825
61.475 16.620258
61.480 16.632914
61.485 16.645479
61.490 16.186975
61.495 16.173552
61.500 16.05479
61.505 16.276943
61.510 17.009138
61.515 17.363939
61.520 17.426844
61.525 17.386927
61.530 17.28112
61.535 16.726732
61.540 16.29999
61.545 15.948482
61.550 15.499309
61.555 15.857335
61.560 15.388041
61.565 15.917467
61.570 16.895491
61.575 17.325773
61.580 17.268053
61.585 16.832924
61.590 16.192348
61.595 16.392118
61.600 15.839895
61.605 15.57213
61.610 15.587964
61.615 15.708831
61.620 16.005424
61.625 15.928526
61.630 15.718193
61.635 15.635586
61.640 15.190948
61.645 15.217347
61.650 14.962913
61.655 14.548298
61.660 14.529047
61.665 14.238719
61.670 14.330173
61.675 13.723063
61.680 13.112659
61.685 13.134576
61.690 13.612728
61.695 14.320718
61.700 15.203023
61.705 15.105861
61.710 15.750381
61.715 16.399445
61.720 16.619394
61.725 16.443535
61.730 15.98546
61.735 15.97009
61.740 16.604671
61.745 16.284853
61.750 16.092299
61.755 16.409588
61.760 16.462667
61.765 16.59798
61.770 16.303291
61.775 16.02774
61.780 16.332199
61.785 16.43726
61.790 17.056179
61.795 17.67568
61.800 17.663174
61.805 17.43767
61.810 17.4144
61.815 17.526451
61.820 17.067753
61.825 16.503225
61.830 16.116316
61.835 16.698311
61.840 17.287724
61.845 17.7367
61.850 17.660986
61.855 17.953783
61.860 17.988247
61.865 17.861038
61.870 17.443624
61.875 17.371983
61.880 17.283659
61.885 17.386084
61.890 17.689547
61.895 17.529749
61.900 17.479149
61.905 17.079529
61.910 17.071144
61.915 16.481491
61.920 16.441917
61.925 15.748418
61.930 15.138957
61.935 15.304467
61.940 15.317093
61.945 15.334719
61.950 15.729447
61.955 16.320353
61.960 16.742359
61.965 17.114176
61.970 17.239817
61.975 17.562847
61.980 17.425293
61.985 16.789011
61.990 15.929943
61.995 15.447307
62.000 15.167975
62.005 14.463551
62.010 14.515866
62.015 14.81486
62.020 15.236473
62.025 15.375945
62.030 15.484881
62.035 15.338552
62.040 15.895377
62.045 16.135626
62.050 16.274137
62.055 15.979463
62.060 16.746407
62.065 16.95487
62.070 17.37673
62.075 17.508856
62.080 16.863546
62.085 16.654139
62.090 17.077169
62.095 16.64786
62.100 16.930323
62.105 16.487713
62.110 16.504591
62.115 16.528387
62.120 16.293024
62.125 16.328712
62.130 16.361948
62.135 16.149454
62.140 16.206852
62.145 16.348864
62.150 16.792952
62.155 16.725098
62.160 16.444492
62.165 16.529743
62.170 16.687248
62.175 16.724592
62.180 16.688705
62.185 16.476662
62.190 16.965446
62.195 16.693027
62.200 16.366859
62.205 16.820156
62.210 17.075232
62.215 16.969652
62.220 17.046444
62.225 16.318123
62.230 16.408546
62.235 16.402712
62.240 15.712711
62.245 14.924243
62.250 14.558866
62.255 14.433084
62.260 14.81015
62.265 15.126961
62.270 15.582842
62.275 16.110556
62.280 16.961565
62.285 16.878771
62.290 16.54129
62.295 16.206604
62.300 15.817636
62.305 15.643866
62.310 15.658145
62.315 15.628916
62.320 15.587963
62.325 15.673465
62.330 15.652715
62.335 15.446981
62.340 15.205568
62.345 14.957265
62.350 14.720621
62.355 14.5759
62.360 14.951555
62.365 15.800857
62.370 16.516886
62.375 17.112543
62.380 17.179558
62.385 17.376793
62.390 18.19142
62.395 18.639339
62.400 18.647284
62.405 18.275455
62.410 17.869972
62.415 17.965414
62.420 17.664606
62.425 17.74576
62.430 17.247763
62.435 16.859007
62.440 17.380623
62.445 17.210293
62.450 17.06077
62.455 17.577991
62.460 17.453856
62.465 17.634544
62.470 17.363157
62.475 17.34654
62.480 16.99378
62.485 16.879368
62.490 16.2647
62.495 15.835755
62.500 16.011299
62.505 16.09951
62.510 15.660902
62.515 15.874785
62.520 15.792867
62.525 16.470369
62.530 17.038307
62.535 16.690138
62.540 16.834398
62.545 17.491173
62.550 17.364489
62.555 17.962252
62.560 17.641079
62.565 16.84392
62.570 16.511288
62.575 15.906958
62.580 15.248487
62.585 15.313833
62.590 14.371757
62.595 13.847807
62.600 14.726851
62.605 15.296469
62.610 15.660539
62.615 15.935714
62.620 16.979427
62.625 17.424856
62.630 17.768579
62.635 17.318233
62.640 16.937244
62.645 16.167347
62.650 16.305922
62.655 16.408102
62.660 16.72204
62.665 16.627413
62.670 16.78096
62.675 17.183666
62.680 17.738531
62.685 17.290375
62.690 16.283276
62.695 15.896167
62.700 15.763366
62.705 15.654088
62.710 15.832395
62.715 16.051491
62.720 16.000879
62.725 16.505615
62.730 17.092178
62.735 17.165548
62.740 16.804287
62.745 17.229959
62.750 17.466805
62.755 17.718607
62.760 17.523483
62.765 17.347759
62.770 17.347673
62.775 17.941416
62.780 17.085005
62.785 16.687944
62.790 16.799545
62.795 17.372583
62.800 17.9042
62.805 18.749994
62.810 18.416769
62.815 18.485773
62.820 18.286489
62.825 18.064545
62.830 17.697546
62.835 17.855768
62.840 16.842737
62.845 16.767477
62.850 16.613806
62.855 16.751707
62.860 17.315657
62.865 16.899473
62.870 16.195158
62.875 16.392052
62.880 16.275051
62.885 16.007994
62.890 15.732712
62.895 15.228906
62.900 15.487403
62.905 15.860387
62.910 15.86901
62.915 16.730236
62.920 17.352638
62.925 17.032036
62.930 17.015898
62.935 16.406618
62.940 16.075739
62.945 16.123585
62.950 15.632204
62.955 15.853335
62.960 16.17845
62.965 16.233942
62.970 16.553043
62.975 16.472057
62.980 16.617922
62.985 16.39818
62.990 16.769783
62.995 16.892675
63.000 16.83338
63.005 16.470299
63.010 16.433632
63.015 16.488705
63.020 16.477062
63.025 15.707338
63.030 15.095736
63.035 14.637768
63.040 14.680467
63.045 14.842809
63.050 14.864833
63.055 14.75694
63.060 15.179348
63.065 15.79152
63.070 16.100483
63.075 16.13188
63.080 15.92516
63.085 16.053926
63.090 16.020119
63.095 15.776394
63.100 15.509385
63.105 15.973614
63.110 16.265224
63.115 16.79768
63.120 16.591549
63.125 17.014917
63.130 17.001644
63.135 17.372845
63.140 17.394056
63.145 17.50848
63.150 16.932604
63.155 16.678944
63.160 16.618988
63.165 16.720436
63.170 16.504915
63.175 16.168797
63.180 16.252188
63.185 16.592392
63.190 16.828932
63.195 16.801212
63.200 16.859184
63.205 16.961929
63.210 17.118343
63.215 17.201328
63.220 16.910904
63.225 16.482624
63.230 16.338387
63.235 16.272852
63.240 16.204636
63.245 16.31353
63.250 16.584766
63.255 16.992695
63.260 17.317856
63.265 17.051416
63.270 17.224796
63.275 17.473812
63.280 17.466419
63.285 17.034319
63.290 17.131151
63.295 17.119204
63.300 17.876846
63.305 17.535961
63.310 17.408556
63.315 17.426718
63.320 17.486956
63.325 17.302464
63.330 17.216808
63.335 16.86068
63.340 16.846251
63.345 16.573706
63.350 16.421837
63.355 16.216515
63.360 15.59661
63.365 15.222367
63.370 15.36799
63.375 15.255578
63.380 15.052594
63.385 14.733258
63.390 14.970736
63.395 15.892805
63.400 16.316999
63.405 16.381403
63.410 17.150692
63.415 17.819725
63.420 17.656191
63.425 17.542162
63.430 17.402845
63.435 17.78529
63.440 18.02198
63.445 17.733213
63.450 17.735207
63.455 18.099045
63.460 17.693869
63.465 18.101925
63.470 17.67127
63.475 17.527054
63.480 17.144014
63.485 16.451057
63.490 16.374342
63.495 16.596292
63.500 16.433477
63.505 16.598305
63.510 16.408043
63.515 17.090811
63.520 17.237886
63.525 16.766998
63.530 16.270151
63.535 15.943039
63.540 15.962751
63.545 15.97058
63.550 15.356823
63.555 15.398905
63.560 16.287636
63.565 16.70038
63.570 16.351925
63.575 15.859097
63.580 15.738585
63.585 15.985143
63.590 16.027548
63.595 15.903946
63.600 15.831025
63.605 15.921921
63.610 15.967954
63.615 16.16008
63.620 16.26993
63.625 16.106838
63.630 15.960605
63.635 16.797993
63.640 17.184761
63.645 17.651102
63.650 18.184633
63.655 18.461098
63.660 19.153351
63.665 19.098864
63.670 18.366039
63.675 18.229841
63.680 17.647863
63.685 17.111429
63.690 16.485487
63.695 16.192221
63.700 15.979392
63.705 16.011007
63.710 16.735966
63.715 17.465069
63.720 17.620157
63.725 17.867504
63.730 18.065874
63.735 18.091246
63.740 17.572393
63.745 17.169886
63.750 16.752943
63.755 16.344158
63.760 16.190481
63.765 15.977782
63.770 15.992746
63.775 16.599516
63.780 16.293468
63.785 16.137209
63.790 16.326296
63.795 16.851763
63.800 17.103516
63.805 17.255692
63.810 17.254536
63.815 17.378166
63.820 17.124182
63.825 17.53964
63.830 17.265663
63.835 16.961971
63.840 17.367216
63.845 17.404585
63.850 17.125139
63.855 16.98819
63.860 16.70056
63.865 16.868746
63.870 16.958317
63.875 17.344549
63.880 17.411768
63.885 17.643061
63.890 18.310608
63.895 18.499411
63.900 17.857315
63.905 17.832884
63.910 17.365767
63.915 17.279652
63.920 17.508995
63.925 16.843201
63.930 16.803507
63.935 17.551949
63.940 17.673632
63.945 17.615156
63.950 17.587439
63.955 17.442726
63.960 18.227423
63.965 18.328005
63.970 18.231749
63.975 18.201696
63.980 18.089247
63.985 18.295727
63.990 18.657484
63.995 18.371748
64.000 18.426922
64.005 18.498857
64.010 18.975521
64.015 19.434486
64.020 19.862131
64.025 19.605259
64.030 18.919619
64.035 18.662777
64.040 18.644686
64.045 18.721601
64.050 18.584173
64.055 18.004572
64.060 17.886011
64.065 18.859644
64.070 18.80485
64.075 18.555489
64.080 18.252913
64.085 17.892345
64.090 17.884129
64.095 18.282253
64.100 18.077757
64.105 18.103651
64.110 18.127249
64.115 17.817839
64.120 17.671967
64.125 17.827272
64.130 17.162884
64.135 16.563391
64.140 16.385611
64.145 16.605005
64.150 16.876429
64.155 16.796906
64.160 16.962299
64.165 17.421967
64.170 17.992979
64.175 18.020998
64.180 17.844242
64.185 18.415331
64.190 18.835749
64.195 18.990637
64.200 18.832865
64.205 18.700233
64.210 18.896206
64.215 19.073362
64.220 19.204784
64.225 18.988754
64.230 18.939945
64.235 19.080872
64.240 19.077305
64.245 18.484859
64.250 17.712893
64.255 16.704161
64.260 16.735241
64.265 15.960838
64.270 15.842415
64.275 16.033031
64.280 16.613535
64.285 16.921646
64.290 17.404713
64.295 17.366478
64.300 17.753416
64.305 17.834551
64.310 18.015867
64.315 17.806841
64.320 18.088514
64.325 18.395329
64.330 18.054731
64.335 17.974064
64.340 17.998627
64.345 17.903336
64.350 17.890129
64.355 18.07691
64.360 17.919874
64.365 17.890219
64.370 18.176155
64.375 18.515104
64.380 18.892441
64.385 18.521528
64.390 18.677332
64.395 19.265678
64.400 19.471651
64.405 19.759092
64.410 19.573366
64.415 19.065165
64.420 19.51449
64.425 19.144287
64.430 18.648785
64.435 19.320299
64.440 19.255745
64.445 19.172808
64.450 19.473595
64.455 19.165812
64.460 18.563305
64.465 18.617283
64.470 18.839205
64.475 18.58742
64.480 18.364098
64.485 18.308289
64.490 18.688402
64.495 19.007282
64.500 18.754105
64.505 18.094553
64.510 18.302177
64.515 18.932615
64.520 19.1451
64.525 18.701181
64.530 18.709616
64.535 18.080666
64.540 17.823614
64.545 17.881329
64.550 17.646448
64.555 17.821096
64.560 17.884378
64.565 17.994404
64.570 18.556856
64.575 18.711254
64.580 19.035444
64.585 18.95496
64.590 19.210892
64.595 19.921804
64.600 20.128403
64.605 20.058699
64.610 19.89234
64.615 19.50968
64.620 19.483673
64.625 19.060238
64.630 18.816984
64.635 18.700478
64.640 18.869005
64.645 18.200466
64.650 18.071043
64.655 17.989759
64.660 17.701939
64.665 17.527464
64.670 17.73115
64.675 17.775969
64.680 18.498838
64.685 18.799198
64.690 19.133436
64.695 19.912872
64.700 20.039116
64.705 20.043152
64.710 20.393255
64.715 20.805607
64.720 21.270317
64.725 20.682043
64.730 20.560759
64.735 20.142567
64.740 19.868671
64.745 19.513588
64.750 19.110018
64.755 18.209219
64.760 18.035513
64.765 18.109867
64.770 18.41753
64.775 18.904402
64.780 19.880135
64.785 20.321102
64.790 20.603914
64.795 21.106934
64.800 20.668194
64.805 21.098186
64.810 20.810043
64.815 20.156631
64.820 20.062643
64.825 20.260935
64.830 20.167765
64.835 20.642365
64.840 20.225664
64.845 20.075287
64.850 20.138462
64.855 20.705021
64.860 20.74975
64.865 20.415409
64.870 20.192122
64.875 20.318941
64.880 20.498444
64.885 20.567959
64.890 20.338074
64.895 20.739225
64.900 21.028778
64.905 21.398821
64.910 21.956434
64.915 22.738314
64.920 23.140667
64.925 22.872494
64.930 22.267086
64.935 22.385695
64.940 22.575066
64.945 21.842146
64.950 21.36441
64.955 21.128166
64.960 21.071028
64.965 21.545095
64.970 21.671072
64.975 21.253714
64.980 21.491381
64.985 21.303097
64.990 20.841686
64.995 20.578543
65.000 20.707911
65.005 20.916199
65.010 21.179655
65.015 21.302402
65.020 22.124596
65.025 22.896578
65.030 23.026308
65.035 23.323843
65.040 23.220486
65.045 23.333843
65.050 23.540857
65.055 23.286715
65.060 23.739349
65.065 24.171211
65.070 23.861406
65.075 23.920727
65.080 23.971256
65.085 24.103153
65.090 24.542271
65.095 24.741604
65.100 25.127117
65.105 25.155369
65.110 25.584839
65.115 25.575687
65.120 25.340229
65.125 24.498587
65.130 23.989391
65.135 24.015362
65.140 24.359146
65.145 23.785517
65.150 23.296217
65.155 23.144611
65.160 23.805174
65.165 24.025946
65.170 23.666384
65.175 22.609804
65.180 22.27445
65.185 22.219971
65.190 22.257998
65.195 21.573055
65.200 20.739216
65.205 21.044607
65.210 21.88278
65.215 22.483461
65.220 22.690781
65.225 22.603725
65.230 22.826675
65.235 22.874075
65.240 22.372507
65.245 22.765825
65.250 23.153221
65.255 22.881367
65.260 22.808929
65.265 22.762449
65.270 22.991537
65.275 23.044977
65.280 22.897625
65.285 22.470455
65.290 23.048826
65.295 23.097721
65.300 23.490461
65.305 23.830864
65.310 23.853649
65.315 23.287764
65.320 23.422237
65.325 23.878561
65.330 23.524809
65.335 23.033117
65.340 23.029102
65.345 22.913574
65.350 22.719179
65.355 22.299
65.360 22.06274
65.365 21.913549
65.370 21.895798
65.375 21.762131
65.380 21.74057
65.385 21.958603
65.390 22.170275
65.395 22.297829
65.400 22.877396
65.405 22.846109
65.410 22.989128
65.415 23.593597
65.420 24.102552
65.425 23.884775
65.430 23.394146
65.435 22.7624
65.440 22.989964
65.445 22.617535
65.450 22.334425
65.455 21.790741
65.460 21.381927
65.465 21.790922
65.470 22.066082
65.475 21.575705
65.480 21.817673
65.485 21.948835
65.490 22.792746
65.495 23.529707
65.500 24.173351
65.505 24.775425
65.510 25.521139
65.515 25.818794
65.520 25.755371
65.525 25.617031
65.530 25.776844
65.535 25.199291
65.540 24.78804
65.545 24.385633
65.550 24.387854
65.555 24.656551
65.560 24.794161
65.565 24.709888
65.570 24.528782
65.575 24.636267
65.580 25.543558
65.585 26.076057
65.590 26.025547
65.595 26.159456
65.600 25.827024
65.605 25.973621
65.610 26.611044
65.615 25.973143
65.620 25.274361
65.625 25.825365
65.630 26.357065
65.635 26.367519
65.640 26.140068
65.645 26.051779
65.650 26.604847
65.655 26.519775
65.660 25.331806
65.665 25.286865
65.670 26.077696
65.675 26.380657
65.680 26.614946
65.685 27.030899
65.690 28.381741
65.695 29.092251
65.700 28.975321
65.705 29.064922
65.710 29.568331
65.715 29.965282
65.720 29.717342
65.725 29.464603
65.730 29.86866
65.735 29.914087
65.740 30.352091
65.745 30.118898
65.750 30.072407
65.755 30.379967
65.760 30.123898
65.765 29.519716
65.770 28.804592
65.775 28.170446
65.780 28.67004
65.785 28.268776
65.790 27.718527
65.795 28.173666
65.800 28.408644
65.805 29.302704
65.810 29.394274
65.815 29.553316
65.820 30.351551
65.825 30.802715
65.830 30.687946
65.835 30.844032
65.840 31.087296
65.845 31.564671
65.850 32.132843
65.855 31.763105
65.860 31.133078
65.865 30.527914
65.870 30.879955
65.875 30.838676
65.880 30.320349
65.885 29.301527
65.890 29.683607
65.895 30.625008
65.900 31.429161
65.905 30.966867
65.910 30.617167
65.915 30.959528
65.920 31.017082
65.925 30.704287
65.930 30.960701
65.935 30.756535
65.940 30.778917
65.945 31.004446
65.950 30.301582
65.955 30.402105
65.960 30.835485
65.965 31.542673
65.970 32.134647
65.975 32.430405
65.980 33.050587
65.985 33.757622
65.990 33.375977
65.995 33.251606
66.000 32.81279
66.005 32.622547
66.010 32.454521
66.015 32.306877
66.020 32.873096
66.025 33.280876
66.030 32.703999
66.035 32.99073
66.040 32.787964
66.045 33.095428
66.050 33.414551
66.055 33.6647
66.060 34.148098
66.065 34.186565
66.070 33.406441
66.075 33.820015
66.080 33.588718
66.085 33.096333
66.090 32.6656
66.095 32.262497
66.100 32.256603
66.105 32.509506
66.110 31.906364
66.115 31.874569
66.120 31.752134
66.125 31.445871
66.130 31.79888
66.135 32.210369
66.140 32.634899
66.145 33.190769
66.150 32.571808
66.155 31.982849
66.160 31.612011
66.165 31.827635
66.170 31.487545
66.175 30.886208
66.180 31.192839
66.185 31.83593
66.190 32.834976
66.195 33.471462
66.200 32.998547
66.205 32.772381
66.210 33.695267
66.215 33.418083
66.220 32.835594
66.225 32.346146
66.230 32.519531
66.235 32.633644
66.240 33.242161
66.245 32.044827
66.250 31.5338
66.255 31.745222
66.260 31.436411
66.265 31.236652
66.270 31.063925
66.275 30.350506
66.280 31.093388
66.285 31.388254
66.290 31.19186
66.295 30.936394
66.300 30.575977
66.305 30.639053
66.310 30.444149
66.315 29.918112
66.320 29.831459
66.325 29.633591
66.330 29.352772
66.335 29.369627
66.340 28.964338
66.345 28.814512
66.350 28.698818
66.355 28.958605
66.360 29.625006
66.365 29.894485
66.370 29.319658
66.375 29.020138
66.380 29.123985
66.385 28.82765
66.390 28.313663
66.395 28.357882
66.400 28.323326
66.405 28.677473
66.410 28.561901
66.415 28.688747
66.420 29.57284
66.425 29.2087
66.430 28.716293
66.435 28.931936
66.440 29.294724
66.445 29.353247
66.450 28.451853
66.455 27.197287
66.460 27.281706
66.465 27.410954
66.470 26.944538
66.475 26.085947
66.480 25.990126
66.485 26.345106
66.490 26.268724
66.495 26.602724
66.500 26.479239
66.505 26.331264
66.510 25.985001
66.515 25.918011
66.520 25.980026
66.525 26.085831
66.530 24.784496
66.535 24.558456
66.540 24.780401
66.545 25.402428
66.550 26.522398
66.555 26.662117
66.560 26.890945
66.565 27.783119
66.570 27.748356
66.575 27.508221
66.580 26.757612
66.585 25.843374
66.590 25.032524
66.595 24.552361
66.600 24.13591
66.605 23.784286
66.610 23.29442
66.615 22.429535
66.620 21.804956
66.625 22.015108
66.630 22.278635
66.635 21.669483
66.640 21.646612
66.645 21.976849
66.650 22.404819
66.655 21.959263
66.660 21.117924
66.665 20.800325
66.670 21.23855
66.675 20.839357
66.680 20.982035
66.685 20.64583
66.690 20.528419
66.695 20.642382
66.700 20.863701
66.705 21.100605
66.710 21.489235
66.715 21.169039
66.720 21.444214
66.725 21.414736
66.730 21.681093
66.735 21.181215
66.740 20.810339
66.745 21.002989
66.750 20.745241
66.755 21.122299
66.760 21.096474
66.765 20.563101
66.770 20.537102
66.775 20.749218
66.780 20.901516
66.785 21.053183
66.790 21.108938
66.795 21.387823
66.800 21.842403
66.805 21.99564
66.810 21.563366
66.815 21.35091
66.820 21.827129
66.825 21.52471
66.830 21.744352
66.835 21.319826
66.840 20.794666
66.845 20.743855
66.850 20.254776
66.855 19.411518
66.860 19.466869
66.865 19.815134
66.870 20.509853
66.875 21.101469
66.880 21.295025
66.885 21.18944
66.890 21.273508
66.895 20.829279
66.900 19.967375
66.905 19.204098
66.910 18.470175
66.915 18.617105
66.920 19.343096
66.925 19.729761
66.930 20.767521
66.935 21.060593
66.940 21.387756
66.945 21.609863
66.950 21.282188
66.955 20.886059
66.960 20.504759
66.965 20.196547
66.970 20.520325
66.975 20.232786
66.980 20.261324
66.985 20.200024
66.990 19.379131
66.995 19.404787
67.000 19.420111
67.005 19.572773
67.010 19.991816
67.015 20.416927
67.020 20.835459
67.025 21.498943
67.030 21.557455
67.035 21.295181
67.040 20.888933
67.045 20.905733
67.050 20.670523
67.055 20.543196
67.060 21.015654
67.065 20.446583
67.070 19.494862
67.075 19.257494
67.080 18.890659
67.085 18.998625
67.090 18.931498
67.095 18.738005
67.100 18.963459
67.105 19.526957
67.110 19.739346
67.115 20.359175
67.120 20.121576
67.125 19.7265
67.130 19.313934
67.135 19.033478
67.140 19.317448
67.145 19.559736
67.150 19.268766
67.155 19.142418
67.160 19.499844
67.165 20.100113
67.170 20.468075
67.175 20.488071
67.180 20.358603
67.185 19.808584
67.190 19.934849
67.195 20.080982
67.200 19.627487
67.205 19.643251
67.210 19.223051
67.215 19.154884
67.220 19.358103
67.225 19.247231
67.230 18.650433
67.235 18.376633
67.240 18.028074
67.245 18.14192
67.250 18.091705
67.255 17.737072
67.260 17.434759
67.265 18.293108
67.270 18.538153
67.275 18.622892
67.280 18.310362
67.285 18.601898
67.290 19.407053
67.295 19.5462
67.300 19.529743
67.305 19.42498
67.310 20.375387
67.315 20.402082
67.320 20.311369
67.325 20.518665
67.330 20.521322
67.335 20.438667
67.340 20.301874
67.345 19.689955
67.350 19.382488
67.355 19.045971
67.360 18.773121
67.365 18.417913
67.370 18.32453
67.375 18.361359
67.380 18.101048
67.385 18.523891
67.390 18.362469
67.395 18.598238
67.400 19.034246
67.405 19.093355
67.410 19.217716
67.415 19.260077
67.420 18.428463
67.425 18.565399
67.430 18.541435
67.435 18.502884
67.440 19.215302
67.445 19.345633
67.450 19.733074
67.455 20.241543
67.460 20.352787
67.465 20.257841
67.470 20.236898
67.475 20.072155
67.480 20.441397
67.485 20.702969
67.490 20.455
67.495 19.980413
67.500 19.762739
67.505 19.634136
67.510 19.368803
67.515 18.930655
67.520 19.349464
67.525 19.364967
67.530 20.050489
67.535 20.203299
67.540 19.787001
67.545 19.541506
67.550 18.99361
67.555 18.361992
67.560 18.381138
67.565 17.710051
67.570 17.506845
67.575 17.809933
67.580 18.24991
67.585 18.428768
67.590 18.558582
67.595 19.770792
67.600 20.41466
67.605 20.499695
67.610 20.679508
67.615 20.772568
67.620 20.887226
67.625 20.583906
67.630 19.79287
67.635 19.341494
67.640 19.652843
67.645 19.03603
67.650 18.591537
67.655 18.536369
67.660 18.558594
67.665 18.298647
67.670 18.569412
67.675 18.120152
67.680 18.295927
67.685 18.966175
67.690 18.938478
67.695 19.190418
67.700 19.777214
67.705 19.757729
67.710 19.986397
67.715 20.09655
67.720 19.542339
67.725 19.220427
67.730 18.967075
67.735 18.88871
67.740 19.142527
67.745 19.29245
67.750 19.196045
67.755 19.209423
67.760 18.958195
67.765 18.561871
67.770 18.023024
67.775 17.909142
67.780 17.833691
67.785 17.894133
67.790 18.491873
67.795 19.645769
67.800 20.177099
67.805 20.352884
67.810 20.417814
67.815 20.371469
67.820 20.397842
67.825 19.738003
67.830 18.900232
67.835 18.676521
67.840 18.486687
67.845 18.50704
67.850 18.700264
67.855 18.580103
67.860 18.601563
67.865 18.932491
67.870 19.017859
67.875 18.869072
67.880 18.560884
67.885 18.482712
67.890 19.080452
67.895 19.680403
67.900 20.009199
67.905 19.688246
67.910 19.700447
67.915 19.540676
67.920 19.119925
67.925 18.665806
67.930 18.662991
67.935 18.514183
67.940 19.317495
67.945 19.362312
67.950 19.359024
67.955 20.124025
67.960 20.423573
67.965 20.779173
67.970 21.066879
67.975 20.832031
67.980 21.281984
67.985 21.457323
67.990 21.65966
67.995 21.301788
68.000 20.514721
68.005 20.270435
68.010 20.07823
68.015 19.903288
68.020 20.157368
68.025 19.536343
68.030 19.602102
68.035 19.884975
68.040 19.982691
68.045 19.932714
68.050 19.642277
68.055 18.795012
68.060 18.970722
68.065 18.63311
68.070 18.776766
68.075 19.353752
68.080 19.892202
68.085 20.001862
68.090 20.36446
68.095 21.269958
68.100 22.000011
68.105 22.128984
68.110 21.907391
68.115 21.420349
68.120 21.393349
68.125 21.37915
68.130 20.883369
68.135 20.56809
68.140 19.482718
68.145 18.864239
68.150 19.252905
68.155 19.098724
68.160 18.898891
68.165 18.870405
68.170 18.870714
68.175 19.379202
68.180 19.417442
68.185 19.452301
68.190 19.67532
68.195 19.447433
68.200 19.276402
68.205 18.782446
68.210 18.603022
68.215 18.491228
68.220 18.143679
68.225 17.981749
68.230 17.99489
68.235 18.180723
68.240 18.148199
68.245 18.276886
68.250 17.852764
68.255 18.167244
68.260 18.785923
68.265 19.284662
68.270 18.886511
68.275 18.892311
68.280 18.485418
68.285 18.622108
68.290 18.417475
68.295 18.177927
68.300 17.829903
68.305 17.87821
68.310 18.077711
68.315 19.293509
68.320 20.447441
68.325 20.638777
68.330 20.006147
68.335 19.789572
68.340 19.765865
68.345 19.695517
68.350 18.94792
68.355 18.102848
68.360 18.041815
68.365 18.590015
68.370 18.684664
68.375 19.017868
68.380 18.983955
68.385 18.618221
68.390 18.189503
68.395 17.849577
68.400 17.90839
68.405 18.048273
68.410 17.649094
68.415 17.730276
68.420 18.438597
68.425 18.869505
68.430 19.168892
68.435 18.499386
68.440 18.011314
68.445 17.895523
68.450 18.051514
68.455 17.805948
68.460 17.889841
68.465 17.774611
68.470 18.320713
68.475 18.416718
68.480 18.366848
68.485 18.41889
68.490 18.542831
68.495 18.771221
68.500 18.885365
68.505 19.189453
68.510 19.858637
68.515 20.341896
68.520 20.382248
68.525 20.044907
68.530 19.873772
68.535 19.485641
68.540 19.545515
68.545 18.683161
68.550 18.038612
68.555 17.749907
68.560 17.9513
68.565 18.379982
68.570 18.493429
68.575 18.051891
68.580 18.618515
68.585 18.644493
68.590 18.871294
68.595 18.734879
68.600 18.422264
68.605 18.895992
68.610 19.750065
68.615 19.947094
68.620 20.141214
68.625 20.460726
68.630 20.340508
68.635 20.081341
68.640 19.804365
68.645 19.326799
68.650 19.506775
68.655 19.725147
68.660 19.497602
68.665 20.513895
68.670 21.126228
68.675 21.200329
68.680 21.620289
68.685 21.525122
68.690 21.628069
68.695 22.466652
68.700 21.825706
68.705 21.881618
68.710 21.922445
68.715 21.675917
68.720 22.104893
68.725 21.644108
68.730 20.877342
68.735 20.870176
68.740 20.639006
68.745 20.418005
68.750 20.440401
68.755 20.483538
68.760 20.565603
68.765 20.222181
68.770 20.282774
68.775 19.907299
68.780 19.483706
68.785 18.674854
68.790 18.546524
68.795 18.484591
68.800 18.656893
68.805 18.848444
68.810 19.846003
68.815 20.643253
68.820 21.153709
68.825 21.035759
68.830 20.451117
68.835 20.82057
68.840 20.811262
68.845 20.051275
68.850 20.06311
68.855 20.237337
68.860 20.139305
68.865 21.554882
68.870 21.389076
68.875 20.699017
68.880 20.908989
68.885 20.685112
68.890 20.041105
68.895 20.36898
68.900 19.723497
68.905 20.503157
68.910 21.449862
68.915 21.195173
68.920 21.456345
68.925 21.973379
68.930 21.487772
68.935 20.394875
68.940 19.522045
68.945 18.774469
68.950 18.446722
68.955 18.479401
68.960 18.714825
68.965 19.319143
68.970 20.181389
68.975 20.271269
68.980 21.07724
68.985 21.787199
68.990 21.863596
68.995 22.125164
69.000 22.21126
69.005 22.523714
69.010 23.23678
69.015 23.057583
69.020 22.576159
69.025 22.439972
69.030 22.630423
69.035 22.826387
69.040 22.469728
69.045 21.684349
69.050 21.294779
69.055 21.774075
69.060 21.592632
69.065 21.367048
69.070 20.835688
69.075 21.053829
69.080 21.441202
69.085 21.841158
69.090 22.400618
69.095 22.174278
69.100 22.530479
69.105 23.204655
69.110 23.476982
69.115 23.548384
69.120 23.91593
69.125 23.719944
69.130 23.83424
69.135 23.551737
69.140 23.64649
69.145 23.626265
69.150 23.98609
69.155 23.52042
69.160 23.448212
69.165 23.937649
69.170 24.112976
69.175 23.880014
69.180 23.564154
69.185 23.520416
69.190 23.691584
69.195 23.784508
69.200 23.952129
69.205 23.998539
69.210 23.936249
69.215 24.217768
69.220 24.281569
69.225 25.018112
69.230 24.811647
69.235 24.198492
69.240 24.411411
69.245 24.937521
69.250 24.746729
69.255 24.849707
69.260 24.332718
69.265 24.151157
69.270 23.876358
69.275 23.706438
69.280 23.444723
69.285 23.914352
69.290 23.754253
69.295 23.93726
69.300 25.435406
69.305 25.876581
69.310 26.060717
69.315 26.028444
69.320 25.420963
69.325 24.895468
69.330 24.479626
69.335 22.967863
69.340 22.596773
69.345 22.76685
69.350 23.181236
69.355 23.920179
69.360 24.343212
69.365 24.646599
69.370 25.145601
69.375 25.77894
69.380 26.083361
69.385 26.455933
69.390 26.953716
69.395 27.050413
69.400 27.806593
69.405 28.075686
69.410 28.320824
69.415 28.000595
69.420 27.729633
69.425 27.280977
69.430 27.598635
69.435 27.561432
69.440 27.696281
69.445 27.413502
69.450 27.74011
69.455 27.557825
69.460 27.726326
69.465 27.478695
69.470 26.778442
69.475 26.354998
69.480 26.750751
69.485 26.220078
69.490 25.645416
69.495 25.569416
69.500 25.622112
69.505 26.150091
69.510 26.24147
69.515 26.423847
69.520 26.562963
69.525 26.784428
69.530 26.669683
69.535 27.089062
69.540 26.990671
69.545 27.334324
69.550 27.55191
69.555 28.552149
69.560 28.630056
69.565 28.255947
69.570 28.339926
69.575 28.681005
69.580 28.57365
69.585 28.373676
69.590 27.312786
69.595 27.362459
69.600 27.697676
69.605 27.215076
69.610 26.951851
69.615 27.429535
69.620 28.098539
69.625 28.696613
69.630 28.878462
69.635 29.267582
69.640 29.747862
69.645 29.649847
69.650 28.69927
69.655 28.107115
69.660 27.5214
69.665 26.743357
69.670 25.974072
69.675 25.861841
69.680 25.77742
69.685 25.555904
69.690 25.128735
69.695 25.405512
69.700 26.452507
69.705 26.338604
69.710 26.565454
69.715 25.961992
69.720 25.886494
69.725 25.892998
69.730 25.533941
69.735 25.480284
69.740 25.336693
69.745 25.588285
69.750 26.089981
69.755 26.046728
69.760 25.846437
69.765 25.121401
69.770 24.958315
69.775 24.798052
69.780 24.065273
69.785 23.968191
69.790 24.156624
69.795 24.40748
69.800 24.402603
69.805 23.777668
69.810 23.635574
69.815 24.231096
69.820 23.88479
69.825 23.261995
69.830 23.674484
69.835 23.605942
69.840 23.206854
69.845 22.48152
69.850 21.648964
69.855 22.572475
69.860 22.395599
69.865 21.943512
69.870 21.918701
69.875 22.2265
69.880 22.844774
69.885 23.067633
69.890 22.658758
69.895 22.688751
69.900 22.448515
69.905 22.512016
69.910 22.712057
69.915 22.90715
69.920 22.309978
69.925 22.273182
69.930 22.440962
69.935 22.939844
69.940 23.462097
69.945 23.112291
69.950 22.68996
69.955 23.08139
69.960 23.2139
69.965 22.61727
69.970 22.480064
69.975 21.525995
69.980 21.275713
69.985 21.464157
69.990 21.193935
69.995 20.725246
70.000 20.658108
70.005 20.215408
70.010 20.58222
70.015 20.351927
70.020 20.141542
70.025 20.034698
70.030 20.296894
70.035 20.700058
70.040 20.638357
70.045 20.755625
70.050 21.039429
70.055 21.363792
70.060 20.829615
70.065 19.97971
70.070 19.479239
70.075 19.499641
70.080 19.474754
70.085 19.356604
70.090 18.979956
70.095 19.820343
70.100 20.789747
70.105 21.29838
70.110 21.535732
70.115 21.571678
70.120 21.345442
70.125 21.769623
70.130 21.923347
70.135 21.742661
70.140 20.629618
70.145 20.357355
70.150 20.42791
70.155 20.245352
70.160 19.5711
70.165 18.632555
70.170 18.269217
70.175 18.438007
70.180 18.138479
70.185 17.436729
70.190 17.088717
70.195 17.312574
70.200 17.732033
70.205 17.576807
70.210 17.829807
70.215 17.770632
70.220 18.213888
70.225 17.896303
70.230 17.774027
70.235 17.733931
70.240 18.304186
70.245 18.904774
70.250 18.512926
70.255 18.470154
70.260 18.651165
70.265 18.574537
70.270 18.282042
70.275 17.765804
70.280 17.449625
70.285 18.147673
70.290 18.255341
70.295 18.290888
70.300 18.644585
70.305 18.913122
70.310 19.174896
70.315 19.591938
70.320 19.162092
70.325 19.448547
70.330 19.158592
70.335 18.347755
70.340 18.292515
70.345 17.567995
70.350 17.10478
70.355 17.33041
70.360 17.960293
70.365 18.298822
70.370 18.65708
70.375 18.608471
70.380 19.34363
70.385 19.672728
70.390 19.42345
70.395 19.346712
70.400 19.28463
70.405 19.430132
70.410 19.377201
70.415 18.573294
70.420 18.345695
70.425 17.850708
70.430 17.418167
70.435 17.751583
70.440 17.231819
70.445 17.472054
70.450 17.737223
70.455 18.003258
70.460 18.695518
70.465 19.090099
70.470 19.671953
70.475 19.610594
70.480 19.35854
70.485 19.979454
70.490 19.926891
70.495 19.409637
70.500 19.606207
70.505 19.677671
70.510 19.897615
70.515 19.763359
70.520 19.201784
70.525 19.059832
70.530 18.924805
70.535 18.456974
70.540 18.572186
70.545 18.679615
70.550 18.906975
70.555 18.779083
70.560 18.958899
70.565 19.289509
70.570 19.025875
70.575 18.48218
70.580 18.267954
70.585 17.945887
70.590 18.599607
70.595 18.403263
70.600 17.97418
70.605 18.104837
70.610 18.789186
70.615 19.150858
70.620 19.249865
70.625 18.818985
70.630 19.158976
70.635 19.085846
70.640 19.338209
70.645 19.309156
70.650 19.284615
70.655 19.185488
70.660 19.140415
70.665 19.352642
70.670 19.665819
70.675 19.553873
70.680 19.861717
70.685 19.893648
70.690 20.213648
70.695 20.390333
70.700 20.110479
70.705 19.778475
70.710 19.34507
70.715 18.802267
70.720 18.442808
70.725 18.874619
70.730 18.723757
70.735 19.303793
70.740 19.753019
70.745 19.388109
70.750 19.633844
70.755 20.197475
70.760 20.007092
70.765 20.293219
70.770 19.58441
70.775 19.233992
70.780 19.74968
70.785 19.788843
70.790 20.113047
70.795 20.203712
70.800 20.086676
70.805 20.249388
70.810 20.260584
70.815 19.757856
70.820 19.535362
70.825 18.523317
70.830 18.548843
70.835 18.273605
70.840 17.799801
70.845 18.020912
70.850 18.606033
70.855 18.835184
70.860 18.138288
70.865 17.662851
70.870 17.581018
70.875 17.413395
70.880 17.436523
70.885 17.184301
70.890 17.135334
70.895 17.829882
70.900 17.728472
70.905 17.72073
70.910 17.60318
70.915 17.279625
70.920 17.013855
70.925 17.393608
70.930 16.736351
70.935 17.206871
70.940 17.627214
70.945 17.66077
70.950 17.792337
70.955 17.948118
70.960 18.124664
70.965 18.417339
70.970 18.515209
70.975 18.562237
70.980 18.543837
70.985 18.752403
70.990 18.920328
70.995 18.38685
71.000 17.774292
71.005 17.531033
71.010 17.80831
71.015 17.810724
71.020 18.066343
71.025 17.528662
71.030 17.541193
71.035 17.75588
71.040 18.059374
71.045 17.768309
71.050 17.556259
71.055 17.104904
71.060 17.272757
71.065 17.359365
71.070 17.338778
71.075 17.366724
71.080 17.730381
71.085 17.817215
71.090 18.117828
71.095 19.200537
71.100 19.598757
71.105 19.523401
71.110 19.197676
71.115 18.408138
71.120 18.227062
71.125 17.847303
71.130 17.031759
71.135 16.61171
71.140 16.706482
71.145 16.60482
71.150 16.945854
71.155 17.08761
71.160 17.349802
71.165 17.915621
71.170 18.648983
71.175 18.750408
71.180 18.744879
71.185 18.806456
71.190 18.630703
71.195 18.0301
71.200 17.446751
71.205 17.043896
71.210 17.256472
71.215 17.403189
71.220 17.241028
71.225 17.344021
71.230 17.979374
71.235 17.378752
71.240 17.444519
71.245 17.171522
71.250 17.254938
71.255 17.442928
71.260 17.308525
71.265 17.720415
71.270 18.621012
71.275 18.251993
71.280 18.140612
71.285 17.733339
71.290 17.872866
71.295 17.77055
71.300 17.291121
71.305 17.263823
71.310 17.347618
71.315 16.886482
71.320 16.997389
71.325 16.825367
71.330 16.40794
71.335 16.355923
71.340 16.30311
71.345 16.413523
71.350 16.85652
71.355 16.495592
71.360 16.115343
71.365 15.821112
71.370 15.837456
71.375 16.211807
71.380 16.202349
71.385 15.975822
71.390 16.243164
71.395 16.2467
71.400 16.508989
71.405 16.226854
71.410 16.07914
71.415 16.543053
71.420 17.108818
71.425 17.961613
71.430 18.329103
71.435 18.919456
71.440 19.145914
71.445 19.369848
71.450 19.274078
71.455 18.828485
71.460 18.871153
71.465 18.907658
71.470 18.646547
71.475 17.970877
71.480 17.925734
71.485 17.55575
71.490 17.402559
71.495 16.745089
71.500 16.994114
71.505 17.13689
71.510 16.738123
71.515 16.302015
71.520 16.691236
71.525 16.751364
71.530 17.02006
71.535 16.343927
71.540 16.86529
71.545 17.933445
71.550 18.67803
71.555 18.641485
71.560 18.346563
71.565 18.289652
71.570 18.404488
71.575 17.698841
71.580 16.867926
71.585 16.673424
71.590 17.168795
71.595 17.521696
71.600 17.394884
71.605 16.988947
71.610 17.845139
71.615 18.368265
71.620 18.270416
71.625 18.361835
71.630 18.148701
71.635 18.472366
71.640 18.433167
71.645 17.860706
71.650 17.804462
71.655 17.867567
71.660 17.740919
71.665 17.92926
71.670 18.587397
71.675 18.998442
71.680 18.883949
71.685 19.110958
71.690 18.531729
71.695 18.195829
71.700 18.048178
71.705 17.888388
71.710 18.341492
71.715 18.360428
71.720 18.115286
71.725 18.662167
71.730 18.766186
71.735 18.671629
71.740 18.913065
71.745 18.44145
71.750 18.622547
71.755 18.907579
71.760 19.297335
71.765 19.329317
71.770 18.917381
71.775 18.565523
71.780 18.755716
71.785 17.978151
71.790 17.273199
71.795 16.864283
71.800 16.876911
71.805 16.884382
71.810 16.555548
71.815 16.707119
71.820 16.751293
71.825 16.604427
71.830 16.638401
71.835 16.210958
71.840 15.881866
71.845 15.923784
71.850 15.646103
71.855 15.683524
71.860 16.187515
71.865 16.488214
71.870 16.912912
71.875 17.168085
71.880 17.156389
71.885 17.327026
71.890 17.675043
71.895 17.359409
71.900 17.247519
71.905 17.231627
71.910 17.237558
71.915 17.188911
71.920 16.888491
71.925 17.012886
71.930 17.226208
71.935 17.280602
71.940 17.260021
71.945 17.359671
71.950 17.092667
71.955 16.81106
71.960 16.567043
71.965 16.28019
71.970 15.781654
71.975 15.564122
71.980 15.467344
71.985 15.957085
71.990 16.356329
71.995 16.249388
72.000 16.616547
72.005 16.821371
72.010 16.893904
72.015 16.761368
72.020 16.716204
72.025 16.748766
72.030 16.127346
72.035 15.754628
72.040 15.822804
72.045 16.177877
72.050 16.129477
72.055 15.739627
72.060 16.227409
72.065 17.230614
72.070 17.195961
72.075 17.31996
72.080 17.114597
72.085 17.325964
72.090 17.280426
72.095 17.170403
72.100 17.18848
72.105 17.154804
72.110 16.938114
72.115 17.415504
72.120 17.812983
72.125 17.452719
72.130 17.015926
72.135 17.006397
72.140 17.633123
72.145 17.90513
72.150 17.620499
72.155 17.180569
72.160 17.850567
72.165 17.857664
72.170 17.887957
72.175 17.825747
72.180 17.662109
72.185 18.02911
72.190 18.608515
72.195 18.41222
72.200 18.474808
72.205 18.129793
72.210 17.797871
72.215 17.80106
72.220 17.417387
72.225 16.679111
72.230 16.267265
72.235 16.169809
72.240 16.52492
72.245 17.009695
72.250 16.504168
72.255 16.713846
72.260 17.519213
72.265 17.61158
72.270 17.415812
72.275 17.15802
72.280 17.006233
72.285 17.734358
72.290 17.279726
72.295 17.003544
72.300 17.520985
72.305 17.715765
72.310 17.61442
72.315 17.740389
72.320 17.619562
72.325 17.820694
72.330 17.893448
72.335 17.650866
72.340 17.835846
72.345 18.08386
72.350 17.771992
72.355 17.579432
72.360 17.782068
72.365 17.807943
72.370 17.605698
72.375 17.828697
72.380 17.539959
72.385 17.721832
72.390 17.32865
72.395 17.078823
72.400 16.959883
72.405 16.54974
72.410 16.326941
72.415 16.6052
72.420 16.488325
72.425 16.08489
72.430 15.971531
72.435 15.566731
72.440 15.404832
72.445 15.25278
72.450 15.272723
72.455 15.40641
72.460 15.621917
72.465 15.241122
72.470 15.495996
72.475 15.846379
72.480 15.488712
72.485 15.551917
72.490 15.765696
72.495 16.263773
72.500 16.875765
72.505 16.551981
72.510 16.378283
72.515 16.254572
72.520 15.862934
72.525 16.025349
72.530 15.238598
72.535 15.306694
72.540 15.318152
72.545 14.906548
72.550 14.781674
72.555 14.886565
72.560 15.004452
72.565 15.557086
72.570 15.822601
72.575 16.370285
72.580 17.28616
72.585 17.33029
72.590 16.652605
72.595 16.944225
72.600 17.248755
72.605 17.404688
72.610 17.371611
72.615 17.387556
72.620 18.086319
72.625 18.749935
72.630 18.442318
72.635 17.864119
72.640 17.085714
72.645 17.104675
72.650 16.749693
72.655 16.249939
72.660 16.00078
72.665 16.077137
72.670 16.138105
72.675 16.031048
72.680 16.004309
72.685 16.392408
72.690 16.752115
72.695 16.982027
72.700 16.869375
72.705 17.080296
72.710 17.209785
72.715 17.257738
72.720 17.122873
72.725 17.294502
72.730 17.604332
72.735 18.067139
72.740 18.214622
72.745 18.077505
72.750 17.263308
72.755 17.306067
72.760 16.602619
72.765 16.239809
72.770 15.801296
72.775 15.654552
72.780 16.056362
72.785 15.831831
72.790 15.339768
72.795 15.073761
72.800 14.880754
72.805 14.742697
72.810 15.079712
72.815 15.504704
72.820 16.073923
72.825 16.04261
72.830 16.395819
72.835 16.874336
72.840 16.489428
72.845 16.190031
72.850 15.631608
72.855 15.769108
72.860 15.518885
72.865 15.085963
72.870 15.036537
72.875 15.153623
72.880 14.882894
72.885 14.87645
72.890 14.855989
72.895 15.647086
72.900 15.647981
72.905 16.258949
72.910 16.365704
72.915 16.800243
72.920 16.907469
72.925 17.120476
72.930 16.402706
72.935 16.639608
72.940 16.358736
72.945 16.761612
72.950 16.762653
72.955 16.516235
72.960 17.206806
72.965 17.102495
72.970 17.136471
72.975 17.05558
72.980 16.442303
72.985 16.473637
72.990 16.261929
72.995 15.460525
73.000 15.629136
