!@!!GADDS PLOTSO FILE: Chi integration type
!@!!Title/SampleName: map-49
!@!!Comment: ?
!@!!User: Bruker Instrument Administrator
!@!!Site: University of Illinois Chicago
!@!!Frame: map-49_01_000.gfrm
!@!!Wavelengths    1.54184   1.54056   1.54439
!@!!Frame angles: 2Theta: 63.000 Omega: 50.000 Phi: 0.000 Chi: 90.000
!@!!Integration range: 2Theta: 53.000 to 73.000  Gamma: -105.000 to -75.000
!@!!Integration method: bin normalized
!@!N
!@!SS
!@!M
!@!L 0.0 0.0 0.0 0.0
!@!XDegrees
!@!YCounts
53.000 9.159964
53.005 9.404252
53.010 9.383491
53.015 9.805059
53.020 9.96903
53.025 9.852961
53.030 10.270559
53.035 10.402369
53.040 10.14828
53.045 10.018068
53.050 9.675401
53.055 9.649096
53.060 9.658535
53.065 9.25548
53.070 9.171702
53.075 8.978109
53.080 8.809538
53.085 8.990234
53.090 8.692411
53.095 8.587369
53.100 8.811697
53.105 9.101096
53.110 9.327902
53.115 9.758944
53.120 9.860424
53.125 10.226474
53.130 10.809918
53.135 10.339871
53.140 10.178549
53.145 9.97531
53.150 9.869444
53.155 9.946154
53.160 9.571413
53.165 9.703266
53.170 9.79409
53.175 9.501514
53.180 9.103194
53.185 9.533297
53.190 9.794746
53.195 9.700361
53.200 9.207989
53.205 9.299099
53.210 9.510792
53.215 9.766675
53.220 9.245382
53.225 9.456882
53.230 9.75606
53.235 10.21326
53.240 10.646174
53.245 10.870001
53.250 10.398775
53.255 10.609918
53.260 10.33923
53.265 10.223328
53.270 10.228683
53.275 9.983762
53.280 9.949414
53.285 10.595356
53.290 10.625498
53.295 10.96168
53.300 10.85595
53.305 11.010861
53.310 11.438365
53.315 11.898835
53.320 11.623261
53.325 11.309606
53.330 10.909944
53.335 11.080752
53.340 11.003325
53.345 10.836555
53.350 10.447783
53.355 10.744231
53.360 10.771151
53.365 10.753121
53.370 10.852769
53.375 10.50475
53.380 10.266195
53.385 10.014804
53.390 9.514012
53.395 9.771308
53.400 9.949372
53.405 10.173256
53.410 10.480401
53.415 10.753301
53.420 10.98123
53.425 11.255703
53.430 11.078941
53.435 10.916818
53.440 11.110396
53.445 10.756673
53.450 10.32851
53.455 10.218228
53.460 9.688415
53.465 9.604918
53.470 9.035837
53.475 8.470323
53.480 8.537881
53.485 8.470175
53.490 8.904924
53.495 8.978096
53.500 9.000741
53.505 9.372331
53.510 9.623219
53.515 9.560975
53.520 9.69222
53.525 9.669923
53.530 10.410425
53.535 10.686084
53.540 10.846481
53.545 11.496752
53.550 11.986306
53.555 11.969842
53.560 11.594247
53.565 11.032238
53.570 11.121993
53.575 10.681963
53.580 10.215683
53.585 9.576881
53.590 9.146768
53.595 9.478219
53.600 9.583525
53.605 9.63695
53.610 9.500356
53.615 9.21348
53.620 9.330719
53.625 9.477462
53.630 9.337361
53.635 9.040548
53.640 9.247109
53.645 9.297688
53.650 9.586713
53.655 9.64765
53.660 9.569653
53.665 9.3841
53.670 9.359075
53.675 8.864932
53.680 8.782003
53.685 8.961328
53.690 9.363945
53.695 9.735589
53.700 9.754816
53.705 9.816905
53.710 10.363039
53.715 10.47169
53.720 10.24067
53.725 9.969514
53.730 9.90568
53.735 10.300494
53.740 10.641674
53.745 10.880503
53.750 11.405238
53.755 11.740096
53.760 12.033298
53.765 11.787628
53.770 11.444452
53.775 11.044733
53.780 11.097986
53.785 10.60453
53.790 10.501547
53.795 10.280176
53.800 10.634756
53.805 10.63852
53.810 10.139374
53.815 10.075068
53.820 10.701783
53.825 10.954383
53.830 11.439093
53.835 11.290232
53.840 11.426552
53.845 11.810409
53.850 11.844744
53.855 11.434651
53.860 11.481301
53.865 11.378208
53.870 11.888861
53.875 12.233142
53.880 12.007345
53.885 11.44906
53.890 11.467277
53.895 11.300316
53.900 11.190106
53.905 10.759318
53.910 10.219098
53.915 10.192945
53.920 10.342076
53.925 10.213282
53.930 10.009381
53.935 9.860721
53.940 10.393592
53.945 10.612327
53.950 10.562237
53.955 10.537251
53.960 10.951379
53.965 11.177632
53.970 11.002932
53.975 10.491909
53.980 10.798088
53.985 10.785384
53.990 10.931519
53.995 10.778275
54.000 10.9426
54.005 10.972343
54.010 10.699034
54.015 10.08835
54.020 10.180608
54.025 9.431973
54.030 9.472775
54.035 9.706112
54.040 9.70823
54.045 9.829736
54.050 9.973845
54.055 10.195178
54.060 10.771889
54.065 11.15882
54.070 11.304699
54.075 11.606335
54.080 11.768411
54.085 11.93881
54.090 12.126302
54.095 11.640684
54.100 10.834805
54.105 10.668787
54.110 10.315449
54.115 10.279337
54.120 9.95614
54.125 9.985591
54.130 10.005526
54.135 10.021528
54.140 10.004778
54.145 10.296895
54.150 10.296891
54.155 10.362853
54.160 10.573546
54.165 10.534236
54.170 10.79344
54.175 10.528569
54.180 10.845665
54.185 11.067369
54.190 11.011779
54.195 10.77531
54.200 10.740184
54.205 10.877414
54.210 11.133542
54.215 10.772943
54.220 10.60944
54.225 10.380563
54.230 10.488843
54.235 11.058615
54.240 11.211547
54.245 11.22671
54.250 11.130849
54.255 11.057619
54.260 11.305742
54.265 11.170515
54.270 10.931107
54.275 10.513768
54.280 10.930257
54.285 11.203953
54.290 11.301987
54.295 11.282024
54.300 11.210337
54.305 10.968563
54.310 10.637072
54.315 10.019997
54.320 10.295331
54.325 10.301366
54.330 10.677808
54.335 11.0825
54.340 11.835017
54.345 12.5581
54.350 12.734762
54.355 12.678894
54.360 12.910522
54.365 12.746515
54.370 12.264925
54.375 12.016132
54.380 11.751469
54.385 11.593717
54.390 11.398138
54.395 11.212308
54.400 11.390207
54.405 11.517843
54.410 11.612289
54.415 11.639132
54.420 11.838909
54.425 11.826635
54.430 11.500917
54.435 11.236412
54.440 11.282305
54.445 11.377433
54.450 11.39871
54.455 11.330791
54.460 11.11741
54.465 11.098783
54.470 10.863869
54.475 10.29384
54.480 10.649313
54.485 10.646662
54.490 10.70213
54.495 10.713288
54.500 10.841179
54.505 11.184313
54.510 10.834702
54.515 10.963603
54.520 11.122497
54.525 11.209499
54.530 11.560038
54.535 11.64915
54.540 11.511622
54.545 11.351254
54.550 10.883879
54.555 10.87442
54.560 10.646199
54.565 10.509958
54.570 10.319125
54.575 10.013764
54.580 10.172708
54.585 10.312078
54.590 10.149298
54.595 10.370563
54.600 10.226995
54.605 10.35193
54.610 10.518586
54.615 10.216029
54.620 10.038462
54.625 10.002892
54.630 9.862951
54.635 10.214455
54.640 10.563309
54.645 11.217092
54.650 11.657181
54.655 11.452414
54.660 11.362872
54.665 11.113916
54.670 10.735182
54.675 10.670406
54.680 10.280556
54.685 10.072301
54.690 10.311911
54.695 10.585509
54.700 10.947875
54.705 11.171019
54.710 10.872943
54.715 11.235773
54.720 11.274424
54.725 11.310307
54.730 11.050576
54.735 10.645144
54.740 10.500885
54.745 10.924949
54.750 11.040583
54.755 11.172111
54.760 11.357342
54.765 11.568609
54.770 11.925972
54.775 11.912641
54.780 11.786754
54.785 11.717985
54.790 11.325656
54.795 11.526402
54.800 11.882369
54.805 12.131701
54.810 12.510093
54.815 12.360953
54.820 12.821196
54.825 13.680946
54.830 13.051051
54.835 12.780059
54.840 12.520668
54.845 12.641513
54.850 12.800723
54.855 12.330056
54.860 12.14955
54.865 12.658288
54.870 12.587102
54.875 12.708863
54.880 12.613847
54.885 12.337094
54.890 12.121725
54.895 11.735317
54.900 11.192128
54.905 10.916276
54.910 10.827837
54.915 10.491702
54.920 10.641499
54.925 10.86751
54.930 11.105468
54.935 11.64891
54.940 11.993038
54.945 12.450729
54.950 12.939785
54.955 12.808701
54.960 12.868855
54.965 12.54552
54.970 12.179632
54.975 11.726019
54.980 11.077472
54.985 10.812182
54.990 11.028706
54.995 10.835715
55.000 11.003238
55.005 11.1563
55.010 11.289355
55.015 11.744283
55.020 11.856003
55.025 11.690006
55.030 11.576377
55.035 11.956944
55.040 11.873178
55.045 11.855887
55.050 11.747801
55.055 11.929136
55.060 11.81733
55.065 11.788501
55.070 11.490774
55.075 11.661077
55.080 11.271207
55.085 11.096865
55.090 10.901138
55.095 11.567439
55.100 11.953455
55.105 12.180434
55.110 12.117048
55.115 12.220326
55.120 11.854443
55.125 11.927002
55.130 11.869105
55.135 11.722259
55.140 11.321733
55.145 11.48592
55.150 11.479239
55.155 11.47213
55.160 11.298314
55.165 11.3591
55.170 11.656889
55.175 11.617283
55.180 11.830615
55.185 12.458741
55.190 13.10215
55.195 13.323214
55.200 12.88998
55.205 12.609835
55.210 13.197442
55.215 13.364801
55.220 13.036562
55.225 12.649357
55.230 12.273538
55.235 12.51321
55.240 12.926381
55.245 12.386258
55.250 11.973766
55.255 12.007918
55.260 11.962625
55.265 12.238605
55.270 12.233661
55.275 12.431674
55.280 12.763565
55.285 12.734398
55.290 12.194818
55.295 11.899832
55.300 11.882246
55.305 11.741622
55.310 11.028961
55.315 10.487941
55.320 10.862649
55.325 11.824727
55.330 11.316637
55.335 11.233987
55.340 11.441867
55.345 11.316658
55.350 11.490661
55.355 11.191429
55.360 11.326886
55.365 11.878202
55.370 11.510618
55.375 11.361761
55.380 11.765347
55.385 11.965811
55.390 11.695862
55.395 12.123331
55.400 12.220797
55.405 12.295863
55.410 12.516119
55.415 13.021729
55.420 13.432142
55.425 13.954288
55.430 13.753151
55.435 13.917002
55.440 14.210416
55.445 13.649463
55.450 13.050333
55.455 12.426085
55.460 12.046473
55.465 12.492199
55.470 12.223388
55.475 12.20478
55.480 12.656597
55.485 12.649681
55.490 12.770157
55.495 12.661269
55.500 12.679402
55.505 12.582289
55.510 12.203523
55.515 12.274734
55.520 11.978785
55.525 11.866927
55.530 11.610899
55.535 10.959391
55.540 11.373744
55.545 11.654717
55.550 11.722085
55.555 12.215516
55.560 12.417092
55.565 12.765999
55.570 12.867103
55.575 12.857262
55.580 12.47746
55.585 12.119343
55.590 11.915419
55.595 12.241166
55.600 11.786707
55.605 11.397783
55.610 11.143087
55.615 11.096344
55.620 11.270589
55.625 11.258193
55.630 11.187016
55.635 11.956838
55.640 12.800897
55.645 12.910038
55.650 13.28631
55.655 13.079246
55.660 12.662082
55.665 12.279072
55.670 11.722746
55.675 11.140842
55.680 11.045724
55.685 11.218637
55.690 11.330218
55.695 11.760116
55.700 12.318537
55.705 12.01917
55.710 11.974937
55.715 11.616519
55.720 11.944302
55.725 11.793681
55.730 11.738928
55.735 11.196283
55.740 11.019917
55.745 11.087878
55.750 11.600092
55.755 11.421199
55.760 11.623471
55.765 11.719568
55.770 12.088592
55.775 12.649194
55.780 12.706906
55.785 12.278514
55.790 12.023864
55.795 11.318128
55.800 11.232704
55.805 11.16538
55.810 10.995632
55.815 11.434738
55.820 11.912461
55.825 12.3231
55.830 12.690018
55.835 12.445275
55.840 12.469806
55.845 13.10283
55.850 13.090405
55.855 13.526128
55.860 13.595268
55.865 13.96342
55.870 13.929043
55.875 13.914535
55.880 12.863444
55.885 12.244699
55.890 11.417206
55.895 10.950869
55.900 10.709063
55.905 10.813746
55.910 11.188099
55.915 11.575737
55.920 11.532839
55.925 11.57691
55.930 11.959461
55.935 11.837005
55.940 11.552362
55.945 11.373778
55.950 11.585836
55.955 11.557203
55.960 11.44373
55.965 11.493088
55.970 12.067748
55.975 12.832391
55.980 13.001464
55.985 12.909538
55.990 12.940005
55.995 13.219111
56.000 12.817446
56.005 12.563132
56.010 12.301283
56.015 12.848845
56.020 12.840708
56.025 12.972046
56.030 13.013713
56.035 13.136534
56.040 13.32192
56.045 13.372914
56.050 13.232633
56.055 13.54013
56.060 13.507822
56.065 13.509154
56.070 13.331562
56.075 13.56492
56.080 13.747231
56.085 13.922298
56.090 13.590138
56.095 13.54655
56.100 13.846416
56.105 13.82733
56.110 13.747626
56.115 13.415936
56.120 13.282175
56.125 13.031479
56.130 12.619313
56.135 12.766828
56.140 12.830669
56.145 12.395829
56.150 12.21812
56.155 12.679976
56.160 12.956856
56.165 12.956598
56.170 12.588349
56.175 12.819937
56.180 12.532226
56.185 12.346627
56.190 11.70986
56.195 12.001752
56.200 12.433259
56.205 12.621881
56.210 12.386755
56.215 13.339151
56.220 13.32434
56.225 13.879318
56.230 14.161222
56.235 14.488414
56.240 14.400842
56.245 14.763561
56.250 14.061926
56.255 14.412814
56.260 14.067706
56.265 13.895453
56.270 13.626983
56.275 13.127281
56.280 13.412019
56.285 13.951157
56.290 13.913461
56.295 14.07433
56.300 13.458211
56.305 13.537399
56.310 14.042889
56.315 13.564015
56.320 12.916956
56.325 12.619927
56.330 12.533694
56.335 12.798264
56.340 12.834362
56.345 12.281746
56.350 12.231046
56.355 12.584822
56.360 12.209928
56.365 12.325097
56.370 12.128615
56.375 12.120798
56.380 12.052155
56.385 12.423945
56.390 12.479305
56.395 12.737276
56.400 12.296244
56.405 12.314622
56.410 12.298543
56.415 12.415783
56.420 12.0439
56.425 12.571878
56.430 13.000269
56.435 13.428116
56.440 13.304555
56.445 13.075224
56.450 12.916278
56.455 12.67183
56.460 12.626131
56.465 12.394786
56.470 12.553088
56.475 13.07234
56.480 13.546542
56.485 14.00656
56.490 14.36879
56.495 14.689928
56.500 14.930938
56.505 14.842237
56.510 14.923944
56.515 14.264866
56.520 14.129595
56.525 13.901055
56.530 13.04427
56.535 13.239604
56.540 12.86634
56.545 12.523873
56.550 12.476877
56.555 12.395675
56.560 12.482996
56.565 12.389663
56.570 11.949029
56.575 12.078403
56.580 12.603367
56.585 12.80104
56.590 12.996427
56.595 12.830489
56.600 13.036126
56.605 13.047016
56.610 12.875389
56.615 12.831919
56.620 13.33565
56.625 13.462817
56.630 13.637259
56.635 13.436016
56.640 13.625631
56.645 13.340464
56.650 13.114829
56.655 12.271533
56.660 12.303254
56.665 12.604274
56.670 13.098243
56.675 13.23451
56.680 13.36848
56.685 13.210249
56.690 13.454786
56.695 13.235844
56.700 13.137698
56.705 12.93045
56.710 12.927808
56.715 13.20638
56.720 13.796249
56.725 13.971398
56.730 14.234308
56.735 14.479468
56.740 14.948333
56.745 15.245601
56.750 14.960578
56.755 14.662242
56.760 14.597318
56.765 13.980692
56.770 13.933334
56.775 13.612993
56.780 13.778024
56.785 13.793826
56.790 14.0558
56.795 14.126117
56.800 14.195807
56.805 14.229665
56.810 14.435831
56.815 14.487997
56.820 14.739067
56.825 14.365379
56.830 14.208164
56.835 14.266022
56.840 13.725941
56.845 13.360469
56.850 13.163835
56.855 13.103513
56.860 13.207592
56.865 13.165241
56.870 13.279538
56.875 13.481095
56.880 13.348518
56.885 13.50925
56.890 13.736865
56.895 13.995877
56.900 14.308013
56.905 14.41598
56.910 14.455596
56.915 14.374701
56.920 14.279156
56.925 14.157149
56.930 14.019171
56.935 13.94785
56.940 13.714928
56.945 13.420259
56.950 13.08745
56.955 12.832778
56.960 12.454015
56.965 12.30988
56.970 11.670936
56.975 11.767747
56.980 12.237113
56.985 12.825089
56.990 12.951845
56.995 13.456852
57.000 13.552803
57.005 13.947415
57.010 14.155674
57.015 14.578812
57.020 14.292765
57.025 14.021809
57.030 13.753493
57.035 14.256209
57.040 14.205252
57.045 13.628758
57.050 12.778784
57.055 13.135579
57.060 13.769858
57.065 13.662101
57.070 13.291085
57.075 13.812837
57.080 14.229739
57.085 14.147049
57.090 13.377336
57.095 12.910804
57.100 13.378513
57.105 13.247934
57.110 12.770851
57.115 13.070299
57.120 13.188039
57.125 13.903883
57.130 14.270391
57.135 14.189496
57.140 14.398245
57.145 14.389996
57.150 14.331957
57.155 14.412136
57.160 13.756518
57.165 13.175732
57.170 13.004524
57.175 12.836849
57.180 12.972677
57.185 12.998308
57.190 12.985743
57.195 13.552881
57.200 13.969441
57.205 13.914808
57.210 14.099851
57.215 13.790197
57.220 13.704124
57.225 13.771053
57.230 13.295781
57.235 13.081624
57.240 13.376643
57.245 13.659418
57.250 14.097697
57.255 14.290429
57.260 14.252828
57.265 14.274695
57.270 14.267876
57.275 14.433868
57.280 14.853488
57.285 14.797874
57.290 14.731199
57.295 14.923218
57.300 14.823524
57.305 14.805606
57.310 14.20283
57.315 13.875134
57.320 13.648311
57.325 13.776741
57.330 14.22518
57.335 14.290446
57.340 13.986812
57.345 14.517025
57.350 14.282399
57.355 14.109069
57.360 14.154945
57.365 13.288312
57.370 13.255249
57.375 13.791626
57.380 14.038648
57.385 14.241195
57.390 14.010697
57.395 14.253703
57.400 15.11669
57.405 15.216917
57.410 14.954034
57.415 14.350557
57.420 13.883987
57.425 13.800646
57.430 13.866403
57.435 13.939299
57.440 14.152864
57.445 14.176959
57.450 14.714469
57.455 15.621377
57.460 15.839802
57.465 15.73136
57.470 15.524969
57.475 15.312348
57.480 15.177913
57.485 14.735369
57.490 14.136085
57.495 13.880766
57.500 14.073055
57.505 14.133704
57.510 14.489305
57.515 14.712472
57.520 14.497458
57.525 14.769805
57.530 14.454309
57.535 13.650183
57.540 13.474633
57.545 13.27447
57.550 12.995525
57.555 13.553705
57.560 13.857274
57.565 14.062029
57.570 14.740742
57.575 14.63238
57.580 14.784334
57.585 14.996531
57.590 14.751147
57.595 14.598386
57.600 14.732623
57.605 14.658804
57.610 15.139788
57.615 15.096067
57.620 14.965218
57.625 15.358939
57.630 15.547234
57.635 15.219038
57.640 14.833184
57.645 14.801147
57.650 14.454935
57.655 14.998556
57.660 14.683492
57.665 14.285718
57.670 14.596286
57.675 15.258872
57.680 15.907701
57.685 15.985417
57.690 15.785441
57.695 16.367254
57.700 16.811272
57.705 17.080828
57.710 17.198929
57.715 16.894985
57.720 16.917503
57.725 17.062521
57.730 16.994081
57.735 16.536228
57.740 16.088722
57.745 15.475855
57.750 15.224199
57.755 15.418818
57.760 15.376225
57.765 15.442018
57.770 15.98284
57.775 15.667105
57.780 15.432997
57.785 15.473047
57.790 15.124043
57.795 14.857537
57.800 14.23266
57.805 14.309079
57.810 14.87454
57.815 15.009855
57.820 15.103036
57.825 15.630508
57.830 15.735137
57.835 15.929769
57.840 15.86708
57.845 15.493362
57.850 15.430142
57.855 15.185685
57.860 14.714936
57.865 15.25526
57.870 15.472515
57.875 15.388286
57.880 15.693195
57.885 15.475204
57.890 15.498822
57.895 15.713001
57.900 15.561072
57.905 15.301318
57.910 15.796554
57.915 16.064863
57.920 16.1052
57.925 16.474493
57.930 16.467859
57.935 17.200462
57.940 18.088488
57.945 17.500906
57.950 17.262877
57.955 17.36776
57.960 17.279423
57.965 17.601274
57.970 16.663757
57.975 16.371033
57.980 16.433773
57.985 16.524628
57.990 16.626642
57.995 16.93425
58.000 16.680504
58.005 16.511484
58.010 16.68243
58.015 17.295427
58.020 17.255569
58.025 17.09721
58.030 16.596966
58.035 16.712992
58.040 17.128662
58.045 17.140905
58.050 17.397533
58.055 17.832529
58.060 17.566772
58.065 17.372658
58.070 17.391027
58.075 16.998606
58.080 16.316343
58.085 15.600242
58.090 15.912057
58.095 15.849913
58.100 15.531921
58.105 15.5365
58.110 15.874279
58.115 16.204771
58.120 16.183598
58.125 15.750242
58.130 16.28212
58.135 16.699055
58.140 16.550058
58.145 16.887524
58.150 17.029989
58.155 17.008917
58.160 16.80657
58.165 16.444878
58.170 16.929224
58.175 17.980307
58.180 17.773941
58.185 17.812599
58.190 17.638147
58.195 17.402054
58.200 17.502867
58.205 17.163567
58.210 16.346325
58.215 16.380432
58.220 16.444029
58.225 17.049753
58.230 18.239361
58.235 18.784496
58.240 18.60103
58.245 18.538519
58.250 19.051674
58.255 19.426985
58.260 19.773613
58.265 19.692522
58.270 19.53618
58.275 19.468407
58.280 20.439379
58.285 20.48213
58.290 20.246796
58.295 19.968225
58.300 20.148939
58.305 20.385166
58.310 21.181349
58.315 20.663136
58.320 21.021879
58.325 21.423151
58.330 21.930145
58.335 22.724688
58.340 23.416647
58.345 23.338934
58.350 23.715219
58.355 23.708492
58.360 23.751116
58.365 22.972315
58.370 22.384012
58.375 22.262722
58.380 22.144558
58.385 21.984926
58.390 21.83021
58.395 22.386051
58.400 23.83279
58.405 24.062113
58.410 24.179869
58.415 24.732492
58.420 25.924314
58.425 26.094803
58.430 25.495386
58.435 25.136391
58.440 25.353535
58.445 24.844715
58.450 24.225103
58.455 23.989786
58.460 24.386189
58.465 25.115536
58.470 25.494881
58.475 25.991482
58.480 27.018507
58.485 27.33786
58.490 27.645241
58.495 28.559153
58.500 28.858725
58.505 29.25161
58.510 29.739645
58.515 30.089506
58.520 30.608318
58.525 31.01697
58.530 31.889767
58.535 32.548397
58.540 32.825634
58.545 32.598606
58.550 33.305668
58.555 34.009171
58.560 35.022572
58.565 34.62709
58.570 34.693516
58.575 34.751484
58.580 34.550201
58.585 34.565506
58.590 35.035244
58.595 35.417629
58.600 36.030369
58.605 35.574059
58.610 36.009472
58.615 36.56715
58.620 36.791973
58.625 37.102821
58.630 37.011921
58.635 36.909615
58.640 37.318275
58.645 36.745193
58.650 36.638023
58.655 35.879395
58.660 35.365601
58.665 35.516003
58.670 35.280807
58.675 35.29425
58.680 35.505833
58.685 35.404808
58.690 34.935177
58.695 35.098652
58.700 34.268688
58.705 34.020535
58.710 33.251637
58.715 33.188614
58.720 33.26178
58.725 33.02866
58.730 31.63689
58.735 31.669493
58.740 32.07769
58.745 31.550257
58.750 30.942787
58.755 30.59206
58.760 31.136015
58.765 30.956383
58.770 30.209812
58.775 29.564003
58.780 30.163467
58.785 30.031723
58.790 29.756351
58.795 29.379063
58.800 29.290548
58.805 29.676016
58.810 29.717842
58.815 28.831459
58.820 28.705114
58.825 28.891235
58.830 29.065063
58.835 28.986462
58.840 28.441893
58.845 27.513004
58.850 27.215361
58.855 26.498291
58.860 25.678267
58.865 24.972853
58.870 24.174341
58.875 23.292049
58.880 23.422611
58.885 23.231619
58.890 23.14257
58.895 23.231901
58.900 22.553968
58.905 21.961119
58.910 22.159
58.915 21.928268
58.920 21.84223
58.925 21.195837
58.930 20.213123
58.935 19.964186
58.940 19.521862
58.945 19.333448
58.950 18.746805
58.955 18.529577
58.960 18.798626
58.965 19.543955
58.970 19.588507
58.975 20.039803
58.980 20.161732
58.985 20.403128
58.990 19.933868
58.995 19.377497
59.000 18.867855
59.005 18.943815
59.010 18.520758
59.015 17.851273
59.020 17.340511
59.025 17.417036
59.030 17.640781
59.035 17.374174
59.040 17.734331
59.045 18.157331
59.050 18.074917
59.055 18.230955
59.060 18.179939
59.065 18.365551
59.070 18.55349
59.075 17.880739
59.080 17.581362
59.085 17.734823
59.090 17.927744
59.095 18.043673
59.100 17.961819
59.105 17.598618
59.110 17.882015
59.115 17.790474
59.120 17.151445
59.125 17.293694
59.130 17.549448
59.135 17.995104
59.140 17.980404
59.145 17.769253
59.150 17.561481
59.155 18.071823
59.160 17.956196
59.165 17.555195
59.170 17.084953
59.175 17.341581
59.180 17.831303
59.185 18.087326
59.190 17.889259
59.195 17.698175
59.200 17.701563
59.205 17.794901
59.210 17.368101
59.215 16.626448
59.220 16.487717
59.225 16.270367
59.230 16.080961
59.235 16.170975
59.240 15.969449
59.245 16.151121
59.250 15.562366
59.255 15.396098
59.260 15.389475
59.265 15.583408
59.270 15.665303
59.275 15.592434
59.280 16.48176
59.285 17.32539
59.290 17.381617
59.295 18.030888
59.300 18.18997
59.305 17.796957
59.310 18.028322
59.315 17.100153
59.320 17.119074
59.325 17.475403
59.330 17.331532
59.335 17.355062
59.340 17.293505
59.345 17.125586
59.350 16.768465
59.355 16.054943
59.360 15.538357
59.365 14.985091
59.370 14.855018
59.375 14.985698
59.380 15.080945
59.385 15.186481
59.390 15.794072
59.395 15.773055
59.400 15.948754
59.405 15.655502
59.410 15.691554
59.415 15.740791
59.420 16.249439
59.425 16.244459
59.430 16.070562
59.435 16.135057
59.440 16.138983
59.445 16.578371
59.450 16.364933
59.455 15.728248
59.460 15.872394
59.465 16.065134
59.470 15.69889
59.475 15.595225
59.480 15.291113
59.485 15.838552
59.490 16.636087
59.495 16.454592
59.500 16.693659
59.505 17.036015
59.510 16.928461
59.515 16.615437
59.520 16.41643
59.525 16.156771
59.530 15.847939
59.535 15.959748
59.540 15.800536
59.545 16.157885
59.550 16.177464
59.555 16.208225
59.560 15.990724
59.565 15.896996
59.570 15.976604
59.575 16.18429
59.580 15.771099
59.585 15.979707
59.590 15.78987
59.595 15.448241
59.600 15.497602
59.605 15.201417
59.610 15.050687
59.615 15.534855
59.620 15.126056
59.625 15.046272
59.630 15.522564
59.635 15.887768
59.640 16.270199
59.645 16.623072
59.650 16.756605
59.655 17.096743
59.660 17.020178
59.665 16.979481
59.670 16.862202
59.675 16.493023
59.680 16.391666
59.685 16.156799
59.690 16.096142
59.695 16.194183
59.700 16.236927
59.705 15.543059
59.710 15.452241
59.715 15.155044
59.720 14.93021
59.725 14.574123
59.730 14.255187
59.735 14.367733
59.740 14.746719
59.745 14.547338
59.750 14.737737
59.755 15.375582
59.760 15.739368
59.765 16.185888
59.770 16.451416
59.775 16.892967
59.780 17.975691
59.785 18.25148
59.790 18.05953
59.795 18.225748
59.800 17.896839
59.805 17.100193
59.810 16.612967
59.815 16.295717
59.820 16.341707
59.825 15.975309
59.830 15.625168
59.835 15.532997
59.840 15.566585
59.845 15.284779
59.850 13.679239
59.855 13.300327
59.860 13.337513
59.865 13.555803
59.870 13.426299
59.875 13.777584
59.880 14.14972
59.885 14.955983
59.890 15.259462
59.895 15.163589
59.900 15.415023
59.905 16.101252
59.910 15.908517
59.915 15.973016
59.920 16.28841
59.925 16.266634
59.930 16.314501
59.935 16.149282
59.940 15.838512
59.945 15.672529
59.950 15.290581
59.955 15.09683
59.960 15.102596
59.965 15.16693
59.970 14.755573
59.975 15.003428
59.980 14.675241
59.985 14.75268
59.990 14.757676
59.995 14.542665
60.000 14.626628
60.005 15.012713
60.010 15.082338
60.015 16.137472
60.020 16.125488
60.025 16.08667
60.030 16.308384
60.035 16.496292
60.040 16.318695
60.045 15.647105
60.050 15.262259
60.055 14.999693
60.060 14.857383
60.065 14.561942
60.070 14.595831
60.075 14.703933
60.080 14.978673
60.085 14.955508
60.090 15.207425
60.095 15.573216
60.100 15.194036
60.105 14.808554
60.110 14.784471
60.115 14.426546
60.120 14.494847
60.125 14.978063
60.130 15.165755
60.135 15.244161
60.140 15.429893
60.145 15.480117
60.150 15.71924
60.155 15.664711
60.160 15.139274
60.165 14.786145
60.170 15.464459
60.175 15.032602
60.180 15.218417
60.185 15.672938
60.190 16.024509
60.195 16.079823
60.200 16.461689
60.205 16.015459
60.210 15.935984
60.215 15.613288
60.220 15.043921
60.225 14.400808
60.230 14.379944
60.235 14.234165
60.240 14.27886
60.245 14.300447
60.250 14.227276
60.255 14.665926
60.260 14.634208
60.265 14.681409
60.270 14.766825
60.275 15.200422
60.280 15.789916
60.285 15.669368
60.290 15.398613
60.295 15.679869
60.300 15.508655
60.305 15.346391
60.310 15.631158
60.315 15.58977
60.320 15.81475
60.325 16.641777
60.330 16.558439
60.335 16.850243
60.340 16.765018
60.345 16.097466
60.350 16.131536
60.355 15.992667
60.360 15.795703
60.365 16.316673
60.370 16.444012
60.375 16.514566
60.380 17.092932
60.385 17.339567
60.390 17.042801
60.395 16.794704
60.400 16.164755
60.405 15.813718
60.410 15.270024
60.415 14.52845
60.420 14.449162
60.425 15.026547
60.430 15.346418
60.435 15.481187
60.440 15.532962
60.445 16.145031
60.450 16.652905
60.455 16.196995
60.460 15.565207
60.465 15.358076
60.470 15.874213
60.475 16.16394
60.480 16.480959
60.485 16.225307
60.490 16.604794
60.495 17.011501
60.500 16.95315
60.505 16.779846
60.510 16.300077
60.515 15.796056
60.520 15.995088
60.525 15.700381
60.530 15.450593
60.535 15.448892
60.540 15.455149
60.545 15.669174
60.550 15.877313
60.555 15.684379
60.560 15.812071
60.565 15.757402
60.570 15.957163
60.575 15.563283
60.580 15.150619
60.585 14.943443
60.590 15.096872
60.595 15.052775
60.600 15.045925
60.605 15.124304
60.610 15.715109
60.615 16.064056
60.620 16.025213
60.625 16.271654
60.630 16.631651
60.635 16.532495
60.640 16.094273
60.645 16.316902
60.650 15.944344
60.655 16.112179
60.660 15.980989
60.665 16.015209
60.670 16.330837
60.675 16.184958
60.680 16.283464
60.685 16.861034
60.690 16.41925
60.695 16.059372
60.700 15.817596
60.705 15.874426
60.710 16.331844
60.715 16.827858
60.720 16.519211
60.725 17.084608
60.730 17.503347
60.735 17.946655
60.740 18.53898
60.745 17.954996
60.750 17.087341
60.755 17.481129
60.760 17.284592
60.765 16.885136
60.770 16.1143
60.775 15.16176
60.780 15.227396
60.785 15.190454
60.790 14.706102
60.795 14.69905
60.800 14.890788
60.805 15.622663
60.810 16.376186
60.815 16.633951
60.820 16.703014
60.825 16.917791
60.830 16.491917
60.835 16.415945
60.840 15.654775
60.845 15.286457
60.850 15.155079
60.855 15.312392
60.860 15.706315
60.865 16.228468
60.870 16.146021
60.875 16.447744
60.880 16.334299
60.885 16.033026
60.890 15.964196
60.895 15.675783
60.900 15.631036
60.905 15.153399
60.910 15.086532
60.915 14.92118
60.920 14.904155
60.925 14.978823
60.930 14.968906
60.935 14.669224
60.940 15.648606
60.945 15.463249
60.950 15.657787
60.955 16.118151
60.960 16.331137
60.965 16.355217
60.970 16.712109
60.975 16.274929
60.980 16.303337
60.985 16.409325
60.990 16.000942
60.995 15.665127
61.000 15.738164
61.005 15.854405
61.010 15.79943
61.015 15.790267
61.020 15.036311
61.025 14.048412
61.030 13.840612
61.035 13.952598
61.040 13.929859
61.045 14.090459
61.050 14.474665
61.055 15.175588
61.060 16.139648
61.065 16.629677
61.070 16.578243
61.075 16.638008
61.080 16.888924
61.085 16.506014
61.090 15.346777
61.095 15.466512
61.100 14.955347
61.105 14.952852
61.110 14.862707
61.115 14.948975
61.120 15.668894
61.125 16.819607
61.130 17.186869
61.135 17.384809
61.140 17.326574
61.145 17.784525
61.150 16.996778
61.155 16.920284
61.160 16.458879
61.165 15.439437
61.170 15.1585
61.175 15.257539
61.180 14.842765
61.185 15.311156
61.190 15.314936
61.195 15.719521
61.200 16.440859
61.205 17.084997
61.210 17.226898
61.215 17.617668
61.220 17.442513
61.225 17.374289
61.230 17.50071
61.235 17.12808
61.240 16.344736
61.245 15.816207
61.250 15.455967
61.255 15.615677
61.260 15.67253
61.265 15.627007
61.270 15.609338
61.275 16.114754
61.280 16.050055
61.285 16.149704
61.290 15.986029
61.295 16.132957
61.300 16.34968
61.305 16.70871
61.310 16.658035
61.315 16.762365
61.320 17.373236
61.325 17.4613
61.330 16.865208
61.335 16.483377
61.340 16.259525
61.345 16.269693
61.350 16.056145
61.355 15.467772
61.360 15.28612
61.365 15.418511
61.370 16.006687
61.375 16.621359
61.380 16.24057
61.385 16.338272
61.390 16.548826
61.395 16.589058
61.400 16.520376
61.405 16.297848
61.410 15.956896
61.415 16.03665
61.420 16.072584
61.425 16.146803
61.430 16.77416
61.435 17.164387
61.440 17.556101
61.445 17.794533
61.450 18.21538
61.455 18.593901
61.460 18.478806
61.465 18.271553
61.470 17.654144
61.475 17.620371
61.480 17.356375
61.485 17.541733
61.490 17.222319
61.495 16.937923
61.500 16.607395
61.505 16.988525
61.510 16.666679
61.515 16.818193
61.520 16.545738
61.525 16.459702
61.530 16.544199
61.535 16.524612
61.540 16.406727
61.545 16.530764
61.550 16.537659
61.555 16.520466
61.560 16.519213
61.565 17.007351
61.570 17.564522
61.575 17.61648
61.580 17.286621
61.585 17.0854
61.590 17.915247
61.595 17.902031
61.600 17.308229
61.605 16.821966
61.610 16.693317
61.615 16.917973
61.620 16.867208
61.625 16.112812
61.630 15.861609
61.635 16.115141
61.640 15.960212
61.645 16.226868
61.650 16.100933
61.655 16.657534
61.660 16.427977
61.665 16.89744
61.670 16.819681
61.675 16.953711
61.680 16.709732
61.685 16.734264
61.690 16.305164
61.695 16.483189
61.700 16.199743
61.705 15.723057
61.710 15.687034
61.715 15.789239
61.720 15.698011
61.725 15.835238
61.730 16.164528
61.735 16.385586
61.740 17.291761
61.745 17.163389
61.750 16.615555
61.755 16.487434
61.760 16.379417
61.765 15.942658
61.770 16.142807
61.775 15.979973
61.780 16.710548
61.785 16.484694
61.790 16.424126
61.795 16.459042
61.800 16.727627
61.805 16.757406
61.810 16.865253
61.815 16.969667
61.820 17.673174
61.825 17.758514
61.830 17.457495
61.835 17.541191
61.840 17.623028
61.845 17.259102
61.850 16.699921
61.855 16.531515
61.860 16.545755
61.865 16.679255
61.870 16.664358
61.875 16.937166
61.880 17.477797
61.885 17.344751
61.890 17.472307
61.895 17.660908
61.900 17.767557
61.905 17.558697
61.910 17.647692
61.915 17.432489
61.920 17.409569
61.925 16.585419
61.930 16.103621
61.935 15.857808
61.940 16.003677
61.945 15.48984
61.950 15.050059
61.955 15.557508
61.960 16.499578
61.965 17.093781
61.970 17.522558
61.975 17.599495
61.980 17.361422
61.985 17.726437
61.990 17.313313
61.995 17.130577
62.000 16.957689
62.005 16.548141
62.010 15.980022
62.015 16.021194
62.020 15.75171
62.025 16.192106
62.030 16.423592
62.035 16.0303
62.040 15.793779
62.045 16.021488
62.050 16.464392
62.055 17.05279
62.060 17.167511
62.065 17.100918
62.070 17.466084
62.075 17.731781
62.080 17.086151
62.085 16.584864
62.090 15.954741
62.095 15.720429
62.100 15.742147
62.105 15.902925
62.110 16.174664
62.115 17.080667
62.120 17.402592
62.125 17.989805
62.130 18.116247
62.135 18.204695
62.140 17.911226
62.145 17.383577
62.150 17.285841
62.155 17.30188
62.160 17.022255
62.165 17.241648
62.170 17.63254
62.175 18.336319
62.180 18.522932
62.185 18.349464
62.190 17.888016
62.195 17.525553
62.200 17.665894
62.205 17.269842
62.210 17.065285
62.215 17.130053
62.220 16.836023
62.225 17.145365
62.230 17.537266
62.235 16.963655
62.240 16.70817
62.245 16.619526
62.250 17.187244
62.255 17.508982
62.260 17.598642
62.265 16.958641
62.270 16.593025
62.275 16.767603
62.280 16.402702
62.285 16.083937
62.290 15.845204
62.295 15.74615
62.300 16.961546
62.305 17.661692
62.310 17.81922
62.315 17.909428
62.320 17.896124
62.325 18.31122
62.330 17.926874
62.335 17.37796
62.340 16.857141
62.345 16.480036
62.350 16.667126
62.355 16.573515
62.360 16.508862
62.365 16.656624
62.370 15.872774
62.375 16.410234
62.380 17.111675
62.385 17.199911
62.390 16.798443
62.395 16.985523
62.400 17.263288
62.405 17.570572
62.410 17.644232
62.415 17.350586
62.420 17.325838
62.425 17.317707
62.430 16.840601
62.435 16.650604
62.440 16.60792
62.445 16.184038
62.450 15.785509
62.455 15.699768
62.460 16.496033
62.465 16.932611
62.470 17.59992
62.475 17.936512
62.480 17.772249
62.485 17.7113
62.490 17.584141
62.495 17.032211
62.500 16.616016
62.505 16.024502
62.510 15.94893
62.515 16.61442
62.520 16.67415
62.525 16.789373
62.530 16.994967
62.535 17.078279
62.540 17.109974
62.545 16.67137
62.550 16.565613
62.555 16.71633
62.560 16.39584
62.565 16.148466
62.570 16.17676
62.575 16.368715
62.580 16.91387
62.585 16.719902
62.590 16.527491
62.595 16.561306
62.600 16.916851
62.605 16.828234
62.610 16.726154
62.615 16.452734
62.620 16.341831
62.625 16.825455
62.630 17.551687
62.635 17.509291
62.640 17.296947
62.645 17.044317
62.650 17.24271
62.655 17.130306
62.660 16.920843
62.665 16.459137
62.670 16.587811
62.675 17.079924
62.680 17.221617
62.685 17.046667
62.690 17.362482
62.695 17.698076
62.700 17.817778
62.705 17.766174
62.710 17.979643
62.715 17.902531
62.720 18.164677
62.725 18.468254
62.730 18.402014
62.735 18.660788
62.740 18.854652
62.745 19.160887
62.750 19.462618
62.755 19.374531
62.760 18.976585
62.765 18.687035
62.770 18.221354
62.775 17.937849
62.780 17.317211
62.785 16.991726
62.790 17.029778
62.795 17.277802
62.800 17.365889
62.805 17.42893
62.810 17.158522
62.815 17.281782
62.820 18.143127
62.825 18.473616
62.830 18.790966
62.835 18.84087
62.840 19.194632
62.845 19.17844
62.850 18.613623
62.855 17.739914
62.860 16.992359
62.865 16.182566
62.870 15.584365
62.875 15.182485
62.880 15.131717
62.885 15.088611
62.890 15.365119
62.895 15.884802
62.900 16.414553
62.905 16.722216
62.910 17.323538
62.915 17.635073
62.920 17.88969
62.925 17.696314
62.930 17.231047
62.935 16.952879
62.940 17.179934
62.945 16.559849
62.950 16.271887
62.955 16.285227
62.960 16.523735
62.965 16.64362
62.970 16.931618
62.975 17.134548
62.980 17.39636
62.985 17.549768
62.990 17.831903
62.995 17.898466
63.000 17.810583
63.005 17.482084
63.010 17.513813
63.015 17.821791
63.020 17.800188
63.025 17.696804
63.030 17.691893
63.035 18.123291
63.040 18.570658
63.045 18.383564
63.050 18.618099
63.055 19.129681
63.060 18.929918
63.065 18.605198
63.070 18.377867
63.075 18.053267
63.080 18.023197
63.085 17.36961
63.090 16.622057
63.095 16.537098
63.100 16.481756
63.105 16.578188
63.110 16.497568
63.115 16.238277
63.120 16.29656
63.125 17.063078
63.130 17.516518
63.135 17.749784
63.140 17.745831
63.145 17.71398
63.150 18.122044
63.155 17.982504
63.160 17.738623
63.165 17.720476
63.170 17.319298
63.175 17.039152
63.180 17.040663
63.185 17.052286
63.190 17.460659
63.195 17.576469
63.200 17.993189
63.205 18.26428
63.210 18.518785
63.215 18.731764
63.220 18.457722
63.225 17.988655
63.230 17.504965
63.235 17.295238
63.240 17.567667
63.245 17.14183
63.250 16.958315
63.255 17.633944
63.260 18.461212
63.265 18.631907
63.270 18.435347
63.275 18.035765
63.280 18.125072
63.285 18.423325
63.290 17.527155
63.295 16.814238
63.300 17.255926
63.305 17.39135
63.310 17.921566
63.315 18.404518
63.320 18.55929
63.325 18.731441
63.330 18.959219
63.335 18.948412
63.340 19.428381
63.345 19.512119
63.350 19.080893
63.355 18.522671
63.360 18.816162
63.365 18.984043
63.370 18.468092
63.375 17.642897
63.380 17.335981
63.385 17.089613
63.390 17.08963
63.395 16.645134
63.400 16.300793
63.405 16.005945
63.410 16.061871
63.415 15.907393
63.420 16.683453
63.425 17.265688
63.430 18.151426
63.435 18.499241
63.440 18.466316
63.445 18.312307
63.450 18.521313
63.455 17.842945
63.460 17.471464
63.465 16.99206
63.470 17.660275
63.475 18.266697
63.480 18.331381
63.485 18.191769
63.490 18.458799
63.495 18.774534
63.500 19.013638
63.505 18.408684
63.510 18.376671
63.515 19.15004
63.520 19.281784
63.525 18.864017
63.530 18.672932
63.535 19.01001
63.540 19.517706
63.545 19.266092
63.550 18.539684
63.555 18.571394
63.560 18.601065
63.565 18.052532
63.570 17.176491
63.575 16.477276
63.580 16.362953
63.585 16.233961
63.590 15.800463
63.595 15.644898
63.600 15.70824
63.605 15.415254
63.610 15.384837
63.615 16.026522
63.620 16.535786
63.625 16.754848
63.630 17.141695
63.635 17.546757
63.640 18.129074
63.645 18.636925
63.650 18.182182
63.655 18.201956
63.660 18.372461
63.665 18.783012
63.670 19.131624
63.675 19.206324
63.680 19.04812
63.685 19.881268
63.690 20.426348
63.695 20.613239
63.700 20.317812
63.705 20.072393
63.710 20.795107
63.715 20.833733
63.720 20.053173
63.725 19.58992
63.730 19.535732
63.735 20.182207
63.740 20.188177
63.745 19.942839
63.750 19.580156
63.755 19.58
63.760 19.711487
63.765 19.18623
63.770 18.238304
63.775 18.78948
63.780 18.381435
63.785 18.883234
63.790 19.386497
63.795 19.762896
63.800 20.335169
63.805 20.799314
63.810 20.074751
63.815 20.034863
63.820 19.768604
63.825 19.927389
63.830 19.976265
63.835 19.871677
63.840 19.407251
63.845 19.329594
63.850 19.933575
63.855 19.594971
63.860 18.808191
63.865 18.302135
63.870 18.370958
63.875 19.313093
63.880 19.635094
63.885 19.136608
63.890 19.576637
63.895 20.269466
63.900 20.720823
63.905 21.276423
63.910 21.076508
63.915 21.415611
63.920 21.911602
63.925 21.184601
63.930 21.195585
63.935 21.623528
63.940 21.560877
63.945 21.858469
63.950 21.545311
63.955 21.948023
63.960 22.458199
63.965 21.44978
63.970 21.363199
63.975 21.313478
63.980 21.175053
63.985 21.800198
63.990 22.084894
63.995 22.486605
64.000 23.593904
64.005 23.665771
64.010 24.266075
64.015 25.498423
64.020 26.062948
64.025 26.13455
64.030 25.941322
64.035 26.166149
64.040 26.135452
64.045 25.806566
64.050 25.640224
64.055 25.663469
64.060 26.042675
64.065 26.516069
64.070 26.489738
64.075 27.109921
64.080 27.323465
64.085 26.691162
64.090 26.301674
64.095 26.480825
64.100 27.150181
64.105 27.503069
64.110 27.748964
64.115 28.799692
64.120 30.328003
64.125 31.286928
64.130 31.906889
64.135 32.231754
64.140 32.293209
64.145 32.810062
64.150 32.9664
64.155 33.155037
64.160 33.289165
64.165 33.365238
64.170 34.450294
64.175 34.528835
64.180 34.657459
64.185 36.097107
64.190 36.475418
64.195 37.229248
64.200 37.40152
64.205 37.789314
64.210 38.23896
64.215 38.730614
64.220 37.902111
64.225 38.461811
64.230 38.79137
64.235 38.717037
64.240 39.343048
64.245 40.864452
64.250 40.980705
64.255 42.020634
64.260 42.10836
64.265 41.778732
64.270 42.561432
64.275 42.19627
64.280 41.748081
64.285 41.541721
64.290 41.901459
64.295 43.026821
64.300 44.240963
64.305 43.931591
64.310 44.168118
64.315 44.427578
64.320 44.629147
64.325 44.139091
64.330 44.016579
64.335 43.858257
64.340 43.475388
64.345 43.73341
64.350 44.235054
64.355 44.836906
64.360 46.005291
64.365 46.105278
64.370 46.259777
64.375 46.886818
64.380 47.901524
64.385 47.688709
64.390 47.659763
64.395 46.817326
64.400 46.461796
64.405 45.698414
64.410 45.13636
64.415 43.869125
64.420 42.862862
64.425 42.925732
64.430 42.783127
64.435 42.043213
64.440 42.283089
64.445 42.6633
64.450 42.625057
64.455 42.958809
64.460 42.143295
64.465 41.577976
64.470 41.620056
64.475 41.481255
64.480 41.510216
64.485 41.773743
64.490 41.135414
64.495 41.498531
64.500 41.864693
64.505 42.084686
64.510 41.358227
64.515 39.833817
64.520 38.9594
64.525 38.72398
64.530 38.168976
64.535 37.204311
64.540 35.940926
64.545 35.099121
64.550 34.887871
64.555 34.771172
64.560 34.750797
64.565 34.236252
64.570 34.439472
64.575 35.325073
64.580 35.65041
64.585 35.552715
64.590 35.243652
64.595 34.858829
64.600 34.461987
64.605 33.720242
64.610 33.229042
64.615 32.977283
64.620 31.813242
64.625 31.140804
64.630 30.731329
64.635 29.87602
64.640 29.582417
64.645 29.297461
64.650 28.898676
64.655 28.606112
64.660 28.429649
64.665 28.429262
64.670 28.668488
64.675 27.693972
64.680 27.288471
64.685 26.443106
64.690 26.142725
64.695 25.350204
64.700 24.811218
64.705 23.89621
64.710 23.516436
64.715 22.920572
64.720 23.396563
64.725 24.160122
64.730 25.172592
64.735 25.35413
64.740 25.789808
64.745 26.17543
64.750 25.618704
64.755 24.972931
64.760 24.283247
64.765 23.54072
64.770 23.147802
64.775 23.031588
64.780 22.578959
64.785 22.354246
64.790 22.47571
64.795 22.513741
64.800 22.759375
64.805 22.792894
64.810 21.824074
64.815 21.927376
64.820 22.804205
64.825 23.014561
64.830 23.256289
64.835 23.758078
64.840 24.199186
64.845 24.674282
64.850 24.482384
64.855 24.757875
64.860 25.046314
64.865 24.22361
64.870 22.964109
64.875 22.527441
64.880 22.685648
64.885 22.821663
64.890 22.498497
64.895 22.402172
64.900 22.835466
64.905 22.808626
64.910 22.475014
64.915 21.939228
64.920 22.099951
64.925 21.881943
64.930 21.989311
64.935 22.049305
64.940 22.406576
64.945 22.7348
64.950 22.832619
64.955 22.296227
64.960 22.667263
64.965 22.957451
64.970 22.911644
64.975 22.726215
64.980 22.589306
64.985 23.05195
64.990 24.038277
64.995 23.890059
65.000 23.849592
65.005 24.362293
65.010 24.686666
65.015 25.608585
65.020 26.546167
65.025 26.145128
65.030 26.134226
65.035 25.968637
65.040 26.771795
65.045 27.208412
65.050 27.024372
65.055 26.721298
65.060 27.302956
65.065 27.491985
65.070 27.629126
65.075 27.100367
65.080 27.488247
65.085 27.63938
65.090 28.215837
65.095 28.583344
65.100 29.151159
65.105 29.590727
65.110 29.665281
65.115 29.989571
65.120 30.149359
65.125 29.377245
65.130 29.299898
65.135 29.867035
65.140 30.546173
65.145 30.98781
65.150 30.489525
65.155 30.107468
65.160 30.025545
65.165 30.477343
65.170 30.517183
65.175 29.988995
65.180 29.769262
65.185 30.16218
65.190 30.176952
65.195 30.668066
65.200 30.159445
65.205 30.477362
65.210 31.297644
65.215 31.235052
65.220 31.162157
65.225 31.458633
65.230 32.746475
65.235 33.418518
65.240 33.378628
65.245 33.599323
65.250 33.749516
65.255 34.48299
65.260 35.509502
65.265 35.305214
65.270 34.998413
65.275 34.650211
65.280 34.586979
65.285 35.484371
65.290 35.177872
65.295 34.668739
65.300 34.442116
65.305 34.100586
65.310 34.000385
65.315 34.306862
65.320 33.949089
65.325 34.344498
65.330 34.164261
65.335 33.465927
65.340 34.040264
65.345 33.395599
65.350 32.574924
65.355 32.743904
65.360 31.869947
65.365 31.716526
65.370 32.694481
65.375 33.134407
65.380 33.398399
65.385 33.624882
65.390 33.593876
65.395 34.757347
65.400 35.02113
65.405 34.870033
65.410 34.680176
65.415 35.489849
65.420 36.214226
65.425 36.262863
65.430 35.0662
65.435 35.02998
65.440 35.369301
65.445 35.449787
65.450 35.275047
65.455 35.233398
65.460 35.49493
65.465 36.154392
65.470 35.712151
65.475 35.522072
65.480 35.400818
65.485 35.777252
65.490 35.73658
65.495 36.588287
65.500 36.647255
65.505 37.582844
65.510 38.703758
65.515 38.878315
65.520 38.845875
65.525 38.821186
65.530 38.750488
65.535 39.340305
65.540 38.903568
65.545 38.178097
65.550 38.183941
65.555 37.668327
65.560 37.463257
65.565 37.070385
65.570 36.9655
65.575 36.928192
65.580 37.0037
65.585 37.239948
65.590 37.134502
65.595 37.191872
65.600 36.841564
65.605 37.586243
65.610 38.540768
65.615 39.408367
65.620 39.954617
65.625 40.356358
65.630 39.850166
65.635 39.616661
65.640 38.959171
65.645 38.684395
65.650 37.906246
65.655 37.749767
65.660 38.348354
65.665 39.179546
65.670 39.632179
65.675 39.331982
65.680 38.81908
65.685 39.464687
65.690 39.509163
65.695 40.222767
65.700 40.455978
65.705 40.607224
65.710 40.617004
65.715 41.08849
65.720 41.173965
65.725 40.535831
65.730 39.663872
65.735 39.23201
65.740 39.072765
65.745 38.96962
65.750 38.834908
65.755 38.10614
65.760 37.748596
65.765 37.517006
65.770 37.702259
65.775 37.554413
65.780 37.250988
65.785 36.551437
65.790 36.35503
65.795 36.257145
65.800 35.870213
65.805 35.39603
65.810 35.645695
65.815 35.283333
65.820 34.826687
65.825 35.15202
65.830 34.731537
65.835 34.305717
65.840 33.99416
65.845 33.457401
65.850 33.004879
65.855 32.551441
65.860 31.157022
65.865 31.328588
65.870 31.582983
65.875 31.102371
65.880 30.825083
65.885 30.964043
65.890 31.242062
65.895 31.62328
65.900 30.989485
65.905 30.489861
65.910 30.700434
65.915 31.070818
65.920 31.025887
65.925 30.509972
65.930 29.842535
65.935 29.15884
65.940 29.251112
65.945 29.554716
65.950 29.027386
65.955 29.425039
65.960 30.102629
65.965 30.266823
65.970 30.449165
65.975 29.945784
65.980 29.178825
65.985 28.753599
65.990 27.735931
65.995 26.442436
66.000 26.349289
66.005 26.057734
66.010 25.557001
66.015 25.265831
66.020 26.375603
66.025 26.215662
66.030 26.869242
66.035 27.219587
66.040 27.897406
66.045 28.100023
66.050 28.197002
66.055 27.362249
66.060 27.110672
66.065 26.653505
66.070 26.457075
66.075 25.866436
66.080 25.788675
66.085 25.559364
66.090 25.177776
66.095 25.745646
66.100 25.544943
66.105 25.373775
66.110 25.496458
66.115 25.308964
66.120 25.895096
66.125 25.892132
66.130 25.419455
66.135 25.182501
66.140 24.667913
66.145 24.114052
66.150 24.238552
66.155 23.482697
66.160 23.06831
66.165 22.491932
66.170 21.409515
66.175 21.882748
66.180 22.352306
66.185 21.734249
66.190 21.671827
66.195 22.035769
66.200 22.304913
66.205 22.42211
66.210 22.370741
66.215 22.930794
66.220 23.007027
66.225 22.491877
66.230 22.494671
66.235 22.312824
66.240 22.63459
66.245 22.661207
66.250 22.327801
66.255 22.587463
66.260 22.864641
66.265 22.863245
66.270 23.18186
66.275 22.695469
66.280 21.371311
66.285 20.783291
66.290 20.59178
66.295 20.714354
66.300 20.283752
66.305 19.59939
66.310 19.803436
66.315 20.434633
66.320 20.788063
66.325 21.043701
66.330 20.976063
66.335 21.367111
66.340 21.506536
66.345 21.745657
66.350 21.575251
66.355 21.342625
66.360 20.810513
66.365 20.21137
66.370 19.639177
66.375 19.13192
66.380 18.446928
66.385 17.624043
66.390 17.02046
66.395 16.96825
66.400 17.357918
66.405 18.174669
66.410 18.610115
66.415 18.843369
66.420 18.952856
66.425 19.400215
66.430 19.282549
66.435 18.93634
66.440 18.616331
66.445 18.999851
66.450 18.875679
66.455 19.211416
66.460 19.040697
66.465 19.366348
66.470 19.707853
66.475 19.41308
66.480 19.130232
66.485 19.241171
66.490 19.217966
66.495 18.866697
66.500 18.382286
66.505 18.747355
66.510 19.081532
66.515 19.135071
66.520 19.152294
66.525 19.185173
66.530 19.622509
66.535 20.100471
66.540 19.95973
66.545 19.719719
66.550 20.186342
66.555 20.056871
66.560 19.726904
66.565 19.658003
66.570 19.595514
66.575 18.881096
66.580 19.055891
66.585 18.559204
66.590 18.893311
66.595 19.356747
66.600 19.298103
66.605 18.823521
66.610 18.968647
66.615 18.764404
66.620 18.811855
66.625 18.462811
66.630 17.905771
66.635 17.672686
66.640 17.813435
66.645 18.524509
66.650 18.774029
66.655 18.931311
66.660 19.217194
66.665 19.75782
66.670 19.610493
66.675 19.638288
66.680 19.318989
66.685 19.244459
66.690 19.336143
66.695 19.147045
66.700 18.844524
66.705 19.625326
66.710 20.091913
66.715 20.413244
66.720 20.262651
66.725 19.992205
66.730 19.616718
66.735 19.185232
66.740 18.657356
66.745 18.246628
66.750 18.010216
66.755 17.748096
66.760 17.56992
66.765 17.316273
66.770 17.982435
66.775 18.443316
66.780 18.163485
66.785 18.074938
66.790 18.18326
66.795 18.749088
66.800 19.116392
66.805 18.522713
66.810 18.109091
66.815 17.698561
66.820 17.688469
66.825 17.099037
66.830 16.280588
66.835 16.263704
66.840 15.902033
66.845 16.40144
66.850 16.797642
66.855 16.635609
66.860 17.715378
66.865 18.482962
66.870 18.556883
66.875 19.249033
66.880 19.010639
66.885 19.073925
66.890 19.146526
66.895 18.332243
66.900 18.676554
66.905 18.250586
66.910 18.06488
66.915 18.790426
66.920 18.891405
66.925 18.698259
66.930 19.557884
66.935 19.664745
66.940 20.094973
66.945 19.926888
66.950 18.970909
66.955 18.858004
66.960 18.801676
66.965 17.669901
66.970 17.559231
66.975 17.859005
66.980 18.004145
66.985 18.27816
66.990 18.424232
66.995 18.774748
67.000 19.381393
67.005 19.048735
67.010 18.327869
67.015 18.236275
67.020 17.876484
67.025 17.727671
67.030 17.51022
67.035 17.387939
67.040 17.88061
67.045 18.5751
67.050 19.035519
67.055 19.188812
67.060 19.396223
67.065 19.29467
67.070 19.39949
67.075 19.483061
67.080 19.176651
67.085 18.800694
67.090 18.591335
67.095 18.694344
67.100 19.309473
67.105 19.036003
67.110 18.789551
67.115 18.792551
67.120 18.879122
67.125 19.18214
67.130 18.616331
67.135 17.977444
67.140 18.05772
67.145 17.804869
67.150 17.622324
67.155 17.738802
67.160 18.199739
67.165 18.368773
67.170 18.501102
67.175 18.390026
67.180 18.475409
67.185 18.44919
67.190 18.698738
67.195 18.655149
67.200 19.092751
67.205 19.616438
67.210 19.357168
67.215 19.842592
67.220 19.867369
67.225 19.407671
67.230 18.6241
67.235 18.150991
67.240 17.83094
67.245 17.914293
67.250 18.189333
67.255 18.452682
67.260 18.268452
67.265 18.365574
67.270 19.012348
67.275 19.320841
67.280 19.353308
67.285 18.785336
67.290 18.723524
67.295 19.18573
67.300 19.198723
67.305 18.443949
67.310 18.262888
67.315 17.905581
67.320 17.676527
67.325 17.159328
67.330 17.351295
67.335 17.547132
67.340 18.521393
67.345 18.829672
67.350 18.822977
67.355 18.894129
67.360 18.82044
67.365 18.913836
67.370 19.2286
67.375 18.251143
67.380 18.298775
67.385 18.430738
67.390 18.257399
67.395 18.430351
67.400 18.397661
67.405 18.013477
67.410 18.369545
67.415 18.164087
67.420 18.42993
67.425 19.019247
67.430 19.429029
67.435 18.894117
67.440 19.13633
67.445 19.311039
67.450 19.383783
67.455 19.248669
67.460 18.983147
67.465 18.416004
67.470 18.64143
67.475 18.417028
67.480 18.61948
67.485 18.485792
67.490 17.999598
67.495 17.681997
67.500 18.381289
67.505 18.927351
67.510 19.035179
67.515 18.822554
67.520 18.696682
67.525 19.243753
67.530 20.333281
67.535 20.371685
67.540 20.442287
67.545 19.678688
67.550 19.142332
67.555 19.470598
67.560 18.828056
67.565 18.155945
67.570 18.07954
67.575 17.759367
67.580 18.904938
67.585 19.614359
67.590 19.738905
67.595 20.113882
67.600 20.022482
67.605 19.899263
67.610 20.133163
67.615 19.44013
67.620 19.569227
67.625 19.997017
67.630 20.451109
67.635 20.427752
67.640 19.949558
67.645 20.006365
67.650 20.363892
67.655 20.272869
67.660 20.254353
67.665 20.050203
67.670 20.025202
67.675 20.075903
67.680 19.465809
67.685 19.668571
67.690 19.516611
67.695 19.242851
67.700 19.536036
67.705 19.624899
67.710 19.557758
67.715 19.522022
67.720 19.847361
67.725 20.179485
67.730 20.122578
67.735 19.544868
67.740 19.514309
67.745 20.013039
67.750 19.869524
67.755 19.339176
67.760 19.067766
67.765 18.880117
67.770 18.777859
67.775 18.417875
67.780 17.956593
67.785 18.014278
67.790 18.114325
67.795 18.085022
67.800 18.244745
67.805 18.073841
67.810 18.369505
67.815 18.780506
67.820 18.890589
67.825 18.583784
67.830 18.127993
67.835 17.974586
67.840 18.030354
67.845 17.901537
67.850 17.729416
67.855 18.124893
67.860 18.230349
67.865 18.511295
67.870 19.106709
67.875 19.107283
67.880 18.680727
67.885 18.457123
67.890 18.020664
67.895 17.743118
67.900 17.899994
67.905 17.526718
67.910 17.990475
67.915 18.532616
67.920 18.340956
67.925 18.053232
67.930 18.499807
67.935 18.687677
67.940 18.884317
67.945 18.926023
67.950 18.860184
67.955 19.045084
67.960 18.911264
67.965 19.190313
67.970 19.309526
67.975 18.885153
67.980 18.668018
67.985 18.770241
67.990 19.155777
67.995 19.148113
68.000 18.539228
68.005 18.316147
68.010 18.549044
68.015 18.289064
68.020 17.804316
68.025 17.599077
68.030 17.966875
68.035 17.906445
68.040 17.534649
68.045 17.469517
68.050 18.075043
68.055 18.158512
68.060 17.671276
68.065 17.275288
68.070 17.402704
68.075 17.511572
68.080 17.394062
68.085 17.248804
68.090 17.707075
68.095 18.465052
68.100 18.494808
68.105 18.844248
68.110 19.769047
68.115 20.228462
68.120 20.253305
68.125 20.140411
68.130 19.922377
68.135 20.544142
68.140 20.916119
68.145 20.70962
68.150 20.4967
68.155 20.102123
68.160 20.010056
68.165 20.463257
68.170 20.188934
68.175 20.197544
68.180 20.200111
68.185 20.435701
68.190 21.054455
68.195 21.471962
68.200 21.252819
68.205 21.219881
68.210 20.957375
68.215 21.548029
68.220 22.040525
68.225 22.071972
68.230 21.333244
68.235 21.293961
68.240 22.06126
68.245 22.227818
68.250 21.90309
68.255 21.314837
68.260 21.318741
68.265 21.930368
68.270 22.189045
68.275 21.613588
68.280 21.127937
68.285 21.063972
68.290 21.119776
68.295 21.340269
68.300 21.532457
68.305 21.27902
68.310 21.931278
68.315 23.290812
68.320 23.839355
68.325 24.57489
68.330 24.340017
68.335 24.267532
68.340 24.742229
68.345 24.80616
68.350 24.042648
68.355 23.795645
68.360 24.248051
68.365 24.625576
68.370 24.216644
68.375 23.988869
68.380 24.093201
68.385 24.156261
68.390 24.543623
68.395 24.089281
68.400 24.289261
68.405 25.081968
68.410 25.163181
68.415 25.433046
68.420 25.946621
68.425 26.011431
68.430 26.332417
68.435 26.915644
68.440 27.215069
68.445 27.823404
68.450 27.800758
68.455 27.926559
68.460 28.308115
68.465 28.433811
68.470 28.313057
68.475 28.46089
68.480 28.116035
68.485 28.340002
68.490 28.26952
68.495 27.922121
68.500 28.182617
68.505 27.665648
68.510 27.29229
68.515 27.25243
68.520 27.086357
68.525 27.959314
68.530 28.646015
68.535 28.39608
68.540 28.449001
68.545 28.933794
68.550 28.80817
68.555 28.944418
68.560 28.695601
68.565 28.28075
68.570 29.082344
68.575 29.574381
68.580 29.590347
68.585 30.508173
68.590 31.088869
68.595 31.616976
68.600 32.201077
68.605 32.844025
68.610 33.654293
68.615 34.697891
68.620 34.552906
68.625 33.758434
68.630 34.136086
68.635 33.946239
68.640 34.146023
68.645 33.460735
68.650 32.282848
68.655 32.742626
68.660 32.693512
68.665 31.986568
68.670 32.354084
68.675 32.071392
68.680 32.400291
68.685 33.437374
68.690 33.011597
68.695 32.960835
68.700 33.026894
68.705 32.900795
68.710 33.311535
68.715 33.363617
68.720 33.463314
68.725 34.521725
68.730 36.061237
68.735 36.884827
68.740 36.567867
68.745 36.114334
68.750 35.895695
68.755 35.787045
68.760 34.931015
68.765 34.464695
68.770 33.477139
68.775 33.816105
68.780 33.967297
68.785 33.437531
68.790 32.952793
68.795 32.703484
68.800 32.958828
68.805 33.309124
68.810 33.456863
68.815 33.688053
68.820 34.490562
68.825 35.560612
68.830 36.219105
68.835 35.572716
68.840 35.896011
68.845 35.167221
68.850 34.2481
68.855 33.815857
68.860 33.139175
68.865 33.321476
68.870 33.88287
68.875 34.183987
68.880 35.092014
68.885 35.837196
68.890 36.016235
68.895 35.884644
68.900 36.169361
68.905 36.27367
68.910 35.822823
68.915 35.683437
68.920 35.200706
68.925 35.353931
68.930 35.42281
68.935 34.472389
68.940 34.764824
68.945 35.252602
68.950 35.553181
68.955 35.672859
68.960 35.998795
68.965 35.721161
68.970 35.558388
68.975 34.579464
68.980 33.430904
68.985 33.084202
68.990 32.762054
68.995 31.991045
69.000 31.605761
69.005 31.238832
69.010 30.606867
69.015 31.076551
69.020 30.834942
69.025 30.715342
69.030 31.230293
69.035 31.580675
69.040 31.846634
69.045 31.808243
69.050 31.524248
69.055 31.564272
69.060 31.13744
69.065 30.830542
69.070 31.274942
69.075 31.862125
69.080 32.454575
69.085 33.10091
69.090 32.878548
69.095 32.379356
69.100 32.813187
69.105 32.030029
69.110 31.149189
69.115 30.271624
69.120 30.223703
69.125 29.686214
69.130 29.679499
69.135 28.911068
69.140 28.683035
69.145 29.006857
69.150 28.97576
69.155 28.501179
69.160 28.333878
69.165 27.998646
69.170 28.041201
69.175 27.06443
69.180 26.321121
69.185 25.820049
69.190 25.675287
69.195 26.059183
69.200 25.490543
69.205 24.952017
69.210 26.029812
69.215 25.885731
69.220 25.983109
69.225 25.505043
69.230 25.418293
69.235 25.992331
69.240 26.182461
69.245 25.860144
69.250 26.048679
69.255 25.858986
69.260 26.047508
69.265 25.997932
69.270 25.381193
69.275 24.716793
69.280 23.951073
69.285 23.804476
69.290 23.531689
69.295 23.283676
69.300 22.376617
69.305 21.848061
69.310 22.024105
69.315 21.851824
69.320 21.842297
69.325 22.234903
69.330 21.981392
69.335 22.32707
69.340 22.894373
69.345 22.791098
69.350 23.355503
69.355 22.687372
69.360 21.957336
69.365 22.263376
69.370 22.465441
69.375 22.49338
69.380 22.17461
69.385 22.040623
69.390 22.548601
69.395 22.834585
69.400 22.438437
69.405 22.572805
69.410 22.750088
69.415 23.178928
69.420 22.560081
69.425 22.167568
69.430 22.19138
69.435 21.980394
69.440 21.756151
69.445 21.905571
69.450 21.650156
69.455 21.877733
69.460 21.554865
69.465 21.201599
69.470 21.249403
69.475 20.898932
69.480 20.483536
69.485 20.180103
69.490 19.738829
69.495 19.762556
69.500 19.685762
69.505 19.444595
69.510 19.43755
69.515 19.387505
69.520 19.794241
69.525 20.361128
69.530 20.8069
69.535 21.198345
69.540 21.419239
69.545 21.12775
69.550 21.46884
69.555 21.319206
69.560 20.975435
69.565 20.862518
69.570 20.741846
69.575 21.19236
69.580 21.591143
69.585 21.425507
69.590 21.399418
69.595 21.359743
69.600 21.583326
69.605 21.458574
69.610 20.921768
69.615 20.495144
69.620 19.670584
69.625 18.928928
69.630 18.18812
69.635 17.770529
69.640 17.808481
69.645 17.347223
69.650 17.142366
69.655 17.251015
69.660 17.642511
69.665 17.994787
69.670 17.818977
69.675 18.125479
69.680 18.666658
69.685 18.994034
69.690 18.86371
69.695 18.862133
69.700 18.850889
69.705 18.026188
69.710 17.711142
69.715 17.508661
69.720 17.5252
69.725 18.017061
69.730 18.480616
69.735 19.304544
69.740 20.253408
69.745 20.631948
69.750 20.469099
69.755 20.508247
69.760 20.108015
69.765 19.253321
69.770 19.125505
69.775 18.849337
69.780 18.594576
69.785 18.446369
69.790 18.354345
69.795 18.708683
69.800 18.84609
69.805 18.604408
69.810 18.774155
69.815 18.885769
69.820 18.809734
69.825 18.837679
69.830 18.416971
69.835 18.338648
69.840 18.057272
69.845 17.622009
69.850 17.630028
69.855 17.934584
69.860 17.707695
69.865 18.203331
69.870 18.358057
69.875 18.584282
69.880 18.752626
69.885 18.961933
69.890 18.94062
69.895 19.166725
69.900 19.125895
69.905 18.987953
69.910 18.966606
69.915 19.190008
69.920 19.396883
69.925 19.136333
69.930 19.331158
69.935 19.563391
69.940 20.348742
69.945 21.010332
69.950 21.079185
69.955 20.842361
69.960 20.590946
69.965 19.727287
69.970 19.091028
69.975 18.841032
69.980 18.135094
69.985 17.612352
69.990 17.758059
69.995 17.851892
70.000 18.581345
70.005 18.293226
70.010 18.004951
70.015 18.247902
70.020 18.412064
70.025 18.473948
70.030 18.302931
70.035 18.980639
70.040 19.362949
70.045 19.079687
70.050 18.631088
70.055 19.18878
70.060 19.42909
70.065 19.254107
70.070 18.225388
70.075 18.078959
70.080 18.296488
70.085 18.600058
70.090 17.812927
70.095 17.708267
70.100 18.308336
70.105 18.294918
70.110 17.98349
70.115 18.063374
70.120 18.465178
70.125 19.098894
70.130 19.398676
70.135 19.384985
70.140 19.266127
70.145 19.417313
70.150 19.172337
70.155 19.014921
70.160 19.326782
70.165 18.664312
70.170 18.038792
70.175 18.132982
70.180 18.46254
70.185 18.486666
70.190 18.201748
70.195 17.880701
70.200 18.083807
70.205 18.705063
70.210 18.807222
70.215 18.941463
70.220 19.399208
70.225 19.550253
70.230 19.203596
70.235 18.770872
70.240 18.927301
70.245 18.707569
70.250 18.731359
70.255 19.011753
70.260 19.31373
70.265 20.076229
70.270 20.671282
70.275 20.107151
70.280 19.990398
70.285 19.505335
70.290 18.451164
70.295 17.643959
70.300 17.671341
70.305 17.810289
70.310 17.701822
70.315 17.72484
70.320 17.09804
70.325 17.421227
70.330 17.381559
70.335 16.753065
70.340 16.186836
70.345 16.280056
70.350 16.327169
70.355 16.830122
70.360 16.72484
70.365 16.678617
70.370 16.61466
70.375 17.120869
70.380 17.001036
70.385 16.995247
70.390 17.018007
70.395 16.754248
70.400 16.683561
70.405 17.181829
70.410 17.611338
70.415 17.527063
70.420 17.492229
70.425 17.841072
70.430 18.463263
70.435 19.288534
70.440 18.945902
70.445 18.312431
70.450 18.66564
70.455 18.292257
70.460 18.153221
70.465 18.257574
70.470 17.558535
70.475 17.933451
70.480 18.312199
70.485 18.268797
70.490 18.167683
70.495 17.700844
70.500 17.989567
70.505 19.160921
70.510 19.351553
70.515 19.464514
70.520 19.466486
70.525 19.593304
70.530 19.841511
70.535 19.042885
70.540 18.126728
70.545 17.612501
70.550 17.331322
70.555 17.713751
70.560 18.056646
70.565 18.167545
70.570 18.459116
70.575 18.79678
70.580 19.515572
70.585 19.638248
70.590 19.269217
70.595 19.535572
70.600 19.632597
70.605 19.587801
70.610 19.335752
70.615 18.428204
70.620 18.871775
70.625 18.815706
70.630 18.543205
70.635 18.014883
70.640 17.792473
70.645 18.186943
70.650 18.647245
70.655 18.464743
70.660 19.128651
70.665 19.837677
70.670 20.254522
70.675 20.007118
70.680 19.359879
70.685 19.746965
70.690 19.642307
70.695 19.472408
70.700 19.2307
70.705 18.9655
70.710 19.516056
70.715 19.693703
70.720 19.360807
70.725 19.403521
70.730 18.963766
70.735 18.562286
70.740 18.86651
70.745 18.561659
70.750 18.483234
70.755 19.066498
70.760 18.942429
70.765 18.746962
70.770 18.790606
70.775 18.745907
70.780 19.112337
70.785 19.125174
70.790 18.766249
70.795 18.591505
70.800 18.816574
70.805 19.017757
70.810 19.12608
70.815 18.831161
70.820 18.475256
70.825 18.277142
70.830 17.989466
70.835 17.480934
70.840 17.431767
70.845 17.526295
70.850 17.897837
70.855 18.098471
70.860 17.900095
70.865 18.616776
70.870 19.483047
70.875 19.203001
70.880 18.595427
70.885 18.071646
70.890 18.457148
70.895 18.586489
70.900 18.544275
70.905 18.20385
70.910 18.223173
70.915 18.383692
70.920 18.368832
70.925 18.361797
70.930 18.68697
70.935 17.907528
70.940 17.725838
70.945 18.01506
70.950 18.427738
70.955 18.65373
70.960 18.619101
70.965 18.165688
70.970 18.227945
70.975 18.596775
70.980 18.976452
70.985 19.285454
70.990 18.78698
70.995 18.832354
71.000 19.703518
71.005 20.02598
71.010 19.809959
71.015 19.715971
71.020 19.112093
71.025 18.896772
71.030 18.787127
71.035 18.652151
71.040 18.088583
71.045 17.641958
71.050 17.916565
71.055 18.956781
71.060 19.320799
71.065 18.356602
71.070 17.974247
71.075 18.003067
71.080 17.673065
71.085 17.019117
71.090 16.882139
71.095 17.287939
71.100 18.268543
71.105 18.609777
71.110 18.841984
71.115 18.978603
71.120 19.061737
71.125 18.387186
71.130 18.185633
71.135 18.138706
71.140 17.844852
71.145 17.752623
71.150 17.781456
71.155 17.701462
71.160 18.204546
71.165 17.887302
71.170 17.758657
71.175 18.098106
71.180 17.819471
71.185 17.455078
71.190 17.493881
71.195 17.131567
71.200 16.866079
71.205 17.140471
71.210 16.919504
71.215 17.120852
71.220 17.040339
71.225 16.917278
71.230 17.265005
71.235 17.565475
71.240 17.422716
71.245 17.655327
71.250 18.039797
71.255 18.347532
71.260 17.821489
71.265 17.610361
71.270 17.608021
71.275 17.780294
71.280 17.73181
71.285 17.728073
71.290 17.792608
71.295 18.200001
71.300 18.550047
71.305 18.613434
71.310 18.524767
71.315 18.831793
71.320 18.716673
71.325 18.515713
71.330 18.437668
71.335 18.92635
71.340 18.93931
71.345 18.93844
71.350 19.210402
71.355 19.780607
71.360 19.701042
71.365 19.085253
71.370 17.624516
71.375 17.455675
71.380 17.520073
71.385 17.180225
71.390 16.709919
71.395 17.212881
71.400 17.93919
71.405 18.54487
71.410 18.901054
71.415 18.634821
71.420 18.365204
71.425 18.242933
71.430 18.224037
71.435 17.778357
71.440 17.867083
71.445 17.414249
71.450 17.155506
71.455 17.037457
71.460 17.332867
71.465 17.37361
71.470 18.069613
71.475 17.914705
71.480 19.022503
71.485 19.634184
71.490 19.656794
71.495 19.658587
71.500 19.826092
71.505 18.971334
71.510 18.645224
71.515 18.281908
71.520 18.105534
71.525 18.036348
71.530 17.578581
71.535 17.947077
71.540 18.80801
71.545 18.722404
71.550 18.85211
71.555 19.185328
71.560 19.3444
71.565 19.311224
71.570 18.559633
71.575 18.15596
71.580 17.972582
71.585 17.730049
71.590 17.767221
71.595 18.037077
71.600 17.922276
71.605 18.539566
71.610 18.784115
71.615 18.724495
71.620 18.66301
71.625 18.273596
71.630 18.609613
71.635 19.082014
71.640 18.961042
71.645 18.835716
71.650 18.683172
71.655 18.557482
71.660 18.710815
71.665 18.413383
71.670 18.47525
71.675 18.470093
71.680 18.763266
71.685 18.700327
71.690 18.938541
71.695 18.616123
71.700 18.447107
71.705 18.450619
71.710 18.697685
71.715 19.405811
71.720 20.087444
71.725 20.066784
71.730 20.042141
71.735 19.670237
71.740 19.643206
71.745 19.713108
71.750 19.113926
71.755 19.20895
71.760 19.471344
71.765 19.352821
71.770 19.550423
71.775 19.601135
71.780 19.44636
71.785 19.289547
71.790 18.946302
71.795 18.744802
71.800 18.912064
71.805 18.738085
71.810 18.813255
71.815 18.375757
71.820 18.288586
71.825 18.504192
71.830 18.870745
71.835 19.211676
71.840 19.226366
71.845 18.877478
71.850 19.237158
71.855 19.218109
71.860 18.900827
71.865 18.677265
71.870 18.129082
71.875 18.730923
71.880 18.451256
71.885 18.39374
71.890 18.221331
71.895 18.036001
71.900 18.419037
71.905 18.592445
71.910 17.86532
71.915 18.159206
71.920 17.772539
71.925 17.887487
71.930 18.217762
71.935 17.706758
71.940 17.320919
71.945 17.699303
71.950 18.144104
71.955 18.216682
71.960 17.74535
71.965 17.161228
71.970 17.323078
71.975 17.732059
71.980 17.467983
71.985 17.59408
71.990 17.776754
71.995 18.10294
72.000 18.037643
72.005 17.790945
72.010 17.594864
72.015 17.676706
72.020 17.907736
72.025 18.169226
72.030 18.327793
72.035 18.5156
72.040 18.556887
72.045 18.531651
72.050 18.617947
72.055 18.694351
72.060 18.815884
72.065 19.179251
72.070 19.454628
72.075 19.641287
72.080 19.059475
72.085 18.871939
72.090 18.418528
72.095 18.566944
72.100 18.435312
72.105 18.352009
72.110 18.402033
72.115 18.59057
72.120 18.375317
72.125 18.358513
72.130 18.046484
72.135 17.880491
72.140 17.689535
72.145 17.519215
72.150 17.111204
72.155 17.628502
72.160 17.987753
72.165 18.097431
72.170 18.227409
72.175 18.217758
72.180 18.62047
72.185 18.884369
72.190 18.004461
72.195 17.663601
72.200 17.547928
72.205 17.993752
72.210 18.302422
72.215 18.126173
72.220 18.123232
72.225 17.891171
72.230 17.624239
72.235 17.418776
72.240 17.213793
72.245 17.226492
72.250 17.357958
72.255 17.9862
72.260 18.774021
72.265 19.445585
72.270 19.611574
72.275 19.385275
72.280 19.808071
72.285 19.876507
72.290 19.53499
72.295 19.069118
72.300 19.164
72.305 19.007669
72.310 18.935707
72.315 18.916689
72.320 18.97389
72.325 19.021362
72.330 18.686584
72.335 18.063959
72.340 18.278532
72.345 18.535885
72.350 18.268167
72.355 18.189377
72.360 18.41287
72.365 18.332438
72.370 18.391205
72.375 18.192768
72.380 18.039116
72.385 17.68174
72.390 17.371716
72.395 17.61985
72.400 17.69055
72.405 18.053543
72.410 18.022411
72.415 18.187471
72.420 18.188789
72.425 17.987909
72.430 17.612139
72.435 17.661945
72.440 16.993362
72.445 16.442995
72.450 16.539877
72.455 16.896614
72.460 16.748652
72.465 16.510351
72.470 16.48307
72.475 17.380648
72.480 17.704435
72.485 17.155743
72.490 16.944004
72.495 17.321192
72.500 17.729
72.505 17.830299
72.510 18.127333
72.515 18.1311
72.520 18.717131
72.525 19.091639
72.530 18.50358
72.535 18.242954
72.540 18.419838
72.545 18.223198
72.550 18.743816
72.555 18.700064
72.560 18.867531
72.565 19.353098
72.570 18.880129
72.575 18.16588
72.580 17.983252
72.585 17.250631
72.590 17.610577
72.595 17.371151
72.600 17.132504
72.605 17.262964
72.610 17.379038
72.615 17.574871
72.620 17.355373
72.625 16.576536
72.630 16.900759
72.635 17.07847
72.640 17.054676
72.645 17.291298
72.650 16.71707
72.655 16.738789
72.660 17.071306
72.665 17.010929
72.670 17.17967
72.675 16.84412
72.680 16.382137
72.685 16.25382
72.690 15.698624
72.695 15.648767
72.700 15.486586
72.705 15.516051
72.710 15.906387
72.715 16.267138
72.720 16.252329
72.725 16.825098
72.730 17.173166
72.735 17.00766
72.740 17.257866
72.745 16.791452
72.750 16.9821
72.755 17.746964
72.760 17.862389
72.765 17.952789
72.770 17.916636
72.775 18.391659
72.780 18.839247
72.785 18.960205
72.790 18.54665
72.795 18.247967
72.800 18.389101
72.805 18.432993
72.810 17.680151
72.815 17.548172
72.820 17.61578
72.825 18.024576
72.830 17.678469
72.835 17.58042
72.840 17.173759
72.845 17.13405
72.850 17.22167
72.855 17.029652
72.860 17.4244
72.865 18.138231
72.870 18.73205
72.875 18.874725
72.880 19.04565
72.885 18.861391
72.890 18.102369
72.895 17.51828
72.900 16.933762
72.905 16.718803
72.910 16.319483
72.915 15.912857
72.920 15.994343
72.925 16.425838
72.930 16.23439
72.935 16.002289
72.940 16.105894
72.945 16.526499
72.950 16.372953
72.955 16.766167
72.960 16.612133
72.965 16.404743
72.970 16.464912
72.975 16.597092
72.980 17.072592
72.985 17.430487
72.990 17.544939
72.995 18.102243
73.000 18.58602
