!@!!GADDS PLOTSO FILE: Chi integration type
!@!!Title/SampleName: map-d0
!@!!Comment: ?
!@!!User: Bruker Instrument Administrator
!@!!Site: University of Illinois Chicago
!@!!Frame: map-d0_01_000.gfrm
!@!!Wavelengths    1.54184   1.54056   1.54439
!@!!Frame angles: 2Theta: 63.000 Omega: 50.000 Phi: 0.000 Chi: 90.000
!@!!Integration range: 2Theta: 53.000 to 73.000  Gamma: -105.000 to -75.000
!@!!Integration method: bin normalized
!@!N
!@!SS
!@!M
!@!L 0.0 0.0 0.0 0.0
!@!XDegrees
!@!YCounts
53.000 9.713984
53.005 10.113677
53.010 10.480857
53.015 10.987464
53.020 11.183425
53.025 10.829019
53.030 10.901633
53.035 11.25385
53.040 11.498779
53.045 11.294659
53.050 10.977697
53.055 11.073512
53.060 11.30237
53.065 11.017772
53.070 10.425263
53.075 9.901546
53.080 9.927307
53.085 9.671541
53.090 9.623162
53.095 9.24473
53.100 9.423752
53.105 9.39038
53.110 9.50615
53.115 9.661492
53.120 9.299441
53.125 9.593257
53.130 9.940901
53.135 10.4647
53.140 10.581145
53.145 10.784442
53.150 11.059995
53.155 11.127868
53.160 11.017407
53.165 10.74797
53.170 10.401167
53.175 10.186201
53.180 9.9129
53.185 9.715985
53.190 10.012817
53.195 9.890818
53.200 9.766718
53.205 9.50427
53.210 9.360954
53.215 9.441461
53.220 10.23412
53.225 10.08234
53.230 10.069165
53.235 10.277168
53.240 10.791839
53.245 11.228333
53.250 11.45644
53.255 11.509288
53.260 11.621071
53.265 11.316561
53.270 11.216862
53.275 11.127514
53.280 10.8473
53.285 10.352854
53.290 10.22669
53.295 10.33223
53.300 10.523684
53.305 10.412292
53.310 10.337208
53.315 9.978278
53.320 9.641622
53.325 9.618557
53.330 9.662927
53.335 9.504264
53.340 9.437483
53.345 9.220154
53.350 9.772943
53.355 9.593329
53.360 9.17503
53.365 9.156038
53.370 9.203005
53.375 9.580172
53.380 10.173808
53.385 10.406463
53.390 10.431989
53.395 10.331966
53.400 10.103708
53.405 9.922177
53.410 9.570436
53.415 9.012399
53.420 8.888553
53.425 9.123399
53.430 9.327195
53.435 9.893788
53.440 10.08087
53.445 9.854182
53.450 9.835757
53.455 9.882142
53.460 9.983708
53.465 9.481366
53.470 8.907729
53.475 9.092872
53.480 9.815973
53.485 10.487851
53.490 10.425845
53.495 10.862664
53.500 11.945189
53.505 12.445646
53.510 12.027941
53.515 11.736971
53.520 11.27269
53.525 11.420918
53.530 10.93488
53.535 10.670579
53.540 10.835413
53.545 11.092669
53.550 10.695215
53.555 10.394314
53.560 10.383711
53.565 10.292246
53.570 10.2847
53.575 10.040007
53.580 10.136144
53.585 10.709182
53.590 11.491412
53.595 11.70447
53.600 11.691186
53.605 11.760506
53.610 12.115093
53.615 12.04101
53.620 11.938812
53.625 12.031214
53.630 12.3188
53.635 12.119941
53.640 12.130278
53.645 11.735877
53.650 11.653523
53.655 11.513228
53.660 11.319059
53.665 11.396683
53.670 11.274171
53.675 10.734632
53.680 10.913319
53.685 10.909452
53.690 10.481371
53.695 10.036403
53.700 9.418946
53.705 9.591697
53.710 9.629959
53.715 9.514981
53.720 9.456135
53.725 10.237515
53.730 10.412419
53.735 10.723669
53.740 10.945768
53.745 11.098757
53.750 10.824636
53.755 10.731023
53.760 10.31828
53.765 10.258874
53.770 10.12314
53.775 10.274554
53.780 10.696432
53.785 10.925856
53.790 10.510948
53.795 10.161401
53.800 10.398794
53.805 10.822092
53.810 10.794827
53.815 10.696033
53.820 10.879592
53.825 11.491117
53.830 11.220988
53.835 10.974965
53.840 10.625401
53.845 10.492071
53.850 10.687559
53.855 10.637083
53.860 10.610696
53.865 11.195543
53.870 11.183622
53.875 11.278154
53.880 11.142921
53.885 10.795482
53.890 10.644815
53.895 10.216308
53.900 10.138228
53.905 9.778785
53.910 9.821938
53.915 10.482183
53.920 10.557865
53.925 10.711112
53.930 10.94844
53.935 11.222894
53.940 11.284293
53.945 10.847152
53.950 10.306319
53.955 10.608683
53.960 10.552471
53.965 9.750609
53.970 9.799541
53.975 10.068461
53.980 10.127439
53.985 10.197974
53.990 9.619425
53.995 10.336617
54.000 10.83392
54.005 10.619175
54.010 10.455792
54.015 10.380637
54.020 10.978046
54.025 11.351079
54.030 11.360614
54.035 11.445309
54.040 11.674112
54.045 11.896441
54.050 12.119925
54.055 11.751884
54.060 11.210811
54.065 10.588027
54.070 10.387802
54.075 10.356831
54.080 10.201792
54.085 10.393911
54.090 10.677533
54.095 11.181958
54.100 11.227242
54.105 10.937978
54.110 10.985475
54.115 10.882521
54.120 10.784677
54.125 10.781643
54.130 10.887711
54.135 11.086691
54.140 11.233002
54.145 11.506574
54.150 11.477913
54.155 11.214598
54.160 10.977893
54.165 11.145708
54.170 11.434305
54.175 11.530843
54.180 11.367205
54.185 11.190149
54.190 11.241231
54.195 10.813944
54.200 10.61339
54.205 10.467859
54.210 10.259278
54.215 10.328524
54.220 10.539232
54.225 11.266628
54.230 11.819098
54.235 12.381637
54.240 12.557405
54.245 12.24989
54.250 12.028728
54.255 11.640964
54.260 11.392572
54.265 11.77002
54.270 11.814357
54.275 12.027155
54.280 12.520924
54.285 12.998199
54.290 13.185779
54.295 13.054257
54.300 12.501219
54.305 11.9406
54.310 11.713235
54.315 11.65826
54.320 11.629438
54.325 11.604586
54.330 11.691689
54.335 11.437939
54.340 11.273705
54.345 11.130034
54.350 11.141253
54.355 10.939963
54.360 10.891899
54.365 10.915243
54.370 11.130053
54.375 11.509451
54.380 11.339981
54.385 11.036139
54.390 11.12347
54.395 11.669218
54.400 11.644083
54.405 11.940099
54.410 11.872415
54.415 12.279676
54.420 12.539386
54.425 12.034946
54.430 11.431633
54.435 11.454748
54.440 11.635454
54.445 11.361443
54.450 10.862681
54.455 10.597696
54.460 10.581367
54.465 10.518204
54.470 10.352921
54.475 9.970165
54.480 10.357926
54.485 10.917071
54.490 11.443645
54.495 12.020389
54.500 12.049855
54.505 11.617423
54.510 11.498247
54.515 11.438331
54.520 10.958351
54.525 10.647724
54.530 10.125761
54.535 10.312465
54.540 10.371176
54.545 10.19216
54.550 10.118454
54.555 10.42486
54.560 10.483971
54.565 10.946037
54.570 11.181282
54.575 11.739367
54.580 12.293019
54.585 12.844635
54.590 12.511889
54.595 12.257626
54.600 11.56396
54.605 11.221494
54.610 11.18548
54.615 11.132625
54.620 11.492345
54.625 11.759474
54.630 12.154909
54.635 12.460655
54.640 12.627092
54.645 12.377963
54.650 11.440766
54.655 10.866459
54.660 10.525328
54.665 10.498419
54.670 11.03686
54.675 11.316838
54.680 11.751292
54.685 12.525669
54.690 12.827728
54.695 13.132566
54.700 13.053574
54.705 12.602864
54.710 11.955077
54.715 11.621669
54.720 11.509816
54.725 11.29046
54.730 11.063616
54.735 10.952922
54.740 10.938329
54.745 11.406779
54.750 11.488313
54.755 11.117708
54.760 11.09374
54.765 11.226651
54.770 11.425072
54.775 12.14636
54.780 12.118958
54.785 11.867078
54.790 11.979575
54.795 12.330006
54.800 12.071521
54.805 11.689564
54.810 11.585823
54.815 11.571218
54.820 12.013079
54.825 12.594536
54.830 12.774315
54.835 12.808097
54.840 12.861004
54.845 13.131773
54.850 13.090904
54.855 12.803023
54.860 11.863321
54.865 11.462318
54.870 11.981578
54.875 11.95693
54.880 11.74759
54.885 12.049853
54.890 12.534611
54.895 13.004038
54.900 13.18084
54.905 12.738662
54.910 12.645881
54.915 12.535055
54.920 12.255527
54.925 11.939983
54.930 12.12243
54.935 12.263836
54.940 12.789516
54.945 12.630368
54.950 12.495661
54.955 12.625349
54.960 12.566936
54.965 12.361426
54.970 11.705563
54.975 11.275433
54.980 11.468822
54.985 11.955061
54.990 11.829412
54.995 11.993587
55.000 11.888773
55.005 12.142542
55.010 12.353006
55.015 12.165504
55.020 11.978786
55.025 12.191041
55.030 11.619321
55.035 11.382298
55.040 11.251068
55.045 10.954475
55.050 10.701025
55.055 10.210012
55.060 10.327373
55.065 11.048403
55.070 11.494285
55.075 11.773185
55.080 12.120279
55.085 12.476122
55.090 12.430959
55.095 12.754425
55.100 12.90453
55.105 12.991622
55.110 12.987032
55.115 12.497987
55.120 12.713235
55.125 13.699808
55.130 13.394243
55.135 13.234137
55.140 13.065269
55.145 13.13788
55.150 13.462798
55.155 13.067496
55.160 12.471698
55.165 12.839919
55.170 13.056694
55.175 13.258473
55.180 13.236516
55.185 13.131185
55.190 12.916016
55.195 12.648174
55.200 12.464501
55.205 12.242007
55.210 12.156345
55.215 12.309084
55.220 12.086834
55.225 12.27366
55.230 12.429478
55.235 12.022727
55.240 11.958656
55.245 11.804118
55.250 12.081707
55.255 11.940416
55.260 11.827971
55.265 11.579003
55.270 12.020588
55.275 11.675127
55.280 11.523525
55.285 11.541742
55.290 11.729091
55.295 11.413918
55.300 11.375679
55.305 11.244236
55.310 11.803523
55.315 11.976299
55.320 11.655674
55.325 11.6718
55.330 11.860766
55.335 11.640059
55.340 11.705954
55.345 11.81311
55.350 12.140038
55.355 12.488004
55.360 12.556566
55.365 12.340609
55.370 12.161484
55.375 12.003883
55.380 11.801308
55.385 11.457096
55.390 11.3345
55.395 11.712676
55.400 12.220055
55.405 12.635499
55.410 12.406405
55.415 12.367174
55.420 12.450451
55.425 12.173383
55.430 12.443005
55.435 12.614822
55.440 12.812234
55.445 13.70532
55.450 13.918181
55.455 13.940315
55.460 13.965569
55.465 13.510621
55.470 13.563382
55.475 13.362168
55.480 12.751709
55.485 12.647036
55.490 12.78832
55.495 12.911901
55.500 12.91797
55.505 12.707916
55.510 12.769222
55.515 12.730933
55.520 13.230262
55.525 13.235633
55.530 13.13384
55.535 13.600419
55.540 13.899153
55.545 13.919929
55.550 14.028436
55.555 13.438364
55.560 13.642813
55.565 14.051861
55.570 13.782289
55.575 13.558657
55.580 13.771285
55.585 13.819453
55.590 13.547853
55.595 13.07739
55.600 13.172364
55.605 13.380873
55.610 13.086392
55.615 13.227365
55.620 13.122064
55.625 13.442867
55.630 13.322659
55.635 12.397869
55.640 12.10851
55.645 12.145421
55.650 11.758286
55.655 11.439286
55.660 11.228975
55.665 11.13382
55.670 11.874575
55.675 12.688164
55.680 12.902361
55.685 13.028718
55.690 13.560292
55.695 13.793336
55.700 14.055188
55.705 13.411814
55.710 12.858557
55.715 12.85983
55.720 13.174651
55.725 12.838504
55.730 12.607303
55.735 12.219201
55.740 12.377139
55.745 12.380782
55.750 12.46455
55.755 11.796581
55.760 12.10648
55.765 12.464791
55.770 12.761239
55.775 13.155429
55.780 13.102273
55.785 13.411674
55.790 13.89558
55.795 13.338844
55.800 13.08978
55.805 13.36004
55.810 13.62683
55.815 13.822355
55.820 13.5903
55.825 13.961987
55.830 14.560452
55.835 15.038342
55.840 14.774849
55.845 14.129299
55.850 14.110757
55.855 13.82044
55.860 13.577132
55.865 13.127709
55.870 12.670458
55.875 13.221015
55.880 13.334061
55.885 12.949121
55.890 12.84173
55.895 12.63424
55.900 12.765988
55.905 12.870522
55.910 12.296633
55.915 12.134715
55.920 12.386727
55.925 12.472465
55.930 12.952407
55.935 13.005823
55.940 13.016505
55.945 13.64407
55.950 13.993674
55.955 14.226136
55.960 13.950948
55.965 13.502829
55.970 13.575541
55.975 13.165236
55.980 12.589858
55.985 12.303402
55.990 12.152825
55.995 12.391735
56.000 12.76137
56.005 12.998368
56.010 13.610222
56.015 13.846245
56.020 14.03099
56.025 14.02494
56.030 14.032928
56.035 13.852468
56.040 14.324137
56.045 14.085443
56.050 14.119299
56.055 13.971403
56.060 14.063169
56.065 14.267899
56.070 14.216418
56.075 13.524966
56.080 14.091921
56.085 14.349796
56.090 14.76927
56.095 15.049072
56.100 14.258455
56.105 13.638074
56.110 13.200234
56.115 12.786414
56.120 12.471791
56.125 12.309613
56.130 12.248862
56.135 12.741203
56.140 13.584929
56.145 13.917364
56.150 13.570697
56.155 13.390862
56.160 13.007311
56.165 13.035889
56.170 13.094875
56.175 12.781455
56.180 11.80138
56.185 11.92944
56.190 12.262164
56.195 12.544673
56.200 12.576586
56.205 12.32829
56.210 12.538006
56.215 13.441548
56.220 13.578591
56.225 13.332075
56.230 13.195762
56.235 13.529715
56.240 13.774272
56.245 13.42447
56.250 13.524752
56.255 13.434278
56.260 13.313657
56.265 13.025331
56.270 12.484773
56.275 12.516606
56.280 12.455197
56.285 12.201877
56.290 12.546458
56.295 12.790564
56.300 12.994507
56.305 13.440971
56.310 14.009789
56.315 14.314943
56.320 13.913945
56.325 14.11305
56.330 14.063396
56.335 14.18331
56.340 14.198598
56.345 14.324289
56.350 14.790301
56.355 15.263259
56.360 14.731521
56.365 14.711312
56.370 14.733651
56.375 14.368743
56.380 14.235427
56.385 14.177835
56.390 14.061462
56.395 14.052747
56.400 13.68687
56.405 13.294282
56.410 13.023497
56.415 12.710164
56.420 12.271659
56.425 12.494211
56.430 12.550887
56.435 12.91179
56.440 12.989572
56.445 12.89286
56.450 12.55846
56.455 12.269665
56.460 12.357417
56.465 12.757106
56.470 12.372046
56.475 12.534553
56.480 12.831411
56.485 12.953861
56.490 13.232417
56.495 12.791186
56.500 12.526135
56.505 13.814322
56.510 14.074324
56.515 13.987453
56.520 14.40213
56.525 14.39669
56.530 14.56947
56.535 14.403946
56.540 13.843429
56.545 13.700577
56.550 13.615229
56.555 12.928371
56.560 12.958941
56.565 13.410949
56.570 13.660964
56.575 13.504429
56.580 13.759637
56.585 14.176085
56.590 14.41993
56.595 14.186885
56.600 13.858759
56.605 13.514396
56.610 12.987971
56.615 12.557899
56.620 11.941377
56.625 11.751421
56.630 11.68831
56.635 11.717017
56.640 12.134588
56.645 12.222801
56.650 12.267984
56.655 12.83189
56.660 13.855906
56.665 14.373172
56.670 14.85906
56.675 14.914093
56.680 15.495575
56.685 15.632516
56.690 15.879349
56.695 15.936768
56.700 15.72653
56.705 15.571705
56.710 15.316283
56.715 15.324615
56.720 15.300876
56.725 14.872434
56.730 14.82798
56.735 15.162673
56.740 15.220482
56.745 15.410856
56.750 15.036226
56.755 15.249623
56.760 15.438269
56.765 14.950055
56.770 14.768909
56.775 15.339985
56.780 15.636114
56.785 15.302065
56.790 14.896572
56.795 15.086122
56.800 15.818967
56.805 15.54573
56.810 15.259849
56.815 14.965012
56.820 15.848447
56.825 16.213846
56.830 15.565128
56.835 15.109848
56.840 14.526768
56.845 13.973778
56.850 14.347593
56.855 13.984492
56.860 13.863394
56.865 13.953712
56.870 13.972216
56.875 14.505816
56.880 14.383339
56.885 13.931475
56.890 14.100026
56.895 14.06027
56.900 14.34592
56.905 14.441704
56.910 14.769785
56.915 15.241588
56.920 15.382306
56.925 15.881173
56.930 16.406719
56.935 16.551323
56.940 16.562481
56.945 16.369911
56.950 16.506762
56.955 15.936412
56.960 14.761642
56.965 14.697523
56.970 14.032121
56.975 13.656238
56.980 13.264478
56.985 12.998108
56.990 13.310353
56.995 13.449334
57.000 12.993853
57.005 13.159506
57.010 13.502673
57.015 13.610806
57.020 13.468663
57.025 13.482906
57.030 13.768862
57.035 13.924788
57.040 14.354517
57.045 14.33533
57.050 14.151817
57.055 14.495584
57.060 14.843572
57.065 14.669563
57.070 14.390941
57.075 14.37357
57.080 14.304173
57.085 14.413403
57.090 13.766657
57.095 13.845521
57.100 14.104892
57.105 14.395135
57.110 13.994785
57.115 14.96293
57.120 15.282002
57.125 15.548641
57.130 15.431394
57.135 15.10344
57.140 14.710615
57.145 14.663709
57.150 13.963951
57.155 14.198132
57.160 14.722907
57.165 14.927239
57.170 15.123169
57.175 15.776165
57.180 16.07309
57.185 16.13146
57.190 15.907723
57.195 15.289305
57.200 15.129184
57.205 14.889942
57.210 14.71108
57.215 14.725637
57.220 14.620815
57.225 14.478781
57.230 14.05003
57.235 14.507189
57.240 14.986208
57.245 14.595645
57.250 14.233068
57.255 13.912065
57.260 13.967895
57.265 14.355748
57.270 14.23223
57.275 13.877513
57.280 13.388905
57.285 13.848447
57.290 14.202916
57.295 14.545
57.300 14.840367
57.305 14.785891
57.310 14.913033
57.315 15.18765
57.320 14.295726
57.325 13.98732
57.330 13.68056
57.335 13.502758
57.340 13.614411
57.345 13.929766
57.350 14.392479
57.355 15.161579
57.360 15.028062
57.365 15.150182
57.370 15.41182
57.375 15.654749
57.380 15.828107
57.385 15.710599
57.390 15.789946
57.395 15.810761
57.400 15.705812
57.405 15.159895
57.410 14.680347
57.415 14.654062
57.420 14.804863
57.425 15.055124
57.430 15.331273
57.435 14.92039
57.440 14.803477
57.445 14.903644
57.450 14.458897
57.455 14.582316
57.460 14.270408
57.465 14.599139
57.470 14.955138
57.475 15.161166
57.480 14.661133
57.485 15.088844
57.490 15.23671
57.495 14.883174
57.500 14.448808
57.505 14.689931
57.510 14.645537
57.515 15.403592
57.520 15.10933
57.525 15.656411
57.530 16.646118
57.535 17.150404
57.540 17.00316
57.545 16.715574
57.550 16.162014
57.555 16.02276
57.560 15.540256
57.565 15.125677
57.570 14.909163
57.575 14.88376
57.580 15.178871
57.585 15.146089
57.590 15.674028
57.595 15.457083
57.600 15.057117
57.605 15.151813
57.610 15.617404
57.615 15.954382
57.620 16.436497
57.625 16.240387
57.630 16.48213
57.635 16.846691
57.640 16.958717
57.645 17.058943
57.650 17.18314
57.655 16.908953
57.660 16.355778
57.665 16.106138
57.670 16.776466
57.675 16.327349
57.680 16.088655
57.685 16.077942
57.690 15.992464
57.695 16.575314
57.700 17.118004
57.705 16.32267
57.710 16.555454
57.715 16.198793
57.720 16.390289
57.725 16.103384
57.730 15.970019
57.735 15.182709
57.740 15.449814
57.745 15.028397
57.750 14.634467
57.755 14.313189
57.760 14.416659
57.765 13.771674
57.770 13.888198
57.775 14.024682
57.780 14.463491
57.785 15.252851
57.790 15.331916
57.795 15.655422
57.800 15.934496
57.805 15.566315
57.810 15.091669
57.815 15.013586
57.820 14.859882
57.825 14.542038
57.830 14.198028
57.835 14.256569
57.840 14.782543
57.845 15.000564
57.850 14.993698
57.855 14.821906
57.860 15.400068
57.865 15.485649
57.870 16.067949
57.875 16.297112
57.880 16.784708
57.885 16.890259
57.890 16.857891
57.895 16.453987
57.900 16.900352
57.905 16.493954
57.910 16.224874
57.915 15.85954
57.920 15.970479
57.925 16.451109
57.930 16.664135
57.935 16.257408
57.940 16.146713
57.945 16.027317
57.950 15.782458
57.955 15.180081
57.960 14.602541
57.965 14.174983
57.970 14.391302
57.975 14.446157
57.980 14.777287
57.985 15.316851
57.990 15.544785
57.995 15.630445
58.000 15.702129
58.005 16.053244
58.010 15.874648
58.015 15.177731
58.020 14.758654
58.025 14.776647
58.030 14.745109
58.035 14.611425
58.040 14.368412
58.045 14.448042
58.050 15.209149
58.055 15.387969
58.060 15.142071
58.065 15.108401
58.070 15.352069
58.075 15.511271
58.080 15.292018
58.085 15.394882
58.090 15.486384
58.095 15.420451
58.100 15.71158
58.105 15.636157
58.110 15.815146
58.115 15.641788
58.120 15.238814
58.125 15.304892
58.130 15.676122
58.135 15.536501
58.140 15.677494
58.145 15.515285
58.150 15.53486
58.155 16.043776
58.160 15.761191
58.165 15.96307
58.170 16.023087
58.175 15.602938
58.180 15.367997
58.185 15.213006
58.190 14.845629
58.195 14.642379
58.200 14.306474
58.205 13.877977
58.210 13.896854
58.215 14.744533
58.220 15.502797
58.225 15.686934
58.230 15.586144
58.235 15.591338
58.240 15.831317
58.245 16.041521
58.250 15.441971
58.255 14.983227
58.260 15.434028
58.265 15.732464
58.270 15.390571
58.275 15.141171
58.280 15.359929
58.285 15.499117
58.290 15.006703
58.295 14.475842
58.300 14.886523
58.305 15.491582
58.310 15.653026
58.315 14.851429
58.320 14.427031
58.325 14.64033
58.330 14.673136
58.335 14.138659
58.340 14.108837
58.345 14.697229
58.350 15.06319
58.355 15.506923
58.360 15.916524
58.365 16.413548
58.370 16.687624
58.375 16.539858
58.380 15.878049
58.385 16.110977
58.390 16.459017
58.395 16.305115
58.400 15.686251
58.405 15.103011
58.410 14.941249
58.415 14.604894
58.420 14.352776
58.425 13.931332
58.430 13.63109
58.435 13.566428
58.440 14.14382
58.445 14.962986
58.450 15.525422
58.455 15.806859
58.460 16.386772
58.465 16.891157
58.470 17.425241
58.475 17.212324
58.480 17.204128
58.485 17.081654
58.490 17.350582
58.495 17.366653
58.500 17.482447
58.505 17.23584
58.510 17.11307
58.515 16.384361
58.520 16.932209
58.525 16.883978
58.530 16.291849
58.535 15.872588
58.540 16.143766
58.545 16.352299
58.550 16.819288
58.555 16.60704
58.560 17.409655
58.565 17.754293
58.570 18.027132
58.575 18.198826
58.580 18.312225
58.585 18.214108
58.590 17.93347
58.595 17.360584
58.600 17.48303
58.605 17.06267
58.610 16.484545
58.615 16.113647
58.620 16.126528
58.625 16.24581
58.630 15.831703
58.635 15.860978
58.640 16.072657
58.645 16.040726
58.650 16.37351
58.655 16.26358
58.660 16.525709
58.665 16.674017
58.670 16.609961
58.675 16.920135
58.680 17.358191
58.685 17.355324
58.690 17.10421
58.695 16.527403
58.700 16.805719
58.705 17.051504
58.710 16.748606
58.715 16.389063
58.720 16.256258
58.725 17.036764
58.730 17.374273
58.735 17.057673
58.740 17.307156
58.745 17.451479
58.750 17.961046
58.755 17.797886
58.760 17.395729
58.765 17.234299
58.770 17.066887
58.775 16.476358
58.780 16.66198
58.785 16.686543
58.790 17.04072
58.795 17.396721
58.800 17.3929
58.805 17.45664
58.810 17.346066
58.815 16.822836
58.820 16.244219
58.825 16.517536
58.830 15.840292
58.835 15.451707
58.840 15.050094
58.845 15.211877
58.850 15.211432
58.855 15.375962
58.860 14.768037
58.865 15.052896
58.870 15.419356
58.875 15.488364
58.880 15.522132
58.885 15.95296
58.890 16.115383
58.895 16.316774
58.900 16.452015
58.905 16.305763
58.910 16.549656
58.915 16.050463
58.920 15.996758
58.925 15.550202
58.930 15.500697
58.935 15.725629
58.940 16.303169
58.945 16.454865
58.950 16.491985
58.955 16.423782
58.960 16.606745
58.965 16.649794
58.970 16.271637
58.975 16.092602
58.980 16.522009
58.985 16.928341
58.990 16.882616
58.995 17.427557
59.000 17.114792
59.005 17.23011
59.010 16.811872
59.015 16.603624
59.020 16.567396
59.025 16.068747
59.030 15.447089
59.035 15.49618
59.040 16.091566
59.045 16.638277
59.050 16.651623
59.055 16.872725
59.060 17.307798
59.065 17.709341
59.070 17.721128
59.075 17.754005
59.080 17.986456
59.085 17.894819
59.090 18.093699
59.095 18.160215
59.100 18.389614
59.105 18.221809
59.110 17.722727
59.115 17.185551
59.120 17.198952
59.125 16.546618
59.130 16.482973
59.135 16.557728
59.140 16.32691
59.145 16.052061
59.150 15.652971
59.155 15.089089
59.160 15.165835
59.165 15.490582
59.170 15.448253
59.175 15.544686
59.180 15.6464
59.185 15.858591
59.190 16.576799
59.195 16.403547
59.200 16.126173
59.205 16.280071
59.210 16.682594
59.215 16.804466
59.220 16.922815
59.225 17.159508
59.230 17.340616
59.235 17.238129
59.240 17.213049
59.245 17.026947
59.250 17.511871
59.255 17.473169
59.260 17.120571
59.265 17.064644
59.270 17.011959
59.275 16.594313
59.280 16.204395
59.285 15.986748
59.290 16.515455
59.295 17.22883
59.300 17.087635
59.305 16.937172
59.310 17.232615
59.315 17.658154
59.320 17.736538
59.325 17.623329
59.330 17.047483
59.335 17.13343
59.340 17.439001
59.345 17.545027
59.350 17.511095
59.355 17.686502
59.360 17.728125
59.365 18.496546
59.370 18.158575
59.375 18.183855
59.380 17.93413
59.385 17.86223
59.390 17.377499
59.395 17.295052
59.400 17.530327
59.405 18.426796
59.410 18.483688
59.415 19.073509
59.420 19.563097
59.425 19.378586
59.430 18.929117
59.435 18.348499
59.440 18.356133
59.445 17.894686
59.450 17.302332
59.455 16.849997
59.460 17.305708
59.465 17.585514
59.470 17.551153
59.475 16.917538
59.480 17.134045
59.485 17.258577
59.490 17.056337
59.495 17.299528
59.500 17.53233
59.505 17.978205
59.510 18.375196
59.515 18.690443
59.520 19.014565
59.525 19.158611
59.530 19.073671
59.535 19.456039
59.540 19.694098
59.545 20.059113
59.550 19.818575
59.555 19.609795
59.560 20.108288
59.565 20.395102
59.570 19.669336
59.575 19.034853
59.580 18.552919
59.585 18.38159
59.590 18.939867
59.595 18.472151
59.600 17.466263
59.605 17.720873
59.610 17.866518
59.615 18.126518
59.620 18.130926
59.625 17.895361
59.630 18.677979
59.635 19.49766
59.640 19.626434
59.645 19.892015
59.650 20.192684
59.655 20.4473
59.660 20.655754
59.665 20.678925
59.670 20.378292
59.675 20.651337
59.680 20.913477
59.685 20.534632
59.690 20.527496
59.695 20.222538
59.700 19.981623
59.705 19.687845
59.710 19.099655
59.715 19.245726
59.720 19.763929
59.725 20.326117
59.730 20.516003
59.735 21.549212
59.740 22.30184
59.745 22.59099
59.750 22.601843
59.755 22.485626
59.760 22.099201
59.765 21.961359
59.770 21.06661
59.775 20.729294
59.780 20.84248
59.785 20.612419
59.790 20.418135
59.795 19.854853
59.800 19.950979
59.805 21.105608
59.810 21.924696
59.815 21.967924
59.820 22.068792
59.825 22.589552
59.830 23.439442
59.835 23.400272
59.840 22.446623
59.845 23.073954
59.850 23.435503
59.855 23.354345
59.860 23.450953
59.865 23.078405
59.870 23.040081
59.875 22.554461
59.880 21.947453
59.885 21.576565
59.890 21.637825
59.895 21.231083
59.900 21.040365
59.905 21.172077
59.910 21.658152
59.915 21.07929
59.920 21.468655
59.925 21.650785
59.930 22.176973
59.935 22.544041
59.940 22.456823
59.945 22.793442
59.950 22.872593
59.955 23.022898
59.960 23.676682
59.965 23.883373
59.970 23.921959
59.975 24.45536
59.980 23.94644
59.985 24.07184
59.990 23.791924
59.995 23.426714
60.000 22.766062
60.005 22.845903
60.010 22.329185
60.015 22.212778
60.020 21.891529
60.025 21.757145
60.030 21.542166
60.035 21.45409
60.040 21.267632
60.045 21.137995
60.050 21.217537
60.055 21.327888
60.060 21.051121
60.065 21.46834
60.070 22.005764
60.075 22.402683
60.080 22.150278
60.085 22.580029
60.090 22.51215
60.095 22.528708
60.100 22.04504
60.105 21.76289
60.110 21.3291
60.115 21.950144
60.120 23.253645
60.125 23.489679
60.130 23.400793
60.135 23.351749
60.140 23.286276
60.145 23.486198
60.150 23.339052
60.155 22.003551
60.160 22.440098
60.165 23.09479
60.170 23.480003
60.175 23.887056
60.180 23.445011
60.185 23.085358
60.190 23.288378
60.195 23.047026
60.200 22.810478
60.205 22.771612
60.210 22.361197
60.215 22.777952
60.220 22.660793
60.225 22.749651
60.230 22.481487
60.235 22.180593
60.240 22.485245
60.245 22.690008
60.250 22.713303
60.255 22.032833
60.260 21.447836
60.265 20.888571
60.270 20.945915
60.275 20.244987
60.280 20.201431
60.285 20.724384
60.290 22.340752
60.295 22.734608
60.300 22.8146
60.305 23.09
60.310 23.077385
60.315 22.840508
60.320 22.432766
60.325 21.590397
60.330 21.683199
60.335 21.682058
60.340 20.875044
60.345 20.631502
60.350 20.624424
60.355 20.301414
60.360 20.518593
60.365 20.809996
60.370 20.967033
60.375 21.217695
60.380 21.228247
60.385 21.214502
60.390 21.478878
60.395 21.378746
60.400 20.856907
60.405 21.004017
60.410 20.86092
60.415 21.310822
60.420 21.512209
60.425 21.496929
60.430 21.598049
60.435 22.021841
60.440 22.476606
60.445 23.171236
60.450 23.103374
60.455 22.900761
60.460 22.824404
60.465 22.846624
60.470 22.597607
60.475 22.569651
60.480 22.685505
60.485 22.645088
60.490 22.123592
60.495 22.105505
60.500 21.910416
60.505 22.490421
60.510 22.400646
60.515 21.742533
60.520 21.031839
60.525 20.661549
60.530 20.738287
60.535 21.170715
60.540 20.250776
60.545 19.775536
60.550 19.936272
60.555 20.535698
60.560 20.738256
60.565 20.64711
60.570 20.329506
60.575 20.851852
60.580 21.014013
60.585 21.422096
60.590 21.407804
60.595 21.974291
60.600 21.793549
60.605 21.970476
60.610 21.663561
60.615 21.760521
60.620 21.25736
60.625 21.636347
60.630 21.330431
60.635 20.80673
60.640 20.125378
60.645 20.170208
60.650 19.514486
60.655 19.696299
60.660 19.231077
60.665 19.267626
60.670 19.621288
60.675 19.715151
60.680 19.64974
60.685 20.119188
60.690 19.993773
60.695 19.994057
60.700 19.893116
60.705 20.283796
60.710 19.625322
60.715 19.285139
60.720 18.836714
60.725 18.397482
60.730 18.198391
60.735 18.114651
60.740 17.983131
60.745 18.56251
60.750 18.794975
60.755 18.768906
60.760 19.539375
60.765 20.303455
60.770 20.383938
60.775 20.083141
60.780 20.131723
60.785 19.90353
60.790 19.925737
60.795 19.420183
60.800 18.641399
60.805 18.45273
60.810 18.583614
60.815 18.502542
60.820 18.755941
60.825 18.676569
60.830 18.675102
60.835 18.338327
60.840 17.922663
60.845 17.898735
60.850 17.648735
60.855 17.762852
60.860 18.290714
60.865 18.403664
60.870 19.005859
60.875 20.082047
60.880 20.483471
60.885 20.50219
60.890 20.329653
60.895 19.90398
60.900 19.633268
60.905 19.616621
60.910 18.900824
60.915 18.61096
60.920 18.550648
60.925 18.939426
60.930 19.256742
60.935 19.461855
60.940 18.980968
60.945 18.328226
60.950 18.23402
60.955 18.538864
60.960 18.255037
60.965 17.746414
60.970 17.141315
60.975 17.024258
60.980 17.355591
60.985 17.032694
60.990 16.753738
60.995 16.247757
61.000 16.500305
61.005 17.521852
61.010 17.855448
61.015 17.766184
61.020 18.832975
61.025 18.967262
61.030 19.387396
61.035 19.069477
61.040 18.488903
61.045 18.695637
61.050 18.2311
61.055 17.128593
61.060 17.492075
61.065 17.466867
61.070 18.201096
61.075 18.46711
61.080 18.935732
61.085 19.824446
61.090 19.997622
61.095 19.942791
61.100 19.893703
61.105 19.303503
61.110 19.09951
61.115 18.857067
61.120 18.413881
61.125 18.94825
61.130 19.112194
61.135 18.507923
61.140 18.248455
61.145 17.99472
61.150 17.78577
61.155 18.118959
61.160 17.833052
61.165 17.488991
61.170 18.256659
61.175 18.93437
61.180 19.157011
61.185 19.042488
61.190 18.787868
61.195 18.777025
61.200 19.654644
61.205 19.853344
61.210 19.880426
61.215 20.691183
61.220 21.483086
61.225 21.079897
61.230 20.08836
61.235 19.156126
61.240 19.288876
61.245 19.200787
61.250 18.823616
61.255 18.45097
61.260 19.028488
61.265 19.766142
61.270 19.500473
61.275 18.34462
61.280 17.747419
61.285 17.178898
61.290 17.140625
61.295 16.808674
61.300 16.531776
61.305 16.468691
61.310 17.327253
61.315 17.743725
61.320 17.640507
61.325 17.17865
61.330 17.085567
61.335 17.12978
61.340 17.331646
61.345 17.05666
61.350 16.423765
61.355 16.56069
61.360 16.93701
61.365 17.083534
61.370 17.579601
61.375 17.628162
61.380 17.978529
61.385 18.176878
61.390 18.254652
61.395 18.546957
61.400 18.543795
61.405 18.359322
61.410 18.758207
61.415 19.189342
61.420 19.298847
61.425 19.261803
61.430 18.684179
61.435 18.310343
61.440 18.328173
61.445 18.722864
61.450 18.494898
61.455 18.291384
61.460 17.748882
61.465 17.888952
61.470 18.280556
61.475 18.217611
61.480 17.192146
61.485 16.886694
61.490 16.941235
61.495 18.116909
61.500 18.586067
61.505 18.252913
61.510 17.79162
61.515 17.575247
61.520 17.782431
61.525 18.034233
61.530 16.998627
61.535 16.193516
61.540 16.279289
61.545 17.050119
61.550 17.730169
61.555 17.80887
61.560 17.70825
61.565 18.365551
61.570 19.145109
61.575 18.856754
61.580 18.739023
61.585 18.412882
61.590 18.287373
61.595 18.375584
61.600 18.282829
61.605 18.148479
61.610 18.627562
61.615 18.477951
61.620 18.879416
61.625 19.311417
61.630 19.074938
61.635 18.897989
61.640 18.689638
61.645 18.826229
61.650 18.466194
61.655 17.911423
61.660 17.958775
61.665 18.489576
61.670 18.647114
61.675 18.71447
61.680 17.922253
61.685 18.084557
61.690 18.370892
61.695 18.012909
61.700 17.392632
61.705 17.199715
61.710 17.336073
61.715 17.478895
61.720 17.577637
61.725 17.34226
61.730 17.413795
61.735 17.948891
61.740 18.164234
61.745 17.90822
61.750 18.212675
61.755 17.641249
61.760 17.377028
61.765 17.516127
61.770 17.100252
61.775 17.168547
61.780 17.383247
61.785 17.627386
61.790 18.301874
61.795 18.343731
61.800 18.071426
61.805 18.231339
61.810 18.442604
61.815 18.444849
61.820 18.056137
61.825 18.001247
61.830 18.84927
61.835 19.072578
61.840 19.060225
61.845 18.29093
61.850 17.93556
61.855 17.19853
61.860 16.776768
61.865 16.300739
61.870 16.250721
61.875 16.702721
61.880 17.01457
61.885 17.701187
61.890 19.169039
61.895 18.965981
61.900 19.156038
61.905 19.429123
61.910 19.253637
61.915 19.106106
61.920 18.824013
61.925 18.686792
61.930 19.434687
61.935 19.306751
61.940 18.989456
61.945 17.915586
61.950 17.307512
61.955 17.608616
61.960 16.996653
61.965 16.316935
61.970 15.537094
61.975 15.044693
61.980 15.423804
61.985 16.227314
61.990 15.693959
61.995 15.280623
62.000 15.103625
62.005 15.913861
62.010 17.001509
62.015 17.249445
62.020 16.630634
62.025 16.485292
62.030 16.87871
62.035 16.898312
62.040 16.455986
62.045 15.984625
62.050 15.983147
62.055 16.24439
62.060 16.91811
62.065 16.834404
62.070 16.915442
62.075 17.04265
62.080 16.898518
62.085 17.319578
62.090 17.06352
62.095 17.366781
62.100 17.418747
62.105 17.437113
62.110 17.265568
62.115 17.785492
62.120 18.067587
62.125 18.31979
62.130 17.756544
62.135 17.915291
62.140 18.463179
62.145 18.35895
62.150 17.737894
62.155 16.931049
62.160 16.676971
62.165 16.806902
62.170 16.504578
62.175 16.290409
62.180 16.781231
62.185 16.913124
62.190 17.266268
62.195 17.372965
62.200 17.59166
62.205 17.67642
62.210 17.386721
62.215 17.130737
62.220 17.165098
62.225 16.890028
62.230 17.21034
62.235 16.786385
62.240 17.096994
62.245 17.1152
62.250 17.262331
62.255 16.97776
62.260 16.826851
62.265 16.577112
62.270 16.898586
62.275 17.350494
62.280 17.783129
62.285 17.685068
62.290 17.780731
62.295 17.636061
62.300 17.488945
62.305 17.308392
62.310 17.253563
62.315 16.730955
62.320 16.405321
62.325 16.684544
62.330 17.186556
62.335 17.176321
62.340 16.540915
62.345 15.623405
62.350 16.076452
62.355 16.656313
62.360 16.211407
62.365 16.232239
62.370 16.486803
62.375 17.466499
62.380 17.688793
62.385 17.060581
62.390 16.96088
62.395 17.407883
62.400 17.473997
62.405 17.268141
62.410 17.202242
62.415 17.896727
62.420 18.020327
62.425 18.201677
62.430 18.159494
62.435 18.592833
62.440 19.395027
62.445 20.287144
62.450 20.311056
62.455 21.029985
62.460 21.588867
62.465 21.423021
62.470 20.492096
62.475 19.590618
62.480 18.388878
62.485 18.432053
62.490 18.017632
62.495 17.610813
62.500 17.844872
62.505 17.989992
62.510 18.216509
62.515 18.61499
62.520 18.910316
62.525 18.763391
62.530 18.372782
62.535 17.912323
62.540 17.771448
62.545 17.284586
62.550 16.930363
62.555 16.6089
62.560 16.722904
62.565 17.139147
62.570 17.146053
62.575 17.235123
62.580 17.128664
62.585 16.857515
62.590 17.128397
62.595 16.56954
62.600 16.410788
62.605 16.624454
62.610 16.264471
62.615 16.578463
62.620 16.105789
62.625 15.814519
62.630 15.959663
62.635 15.904239
62.640 15.99437
62.645 16.599844
62.650 16.940771
62.655 17.683834
62.660 17.480043
62.665 17.259211
62.670 17.720655
62.675 18.480148
62.680 18.694843
62.685 18.629452
62.690 18.478975
62.695 18.999908
62.700 19.59226
62.705 19.051559
62.710 18.83938
62.715 18.476776
62.720 18.554623
62.725 18.874561
62.730 18.606367
62.735 18.292383
62.740 18.548128
62.745 18.347656
62.750 18.567564
62.755 18.274977
62.760 17.653448
62.765 17.905659
62.770 18.194588
62.775 18.181473
62.780 18.169809
62.785 17.781546
62.790 17.638603
62.795 17.627985
62.800 17.425238
62.805 17.371235
62.810 17.310526
62.815 17.193974
62.820 17.219158
62.825 17.138102
62.830 17.296812
62.835 17.24395
62.840 17.238503
62.845 17.261713
62.850 17.131844
62.855 17.368477
62.860 17.983871
62.865 18.179697
62.870 18.219519
62.875 17.577835
62.880 17.413197
62.885 17.835043
62.890 17.871378
62.895 17.505878
62.900 17.468327
62.905 17.7824
62.910 18.824999
62.915 19.019508
62.920 19.107492
62.925 19.160017
62.930 18.977098
62.935 19.036423
62.940 18.674513
62.945 17.725363
62.950 17.374699
62.955 17.201622
62.960 16.836252
62.965 16.813541
62.970 16.275961
62.975 16.718439
62.980 16.841213
62.985 16.754044
62.990 17.21517
62.995 17.651915
63.000 17.632149
63.005 17.619886
63.010 17.754995
63.015 18.080364
63.020 18.090212
63.025 17.31793
63.030 17.615454
63.035 18.145044
63.040 18.292351
63.045 17.593023
63.050 17.203163
63.055 17.046724
63.060 17.253084
63.065 16.986031
63.070 16.994257
63.075 16.875429
63.080 16.839823
63.085 16.778038
63.090 16.965666
63.095 16.89731
63.100 16.958105
63.105 16.877209
63.110 17.130081
63.115 17.576698
63.120 17.999321
63.125 17.866241
63.130 17.926035
63.135 17.896864
63.140 17.965366
63.145 17.914425
63.150 18.078783
63.155 17.8862
63.160 18.26247
63.165 18.89254
63.170 19.370213
63.175 19.045856
63.180 18.506411
63.185 18.170576
63.190 18.667337
63.195 18.816586
63.200 18.334974
63.205 18.421314
63.210 18.732376
63.215 19.815132
63.220 19.824228
63.225 19.644957
63.230 19.319181
63.235 18.906616
63.240 18.248558
63.245 17.553772
63.250 16.815451
63.255 17.089052
63.260 17.313795
63.265 17.743898
63.270 17.782251
63.275 17.733273
63.280 17.89707
63.285 17.704872
63.290 17.391087
63.295 16.986073
63.300 16.324324
63.305 16.561592
63.310 17.075424
63.315 17.221148
63.320 17.856373
63.325 18.22176
63.330 18.744768
63.335 19.392107
63.340 19.558975
63.345 19.370686
63.350 19.196318
63.355 18.355711
63.360 18.128939
63.365 17.721869
63.370 17.341997
63.375 16.893175
63.380 17.147255
63.385 17.510807
63.390 18.076952
63.395 17.63728
63.400 17.724638
63.405 17.655563
63.410 17.243793
63.415 16.760935
63.420 16.936541
63.425 17.202911
63.430 17.810707
63.435 17.459816
63.440 17.431095
63.445 17.933672
63.450 17.936979
63.455 17.723129
63.460 17.288351
63.465 17.272123
63.470 17.760374
63.475 18.603846
63.480 18.643066
63.485 18.520596
63.490 18.248363
63.495 17.999916
63.500 17.889906
63.505 17.980295
63.510 17.635971
63.515 17.911139
63.520 18.157082
63.525 17.957758
63.530 18.364063
63.535 18.225046
63.540 18.112902
63.545 17.780823
63.550 17.366798
63.555 17.183905
63.560 17.276915
63.565 17.103445
63.570 17.580135
63.575 18.21999
63.580 18.364513
63.585 18.775854
63.590 19.189661
63.595 19.504423
63.600 19.659056
63.605 19.408741
63.610 18.858564
63.615 19.251068
63.620 19.1842
63.625 19.23501
63.630 19.251451
63.635 19.120609
63.640 18.99403
63.645 19.023092
63.650 19.080765
63.655 18.917894
63.660 19.605217
63.665 20.179003
63.670 20.523684
63.675 20.743116
63.680 20.12439
63.685 19.915186
63.690 20.439688
63.695 19.717598
63.700 19.279198
63.705 19.202576
63.710 19.135803
63.715 19.329889
63.720 19.907549
63.725 19.755291
63.730 19.79357
63.735 20.500095
63.740 20.379305
63.745 20.704737
63.750 21.042009
63.755 20.490543
63.760 20.270926
63.765 20.120762
63.770 19.525288
63.775 18.808649
63.780 18.436012
63.785 18.294477
63.790 18.081545
63.795 18.088839
63.800 17.777348
63.805 17.923386
63.810 18.331621
63.815 18.666452
63.820 18.613235
63.825 18.612589
63.830 19.097191
63.835 19.857695
63.840 19.915815
63.845 20.14328
63.850 19.688726
63.855 19.829391
63.860 20.327644
63.865 20.324394
63.870 19.781832
63.875 19.053082
63.880 18.363874
63.885 18.16461
63.890 17.909143
63.895 17.665262
63.900 17.281141
63.905 17.006847
63.910 17.7577
63.915 18.140219
63.920 18.340626
63.925 17.966593
63.930 17.748907
63.935 17.729742
63.940 18.154411
63.945 17.948244
63.950 17.587608
63.955 17.480583
63.960 18.014175
63.965 17.789124
63.970 17.979595
63.975 17.397631
63.980 17.170483
63.985 17.935469
63.990 17.994932
63.995 17.645769
64.000 17.819221
64.005 18.241026
64.010 18.98955
64.015 19.328533
64.020 19.630852
64.025 19.795473
64.030 20.323151
64.035 21.165472
64.040 20.777569
64.045 21.019928
64.050 21.836363
64.055 21.53264
64.060 21.255051
64.065 20.870386
64.070 20.308142
64.075 20.710693
64.080 20.173395
64.085 19.451269
64.090 19.567989
64.095 19.983801
64.100 20.150202
64.105 19.967857
64.110 19.332693
64.115 19.788845
64.120 20.190327
64.125 20.09709
64.130 19.759937
64.135 19.803236
64.140 19.459461
64.145 19.356054
64.150 18.410156
64.155 17.962591
64.160 18.232821
64.165 17.98682
64.170 17.818426
64.175 17.494915
64.180 17.551945
64.185 18.023928
64.190 18.661402
64.195 18.779629
64.200 18.934355
64.205 19.026712
64.210 19.571503
64.215 19.84392
64.220 19.665026
64.225 18.822437
64.230 18.581739
64.235 18.817268
64.240 18.894159
64.245 19.029917
64.250 18.772806
64.255 18.864811
64.260 18.927118
64.265 18.760487
64.270 18.988605
64.275 19.035501
64.280 18.838963
64.285 19.207684
64.290 19.233627
64.295 18.983568
64.300 18.949621
64.305 18.478991
64.310 18.543926
64.315 18.59543
64.320 18.191994
64.325 17.590818
64.330 17.847681
64.335 17.46624
64.340 17.724499
64.345 17.791208
64.350 18.025696
64.355 18.435799
64.360 19.119358
64.365 19.137556
64.370 19.659323
64.375 19.972036
64.380 19.839828
64.385 19.39253
64.390 19.585991
64.395 19.409473
64.400 19.791849
64.405 19.880133
64.410 19.888706
64.415 19.557182
64.420 19.551823
64.425 19.718596
64.430 19.965567
64.435 19.956762
64.440 19.796793
64.445 19.127249
64.450 19.660807
64.455 19.972372
64.460 19.929749
64.465 19.670296
64.470 19.179127
64.475 18.655436
64.480 18.871122
64.485 19.026606
64.490 18.752945
64.495 18.533655
64.500 18.823524
64.505 19.592733
64.510 20.499716
64.515 20.387218
64.520 19.914347
64.525 19.648306
64.530 19.597834
64.535 19.899572
64.540 19.533587
64.545 19.546686
64.550 19.86895
64.555 20.55653
64.560 20.810249
64.565 20.756474
64.570 19.631681
64.575 19.60095
64.580 19.418724
64.585 19.36688
64.590 19.062775
64.595 19.22142
64.600 19.330019
64.605 19.770027
64.610 20.046362
64.615 19.632586
64.620 19.220224
64.625 18.729893
64.630 18.659067
64.635 18.710472
64.640 18.83069
64.645 18.675381
64.650 19.222115
64.655 19.26548
64.660 19.831167
64.665 19.559719
64.670 19.295538
64.675 19.259668
64.680 19.641245
64.685 19.309916
64.690 19.446068
64.695 20.124146
64.700 20.669006
64.705 20.709311
64.710 20.770205
64.715 20.608398
64.720 20.375143
64.725 20.132668
64.730 19.62072
64.735 19.371498
64.740 19.406969
64.745 18.921524
64.750 18.702839
64.755 19.486526
64.760 20.011032
64.765 20.154697
64.770 20.321373
64.775 20.847187
64.780 21.224586
64.785 21.023266
64.790 20.96541
64.795 21.090359
64.800 21.7658
64.805 22.094799
64.810 21.490776
64.815 21.478392
64.820 22.003782
64.825 21.869175
64.830 21.4785
64.835 21.148417
64.840 20.961432
64.845 20.849251
64.850 20.602102
64.855 20.727652
64.860 20.606787
64.865 20.518311
64.870 20.468332
64.875 20.821161
64.880 20.94784
64.885 21.087189
64.890 21.520048
64.895 21.579853
64.900 21.39168
64.905 21.444168
64.910 21.366938
64.915 21.49992
64.920 21.653215
64.925 21.735828
64.930 22.008194
64.935 22.347719
64.940 22.140053
64.945 22.369665
64.950 23.603014
64.955 23.433685
64.960 22.990091
64.965 23.063467
64.970 22.928726
64.975 23.113619
64.980 22.956408
64.985 23.016792
64.990 24.017141
64.995 23.862495
65.000 23.384697
65.005 22.771605
65.010 22.296307
65.015 22.589212
65.020 22.705729
65.025 22.21435
65.030 22.234875
65.035 22.571949
65.040 23.065351
65.045 23.988342
65.050 23.595495
65.055 22.530771
65.060 22.454401
65.065 22.806561
65.070 23.026205
65.075 23.184193
65.080 22.757357
65.085 22.814714
65.090 22.507124
65.095 22.756744
65.100 23.042515
65.105 23.649815
65.110 23.756401
65.115 23.638391
65.120 23.474249
65.125 24.40727
65.130 24.437586
65.135 24.198996
65.140 23.830751
65.145 24.054838
65.150 23.855461
65.155 24.27952
65.160 23.94281
65.165 24.355038
65.170 24.58666
65.175 24.721146
65.180 24.852831
65.185 25.40642
65.190 25.148848
65.195 24.436296
65.200 23.756109
65.205 23.237368
65.210 23.435289
65.215 23.522955
65.220 23.55018
65.225 23.892958
65.230 24.236166
65.235 24.832314
65.240 25.285
65.245 24.75312
65.250 24.903662
65.255 24.845501
65.260 24.837606
65.265 24.168491
65.270 23.244629
65.275 22.802977
65.280 22.840584
65.285 22.21002
65.290 22.199505
65.295 22.133457
65.300 22.978733
65.305 23.330948
65.310 23.958794
65.315 24.121803
65.320 24.326298
65.325 24.243746
65.330 24.598328
65.335 24.958143
65.340 25.027206
65.345 24.955429
65.350 24.973562
65.355 25.071156
65.360 24.764986
65.365 24.64115
65.370 24.848415
65.375 25.590393
65.380 25.069691
65.385 25.090078
65.390 25.368441
65.395 25.631851
65.400 25.968769
65.405 25.613358
65.410 25.183472
65.415 25.381397
65.420 25.294491
65.425 25.650682
65.430 26.130766
65.435 26.236454
65.440 26.814627
65.445 27.02976
65.450 27.585951
65.455 27.740999
65.460 27.232264
65.465 26.856146
65.470 26.378574
65.475 25.708706
65.480 25.645546
65.485 25.554586
65.490 25.226543
65.495 25.372812
65.500 25.46579
65.505 25.704594
65.510 26.623016
65.515 26.863142
65.520 26.720543
65.525 26.751776
65.530 26.787176
65.535 27.251171
65.540 27.413147
65.545 26.869867
65.550 26.456274
65.555 26.40066
65.560 26.840797
65.565 26.684237
65.570 26.473831
65.575 27.082804
65.580 28.07609
65.585 28.809315
65.590 29.64809
65.595 29.961628
65.600 30.433256
65.605 30.340593
65.610 30.769579
65.615 30.58074
65.620 30.81175
65.625 30.380774
65.630 29.973211
65.635 30.285206
65.640 30.455837
65.645 30.067179
65.650 29.961916
65.655 30.259039
65.660 30.561405
65.665 31.31888
65.670 31.32412
65.675 31.729578
65.680 32.351444
65.685 33.040031
65.690 33.245861
65.695 33.539112
65.700 33.234016
65.705 33.535526
65.710 33.515858
65.715 32.894871
65.720 32.89806
65.725 32.774239
65.730 32.644222
65.735 33.206638
65.740 33.475891
65.745 34.108135
65.750 34.714169
65.755 34.806129
65.760 35.924721
65.765 36.494675
65.770 37.137508
65.775 37.406715
65.780 37.207813
65.785 37.749249
65.790 37.760262
65.795 37.388515
65.800 37.62413
65.805 37.480164
65.810 37.082451
65.815 36.983318
65.820 36.072441
65.825 36.385342
65.830 37.022171
65.835 36.491257
65.840 36.636089
65.845 36.776772
65.850 37.102737
65.855 37.539764
65.860 37.492607
65.865 37.424595
65.870 38.234985
65.875 38.515583
65.880 39.388233
65.885 39.60342
65.890 40.139431
65.895 40.223705
65.900 39.673378
65.905 39.081799
65.910 38.315353
65.915 37.819061
65.920 37.806591
65.925 38.61412
65.930 38.676136
65.935 39.272278
65.940 39.745556
65.945 40.156876
65.950 40.550034
65.955 40.268642
65.960 39.55513
65.965 39.341702
65.970 39.291435
65.975 39.241924
65.980 38.860203
65.985 39.145592
65.990 38.843765
65.995 38.705177
66.000 38.898434
66.005 39.518764
66.010 39.680653
66.015 40.115219
66.020 40.121174
66.025 40.794952
66.030 41.711639
66.035 41.670967
66.040 40.975353
66.045 41.067059
66.050 40.471951
66.055 40.161457
66.060 39.897518
66.065 40.15509
66.070 40.377453
66.075 40.757782
66.080 40.74979
66.085 41.053734
66.090 41.215202
66.095 40.63673
66.100 40.475742
66.105 40.195629
66.110 40.126678
66.115 40.148941
66.120 39.813709
66.125 40.05529
66.130 40.525501
66.135 39.816338
66.140 40.020378
66.145 39.587139
66.150 39.730003
66.155 40.532547
66.160 40.538982
66.165 40.514206
66.170 39.801647
66.175 38.856667
66.180 38.820946
66.185 38.278145
66.190 38.071934
66.195 38.102448
66.200 37.784046
66.205 37.989628
66.210 38.360947
66.215 38.127586
66.220 37.324203
66.225 36.820518
66.230 36.680267
66.235 36.93494
66.240 37.40884
66.245 37.5937
66.250 37.874844
66.255 38.249954
66.260 37.696087
66.265 37.027454
66.270 36.561943
66.275 36.295059
66.280 35.634701
66.285 35.710918
66.290 36.195335
66.295 36.439056
66.300 36.669559
66.305 36.903755
66.310 36.400265
66.315 36.256954
66.320 35.881199
66.325 35.202572
66.330 35.167271
66.335 35.097015
66.340 34.328594
66.345 34.73946
66.350 34.835312
66.355 34.495441
66.360 34.760735
66.365 34.342258
66.370 34.072395
66.375 33.778206
66.380 33.175583
66.385 32.995251
66.390 32.021515
66.395 31.345324
66.400 31.640238
66.405 32.149124
66.410 32.786369
66.415 32.321087
66.420 32.106647
66.425 32.188442
66.430 31.918655
66.435 31.465382
66.440 30.799234
66.445 30.013941
66.450 30.545235
66.455 30.658745
66.460 30.770855
66.465 30.625648
66.470 30.290094
66.475 29.681114
66.480 29.355036
66.485 29.039503
66.490 28.632708
66.495 29.185175
66.500 29.487627
66.505 29.314606
66.510 29.450335
66.515 29.344988
66.520 29.032175
66.525 28.833549
66.530 28.164005
66.535 27.922106
66.540 28.606739
66.545 28.654537
66.550 27.816772
66.555 27.534296
66.560 27.724924
66.565 27.848698
66.570 27.985914
66.575 27.513519
66.580 27.363243
66.585 28.478006
66.590 28.421108
66.595 28.349493
66.600 28.321619
66.605 28.127029
66.610 28.377096
66.615 28.3589
66.620 28.133574
66.625 28.381338
66.630 27.905333
66.635 27.420805
66.640 26.628101
66.645 26.22743
66.650 26.196972
66.655 25.93857
66.660 25.335375
66.665 25.30546
66.670 25.538965
66.675 25.276752
66.680 24.940058
66.685 24.490105
66.690 24.240082
66.695 24.442719
66.700 24.381767
66.705 24.64809
66.710 25.157532
66.715 25.976151
66.720 26.211346
66.725 26.195976
66.730 26.212812
66.735 25.788477
66.740 25.090364
66.745 25.085068
66.750 24.693024
66.755 24.024164
66.760 23.973595
66.765 23.979828
66.770 24.035809
66.775 24.101578
66.780 22.996416
66.785 22.144068
66.790 22.276894
66.795 22.589102
66.800 22.812765
66.805 22.399412
66.810 21.945017
66.815 22.248161
66.820 22.470284
66.825 22.645054
66.830 21.774567
66.835 21.266653
66.840 21.855452
66.845 22.302439
66.850 22.132421
66.855 21.697334
66.860 22.0882
66.865 22.89926
66.870 22.687521
66.875 22.334997
66.880 22.435719
66.885 23.004255
66.890 23.144756
66.895 23.285784
66.900 23.576338
66.905 24.56558
66.910 24.438818
66.915 23.975275
66.920 23.768171
66.925 23.930794
66.930 22.861233
66.935 21.675035
66.940 21.162462
66.945 21.747902
66.950 22.284956
66.955 22.577021
66.960 22.587585
66.965 23.619101
66.970 23.632759
66.975 23.829332
66.980 24.36351
66.985 24.722923
66.990 24.842632
66.995 24.48344
67.000 23.862627
67.005 24.465221
67.010 24.491379
67.015 23.86466
67.020 23.629107
67.025 23.380796
67.030 23.333151
67.035 23.136995
67.040 22.441778
67.045 21.572702
67.050 21.361357
67.055 21.333256
67.060 21.062616
67.065 21.165447
67.070 21.134941
67.075 21.778727
67.080 22.206011
67.085 22.202259
67.090 22.237087
67.095 22.594357
67.100 22.594532
67.105 22.828821
67.110 22.673567
67.115 22.941027
67.120 23.062149
67.125 23.972013
67.130 24.053391
67.135 23.759956
67.140 23.534567
67.145 23.351917
67.150 23.320482
67.155 23.105333
67.160 22.517366
67.165 22.650721
67.170 23.215872
67.175 23.17956
67.180 23.174398
67.185 22.977587
67.190 22.834009
67.195 22.722448
67.200 22.560314
67.205 22.683796
67.210 22.596237
67.215 22.691473
67.220 22.686581
67.225 22.032431
67.230 21.706665
67.235 21.868219
67.240 21.793581
67.245 21.643988
67.250 21.351906
67.255 21.437651
67.260 22.067236
67.265 21.84046
67.270 21.62648
67.275 21.492167
67.280 21.371063
67.285 21.412384
67.290 21.417171
67.295 21.709904
67.300 22.423319
67.305 22.625799
67.310 22.513983
67.315 23.443743
67.320 24.198153
67.325 24.306755
67.330 23.451862
67.335 22.628244
67.340 22.339426
67.345 22.148209
67.350 21.778175
67.355 20.938007
67.360 20.829321
67.365 21.319769
67.370 21.71402
67.375 21.365011
67.380 20.938286
67.385 19.914621
67.390 20.376528
67.395 20.977217
67.400 21.203138
67.405 21.522232
67.410 21.83275
67.415 22.544369
67.420 23.220446
67.425 22.727209
67.430 21.950159
67.435 21.206144
67.440 21.462692
67.445 21.996727
67.450 22.425133
67.455 22.311279
67.460 22.411488
67.465 23.173019
67.470 23.04179
67.475 22.263796
67.480 22.13286
67.485 22.058495
67.490 22.042818
67.495 21.996309
67.500 22.198019
67.505 22.673391
67.510 22.669331
67.515 22.425611
67.520 22.742662
67.525 22.821497
67.530 22.900698
67.535 22.499372
67.540 22.323269
67.545 22.535688
67.550 22.184608
67.555 22.116823
67.560 21.978987
67.565 21.652445
67.570 22.05106
67.575 21.656929
67.580 21.376581
67.585 20.802908
67.590 20.940517
67.595 21.656099
67.600 21.734045
67.605 21.683172
67.610 22.244781
67.615 22.700018
67.620 23.180994
67.625 23.09638
67.630 22.601099
67.635 22.374928
67.640 22.005716
67.645 21.537962
67.650 21.709843
67.655 21.982674
67.660 21.778702
67.665 21.50741
67.670 21.833162
67.675 21.3155
67.680 21.184568
67.685 21.28849
67.690 20.658524
67.695 20.152103
67.700 20.66251
67.705 20.671047
67.710 21.344326
67.715 22.137772
67.720 22.560095
67.725 22.637274
67.730 22.698589
67.735 22.54567
67.740 22.309914
67.745 22.048876
67.750 21.287088
67.755 20.454973
67.760 20.845125
67.765 21.150429
67.770 21.072678
67.775 21.67297
67.780 22.126524
67.785 22.073427
67.790 21.776848
67.795 21.232048
67.800 21.362204
67.805 21.348616
67.810 20.856705
67.815 20.493031
67.820 20.437607
67.825 20.906412
67.830 20.96472
67.835 20.913971
67.840 20.990744
67.845 20.514021
67.850 20.625704
67.855 20.921677
67.860 20.908428
67.865 20.431677
67.870 20.012705
67.875 20.171913
67.880 20.996429
67.885 21.527409
67.890 21.667
67.895 21.958273
67.900 22.496859
67.905 22.651363
67.910 22.7054
67.915 21.963614
67.920 21.532269
67.925 21.263248
67.930 21.158199
67.935 21.236025
67.940 21.351816
67.945 21.528269
67.950 21.343185
67.955 21.301928
67.960 21.291428
67.965 21.13497
67.970 20.745457
67.975 21.381794
67.980 21.332905
67.985 22.12361
67.990 22.074183
67.995 21.958315
68.000 21.331707
68.005 21.072918
68.010 20.407253
68.015 20.700361
68.020 20.07122
68.025 20.162411
68.030 20.294212
68.035 20.510124
68.040 20.474127
68.045 20.111778
68.050 19.713301
68.055 20.173635
68.060 20.582624
68.065 21.037169
68.070 21.902712
68.075 22.307867
68.080 22.938902
68.085 23.389801
68.090 22.763729
68.095 22.475744
68.100 22.683445
68.105 22.168751
68.110 22.1108
68.115 22.028337
68.120 22.179131
68.125 22.553375
68.130 22.635044
68.135 22.444901
68.140 22.482706
68.145 22.358948
68.150 22.384418
68.155 22.872652
68.160 23.322466
68.165 23.298147
68.170 23.17041
68.175 23.484837
68.180 23.594353
68.185 23.378036
68.190 23.060921
68.195 22.551609
68.200 22.345682
68.205 22.559237
68.210 22.360107
68.215 21.713699
68.220 21.338564
68.225 21.482464
68.230 20.983694
68.235 20.623678
68.240 20.541464
68.245 20.15312
68.250 20.236443
68.255 19.984213
68.260 20.095959
68.265 21.053717
68.270 20.972712
68.275 20.816723
68.280 20.980751
68.285 21.460291
68.290 21.134064
68.295 20.855515
68.300 20.776817
68.305 20.363125
68.310 20.205845
68.315 20.61281
68.320 19.935469
68.325 20.052372
68.330 19.589668
68.335 19.355783
68.340 19.425682
68.345 19.800087
68.350 20.380695
68.355 21.155285
68.360 21.438074
68.365 21.836353
68.370 21.869389
68.375 22.73131
68.380 22.981157
68.385 22.746851
68.390 22.34539
68.395 22.351454
68.400 22.289444
68.405 22.466721
68.410 22.379641
68.415 21.442654
68.420 21.64979
68.425 21.612658
68.430 20.909533
68.435 20.886295
68.440 20.930784
68.445 21.029766
68.450 21.111317
68.455 20.738295
68.460 20.786966
68.465 21.391495
68.470 22.070341
68.475 22.489742
68.480 21.954653
68.485 22.470289
68.490 22.609125
68.495 23.123154
68.500 23.180952
68.505 22.664022
68.510 22.486385
68.515 22.865602
68.520 22.486279
68.525 22.048723
68.530 21.723164
68.535 21.649141
68.540 21.555431
68.545 21.560982
68.550 21.502855
68.555 22.028784
68.560 23.306128
68.565 23.501604
68.570 23.118317
68.575 22.895041
68.580 22.667454
68.585 22.178391
68.590 21.982016
68.595 21.515821
68.600 21.389906
68.605 21.913986
68.610 21.826109
68.615 21.621876
68.620 21.910412
68.625 21.306349
68.630 21.187565
68.635 21.361153
68.640 20.732265
68.645 20.749933
68.650 20.92551
68.655 21.029222
68.660 20.852667
68.665 20.447872
68.670 20.540634
68.675 20.684244
68.680 20.400612
68.685 20.006006
68.690 19.383297
68.695 19.670433
68.700 20.409836
68.705 20.489368
68.710 20.618837
68.715 21.186106
68.720 21.86812
68.725 22.812979
68.730 22.85424
68.735 22.406851
68.740 22.198151
68.745 22.440165
68.750 22.577534
68.755 21.967489
68.760 21.473402
68.765 21.666451
68.770 21.628325
68.775 21.853533
68.780 21.424654
68.785 21.246351
68.790 21.258654
68.795 21.357183
68.800 21.28426
68.805 21.132391
68.810 21.004616
68.815 21.303724
68.820 21.645256
68.825 21.731394
68.830 22.394073
68.835 22.656876
68.840 22.517122
68.845 22.126577
68.850 21.871422
68.855 22.046511
68.860 22.109381
68.865 21.822832
68.870 22.123615
68.875 22.363941
68.880 22.887741
68.885 23.277475
68.890 23.300348
68.895 23.840624
68.900 24.329557
68.905 24.095221
68.910 23.965321
68.915 24.583872
68.920 24.374134
68.925 24.03653
68.930 23.894012
68.935 23.786573
68.940 24.449114
68.945 24.879793
68.950 24.740126
68.955 24.874729
68.960 24.585546
68.965 24.405184
68.970 24.027977
68.975 23.724493
68.980 23.207678
68.985 22.912922
68.990 23.008436
68.995 22.940001
69.000 22.416689
69.005 22.621185
69.010 22.174612
69.015 22.424528
69.020 22.376066
69.025 22.885748
69.030 23.385029
69.035 23.419695
69.040 23.230047
69.045 23.948566
69.050 24.381514
69.055 24.669598
69.060 25.221037
69.065 25.689117
69.070 25.453773
69.075 25.700598
69.080 25.516375
69.085 25.230213
69.090 25.01639
69.095 24.558662
69.100 24.553473
69.105 24.928957
69.110 24.53672
69.115 24.000042
69.120 24.138741
69.125 23.89349
69.130 23.945639
69.135 23.920843
69.140 24.57921
69.145 25.471687
69.150 26.0807
69.155 26.542515
69.160 26.871418
69.165 26.771486
69.170 27.604332
69.175 27.82567
69.180 27.733749
69.185 28.140543
69.190 28.458811
69.195 28.274929
69.200 27.553215
69.205 26.879961
69.210 27.204214
69.215 27.924372
69.220 27.799025
69.225 27.523611
69.230 28.053394
69.235 29.232538
69.240 29.318279
69.245 28.490223
69.250 27.849813
69.255 28.126661
69.260 27.937969
69.265 28.000479
69.270 27.447723
69.275 27.086815
69.280 27.264742
69.285 27.913237
69.290 27.873186
69.295 28.018553
69.300 28.158104
69.305 28.728476
69.310 29.23344
69.315 29.54611
69.320 29.226563
69.325 29.190985
69.330 28.880548
69.335 28.388693
69.340 28.554598
69.345 28.662436
69.350 28.716726
69.355 28.610893
69.360 28.640203
69.365 29.356056
69.370 29.829979
69.375 30.012934
69.380 30.671589
69.385 31.093067
69.390 31.324009
69.395 32.019947
69.400 32.344425
69.405 32.409477
69.410 32.074852
69.415 31.413019
69.420 31.565943
69.425 31.660431
69.430 31.294657
69.435 30.915541
69.440 30.887171
69.445 31.527248
69.450 30.894821
69.455 30.186781
69.460 29.528849
69.465 29.159895
69.470 28.954321
69.475 28.910332
69.480 28.867739
69.485 29.502745
69.490 29.519835
69.495 29.460482
69.500 29.616318
69.505 29.669361
69.510 29.628838
69.515 30.279514
69.520 30.443039
69.525 30.921801
69.530 31.728386
69.535 32.73328
69.540 32.915737
69.545 32.452774
69.550 31.17366
69.555 30.840902
69.560 30.728407
69.565 30.692249
69.570 30.253353
69.575 30.755171
69.580 30.898409
69.585 31.976999
69.590 31.689558
69.595 31.356508
69.600 30.424738
69.605 29.662092
69.610 29.54281
69.615 29.78194
69.620 29.717754
69.625 30.316269
69.630 30.420105
69.635 31.00491
69.640 31.580168
69.645 30.881611
69.650 30.372658
69.655 29.869534
69.660 29.436108
69.665 29.303802
69.670 29.051996
69.675 28.990225
69.680 30.156002
69.685 30.474384
69.690 31.006477
69.695 31.748878
69.700 31.748201
69.705 31.533306
69.710 31.133718
69.715 29.944702
69.720 30.067549
69.725 30.065788
69.730 29.595699
69.735 30.035128
69.740 29.901089
69.745 29.286629
69.750 29.253197
69.755 28.528404
69.760 28.055588
69.765 27.190262
69.770 27.043892
69.775 27.018919
69.780 27.717297
69.785 27.509781
69.790 27.522154
69.795 27.587952
69.800 28.064533
69.805 27.25758
69.810 27.292057
69.815 27.432838
69.820 28.060997
69.825 28.064882
69.830 27.720533
69.835 27.907206
69.840 27.965166
69.845 27.577751
69.850 27.229099
69.855 27.086699
69.860 27.170355
69.865 27.59218
69.870 27.646849
69.875 27.798342
69.880 28.050491
69.885 27.456392
69.890 27.671101
69.895 27.821888
69.900 27.254536
69.905 27.29723
69.910 27.13546
69.915 26.477409
69.920 26.44138
69.925 25.381668
69.930 24.471861
69.935 24.040098
69.940 24.307291
69.945 24.640509
69.950 24.939919
69.955 24.112087
69.960 24.52059
69.965 24.638451
69.970 24.102499
69.975 22.832899
69.980 22.281738
69.985 22.045656
69.990 22.755465
69.995 22.593746
70.000 22.140644
70.005 22.529812
70.010 23.190521
70.015 23.567257
70.020 23.928778
70.025 23.713978
70.030 23.870686
70.035 23.638577
70.040 22.859491
70.045 22.024691
70.050 21.006035
70.055 21.023952
70.060 20.743725
70.065 20.554413
70.070 21.238848
70.075 21.854624
70.080 22.476221
70.085 23.345062
70.090 23.20886
70.095 23.436701
70.100 23.327826
70.105 22.739237
70.110 22.267473
70.115 21.102207
70.120 20.467129
70.125 20.467833
70.130 20.169872
70.135 20.135956
70.140 20.016373
70.145 20.827604
70.150 21.571344
70.155 21.359077
70.160 21.591814
70.165 21.747017
70.170 22.043192
70.175 22.284876
70.180 21.620188
70.185 21.723524
70.190 22.174629
70.195 22.486431
70.200 21.916098
70.205 21.386421
70.210 20.754789
70.215 20.712549
70.220 20.448088
70.225 20.092619
70.230 19.311726
70.235 19.585131
70.240 19.755861
70.245 19.505341
70.250 19.378506
70.255 19.049805
70.260 19.039604
70.265 19.389046
70.270 19.761169
70.275 20.421375
70.280 21.212517
70.285 21.543217
70.290 21.374517
70.295 21.203726
70.300 20.666389
70.305 20.208355
70.310 20.259939
70.315 20.481949
70.320 20.52902
70.325 20.657383
70.330 20.442728
70.335 20.132751
70.340 20.021547
70.345 19.603214
70.350 19.319656
70.355 19.109299
70.360 19.35145
70.365 19.343863
70.370 19.750151
70.375 19.593235
70.380 19.541502
70.385 19.422691
70.390 19.205748
70.395 19.384895
70.400 20.344904
70.405 21.032635
70.410 21.955502
70.415 21.595188
70.420 21.714315
70.425 21.451349
70.430 21.587057
70.435 21.081724
70.440 20.131184
70.445 19.220848
70.450 19.131369
70.455 19.96656
70.460 20.528603
70.465 20.311319
70.470 20.428967
70.475 20.854206
70.480 21.57596
70.485 21.622362
70.490 20.600809
70.495 20.93203
70.500 21.117126
70.505 21.409016
70.510 21.600979
70.515 21.89521
70.520 22.198315
70.525 21.891144
70.530 21.425079
70.535 21.449368
70.540 21.696581
70.545 20.94663
70.550 20.470741
70.555 20.561892
70.560 21.060019
70.565 21.313009
70.570 21.289827
70.575 20.863735
70.580 20.903679
70.585 21.166534
70.590 21.024221
70.595 21.431593
70.600 21.329243
70.605 21.054724
70.610 21.243517
70.615 21.520924
70.620 21.090424
70.625 20.289927
70.630 18.948402
70.635 18.399673
70.640 18.242435
70.645 17.833073
70.650 17.923347
70.655 18.033302
70.660 18.345921
70.665 18.823538
70.670 19.350397
70.675 19.727112
70.680 19.303392
70.685 19.168539
70.690 19.572725
70.695 19.842966
70.700 19.761463
70.705 19.324604
70.710 19.219925
70.715 20.033216
70.720 20.066248
70.725 19.704948
70.730 20.243464
70.735 19.820303
70.740 19.925945
70.745 19.708311
70.750 19.416647
70.755 19.86886
70.760 19.468973
70.765 18.919794
70.770 18.945705
70.775 18.773375
70.780 18.714729
70.785 18.076662
70.790 17.722525
70.795 17.347157
70.800 17.466928
70.805 18.327986
70.810 18.135662
70.815 18.751009
70.820 19.060545
70.825 19.243658
70.830 19.428606
70.835 19.43124
70.840 19.409725
70.845 19.536068
70.850 19.475124
70.855 19.251156
70.860 19.238119
70.865 20.193279
70.870 20.514286
70.875 19.959843
70.880 20.595402
70.885 20.512468
70.890 21.221733
70.895 20.932695
70.900 20.185501
70.905 20.378048
70.910 20.862383
70.915 20.729881
70.920 20.322678
70.925 19.806612
70.930 19.797083
70.935 19.501341
70.940 18.87738
70.945 18.568214
70.950 18.119173
70.955 18.393631
70.960 18.64311
70.965 18.983236
70.970 19.177242
70.975 19.801546
70.980 19.927481
70.985 20.147635
70.990 20.124184
70.995 20.038502
71.000 19.833752
71.005 19.781967
71.010 19.554674
71.015 19.384048
71.020 19.295683
71.025 19.685158
71.030 19.726559
71.035 19.994738
71.040 19.858765
71.045 19.474039
71.050 19.594711
71.055 19.768681
71.060 19.499722
71.065 19.308281
71.070 18.67168
71.075 18.794176
71.080 18.7349
71.085 18.789331
71.090 18.117043
71.095 18.119198
71.100 18.295036
71.105 18.462175
71.110 18.351002
71.115 18.318926
71.120 18.389122
71.125 19.052382
71.130 19.196688
71.135 19.230703
71.140 19.276369
71.145 19.631525
71.150 19.739456
71.155 19.871515
71.160 19.256353
71.165 18.841427
71.170 19.071405
71.175 19.582706
71.180 19.914015
71.185 20.013908
71.190 20.267639
71.195 20.917595
71.200 20.930901
71.205 21.564215
71.210 21.311899
71.215 20.625046
71.220 20.560202
71.225 20.339464
71.230 20.05934
71.235 20.401571
71.240 19.928019
71.245 19.823513
71.250 19.95002
71.255 19.165594
71.260 18.970175
71.265 19.542044
71.270 19.700792
71.275 20.306013
71.280 20.34918
71.285 20.832851
71.290 21.352777
71.295 21.409542
71.300 20.865435
71.305 20.394941
71.310 19.969429
71.315 19.957207
71.320 19.731724
71.325 19.563122
71.330 19.001444
71.335 19.772934
71.340 19.811991
71.345 19.901434
71.350 19.708826
71.355 20.171476
71.360 20.6367
71.365 20.546009
71.370 19.931732
71.375 19.90844
71.380 20.290039
71.385 19.954458
71.390 19.583961
71.395 20.205799
71.400 20.893269
71.405 20.890625
71.410 20.734613
71.415 20.581968
71.420 20.771141
71.425 20.201952
71.430 19.46977
71.435 19.413177
71.440 19.348915
71.445 18.873472
71.450 18.953434
71.455 19.578657
71.460 20.021807
71.465 19.708212
71.470 19.225513
71.475 19.470831
71.480 19.826069
71.485 19.735279
71.490 19.415699
71.495 19.020401
71.500 19.280602
71.505 19.804525
71.510 18.848118
71.515 18.32222
71.520 18.245852
71.525 18.085892
71.530 18.488272
71.535 18.791386
71.540 18.52998
71.545 19.514772
71.550 19.944136
71.555 19.338863
71.560 19.429989
71.565 18.514017
71.570 17.379215
71.575 17.124464
71.580 16.548353
71.585 16.866526
71.590 17.251009
71.595 17.416067
71.600 17.847357
71.605 18.767302
71.610 19.286028
71.615 18.906748
71.620 19.154829
71.625 18.943439
71.630 18.800022
71.635 19.379387
71.640 19.321098
71.645 19.064098
71.650 19.169542
71.655 18.938032
71.660 18.953024
71.665 19.114058
71.670 18.299398
71.675 17.818016
71.680 18.394085
71.685 18.155182
71.690 18.070374
71.695 18.265898
71.700 18.082798
71.705 18.503546
71.710 19.0982
71.715 19.004236
71.720 18.816641
71.725 18.600512
71.730 18.665094
71.735 18.681877
71.740 18.514444
71.745 18.894892
71.750 19.340706
71.755 19.755114
71.760 19.916651
71.765 19.48175
71.770 19.87258
71.775 19.587299
71.780 18.847288
71.785 18.157547
71.790 18.012941
71.795 18.702122
71.800 19.245558
71.805 19.313612
71.810 19.428907
71.815 19.604879
71.820 20.230318
71.825 19.897226
71.830 19.176521
71.835 18.92778
71.840 19.198744
71.845 18.930717
71.850 18.999559
71.855 18.688158
71.860 18.614536
71.865 18.642735
71.870 18.365368
71.875 18.888168
71.880 18.694702
71.885 17.97547
71.890 18.009979
71.895 18.324066
71.900 19.397442
71.905 19.138144
71.910 18.807926
71.915 19.766615
71.920 20.07902
71.925 19.986052
71.930 19.847383
71.935 18.793974
71.940 18.651482
71.945 18.346979
71.950 18.177702
71.955 18.198107
71.960 18.461956
71.965 18.619549
71.970 19.282959
71.975 19.200378
71.980 19.296892
71.985 19.666142
71.990 19.511265
71.995 19.185539
72.000 18.70138
72.005 18.936663
72.010 18.803278
72.015 18.49799
72.020 18.381584
72.025 18.207434
72.030 18.26017
72.035 18.070337
72.040 17.827042
72.045 18.005894
72.050 17.789715
72.055 18.189659
72.060 18.269295
72.065 18.299866
72.070 18.807096
72.075 18.911921
72.080 18.831245
72.085 18.804987
72.090 19.121824
72.095 19.238396
72.100 19.117767
72.105 18.924831
72.110 19.04155
72.115 18.695721
72.120 18.77902
72.125 17.992685
72.130 18.546007
72.135 18.210129
72.140 18.320177
72.145 18.412842
72.150 18.562616
72.155 19.188171
72.160 19.694864
72.165 19.265827
72.170 19.371096
72.175 19.262125
72.180 19.240562
72.185 19.320004
72.190 18.739357
72.195 18.714434
72.200 19.299026
72.205 18.931622
72.210 19.568512
72.215 20.148922
72.220 20.14398
72.225 20.681467
72.230 20.956879
72.235 21.037945
72.240 21.717972
72.245 21.153885
72.250 20.830505
72.255 20.953321
72.260 20.660797
72.265 19.92399
72.270 19.417374
72.275 18.555058
72.280 18.53363
72.285 17.919603
72.290 17.38155
72.295 17.140558
72.300 17.461117
72.305 17.527752
72.310 17.643267
72.315 17.702568
72.320 18.057165
72.325 18.233107
72.330 18.174118
72.335 18.30125
72.340 18.555338
72.345 19.312017
72.350 20.068342
72.355 20.145025
72.360 20.102652
72.365 20.466679
72.370 20.248865
72.375 19.565157
72.380 19.430126
72.385 19.305536
72.390 18.989525
72.395 19.019882
72.400 18.580355
72.405 18.347958
72.410 18.151699
72.415 17.987585
72.420 18.172131
72.425 18.152634
72.430 18.07563
72.435 18.408508
72.440 18.470629
72.445 18.673977
72.450 18.436794
72.455 18.432405
72.460 18.212475
72.465 18.121317
72.470 18.491964
72.475 17.972383
72.480 17.860386
72.485 18.055046
72.490 18.216015
72.495 18.527098
72.500 18.903288
72.505 18.884283
72.510 18.883165
72.515 18.568975
72.520 17.895267
72.525 17.933357
72.530 17.620926
72.535 17.056459
72.540 17.455107
72.545 17.851229
72.550 17.894506
72.555 18.232567
72.560 18.453663
72.565 18.275747
72.570 17.886766
72.575 17.560453
72.580 17.828011
72.585 17.911171
72.590 17.606791
72.595 17.852001
72.600 18.354261
72.605 18.682173
72.610 18.717031
72.615 18.187588
72.620 18.215918
72.625 18.490608
72.630 18.179174
72.635 18.301208
72.640 18.55756
72.645 18.407177
72.650 18.094645
72.655 17.312925
72.660 16.813389
72.665 16.268705
72.670 16.354816
72.675 16.139191
72.680 16.539244
72.685 16.962816
72.690 17.923786
72.695 18.132015
72.700 18.345051
72.705 18.264069
72.710 18.329348
72.715 18.383478
72.720 18.209198
72.725 17.757841
72.730 18.137094
72.735 18.233528
72.740 18.184505
72.745 18.220829
72.750 18.02375
72.755 18.00242
72.760 17.827932
72.765 18.073322
72.770 18.161102
72.775 18.125317
72.780 17.99753
72.785 18.122507
72.790 17.644115
72.795 17.208551
72.800 16.913189
72.805 16.852011
72.810 16.67189
72.815 16.615709
72.820 16.988779
72.825 17.691563
72.830 17.848482
72.835 18.073141
72.840 17.892593
72.845 18.09226
72.850 18.070034
72.855 18.029377
72.860 18.622068
72.865 18.661911
72.870 18.506516
72.875 18.964178
72.880 19.07745
72.885 18.797245
72.890 18.395668
72.895 17.383217
72.900 16.809141
72.905 16.28652
72.910 16.257738
72.915 16.44912
72.920 16.386038
72.925 16.477604
72.930 16.824718
72.935 17.433565
72.940 17.549261
72.945 17.255934
72.950 16.894392
72.955 16.715534
72.960 16.858543
72.965 16.444397
72.970 15.935766
72.975 16.167711
72.980 16.280384
72.985 16.988432
72.990 17.298834
72.995 17.465111
73.000 17.990396
