!@!!GADDS PLOTSO FILE: Chi integration type
!@!!Title/SampleName: map-105
!@!!Comment: ?
!@!!User: Bruker Instrument Administrator
!@!!Site: University of Illinois Chicago
!@!!Frame: map-105_01_000.gfrm
!@!!Wavelengths    1.54184   1.54056   1.54439
!@!!Frame angles: 2Theta: 63.000 Omega: 50.000 Phi: 0.000 Chi: 90.000
!@!!Integration range: 2Theta: 53.000 to 73.000  Gamma: -105.000 to -75.000
!@!!Integration method: bin normalized
!@!N
!@!SS
!@!M
!@!L 0.0 0.0 0.0 0.0
!@!XDegrees
!@!YCounts
53.000 9.466438
53.005 9.400918
53.010 9.98481
53.015 10.592135
53.020 10.60063
53.025 10.960046
53.030 10.939914
53.035 10.945296
53.040 10.718459
53.045 10.520111
53.050 10.09129
53.055 9.852266
53.060 9.692125
53.065 10.014734
53.070 9.799681
53.075 9.734755
53.080 9.460309
53.085 10.068503
53.090 10.296255
53.095 10.421462
53.100 10.345536
53.105 10.552854
53.110 10.528155
53.115 10.399562
53.120 9.665102
53.125 9.69191
53.130 9.802096
53.135 9.786847
53.140 9.526292
53.145 9.336502
53.150 9.601239
53.155 10.054222
53.160 9.595003
53.165 9.712088
53.170 10.02538
53.175 10.971786
53.180 11.267475
53.185 10.616918
53.190 10.690017
53.195 10.795714
53.200 10.876037
53.205 10.788763
53.210 10.452012
53.215 10.841001
53.220 10.878099
53.225 10.542356
53.230 10.783635
53.235 10.360834
53.240 9.983498
53.245 9.905474
53.250 10.038867
53.255 10.740649
53.260 10.826082
53.265 10.696971
53.270 11.168641
53.275 11.274078
53.280 11.117546
53.285 10.6995
53.290 10.288857
53.295 10.316626
53.300 10.149964
53.305 10.317913
53.310 10.536051
53.315 11.120026
53.320 11.510953
53.325 11.467418
53.330 11.611751
53.335 11.659598
53.340 11.411238
53.345 11.256498
53.350 10.779695
53.355 10.894341
53.360 10.852842
53.365 10.347055
53.370 10.00871
53.375 9.50013
53.380 9.275887
53.385 9.068058
53.390 9.166041
53.395 9.278229
53.400 9.434928
53.405 9.276408
53.410 9.598095
53.415 10.114747
53.420 10.50472
53.425 10.754185
53.430 10.980919
53.435 11.039661
53.440 11.509318
53.445 11.50342
53.450 11.114463
53.455 11.025907
53.460 11.440834
53.465 11.447834
53.470 11.693223
53.475 11.646708
53.480 11.698928
53.485 12.020118
53.490 11.466252
53.495 10.760076
53.500 10.51258
53.505 10.290606
53.510 10.519045
53.515 10.648149
53.520 10.710826
53.525 11.341509
53.530 11.831615
53.535 11.860016
53.540 11.725715
53.545 11.119503
53.550 11.230731
53.555 11.190848
53.560 10.787539
53.565 10.552032
53.570 10.451741
53.575 10.342174
53.580 10.206774
53.585 9.950141
53.590 9.881353
53.595 10.158388
53.600 10.683678
53.605 10.775962
53.610 11.238004
53.615 11.299519
53.620 11.185136
53.625 11.182718
53.630 11.064045
53.635 10.871757
53.640 10.788815
53.645 10.771061
53.650 10.834622
53.655 11.020684
53.660 10.912342
53.665 10.739812
53.670 10.774755
53.675 11.395486
53.680 11.257921
53.685 11.076141
53.690 10.885224
53.695 11.35195
53.700 11.653306
53.705 11.431374
53.710 11.032924
53.715 11.092546
53.720 11.630188
53.725 11.668429
53.730 11.462278
53.735 11.398438
53.740 11.091874
53.745 11.114721
53.750 11.132578
53.755 10.564128
53.760 10.50798
53.765 10.291389
53.770 10.66704
53.775 11.312301
53.780 11.463594
53.785 11.57549
53.790 11.330533
53.795 11.332013
53.800 11.451886
53.805 11.132191
53.810 10.735549
53.815 10.207127
53.820 9.83133
53.825 9.671071
53.830 9.480455
53.835 9.660019
53.840 9.575182
53.845 9.807378
53.850 10.084488
53.855 10.671203
53.860 11.427754
53.865 11.254633
53.870 11.175767
53.875 10.875032
53.880 11.031102
53.885 11.155666
53.890 11.533476
53.895 11.828186
53.900 11.950606
53.905 11.858356
53.910 12.239026
53.915 12.362028
53.920 12.047392
53.925 11.381304
53.930 11.840669
53.935 12.277159
53.940 12.73398
53.945 12.199179
53.950 12.404495
53.955 12.754157
53.960 13.074114
53.965 12.853537
53.970 12.797097
53.975 13.24557
53.980 13.348967
53.985 13.247811
53.990 13.219298
53.995 12.582039
54.000 12.191329
54.005 11.819805
54.010 11.86788
54.015 11.753209
54.020 11.437267
54.025 11.666296
54.030 11.805257
54.035 11.702383
54.040 11.477416
54.045 11.015503
54.050 11.351795
54.055 11.509641
54.060 11.352058
54.065 11.587887
54.070 12.088029
54.075 12.419888
54.080 13.108107
54.085 12.755464
54.090 12.735486
54.095 13.00858
54.100 13.014834
54.105 12.951017
54.110 13.088232
54.115 12.847471
54.120 13.076371
54.125 12.670155
54.130 12.108379
54.135 12.369278
54.140 12.041015
54.145 11.738475
54.150 11.616255
54.155 11.103294
54.160 10.942016
54.165 10.727991
54.170 10.161448
54.175 10.441248
54.180 10.743125
54.185 11.000674
54.190 11.389656
54.195 11.544171
54.200 11.668068
54.205 11.983015
54.210 11.604669
54.215 10.987408
54.220 10.86492
54.225 11.168926
54.230 11.557023
54.235 12.064569
54.240 12.337855
54.245 12.56356
54.250 12.517741
54.255 12.822018
54.260 13.343544
54.265 13.244609
54.270 12.993365
54.275 12.812765
54.280 12.701319
54.285 12.780248
54.290 12.956775
54.295 12.513693
54.300 12.163199
54.305 12.413709
54.310 12.710043
54.315 13.288795
54.320 13.253257
54.325 12.963797
54.330 12.811742
54.335 13.106274
54.340 13.069972
54.345 12.458776
54.350 12.11549
54.355 12.040327
54.360 11.817862
54.365 12.279725
54.370 11.956203
54.375 12.216966
54.380 12.332999
54.385 12.220751
54.390 12.180481
54.395 11.900342
54.400 11.90018
54.405 12.003102
54.410 11.684886
54.415 12.013702
54.420 11.901412
54.425 11.950163
54.430 11.956002
54.435 11.305722
54.440 11.572353
54.445 11.21523
54.450 10.7998
54.455 10.996456
54.460 10.965838
54.465 10.81911
54.470 10.75932
54.475 10.544678
54.480 10.802263
54.485 11.120456
54.490 11.018667
54.495 11.35385
54.500 12.05141
54.505 12.788807
54.510 13.383831
54.515 13.475234
54.520 13.748297
54.525 14.234946
54.530 13.797381
54.535 13.327039
54.540 13.039191
54.545 13.073016
54.550 13.129469
54.555 12.667247
54.560 12.003754
54.565 12.644023
54.570 12.842831
54.575 12.667164
54.580 12.168333
54.585 12.396847
54.590 12.725151
54.595 12.876168
54.600 12.273662
54.605 11.936931
54.610 11.723422
54.615 12.225833
54.620 12.386641
54.625 12.622447
54.630 12.402474
54.635 12.385465
54.640 12.938714
54.645 12.902406
54.650 12.226666
54.655 11.580602
54.660 11.417109
54.665 11.572251
54.670 11.680593
54.675 11.41036
54.680 11.478189
54.685 11.861886
54.690 12.660294
54.695 12.953961
54.700 13.258636
54.705 13.049514
54.710 13.40996
54.715 13.421917
54.720 13.357973
54.725 12.633905
54.730 12.493998
54.735 12.620966
54.740 12.692463
54.745 12.458081
54.750 12.386282
54.755 12.413761
54.760 12.157738
54.765 11.867412
54.770 11.919003
54.775 11.688787
54.780 11.423287
54.785 11.099053
54.790 10.888453
54.795 10.567071
54.800 10.331823
54.805 10.077333
54.810 10.077052
54.815 10.156047
54.820 10.228136
54.825 10.937367
54.830 11.706237
54.835 11.996315
54.840 12.005507
54.845 12.80713
54.850 13.62929
54.855 14.056322
54.860 13.776238
54.865 13.512796
54.870 13.424079
54.875 13.415356
54.880 13.016268
54.885 12.732908
54.890 12.39854
54.895 12.765064
54.900 12.934058
54.905 13.136341
54.910 13.152594
54.915 13.496702
54.920 13.586304
54.925 13.527782
54.930 13.249104
54.935 13.131599
54.940 13.271295
54.945 13.614087
54.950 13.491187
54.955 13.389453
54.960 13.856381
54.965 13.944298
54.970 14.197751
54.975 13.974198
54.980 14.096407
54.985 14.487239
54.990 14.870908
54.995 14.61042
55.000 14.602216
55.005 14.391973
55.010 13.907518
55.015 13.090533
55.020 12.354652
55.025 11.670836
55.030 11.498642
55.035 11.294424
55.040 11.19478
55.045 11.429461
55.050 11.549007
55.055 11.870296
55.060 12.363753
55.065 13.032775
55.070 13.517093
55.075 14.31196
55.080 14.501688
55.085 14.705434
55.090 14.727858
55.095 14.764576
55.100 14.586161
55.105 14.060822
55.110 13.332925
55.115 13.30453
55.120 13.263092
55.125 12.715912
55.130 12.920958
55.135 13.292599
55.140 13.340137
55.145 13.530591
55.150 13.502215
55.155 13.802736
55.160 14.369493
55.165 13.692935
55.170 13.48865
55.175 13.600501
55.180 13.352231
55.185 13.416602
55.190 13.372949
55.195 13.145326
55.200 13.130985
55.205 12.74747
55.210 12.699876
55.215 12.818389
55.220 12.151467
55.225 11.452639
55.230 11.130538
55.235 11.167793
55.240 11.454143
55.245 11.342955
55.250 11.417396
55.255 11.785821
55.260 12.080699
55.265 12.445098
55.270 12.613781
55.275 12.22597
55.280 12.367995
55.285 12.816042
55.290 12.75695
55.295 12.826342
55.300 12.396637
55.305 12.377975
55.310 12.932497
55.315 12.513993
55.320 12.210073
55.325 12.621086
55.330 12.660719
55.335 12.913434
55.340 13.016022
55.345 13.075935
55.350 13.509105
55.355 13.477646
55.360 13.043092
55.365 13.524262
55.370 13.194106
55.375 12.830105
55.380 12.729223
55.385 12.868756
55.390 13.217363
55.395 13.564472
55.400 13.521666
55.405 14.150727
55.410 13.961545
55.415 13.41081
55.420 13.054624
55.425 12.879723
55.430 12.735503
55.435 12.301631
55.440 12.383342
55.445 12.643982
55.450 12.777361
55.455 12.784525
55.460 12.531908
55.465 12.617935
55.470 12.880604
55.475 12.263512
55.480 12.252416
55.485 12.450149
55.490 13.066754
55.495 13.033166
55.500 12.907727
55.505 12.831516
55.510 13.026704
55.515 12.980259
55.520 13.247947
55.525 12.885983
55.530 13.327724
55.535 13.427719
55.540 13.176368
55.545 13.23414
55.550 13.450243
55.555 13.51874
55.560 13.747633
55.565 13.698253
55.570 13.86092
55.575 14.415639
55.580 14.447767
55.585 14.218024
55.590 13.615361
55.595 13.21711
55.600 12.707022
55.605 12.623921
55.610 12.452565
55.615 12.397768
55.620 12.964157
55.625 13.584753
55.630 13.565272
55.635 13.756696
55.640 13.651772
55.645 13.665332
55.650 13.689723
55.655 13.042025
55.660 12.796007
55.665 12.813359
55.670 12.786283
55.675 13.116953
55.680 12.637486
55.685 12.397951
55.690 12.43921
55.695 12.272823
55.700 12.691276
55.705 12.290403
55.710 12.179716
55.715 12.39161
55.720 12.610802
55.725 12.40222
55.730 12.315982
55.735 12.328549
55.740 12.390681
55.745 12.67384
55.750 13.445881
55.755 13.861971
55.760 14.184895
55.765 14.609688
55.770 14.48769
55.775 14.61173
55.780 14.153584
55.785 13.896564
55.790 13.797266
55.795 13.800025
55.800 13.650364
55.805 13.986067
55.810 13.747615
55.815 13.885634
55.820 13.387733
55.825 13.348602
55.830 13.582505
55.835 14.129615
55.840 14.432296
55.845 14.676436
55.850 14.347746
55.855 14.103333
55.860 13.864198
55.865 13.543014
55.870 12.641526
55.875 12.490549
55.880 12.790774
55.885 13.486341
55.890 13.918836
55.895 14.136238
55.900 13.922771
55.905 14.032273
55.910 13.898512
55.915 13.720917
55.920 13.707479
55.925 13.429218
55.930 13.483249
55.935 13.715941
55.940 14.183986
55.945 14.550297
55.950 14.008862
55.955 13.995563
55.960 14.099872
55.965 14.065623
55.970 13.815583
55.975 13.039305
55.980 13.446331
55.985 13.689875
55.990 13.34551
55.995 12.821792
56.000 12.494491
56.005 12.619137
56.010 13.085974
56.015 12.293933
56.020 12.10125
56.025 12.229203
56.030 12.986908
56.035 13.528526
56.040 13.256848
56.045 13.152211
56.050 13.340944
56.055 13.627883
56.060 13.845016
56.065 13.430291
56.070 13.246953
56.075 13.069581
56.080 12.812282
56.085 12.809362
56.090 12.704118
56.095 12.556492
56.100 12.909756
56.105 13.57029
56.110 13.981511
56.115 14.126945
56.120 14.314269
56.125 14.498916
56.130 14.032506
56.135 13.515293
56.140 13.09797
56.145 12.8069
56.150 12.923841
56.155 12.820816
56.160 13.454923
56.165 13.870256
56.170 13.870719
56.175 14.069189
56.180 14.08058
56.185 14.037331
56.190 14.130758
56.195 13.856536
56.200 13.615879
56.205 13.292914
56.210 13.007456
56.215 12.56603
56.220 12.264503
56.225 12.521324
56.230 12.623536
56.235 12.919508
56.240 13.315378
56.245 14.011485
56.250 14.860044
56.255 15.025388
56.260 14.506729
56.265 14.476643
56.270 14.6045
56.275 14.255067
56.280 13.673761
56.285 13.454813
56.290 13.512853
56.295 13.703527
56.300 13.23461
56.305 13.090182
56.310 13.571301
56.315 14.256523
56.320 14.723892
56.325 14.44412
56.330 14.525314
56.335 14.535524
56.340 14.465492
56.345 14.531917
56.350 14.058116
56.355 13.692041
56.360 13.677332
56.365 13.733619
56.370 14.220464
56.375 14.356904
56.380 13.972219
56.385 14.103335
56.390 13.819561
56.395 14.017884
56.400 14.557892
56.405 14.771212
56.410 15.108898
56.415 14.858549
56.420 14.425195
56.425 13.949904
56.430 13.528779
56.435 12.718839
56.440 12.161148
56.445 12.003963
56.450 12.52227
56.455 12.98365
56.460 13.420207
56.465 13.16558
56.470 13.370818
56.475 13.51546
56.480 12.968187
56.485 12.950555
56.490 13.774064
56.495 14.480878
56.500 14.870281
56.505 15.030015
56.510 15.059943
56.515 15.295663
56.520 15.36375
56.525 14.841004
56.530 14.817564
56.535 14.871507
56.540 14.85079
56.545 15.063435
56.550 15.139139
56.555 14.765294
56.560 15.136875
56.565 14.779848
56.570 14.547789
56.575 14.691861
56.580 15.120647
56.585 14.934297
56.590 14.655128
56.595 14.443539
56.600 14.472782
56.605 14.762302
56.610 14.861604
56.615 15.102139
56.620 15.316145
56.625 15.039618
56.630 14.536142
56.635 14.426866
56.640 14.168514
56.645 13.702095
56.650 13.520925
56.655 13.682565
56.660 14.180603
56.665 14.487177
56.670 14.730045
56.675 14.633323
56.680 14.506916
56.685 14.553159
56.690 14.816857
56.695 15.648267
56.700 15.717002
56.705 15.750727
56.710 16.068188
56.715 16.355621
56.720 16.522232
56.725 16.457964
56.730 16.020834
56.735 16.287754
56.740 16.252497
56.745 16.36985
56.750 16.460588
56.755 16.327631
56.760 16.452276
56.765 16.208031
56.770 16.391563
56.775 16.110708
56.780 15.968684
56.785 15.728456
56.790 15.52769
56.795 14.962064
56.800 14.659852
56.805 13.929995
56.810 14.263887
56.815 14.485115
56.820 14.941334
56.825 14.885992
56.830 15.064854
56.835 14.706923
56.840 15.056077
56.845 15.238989
56.850 14.71526
56.855 14.157394
56.860 14.042511
56.865 14.078022
56.870 15.14688
56.875 14.943851
56.880 14.773523
56.885 14.763101
56.890 14.423564
56.895 14.002661
56.900 14.156427
56.905 13.727434
56.910 13.791477
56.915 13.446302
56.920 13.633726
56.925 14.470172
56.930 14.717022
56.935 14.32081
56.940 14.210354
56.945 14.581304
56.950 14.793536
56.955 14.44381
56.960 14.562587
56.965 15.037349
56.970 15.241952
56.975 15.113765
56.980 14.513348
56.985 14.621327
56.990 14.880965
56.995 14.462056
57.000 14.464213
57.005 14.705029
57.010 14.673009
57.015 15.290134
57.020 15.640971
57.025 15.463016
57.030 15.650639
57.035 15.62317
57.040 15.39884
57.045 15.757318
57.050 15.298206
57.055 14.732404
57.060 14.581979
57.065 14.78891
57.070 14.704659
57.075 14.936762
57.080 15.00202
57.085 15.053678
57.090 15.29953
57.095 15.319344
57.100 14.501641
57.105 14.167357
57.110 14.321621
57.115 14.400231
57.120 13.999605
57.125 13.789821
57.130 14.001853
57.135 14.880764
57.140 15.085553
57.145 14.651609
57.150 14.461098
57.155 14.717701
57.160 15.065953
57.165 15.09717
57.170 14.788649
57.175 15.118122
57.180 15.30785
57.185 15.327019
57.190 15.551622
57.195 15.475174
57.200 15.177093
57.205 15.169134
57.210 15.100935
57.215 15.366243
57.220 15.413534
57.225 15.447808
57.230 15.370116
57.235 15.591297
57.240 14.93099
57.245 14.776883
57.250 14.768974
57.255 14.761415
57.260 14.545291
57.265 14.720263
57.270 14.747943
57.275 15.417141
57.280 15.650234
57.285 15.606292
57.290 15.686388
57.295 15.944583
57.300 15.419431
57.305 15.108233
57.310 14.782947
57.315 14.609289
57.320 14.698234
57.325 14.956845
57.330 15.101866
57.335 16.040283
57.340 16.344709
57.345 16.305782
57.350 15.840985
57.355 15.402323
57.360 15.143205
57.365 14.975657
57.370 14.307775
57.375 14.308103
57.380 14.506096
57.385 14.595865
57.390 15.053318
57.395 15.472948
57.400 15.29113
57.405 15.537068
57.410 15.523794
57.415 15.18961
57.420 15.347815
57.425 14.802459
57.430 14.243387
57.435 14.65081
57.440 14.43664
57.445 14.365925
57.450 14.744675
57.455 14.643791
57.460 15.024721
57.465 15.286115
57.470 14.886385
57.475 14.998528
57.480 14.905257
57.485 15.103062
57.490 15.450982
57.495 15.338802
57.500 15.019163
57.505 14.967085
57.510 14.950448
57.515 15.489389
57.520 15.15014
57.525 14.724456
57.530 14.261239
57.535 14.789693
57.540 15.228876
57.545 15.306607
57.550 15.336794
57.555 15.326779
57.560 16.11467
57.565 16.401768
57.570 16.207022
57.575 16.094288
57.580 16.124414
57.585 16.438976
57.590 16.861231
57.595 17.022476
57.600 16.880411
57.605 16.544842
57.610 16.012753
57.615 15.265001
57.620 14.798618
57.625 13.923295
57.630 12.9522
57.635 12.853038
57.640 13.043399
57.645 13.198104
57.650 13.168685
57.655 13.483904
57.660 13.773089
57.665 14.215386
57.670 13.835562
57.675 14.109329
57.680 14.549435
57.685 14.534183
57.690 14.658088
57.695 15.316438
57.700 15.251627
57.705 15.832239
57.710 16.305582
57.715 16.453329
57.720 16.617802
57.725 16.476614
57.730 16.305378
57.735 17.347303
57.740 17.600065
57.745 17.210423
57.750 17.256695
57.755 17.209997
57.760 17.28026
57.765 17.686094
57.770 16.923958
57.775 16.492388
57.780 16.53985
57.785 16.374369
57.790 16.438629
57.795 16.172853
57.800 16.216696
57.805 16.297222
57.810 16.583708
57.815 16.778114
57.820 16.953455
57.825 17.085554
57.830 16.925842
57.835 16.418337
57.840 16.120857
57.845 15.151197
57.850 14.724904
57.855 14.306498
57.860 14.007105
57.865 14.042478
57.870 14.063994
57.875 14.583587
57.880 14.783127
57.885 15.009561
57.890 15.078142
57.895 15.088863
57.900 14.480543
57.905 14.124391
57.910 14.111587
57.915 14.3935
57.920 14.018538
57.925 14.026361
57.930 14.082402
57.935 14.299589
57.940 14.623555
57.945 14.540455
57.950 14.49692
57.955 14.37628
57.960 14.345391
57.965 14.863478
57.970 15.151343
57.975 14.695501
57.980 14.378206
57.985 14.472841
57.990 15.067949
57.995 15.423426
58.000 15.093125
58.005 15.481913
58.010 15.946618
58.015 16.48851
58.020 16.629749
58.025 16.561907
58.030 16.425304
58.035 16.876616
58.040 17.456963
58.045 17.695568
58.050 17.142565
58.055 16.825298
58.060 16.99877
58.065 16.996731
58.070 16.64677
58.075 16.147083
58.080 16.391573
58.085 16.627872
58.090 16.617985
58.095 16.096565
58.100 15.777208
58.105 15.66087
58.110 15.163026
58.115 14.540093
58.120 14.94435
58.125 15.333148
58.130 15.297163
58.135 15.632848
58.140 15.817544
58.145 16.831736
58.150 17.415243
58.155 17.38431
58.160 17.398037
58.165 17.836035
58.170 17.390705
58.175 17.5403
58.180 16.873615
58.185 16.162104
58.190 15.770234
58.195 15.865003
58.200 16.011816
58.205 16.323719
58.210 16.078968
58.215 15.686387
58.220 15.970188
58.225 15.883906
58.230 15.327785
58.235 14.7077
58.240 14.556906
58.245 14.596646
58.250 14.744395
58.255 14.997732
58.260 14.926352
58.265 14.649761
58.270 14.798599
58.275 14.582211
58.280 15.012301
58.285 15.077847
58.290 15.069784
58.295 15.482629
58.300 16.508097
58.305 17.293129
58.310 17.183014
58.315 16.802868
58.320 16.895748
58.325 17.067478
58.330 16.819695
58.335 16.413748
58.340 16.334396
58.345 16.321918
58.350 16.233303
58.355 15.886081
58.360 15.233384
58.365 15.354662
58.370 15.317933
58.375 15.00086
58.380 14.892708
58.385 14.853811
58.390 14.815933
58.395 14.808513
58.400 14.792183
58.405 14.865016
58.410 15.055064
58.415 15.394629
58.420 16.102324
58.425 16.429005
58.430 17.239775
58.435 17.511536
58.440 17.220602
58.445 17.185434
58.450 17.157257
58.455 16.978491
58.460 16.745613
58.465 15.654162
58.470 15.817188
58.475 16.105385
58.480 16.024063
58.485 16.314974
58.490 16.655521
58.495 17.150938
58.500 18.096704
58.505 17.700644
58.510 17.688236
58.515 17.598457
58.520 16.757864
58.525 16.447495
58.530 16.227833
58.535 16.409332
58.540 16.664383
58.545 16.974377
58.550 17.242048
58.555 17.887907
58.560 18.210649
58.565 18.248547
58.570 17.810268
58.575 17.864855
58.580 17.032831
58.585 17.31406
58.590 17.347166
58.595 17.371075
58.600 17.136028
58.605 17.10593
58.610 17.312895
58.615 17.641548
58.620 17.81863
58.625 17.906559
58.630 17.522202
58.635 17.559731
58.640 17.294235
58.645 16.669296
58.650 16.43371
58.655 16.266514
58.660 15.694737
58.665 15.975436
58.670 15.949961
58.675 16.023643
58.680 16.634144
58.685 16.582409
58.690 16.28377
58.695 16.744667
58.700 16.808802
58.705 17.040916
58.710 17.113873
58.715 17.184387
58.720 17.346548
58.725 17.415812
58.730 17.840281
58.735 17.479967
58.740 17.228319
58.745 16.905663
58.750 16.675549
58.755 16.833765
58.760 16.837461
58.765 16.828178
58.770 16.956165
58.775 17.083801
58.780 17.1099
58.785 17.357855
58.790 17.076925
58.795 16.42548
58.800 15.704218
58.805 15.929995
58.810 16.306368
58.815 16.17787
58.820 15.944621
58.825 16.067156
58.830 16.330292
58.835 16.477091
58.840 16.515314
58.845 16.12846
58.850 16.219883
58.855 16.558939
58.860 16.56362
58.865 16.643909
58.870 16.371386
58.875 15.843991
58.880 15.887053
58.885 15.818859
58.890 15.661057
58.895 15.518328
58.900 15.672544
58.905 15.572437
58.910 16.078407
58.915 16.514454
58.920 16.958115
58.925 17.171545
58.930 17.176035
58.935 17.620855
58.940 18.660852
58.945 18.777475
58.950 18.612551
58.955 18.817129
58.960 18.956753
58.965 19.051641
58.970 18.501696
58.975 18.209583
58.980 18.612772
58.985 18.99506
58.990 18.514547
58.995 17.994871
59.000 18.226473
59.005 18.606644
59.010 18.166716
59.015 17.630423
59.020 17.149364
59.025 17.191523
59.030 17.42012
59.035 17.119112
59.040 17.211149
59.045 18.02767
59.050 17.818729
59.055 17.935879
59.060 17.967506
59.065 18.096832
59.070 18.305063
59.075 18.096598
59.080 17.588659
59.085 17.406368
59.090 17.552101
59.095 17.90777
59.100 18.590958
59.105 19.096361
59.110 19.009789
59.115 18.549131
59.120 18.399393
59.125 18.270887
59.130 17.757484
59.135 17.144394
59.140 16.776056
59.145 16.993355
59.150 17.645351
59.155 18.294447
59.160 18.316401
59.165 18.768543
59.170 18.914257
59.175 19.326796
59.180 19.71221
59.185 20.082218
59.190 19.978884
59.195 20.12273
59.200 19.710991
59.205 19.314409
59.210 19.062632
59.215 18.42528
59.220 17.423374
59.225 16.856247
59.230 16.752497
59.235 17.11871
59.240 17.216951
59.245 17.219349
59.250 17.569778
59.255 18.945198
59.260 19.337593
59.265 19.293833
59.270 19.150866
59.275 19.488586
59.280 19.041645
59.285 19.223106
59.290 18.549738
59.295 18.243864
59.300 18.110283
59.305 18.271111
59.310 17.985651
59.315 18.516369
59.320 18.258812
59.325 18.694288
59.330 19.462807
59.335 19.908073
59.340 19.585602
59.345 19.663399
59.350 18.879536
59.355 18.452417
59.360 18.719656
59.365 18.384682
59.370 18.05308
59.375 18.19853
59.380 17.84967
59.385 18.09963
59.390 18.767683
59.395 17.957735
59.400 17.660948
59.405 17.882034
59.410 18.00741
59.415 18.650475
59.420 18.69381
59.425 18.577541
59.430 18.642809
59.435 19.147005
59.440 19.619476
59.445 19.648579
59.450 19.293121
59.455 19.224323
59.460 19.572689
59.465 19.881964
59.470 19.460981
59.475 18.939148
59.480 18.60498
59.485 18.759754
59.490 18.76087
59.495 19.213442
59.500 19.484188
59.505 20.188166
59.510 20.53928
59.515 20.575613
59.520 20.511532
59.525 20.303396
59.530 19.661942
59.535 19.542631
59.540 18.890831
59.545 18.550406
59.550 18.646061
59.555 19.07032
59.560 18.69784
59.565 19.086454
59.570 19.190933
59.575 19.334547
59.580 19.563545
59.585 19.87941
59.590 19.968594
59.595 20.477707
59.600 20.487194
59.605 20.850842
59.610 20.863741
59.615 20.651863
59.620 20.269695
59.625 19.645494
59.630 19.934387
59.635 20.428194
59.640 20.716013
59.645 21.0868
59.650 21.419197
59.655 22.259464
59.660 23.208157
59.665 23.030643
59.670 21.974443
59.675 20.886141
59.680 21.077339
59.685 21.018272
59.690 20.874146
59.695 20.706285
59.700 20.813311
59.705 21.613161
59.710 21.843393
59.715 21.620682
59.720 21.68433
59.725 21.271828
59.730 20.580364
59.735 20.175621
59.740 20.029898
59.745 20.30323
59.750 20.212294
59.755 19.549112
59.760 19.979654
59.765 20.117184
59.770 20.637815
59.775 21.213249
59.780 21.638187
59.785 22.008879
59.790 22.679306
59.795 23.075958
59.800 23.327478
59.805 22.992077
59.810 22.13529
59.815 21.651001
59.820 21.116983
59.825 21.208466
59.830 20.805384
59.835 20.954948
59.840 20.512756
59.845 20.954124
59.850 20.861778
59.855 21.232269
59.860 20.630823
59.865 20.618956
59.870 20.2183
59.875 20.154425
59.880 20.564013
59.885 20.471746
59.890 20.477076
59.895 20.952528
59.900 21.265888
59.905 21.91473
59.910 21.838511
59.915 21.520025
59.920 21.958696
59.925 22.766829
59.930 22.98888
59.935 23.105358
59.940 23.397074
59.945 23.767996
59.950 23.555937
59.955 23.733942
59.960 23.141838
59.965 23.282722
59.970 23.03826
59.975 22.713209
59.980 23.282784
59.985 23.572777
59.990 23.59239
59.995 23.891626
60.000 23.546093
60.005 23.726824
60.010 24.605436
60.015 24.775995
60.020 24.134266
60.025 23.152145
60.030 22.950796
60.035 22.915237
60.040 22.481617
60.045 22.117689
60.050 22.002874
60.055 22.474361
60.060 23.590418
60.065 23.810575
60.070 23.896267
60.075 23.663443
60.080 23.089151
60.085 22.914812
60.090 23.441343
60.095 23.061556
60.100 22.893578
60.105 22.51676
60.110 22.599508
60.115 23.119448
60.120 23.307772
60.125 23.223257
60.130 23.55731
60.135 23.460928
60.140 24.091654
60.145 24.254608
60.150 23.888376
60.155 23.458378
60.160 23.025122
60.165 22.205189
60.170 22.119717
60.175 22.523289
60.180 23.221544
60.185 24.185131
60.190 24.753973
60.195 24.906546
60.200 24.942877
60.205 25.183575
60.210 24.508268
60.215 23.695612
60.220 22.952858
60.225 22.588877
60.230 22.863026
60.235 23.730738
60.240 24.209644
60.245 24.251549
60.250 23.764971
60.255 23.099684
60.260 22.743259
60.265 22.5145
60.270 21.997198
60.275 21.666313
60.280 21.643311
60.285 22.127995
60.290 22.693108
60.295 22.516991
60.300 22.501799
60.305 22.682949
60.310 22.173618
60.315 22.192848
60.320 22.091925
60.325 22.062449
60.330 22.121567
60.335 22.092541
60.340 21.324272
60.345 21.704412
60.350 21.68421
60.355 21.627861
60.360 22.497112
60.365 23.115351
60.370 22.913984
60.375 23.253374
60.380 22.795338
60.385 22.618921
60.390 22.573616
60.395 21.595968
60.400 20.906549
60.405 21.056118
60.410 21.293413
60.415 21.538729
60.420 20.918673
60.425 20.844965
60.430 20.71059
60.435 21.167885
60.440 20.707279
60.445 20.314692
60.450 20.443132
60.455 21.553719
60.460 21.167112
60.465 21.486967
60.470 21.67882
60.475 22.333836
60.480 22.79575
60.485 22.275841
60.490 21.740944
60.495 21.968666
60.500 21.177053
60.505 20.311581
60.510 20.17734
60.515 20.370285
60.520 20.509548
60.525 20.065277
60.530 19.605431
60.535 19.470222
60.540 19.91111
60.545 19.803999
60.550 19.762331
60.555 20.091671
60.560 21.104664
60.565 21.628531
60.570 22.103559
60.575 22.403332
60.580 21.783367
60.585 21.438145
60.590 21.662874
60.595 21.201967
60.600 20.952734
60.605 20.671322
60.610 20.089317
60.615 20.761375
60.620 20.979744
60.625 20.902546
60.630 20.798277
60.635 20.600595
60.640 20.406418
60.645 20.542782
60.650 19.623657
60.655 18.810801
60.660 18.152365
60.665 17.574505
60.670 17.398489
60.675 17.900789
60.680 17.627338
60.685 17.822758
60.690 18.293592
60.695 18.581352
60.700 18.99143
60.705 19.367619
60.710 19.013273
60.715 19.244574
60.720 19.422968
60.725 19.901909
60.730 19.997068
60.735 19.814646
60.740 19.767437
60.745 19.297297
60.750 19.124628
60.755 19.098583
60.760 18.321608
60.765 18.93026
60.770 19.107222
60.775 19.350563
60.780 20.169601
60.785 20.574099
60.790 20.900475
60.795 21.491388
60.800 20.747108
60.805 20.924013
60.810 20.620472
60.815 20.263718
60.820 20.111774
60.825 19.317698
60.830 18.924232
60.835 18.99753
60.840 18.565004
60.845 18.367697
60.850 18.153698
60.855 17.929478
60.860 17.815208
60.865 17.337547
60.870 16.751179
60.875 16.855644
60.880 16.580936
60.885 16.471289
60.890 16.284634
60.895 16.515757
60.900 17.090946
60.905 17.91839
60.910 18.091261
60.915 18.675619
60.920 19.072519
60.925 19.551413
60.930 19.764536
60.935 19.980764
60.940 19.990671
60.945 19.874102
60.950 19.024374
60.955 18.919752
60.960 19.00379
60.965 19.066998
60.970 18.530603
60.975 18.51593
60.980 18.771862
60.985 19.539791
60.990 19.461935
60.995 19.860649
61.000 19.549412
61.005 19.326155
61.010 18.769291
61.015 18.637192
61.020 18.263618
61.025 17.650635
61.030 17.128569
61.035 17.103271
61.040 17.163122
61.045 17.589575
61.050 17.320665
61.055 17.421616
61.060 18.140226
61.065 18.172079
61.070 18.340584
61.075 18.231117
61.080 18.07708
61.085 18.311571
61.090 17.996902
61.095 17.517117
61.100 17.776966
61.105 17.870956
61.110 18.059967
61.115 18.607241
61.120 18.612492
61.125 18.920082
61.130 19.140509
61.135 19.133335
61.140 19.116674
61.145 18.927055
61.150 18.471838
61.155 18.713818
61.160 18.602177
61.165 18.130386
61.170 18.161808
61.175 18.648106
61.180 18.881018
61.185 18.533144
61.190 18.133776
61.195 18.534637
61.200 18.653725
61.205 18.742851
61.210 18.803484
61.215 18.762922
61.220 18.765867
61.225 18.768051
61.230 19.009586
61.235 18.975817
61.240 18.460167
61.245 18.091572
61.250 18.694618
61.255 19.561636
61.260 19.77298
61.265 19.214962
61.270 19.338505
61.275 19.541651
61.280 19.753965
61.285 19.533587
61.290 18.9475
61.295 18.679968
61.300 18.882175
61.305 18.658466
61.310 18.131847
61.315 17.683903
61.320 17.584938
61.325 17.245262
61.330 16.897272
61.335 17.078465
61.340 17.169483
61.345 17.357111
61.350 17.5804
61.355 17.789328
61.360 18.679268
61.365 19.005239
61.370 19.110483
61.375 19.324976
61.380 19.144417
61.385 18.89002
61.390 19.055159
61.395 18.883053
61.400 18.825607
61.405 18.549126
61.410 18.193041
61.415 18.626627
61.420 19.056274
61.425 18.333818
61.430 17.308647
61.435 16.290237
61.440 16.241743
61.445 16.858107
61.450 17.258743
61.455 16.938465
61.460 16.85293
61.465 17.665237
61.470 19.107426
61.475 19.269028
61.480 19.018278
61.485 18.713039
61.490 18.644743
61.495 18.568848
61.500 18.458019
61.505 17.996063
61.510 17.82616
61.515 18.087757
61.520 18.149935
61.525 18.518522
61.530 18.99542
61.535 19.308455
61.540 19.260773
61.545 19.028791
61.550 18.723652
61.555 18.38868
61.560 18.151583
61.565 18.31509
61.570 18.452204
61.575 18.841984
61.580 18.970003
61.585 19.081491
61.590 18.829535
61.595 18.922199
61.600 18.857708
61.605 18.151125
61.610 17.402397
61.615 17.42856
61.620 17.523804
61.625 18.131594
61.630 17.361086
61.635 17.000921
61.640 17.365536
61.645 17.772306
61.650 17.531857
61.655 17.086519
61.660 17.102983
61.665 17.918947
61.670 17.805017
61.675 17.816778
61.680 17.961124
61.685 17.697851
61.690 17.793068
61.695 17.330166
61.700 17.192846
61.705 17.455343
61.710 17.255957
61.715 16.903551
61.720 16.890457
61.725 15.983331
61.730 16.156862
61.735 16.134531
61.740 15.891985
61.745 15.74599
61.750 15.827693
61.755 16.292736
61.760 16.975742
61.765 17.089176
61.770 17.310163
61.775 17.592739
61.780 17.905537
61.785 18.317873
61.790 18.185265
61.795 18.787489
61.800 18.834991
61.805 18.894581
61.810 19.174273
61.815 19.850946
61.820 19.352379
61.825 19.237402
61.830 18.672785
61.835 18.43844
61.840 18.845154
61.845 18.557262
61.850 18.017046
61.855 18.590477
61.860 19.215761
61.865 20.076187
61.870 20.352554
61.875 19.983225
61.880 20.295595
61.885 20.210161
61.890 20.169399
61.895 19.991379
61.900 19.993893
61.905 19.794847
61.910 19.463148
61.915 18.868454
61.920 18.387064
61.925 17.413963
61.930 17.048094
61.935 16.615099
61.940 16.285751
61.945 16.208496
61.950 16.821938
61.955 17.116365
61.960 17.146717
61.965 17.012192
61.970 16.785046
61.975 17.279844
61.980 17.658644
61.985 17.561897
61.990 18.120499
61.995 18.593689
62.000 18.817703
62.005 18.202618
62.010 17.329321
62.015 17.128872
62.020 16.753885
62.025 16.227373
62.030 15.898815
62.035 16.401152
62.040 17.574411
62.045 18.09367
62.050 18.012865
62.055 18.263193
62.060 18.457863
62.065 17.814493
62.070 17.424686
62.075 16.992273
62.080 17.370186
62.085 17.928919
62.090 18.045313
62.095 18.013454
62.100 18.345255
62.105 18.352295
62.110 18.699184
62.115 18.591707
62.120 17.81609
62.125 17.99489
62.130 18.315804
62.135 18.643021
62.140 18.219444
62.145 17.667387
62.150 17.199381
62.155 17.191933
62.160 17.279097
62.165 17.290161
62.170 17.767578
62.175 18.290623
62.180 18.906513
62.185 18.764425
62.190 18.237183
62.195 17.782421
62.200 17.683792
62.205 16.909369
62.210 16.664337
62.215 16.372702
62.220 16.783352
62.225 17.423435
62.230 17.42602
62.235 17.099503
62.240 16.902107
62.245 16.544291
62.250 16.648066
62.255 16.969549
62.260 16.945763
62.265 16.879419
62.270 17.334372
62.275 17.560057
62.280 17.598911
62.285 17.526726
62.290 17.534437
62.295 17.938395
62.300 18.422104
62.305 18.309221
62.310 18.148682
62.315 18.896143
62.320 18.63829
62.325 18.766529
62.330 18.943724
62.335 19.015373
62.340 18.779108
62.345 18.766136
62.350 18.383383
62.355 18.615971
62.360 18.262201
62.365 18.13871
62.370 18.383512
62.375 18.605659
62.380 19.00305
62.385 18.934574
62.390 18.69721
62.395 18.660879
62.400 17.977324
62.405 17.555349
62.410 18.140886
62.415 17.684547
62.420 17.236023
62.425 17.266912
62.430 17.058395
62.435 17.054779
62.440 17.044596
62.445 17.090845
62.450 18.089191
62.455 18.427521
62.460 18.253992
62.465 18.318441
62.470 18.561699
62.475 18.66445
62.480 18.529875
62.485 18.246284
62.490 18.624851
62.495 18.248041
62.500 18.47188
62.505 18.458994
62.510 18.634151
62.515 18.73105
62.520 17.913431
62.525 17.535086
62.530 17.93395
62.535 17.936604
62.540 18.337851
62.545 18.439459
62.550 18.162741
62.555 18.89291
62.560 18.97776
62.565 18.834991
62.570 18.997494
62.575 18.668711
62.580 18.499897
62.585 18.387232
62.590 18.436916
62.595 18.878454
62.600 19.370424
62.605 18.883858
62.610 18.665983
62.615 18.367025
62.620 18.558386
62.625 18.16762
62.630 17.747232
62.635 16.916573
62.640 17.147352
62.645 17.100813
62.650 16.938562
62.655 16.071524
62.660 16.128424
62.665 16.93346
62.670 17.452459
62.675 18.149038
62.680 18.629213
62.685 18.347742
62.690 18.48035
62.695 18.480883
62.700 17.892307
62.705 17.526651
62.710 16.815695
62.715 17.041523
62.720 18.245975
62.725 18.969269
62.730 18.886932
62.735 19.288374
62.740 19.652843
62.745 19.783537
62.750 19.379854
62.755 18.847244
62.760 18.702852
62.765 18.324301
62.770 18.276917
62.775 18.418928
62.780 18.512554
62.785 18.470463
62.790 18.739782
62.795 19.076372
62.800 18.756741
62.805 18.429232
62.810 18.954029
62.815 18.963238
62.820 18.660601
62.825 18.135773
62.830 17.674479
62.835 17.935299
62.840 17.862226
62.845 17.216703
62.850 17.283453
62.855 17.910225
62.860 18.050564
62.865 18.079863
62.870 18.360973
62.875 18.01936
62.880 17.821442
62.885 17.330219
62.890 16.558445
62.895 16.275822
62.900 15.794564
62.905 15.681391
62.910 16.036695
62.915 15.939075
62.920 15.843524
62.925 16.348461
62.930 16.86133
62.935 16.738853
62.940 17.066559
62.945 17.045376
62.950 17.413605
62.955 17.800516
62.960 17.435217
62.965 17.077806
62.970 17.679407
62.975 17.666389
62.980 17.771868
62.985 17.516396
62.990 17.835226
62.995 18.117359
63.000 18.30582
63.005 18.283958
63.010 18.602009
63.015 18.781408
63.020 18.534395
63.025 18.040253
63.030 17.794523
63.035 18.123648
63.040 17.981642
63.045 17.845627
63.050 17.69305
63.055 17.267481
63.060 16.872656
63.065 17.094028
63.070 16.687069
63.075 16.696375
63.080 17.104792
63.085 17.100653
63.090 17.867601
63.095 18.135616
63.100 18.033257
63.105 17.832308
63.110 17.895866
63.115 17.726866
63.120 17.831188
63.125 17.668409
63.130 17.501492
63.135 17.41679
63.140 17.704124
63.145 17.808695
63.150 16.760191
63.155 16.400139
63.160 16.713062
63.165 17.307793
63.170 17.52648
63.175 17.608225
63.180 17.603327
63.185 17.776587
63.190 18.6304
63.195 19.03924
63.200 18.783461
63.205 18.411583
63.210 17.511248
63.215 17.205395
63.220 17.65287
63.225 16.904438
63.230 16.327795
63.235 16.2663
63.240 16.646353
63.245 17.481371
63.250 17.970501
63.255 18.352032
63.260 18.673424
63.265 18.905369
63.270 18.905066
63.275 19.260553
63.280 19.828831
63.285 20.871977
63.290 20.708239
63.295 20.40551
63.300 20.201586
63.305 20.563074
63.310 20.440897
63.315 19.65975
63.320 18.706381
63.325 18.737911
63.330 19.450588
63.335 19.710035
63.340 19.277666
63.345 18.786432
63.350 18.70985
63.355 18.288233
63.360 17.851736
63.365 17.644266
63.370 17.839642
63.375 18.059576
63.380 18.234571
63.385 18.438395
63.390 18.70892
63.395 19.076302
63.400 18.869577
63.405 18.208033
63.410 18.1789
63.415 18.069788
63.420 17.788836
63.425 17.991974
63.430 18.190996
63.435 18.511106
63.440 18.19351
63.445 18.166086
63.450 18.319691
63.455 18.834661
63.460 18.634857
63.465 18.105639
63.470 18.083874
63.475 19.005077
63.480 19.59799
63.485 19.79031
63.490 19.47736
63.495 19.263943
63.500 19.329836
63.505 19.468475
63.510 18.572748
63.515 17.991554
63.520 17.885923
63.525 17.98769
63.530 18.583527
63.535 18.267822
63.540 17.941233
63.545 18.713783
63.550 18.153238
63.555 17.458149
63.560 17.267193
63.565 16.411224
63.570 16.554682
63.575 16.411736
63.580 16.03294
63.585 16.948553
63.590 17.841297
63.595 17.512737
63.600 17.591528
63.605 17.866144
63.610 18.448313
63.615 18.401217
63.620 18.486345
63.625 18.234909
63.630 18.125118
63.635 17.820927
63.640 17.487564
63.645 16.736279
63.650 17.128469
63.655 17.120945
63.660 17.504923
63.665 18.078972
63.670 18.660362
63.675 19.006655
63.680 19.28097
63.685 19.409491
63.690 19.259817
63.695 18.56432
63.700 18.717447
63.705 18.661449
63.710 18.791056
63.715 18.83988
63.720 18.159817
63.725 18.160757
63.730 18.727137
63.735 19.659739
63.740 20.109777
63.745 20.0182
63.750 19.913668
63.755 19.622091
63.760 19.592417
63.765 19.282806
63.770 17.80547
63.775 17.815672
63.780 17.937651
63.785 18.242142
63.790 18.769892
63.795 18.62048
63.800 18.086063
63.805 17.940722
63.810 17.694963
63.815 18.116528
63.820 18.015791
63.825 17.987646
63.830 18.031845
63.835 19.106758
63.840 19.633247
63.845 19.196377
63.850 18.517563
63.855 18.359909
63.860 18.439911
63.865 18.05883
63.870 17.002525
63.875 16.635181
63.880 17.046192
63.885 17.866648
63.890 17.960735
63.895 18.066671
63.900 18.430149
63.905 18.980907
63.910 18.487841
63.915 18.122244
63.920 17.680668
63.925 17.58098
63.930 17.489401
63.935 17.294411
63.940 17.544195
63.945 18.02837
63.950 18.495636
63.955 18.771553
63.960 19.052755
63.965 19.075333
63.970 18.936234
63.975 18.830141
63.980 18.999838
63.985 18.723635
63.990 18.680941
63.995 18.529936
64.000 18.943291
64.005 19.190905
64.010 19.697968
64.015 20.745699
64.020 21.824526
64.025 22.046614
64.030 21.769943
64.035 21.538004
64.040 21.63983
64.045 21.46381
64.050 20.935301
64.055 20.076582
64.060 20.223734
64.065 21.022352
64.070 21.160559
64.075 20.763132
64.080 20.128885
64.085 19.237795
64.090 19.138517
64.095 18.74828
64.100 17.832191
64.105 17.684975
64.110 18.207994
64.115 18.532942
64.120 19.087742
64.125 18.903255
64.130 18.848139
64.135 19.420103
64.140 19.326834
64.145 18.849777
64.150 18.250414
64.155 17.72139
64.160 18.308718
64.165 18.652767
64.170 18.437971
64.175 18.558798
64.180 18.998058
64.185 19.289047
64.190 19.218958
64.195 18.313372
64.200 17.533491
64.205 17.2041
64.210 16.967644
64.215 17.05731
64.220 18.166361
64.225 18.606127
64.230 19.155987
64.235 19.936617
64.240 20.393339
64.245 20.127371
64.250 19.594624
64.255 18.773371
64.260 18.060316
64.265 18.134384
64.270 17.532915
64.275 17.625696
64.280 18.15263
64.285 18.949802
64.290 19.224148
64.295 20.434853
64.300 20.887541
64.305 20.96567
64.310 21.400768
64.315 21.356577
64.320 20.752069
64.325 20.431187
64.330 19.746534
64.335 19.52426
64.340 19.59519
64.345 18.695837
64.350 18.649063
64.355 19.028366
64.360 19.279144
64.365 19.530659
64.370 20.07041
64.375 20.374798
64.380 20.810974
64.385 20.88228
64.390 21.083553
64.395 20.897602
64.400 20.505163
64.405 19.884472
64.410 19.606186
64.415 19.799295
64.420 19.596462
64.425 18.895451
64.430 18.379154
64.435 18.443642
64.440 18.251451
64.445 18.551706
64.450 18.453112
64.455 18.17263
64.460 18.687922
64.465 19.269201
64.470 19.045029
64.475 19.266838
64.480 19.185356
64.485 19.180893
64.490 19.382799
64.495 19.551926
64.500 20.861959
64.505 21.332203
64.510 21.842119
64.515 22.128384
64.520 22.520658
64.525 22.902582
64.530 22.596233
64.535 21.766945
64.540 21.629013
64.545 21.412745
64.550 21.891459
64.555 21.824253
64.560 21.778091
64.565 21.524569
64.570 21.202797
64.575 21.241404
64.580 21.076887
64.585 20.895662
64.590 20.773563
64.595 20.660133
64.600 20.585642
64.605 21.123108
64.610 21.349377
64.615 21.082241
64.620 20.888979
64.625 21.014196
64.630 21.526789
64.635 21.952385
64.640 21.302626
64.645 20.922506
64.650 20.647429
64.655 20.160378
64.660 19.845623
64.665 19.623394
64.670 19.678537
64.675 19.608284
64.680 19.665834
64.685 19.353642
64.690 19.017088
64.695 19.395668
64.700 19.381502
64.705 19.314402
64.710 19.703794
64.715 20.238737
64.720 20.667414
64.725 21.20965
64.730 20.866375
64.735 20.700991
64.740 21.020088
64.745 21.234329
64.750 20.922302
64.755 20.923151
64.760 20.75601
64.765 21.432892
64.770 22.149862
64.775 22.003777
64.780 22.032274
64.785 21.575232
64.790 22.112597
64.795 22.370409
64.800 21.900814
64.805 21.53817
64.810 21.876507
64.815 22.60689
64.820 23.031202
64.825 23.172508
64.830 23.279961
64.835 23.28373
64.840 22.822821
64.845 22.582407
64.850 21.891228
64.855 21.955769
64.860 21.649837
64.865 21.433645
64.870 22.164282
64.875 22.577288
64.880 22.231281
64.885 22.23855
64.890 23.089884
64.895 23.642035
64.900 24.069677
64.905 24.091764
64.910 24.30394
64.915 24.926542
64.920 25.922873
64.925 25.465343
64.930 25.260321
64.935 25.064501
64.940 24.711781
64.945 24.623329
64.950 24.735907
64.955 24.383566
64.960 23.471781
64.965 22.854076
64.970 23.533445
64.975 23.314066
64.980 23.453133
64.985 22.927065
64.990 22.792492
64.995 23.727079
65.000 24.609909
65.005 23.904181
65.010 24.195532
65.015 24.272881
65.020 25.014198
65.025 25.127073
65.030 25.507898
65.035 24.796583
65.040 25.035086
65.045 25.314419
65.050 25.480078
65.055 25.043013
65.060 24.448814
65.065 24.309416
65.070 24.464346
65.075 24.665651
65.080 24.400608
65.085 24.24054
65.090 23.83799
65.095 23.719234
65.100 23.734825
65.105 24.452515
65.110 24.146948
65.115 24.123795
65.120 23.800776
65.125 24.890577
65.130 25.915382
65.135 26.264425
65.140 25.868731
65.145 25.971802
65.150 26.614368
65.155 26.698029
65.160 25.982065
65.165 24.843134
65.170 24.666397
65.175 25.46744
65.180 25.366335
65.185 24.715908
65.190 25.07016
65.195 24.898972
65.200 25.297718
65.205 24.631044
65.210 24.172565
65.215 24.013386
65.220 24.050833
65.225 23.625774
65.230 24.125425
65.235 24.361448
65.240 24.547712
65.245 23.984938
65.250 23.770779
65.255 23.916592
65.260 24.603149
65.265 24.339611
65.270 24.206484
65.275 24.159523
65.280 24.701241
65.285 25.391058
65.290 24.99099
65.295 25.066908
65.300 25.750631
65.305 25.700024
65.310 25.75437
65.315 25.918621
65.320 25.297749
65.325 25.605301
65.330 25.147238
65.335 24.27284
65.340 24.440144
65.345 24.55777
65.350 24.450037
65.355 24.598589
65.360 24.83341
65.365 24.944908
65.370 24.992043
65.375 25.25699
65.380 25.100058
65.385 24.818563
65.390 24.511185
65.395 24.355391
65.400 24.502954
65.405 24.906321
65.410 25.27339
65.415 25.426939
65.420 25.751783
65.425 26.166809
65.430 25.318632
65.435 25.029041
65.440 25.503223
65.445 24.822437
65.450 25.133242
65.455 25.71287
65.460 26.48576
65.465 27.28717
65.470 28.002769
65.475 27.918333
65.480 28.163996
65.485 27.93247
65.490 27.753901
65.495 27.689541
65.500 27.88065
65.505 27.997288
65.510 28.550436
65.515 28.512516
65.520 28.435295
65.525 28.205462
65.530 27.526773
65.535 27.384991
65.540 26.960007
65.545 26.599451
65.550 27.033672
65.555 27.323702
65.560 27.967289
65.565 28.96726
65.570 29.352953
65.575 30.025806
65.580 31.071203
65.585 30.969309
65.590 30.8962
65.595 31.264883
65.600 32.063305
65.605 32.433472
65.610 32.233521
65.615 32.435329
65.620 32.554852
65.625 32.499969
65.630 32.125721
65.635 31.75519
65.640 31.529873
65.645 31.556435
65.650 31.744843
65.655 32.264111
65.660 32.240715
65.665 32.419659
65.670 32.278183
65.675 32.249607
65.680 32.972652
65.685 33.128578
65.690 33.4967
65.695 34.421497
65.700 34.6745
65.705 35.059368
65.710 35.708912
65.715 34.98201
65.720 34.058125
65.725 33.947456
65.730 33.588398
65.735 33.154591
65.740 33.313122
65.745 33.126968
65.750 33.709915
65.755 34.560081
65.760 34.714428
65.765 34.802456
65.770 34.819469
65.775 34.854233
65.780 34.830952
65.785 35.283581
65.790 35.474125
65.795 35.840279
65.800 36.455555
65.805 36.579933
65.810 35.968136
65.815 36.042652
65.820 36.057461
65.825 36.409058
65.830 36.349514
65.835 36.154839
65.840 36.664402
65.845 37.221146
65.850 37.994415
65.855 37.928303
65.860 37.690014
65.865 36.985344
65.870 36.814312
65.875 37.242325
65.880 37.593113
65.885 37.531109
65.890 37.82251
65.895 38.12767
65.900 38.725414
65.905 39.924595
65.910 39.322464
65.915 39.28281
65.920 39.510784
65.925 39.38015
65.930 40.240578
65.935 40.532574
65.940 39.320999
65.945 39.471191
65.950 38.752983
65.955 39.222668
65.960 39.932381
65.965 39.732456
65.970 39.54483
65.975 40.229301
65.980 41.152016
65.985 42.59866
65.990 42.383072
65.995 42.00285
66.000 41.635647
66.005 41.707863
66.010 41.361271
66.015 40.567364
66.020 40.266132
66.025 40.590366
66.030 41.242668
66.035 41.432972
66.040 41.06612
66.045 41.278252
66.050 42.132225
66.055 41.895092
66.060 41.95739
66.065 41.705555
66.070 41.914497
66.075 42.513596
66.080 42.445217
66.085 42.375664
66.090 41.724609
66.095 41.573021
66.100 42.441769
66.105 42.679417
66.110 43.073399
66.115 44.142399
66.120 43.425591
66.125 43.510601
66.130 42.990898
66.135 41.895199
66.140 42.328533
66.145 41.477432
66.150 40.121971
66.155 39.85947
66.160 40.535099
66.165 40.298176
66.170 39.50555
66.175 39.027626
66.180 38.668556
66.185 39.377487
66.190 40.018787
66.195 39.384895
66.200 39.41164
66.205 39.006824
66.210 39.188759
66.215 39.781624
66.220 39.290726
66.225 38.530479
66.230 38.486458
66.235 38.379513
66.240 38.915401
66.245 38.822735
66.250 38.101357
66.255 38.307003
66.260 39.252525
66.265 39.585533
66.270 39.142738
66.275 38.779034
66.280 39.387402
66.285 39.554108
66.290 39.225521
66.295 38.151203
66.300 38.446774
66.305 38.687832
66.310 38.047092
66.315 37.33329
66.320 36.836433
66.325 36.87146
66.330 36.478531
66.335 35.009209
66.340 35.370255
66.345 34.878525
66.350 34.397797
66.355 34.095093
66.360 33.236176
66.365 33.215603
66.370 32.806782
66.375 31.43251
66.380 31.334604
66.385 30.706242
66.390 30.793512
66.395 31.001814
66.400 31.064972
66.405 31.858862
66.410 32.423149
66.415 32.510536
66.420 32.550892
66.425 32.436802
66.430 31.551065
66.435 31.495899
66.440 31.050501
66.445 31.365498
66.450 30.723656
66.455 30.129459
66.460 29.700911
66.465 30.340796
66.470 30.692163
66.475 30.504038
66.480 29.681314
66.485 29.681917
66.490 29.946304
66.495 30.38574
66.500 30.378012
66.505 30.08643
66.510 29.764666
66.515 29.871042
66.520 29.836145
66.525 30.184433
66.530 29.864685
66.535 29.38376
66.540 29.066359
66.545 28.827095
66.550 28.751553
66.555 28.494978
66.560 28.496391
66.565 29.110264
66.570 28.831583
66.575 28.414389
66.580 27.393763
66.585 27.077719
66.590 27.714531
66.595 27.311764
66.600 26.580936
66.605 26.740101
66.610 26.646284
66.615 27.141569
66.620 27.577967
66.625 26.887426
66.630 26.946039
66.635 26.972322
66.640 27.06477
66.645 27.50647
66.650 27.596785
66.655 27.196178
66.660 26.871071
66.665 26.547844
66.670 25.952885
66.675 25.381454
66.680 24.832687
66.685 25.097618
66.690 24.629471
66.695 24.603424
66.700 25.247843
66.705 25.469538
66.710 25.188519
66.715 25.288155
66.720 25.494785
66.725 25.977688
66.730 25.554728
66.735 24.585772
66.740 24.412302
66.745 24.757524
66.750 25.167315
66.755 24.811647
66.760 25.199968
66.765 25.113493
66.770 25.588593
66.775 25.7908
66.780 24.569746
66.785 24.250423
66.790 23.925573
66.795 23.354542
66.800 24.341867
66.805 23.940763
66.810 24.128826
66.815 24.545357
66.820 24.583366
66.825 24.952944
66.830 25.047756
66.835 24.863594
66.840 24.901031
66.845 25.008694
66.850 25.768089
66.855 25.79726
66.860 24.876251
66.865 24.912846
66.870 24.037006
66.875 24.190138
66.880 24.10022
66.885 23.685747
66.890 23.774761
66.895 24.174545
66.900 23.854733
66.905 24.067234
66.910 24.091171
66.915 23.936485
66.920 23.769892
66.925 23.46315
66.930 22.985823
66.935 23.727907
66.940 23.789982
66.945 23.22492
66.950 23.178034
66.955 23.150784
66.960 23.337692
66.965 23.253313
66.970 22.585979
66.975 22.818779
66.980 23.118084
66.985 23.344601
66.990 23.293045
66.995 22.873703
67.000 22.943842
67.005 23.359011
67.010 23.671875
67.015 23.441345
67.020 23.110226
67.025 23.302895
67.030 23.739845
67.035 23.657242
67.040 22.589378
67.045 22.57188
67.050 22.69986
67.055 22.172251
67.060 22.601524
67.065 22.653856
67.070 23.119482
67.075 23.667223
67.080 23.286572
67.085 23.244053
67.090 23.588099
67.095 23.177664
67.100 23.279749
67.105 23.066936
67.110 23.155848
67.115 23.174585
67.120 23.423584
67.125 23.081337
67.130 23.442186
67.135 22.609562
67.140 22.035723
67.145 21.231377
67.150 20.551502
67.155 20.178566
67.160 20.278149
67.165 20.420481
67.170 20.842667
67.175 21.142982
67.180 21.721012
67.185 22.047855
67.190 22.518269
67.195 22.238934
67.200 22.316349
67.205 22.631207
67.210 22.541252
67.215 22.37141
67.220 22.297371
67.225 22.217295
67.230 21.902466
67.235 21.597155
67.240 21.043476
67.245 21.185629
67.250 20.763149
67.255 20.271315
67.260 20.457453
67.265 20.679754
67.270 20.726997
67.275 21.389069
67.280 21.70719
67.285 22.197554
67.290 22.11017
67.295 21.70112
67.300 21.510202
67.305 21.055693
67.310 21.035542
67.315 21.036093
67.320 21.101265
67.325 21.392168
67.330 21.236731
67.335 21.047012
67.340 21.683233
67.345 21.397404
67.350 21.658134
67.355 21.910654
67.360 22.357199
67.365 22.502758
67.370 22.571749
67.375 22.300407
67.380 22.271832
67.385 21.663277
67.390 21.686155
67.395 21.395002
67.400 22.0285
67.405 22.684416
67.410 22.849447
67.415 22.996494
67.420 22.668566
67.425 22.738649
67.430 22.678381
67.435 22.150093
67.440 21.299133
67.445 20.874502
67.450 21.296726
67.455 22.156506
67.460 21.930288
67.465 22.36241
67.470 22.512007
67.475 22.107683
67.480 21.790396
67.485 20.942705
67.490 19.560467
67.495 19.269709
67.500 19.390789
67.505 19.656626
67.510 19.995277
67.515 19.948854
67.520 19.750862
67.525 20.592554
67.530 21.404907
67.535 21.13545
67.540 20.861748
67.545 21.255947
67.550 21.070299
67.555 22.081272
67.560 22.885447
67.565 22.834286
67.570 22.981388
67.575 23.28574
67.580 23.235191
67.585 23.373148
67.590 22.787203
67.595 21.960451
67.600 21.534761
67.605 21.549419
67.610 21.122206
67.615 21.11899
67.620 21.415186
67.625 21.464537
67.630 21.625214
67.635 21.754972
67.640 21.76413
67.645 21.999041
67.650 22.102533
67.655 21.996128
67.660 22.327625
67.665 22.565716
67.670 22.583992
67.675 22.588495
67.680 22.392569
67.685 22.270086
67.690 22.122444
67.695 21.57461
67.700 21.353115
67.705 21.335579
67.710 21.055239
67.715 20.836666
67.720 20.646635
67.725 20.650969
67.730 20.450022
67.735 20.270536
67.740 20.999222
67.745 21.478107
67.750 21.689247
67.755 21.581081
67.760 21.130384
67.765 21.714296
67.770 21.693691
67.775 21.089109
67.780 21.103075
67.785 20.80611
67.790 20.868116
67.795 21.708046
67.800 21.650482
67.805 21.652882
67.810 21.695419
67.815 21.905455
67.820 22.405928
67.825 22.516645
67.830 21.832191
67.835 21.572193
67.840 21.723589
67.845 21.404682
67.850 20.910036
67.855 20.805384
67.860 20.36961
67.865 20.181772
67.870 20.415325
67.875 20.243132
67.880 20.697739
67.885 21.123365
67.890 20.69207
67.895 21.168585
67.900 21.2274
67.905 21.52726
67.910 21.222166
67.915 20.964064
67.920 20.917809
67.925 21.335558
67.930 21.295542
67.935 21.505127
67.940 20.753532
67.945 20.614109
67.950 20.179852
67.955 19.947285
67.960 20.052336
67.965 19.852283
67.970 19.393885
67.975 19.823149
67.980 20.333275
67.985 20.147856
67.990 20.214203
67.995 20.497536
68.000 20.999256
68.005 21.866371
68.010 21.674019
68.015 21.928383
68.020 22.855722
68.025 23.235945
68.030 23.276533
68.035 23.916311
68.040 23.64073
68.045 24.008753
68.050 23.640282
68.055 23.097338
68.060 22.804815
68.065 22.274073
68.070 21.54921
68.075 21.318216
68.080 21.049234
68.085 21.337217
68.090 20.980482
68.095 21.21829
68.100 21.821461
68.105 22.171822
68.110 23.228685
68.115 23.300837
68.120 22.912449
68.125 23.224503
68.130 23.051832
68.135 23.025709
68.140 22.858906
68.145 22.031313
68.150 22.284925
68.155 22.569805
68.160 22.758278
68.165 22.726328
68.170 22.247335
68.175 22.328634
68.180 22.279337
68.185 21.875851
68.190 22.307144
68.195 22.023476
68.200 21.679121
68.205 21.402971
68.210 20.356495
68.215 20.871391
68.220 21.488163
68.225 21.380081
68.230 21.239799
68.235 21.452173
68.240 21.190912
68.245 21.373554
68.250 20.969999
68.255 20.838516
68.260 21.002075
68.265 21.472315
68.270 21.550417
68.275 22.310566
68.280 22.591387
68.285 22.467682
68.290 21.749794
68.295 21.622187
68.300 21.958544
68.305 22.331463
68.310 22.406231
68.315 22.318348
68.320 22.226675
68.325 22.191866
68.330 21.967176
68.335 21.146372
68.340 20.888248
68.345 20.57682
68.350 20.651989
68.355 20.685278
68.360 20.700247
68.365 20.548185
68.370 20.487078
68.375 20.217806
68.380 20.099735
68.385 20.320358
68.390 20.629978
68.395 20.617241
68.400 20.3696
68.405 20.331444
68.410 20.888884
68.415 20.910353
68.420 20.746155
68.425 20.738152
68.430 21.07999
68.435 21.42164
68.440 21.327339
68.445 20.698164
68.450 20.276217
68.455 20.023369
68.460 20.168715
68.465 20.357567
68.470 20.506046
68.475 20.961697
68.480 21.200432
68.485 21.782446
68.490 23.046175
68.495 22.896517
68.500 22.340225
68.505 22.05842
68.510 22.190788
68.515 22.891241
68.520 22.774616
68.525 21.387329
68.530 21.340752
68.535 22.094656
68.540 21.857695
68.545 21.323458
68.550 20.654743
68.555 20.607363
68.560 20.771925
68.565 20.688652
68.570 20.545525
68.575 21.318922
68.580 21.284256
68.585 21.085602
68.590 21.293512
68.595 21.66432
68.600 21.396391
68.605 21.29953
68.610 21.554943
68.615 21.773073
68.620 21.84667
68.625 21.827602
68.630 22.327766
68.635 22.481485
68.640 22.307217
68.645 21.809774
68.650 21.646441
68.655 21.661915
68.660 21.073799
68.665 20.397272
68.670 20.897976
68.675 20.886646
68.680 20.83205
68.685 20.950832
68.690 21.456656
68.695 21.850275
68.700 21.244522
68.705 21.227385
68.710 21.795546
68.715 22.21344
68.720 22.079597
68.725 21.578003
68.730 21.559484
68.735 22.189823
68.740 22.209318
68.745 21.573643
68.750 21.238239
68.755 21.226503
68.760 21.46199
68.765 22.090349
68.770 22.494917
68.775 22.083374
68.780 22.64772
68.785 23.003849
68.790 23.280703
68.795 23.380795
68.800 22.856161
68.805 22.421658
68.810 23.024004
68.815 23.097168
68.820 22.671633
68.825 22.560444
68.830 22.622438
68.835 23.276817
68.840 23.158119
68.845 22.980946
68.850 22.915279
68.855 22.996956
68.860 23.187204
68.865 24.107389
68.870 24.355604
68.875 24.815643
68.880 25.191811
68.885 24.946182
68.890 25.248173
68.895 25.572193
68.900 24.441927
68.905 24.219309
68.910 24.026474
68.915 24.186911
68.920 24.080435
68.925 23.788347
68.930 22.74254
68.935 23.185852
68.940 23.691442
68.945 23.118267
68.950 22.073921
68.955 21.830641
68.960 22.100216
68.965 22.045853
68.970 21.667097
68.975 21.188644
68.980 21.709183
68.985 22.70932
68.990 23.610008
68.995 24.028776
69.000 24.277342
69.005 24.482935
69.010 24.228767
69.015 23.547836
69.020 22.971157
69.025 22.521488
69.030 22.262712
69.035 22.250635
69.040 21.978048
69.045 22.840057
69.050 24.184498
69.055 24.928358
69.060 25.263248
69.065 25.129951
69.070 25.573137
69.075 25.960957
69.080 25.68096
69.085 25.493374
69.090 25.225502
69.095 25.411634
69.100 25.91856
69.105 26.022923
69.110 26.240992
69.115 25.925161
69.120 25.745579
69.125 26.000546
69.130 26.187729
69.135 26.053915
69.140 26.708168
69.145 26.653326
69.150 26.896173
69.155 26.894314
69.160 26.374809
69.165 26.598795
69.170 26.361589
69.175 25.510202
69.180 25.493738
69.185 25.817307
69.190 25.816519
69.195 26.085943
69.200 25.911608
69.205 26.096357
69.210 26.80525
69.215 27.384096
69.220 27.701963
69.225 28.03459
69.230 28.232847
69.235 27.921173
69.240 27.868015
69.245 28.249109
69.250 28.145185
69.255 27.653725
69.260 27.922852
69.265 28.470024
69.270 28.344288
69.275 28.867332
69.280 28.203203
69.285 28.277142
69.290 28.448715
69.295 27.802309
69.300 27.593393
69.305 27.817001
69.310 28.034939
69.315 28.067202
69.320 27.924316
69.325 27.895573
69.330 28.335377
69.335 28.804653
69.340 29.282389
69.345 30.325432
69.350 31.132236
69.355 31.497646
69.360 31.608969
69.365 31.188667
69.370 31.260811
69.375 30.934713
69.380 29.783333
69.385 29.019077
69.390 28.542782
69.395 29.235899
69.400 29.299557
69.405 29.267319
69.410 29.473082
69.415 29.882334
69.420 30.389759
69.425 30.730625
69.430 30.852221
69.435 31.277979
69.440 31.003992
69.445 31.044146
69.450 30.931852
69.455 30.85148
69.460 30.434925
69.465 30.045887
69.470 29.935501
69.475 29.837187
69.480 29.877239
69.485 30.177839
69.490 29.835625
69.495 29.492218
69.500 29.719137
69.505 29.504274
69.510 29.105658
69.515 28.49766
69.520 27.994087
69.525 28.881165
69.530 29.315382
69.535 29.43786
69.540 29.779263
69.545 29.445728
69.550 30.26169
69.555 31.01442
69.560 30.802937
69.565 30.84889
69.570 31.393785
69.575 33.709751
69.580 34.8312
69.585 34.933231
69.590 34.214699
69.595 34.006023
69.600 33.594238
69.605 32.958164
69.610 31.724739
69.615 30.595959
69.620 29.923845
69.625 29.826046
69.630 29.884567
69.635 30.035767
69.640 29.513742
69.645 29.192728
69.650 29.872099
69.655 29.708746
69.660 30.342241
69.665 30.042351
69.670 29.744911
69.675 29.632732
69.680 30.260155
69.685 31.20985
69.690 31.532379
69.695 31.29855
69.700 31.23704
69.705 31.201305
69.710 31.483603
69.715 30.18421
69.720 29.882933
69.725 29.364283
69.730 28.713053
69.735 28.784966
69.740 28.512108
69.745 28.493191
69.750 28.516241
69.755 27.964167
69.760 28.443836
69.765 28.785894
69.770 28.723265
69.775 28.485062
69.780 27.792341
69.785 27.959488
69.790 28.099964
69.795 28.011353
69.800 27.666105
69.805 27.896702
69.810 28.209124
69.815 28.932138
69.820 28.460741
69.825 28.450251
69.830 28.072161
69.835 27.980415
69.840 27.345953
69.845 26.727299
69.850 26.248831
69.855 26.390245
69.860 25.338766
69.865 24.949594
69.870 24.608971
69.875 24.569124
69.880 25.029411
69.885 25.011976
69.890 24.848045
69.895 24.964214
69.900 25.080002
69.905 25.335518
69.910 25.798676
69.915 25.22308
69.920 25.281134
69.925 24.955584
69.930 25.496574
69.935 25.851572
69.940 25.24699
69.945 25.537539
69.950 25.50453
69.955 24.771442
69.960 24.594084
69.965 24.078119
69.970 24.338699
69.975 24.164293
69.980 23.358683
69.985 23.275028
69.990 23.593479
69.995 23.68771
70.000 23.64917
70.005 23.644262
70.010 23.590269
70.015 23.332336
70.020 23.179434
70.025 23.077765
70.030 22.628414
70.035 21.481237
70.040 20.873255
70.045 20.606874
70.050 20.469383
70.055 20.544991
70.060 20.7244
70.065 20.400301
70.070 20.789927
70.075 20.700315
70.080 21.037937
70.085 21.493933
70.090 21.289679
70.095 21.572252
70.100 22.619621
70.105 22.799902
70.110 23.115463
70.115 23.44393
70.120 23.289013
70.125 23.986887
70.130 23.712112
70.135 23.172132
70.140 23.12966
70.145 22.934587
70.150 23.016758
70.155 22.814936
70.160 22.516176
70.165 22.325144
70.170 22.519962
70.175 22.128199
70.180 21.555273
70.185 20.731663
70.190 20.634754
70.195 19.745289
70.200 19.670452
70.205 19.298296
70.210 19.555256
70.215 19.999413
70.220 19.835022
70.225 19.70466
70.230 19.71489
70.235 19.8433
70.240 20.656948
70.245 20.791782
70.250 21.185123
70.255 21.600451
70.260 21.889914
70.265 22.476233
70.270 22.357628
70.275 22.089781
70.280 21.454107
70.285 21.008631
70.290 20.711823
70.295 20.735859
70.300 20.333569
70.305 19.709711
70.310 19.694061
70.315 20.502649
70.320 20.929457
70.325 21.465206
70.330 21.648291
70.335 21.784533
70.340 22.15888
70.345 22.255869
70.350 21.839828
70.355 21.024912
70.360 20.715584
70.365 20.810543
70.370 20.928865
70.375 20.238108
70.380 19.917923
70.385 20.183395
70.390 20.825163
70.395 20.945545
70.400 21.000881
70.405 21.456764
70.410 21.372324
70.415 21.572182
70.420 21.72106
70.425 21.764204
70.430 21.965887
70.435 22.259769
70.440 22.253036
70.445 22.704235
70.450 22.259542
70.455 21.80863
70.460 20.693918
70.465 20.484871
70.470 20.123993
70.475 20.03108
70.480 19.880009
70.485 19.832607
70.490 20.132689
70.495 20.828829
70.500 21.339418
70.505 21.796488
70.510 21.92252
70.515 22.534672
70.520 23.145859
70.525 23.232773
70.530 22.897266
70.535 21.761406
70.540 21.665411
70.545 21.50775
70.550 20.511408
70.555 20.15983
70.560 19.915226
70.565 20.293573
70.570 20.265076
70.575 19.523108
70.580 19.367962
70.585 19.920027
70.590 20.112906
70.595 20.543106
70.600 20.273159
70.605 19.921209
70.610 20.280573
70.615 20.499037
70.620 20.20842
70.625 19.889194
70.630 19.317965
70.635 19.7227
70.640 20.055588
70.645 19.66893
70.650 20.066803
70.655 20.106485
70.660 20.223133
70.665 20.16433
70.670 19.670073
70.675 19.795746
70.680 19.439108
70.685 19.095905
70.690 19.690811
70.695 19.12487
70.700 19.10857
70.705 19.635187
70.710 20.014849
70.715 20.765671
70.720 21.222637
70.725 21.685772
70.730 22.145706
70.735 22.158941
70.740 21.475044
70.745 21.181416
70.750 20.03005
70.755 18.894188
70.760 18.168776
70.765 18.059713
70.770 18.012856
70.775 18.276918
70.780 18.798859
70.785 19.574921
70.790 19.710392
70.795 19.651573
70.800 19.704554
70.805 19.713778
70.810 19.265591
70.815 19.097347
70.820 19.767838
70.825 21.120125
70.830 20.772757
70.835 20.564741
70.840 20.813745
70.845 20.823782
70.850 20.716961
70.855 20.135899
70.860 19.564388
70.865 19.923485
70.870 20.410013
70.875 20.307884
70.880 20.415958
70.885 20.594566
70.890 20.062885
70.895 20.222607
70.900 20.312435
70.905 20.2183
70.910 20.61356
70.915 20.468008
70.920 19.93539
70.925 19.450905
70.930 19.678963
70.935 19.871817
70.940 19.376387
70.945 19.105886
70.950 19.124786
70.955 19.427753
70.960 19.565773
70.965 19.182669
70.970 19.31123
70.975 19.417847
70.980 19.37587
70.985 19.156366
70.990 18.856264
70.995 18.628967
71.000 18.648026
71.005 18.221569
71.010 18.016226
71.015 18.109564
71.020 18.477499
71.025 18.4046
71.030 18.773102
71.035 19.379251
71.040 20.314281
71.045 20.336563
71.050 20.826361
71.055 20.86632
71.060 21.025623
71.065 20.475466
71.070 19.722546
71.075 19.399862
71.080 19.18894
71.085 18.70557
71.090 18.186298
71.095 18.202959
71.100 18.664349
71.105 18.736629
71.110 19.124159
71.115 19.192287
71.120 19.185085
71.125 19.890614
71.130 20.385675
71.135 20.207577
71.140 20.485706
71.145 20.134174
71.150 20.017786
71.155 19.706858
71.160 19.702282
71.165 20.023129
71.170 20.114573
71.175 20.071316
71.180 19.790325
71.185 19.941916
71.190 20.24684
71.195 19.784489
71.200 19.349941
71.205 18.982414
71.210 19.101265
71.215 19.884666
71.220 19.853155
71.225 19.968353
71.230 20.158379
71.235 20.046141
71.240 20.051891
71.245 20.319002
71.250 20.349495
71.255 20.89654
71.260 20.312744
71.265 20.158289
71.270 20.535402
71.275 20.647953
71.280 19.730192
71.285 19.325764
71.290 19.163698
71.295 19.887697
71.300 19.417013
71.305 19.04245
71.310 19.030939
71.315 19.10076
71.320 19.058619
71.325 18.511772
71.330 18.691742
71.335 18.752686
71.340 18.499544
71.345 18.761311
71.350 18.989395
71.355 19.211258
71.360 19.800701
71.365 20.320812
71.370 20.649681
71.375 21.161818
71.380 21.315693
71.385 20.796604
71.390 20.316441
71.395 19.98242
71.400 19.466265
71.405 19.091385
71.410 18.469887
71.415 19.003651
71.420 19.865858
71.425 20.147379
71.430 19.88357
71.435 20.173227
71.440 20.581232
71.445 20.557661
71.450 20.400537
71.455 20.062206
71.460 20.466831
71.465 20.279846
71.470 19.792051
71.475 19.407396
71.480 18.94586
71.485 18.939331
71.490 18.62845
71.495 18.294079
71.500 18.232197
71.505 17.982822
71.510 17.736282
71.515 17.99082
71.520 17.660969
71.525 17.721319
71.530 17.818302
71.535 18.203064
71.540 18.334866
71.545 18.923075
71.550 19.270218
71.555 18.988569
71.560 18.661154
71.565 18.43568
71.570 18.664129
71.575 18.5933
71.580 18.113083
71.585 18.062469
71.590 18.411537
71.595 18.928684
71.600 19.159264
71.605 19.294043
71.610 19.835108
71.615 19.400902
71.620 19.370743
71.625 19.752748
71.630 19.691137
71.635 18.997517
71.640 19.302216
71.645 19.714891
71.650 20.158361
71.655 19.874338
71.660 19.340628
71.665 18.996056
71.670 18.976103
71.675 18.325958
71.680 17.423458
71.685 17.650312
71.690 17.789783
71.695 18.143761
71.700 18.197233
71.705 18.617392
71.710 19.473198
71.715 19.98988
71.720 19.86458
71.725 19.82859
71.730 19.850914
71.735 20.141058
71.740 19.669918
71.745 19.428543
71.750 19.119089
71.755 19.212944
71.760 19.17709
71.765 19.422132
71.770 19.559744
71.775 19.489431
71.780 19.275509
71.785 19.303144
71.790 19.767883
71.795 19.807772
71.800 19.598785
71.805 19.540907
71.810 19.528667
71.815 19.249851
71.820 19.439581
71.825 19.036274
71.830 18.757915
71.835 18.684032
71.840 18.830704
71.845 19.146486
71.850 19.130716
71.855 18.615171
71.860 18.977615
71.865 19.244152
71.870 19.458628
71.875 20.465025
71.880 20.718756
71.885 20.731756
71.890 20.750351
71.895 20.001402
71.900 20.090101
71.905 19.898273
71.910 18.868145
71.915 18.741144
71.920 18.621323
71.925 19.546494
71.930 20.242222
71.935 19.863323
71.940 19.939999
71.945 19.931795
71.950 20.228271
71.955 20.140631
71.960 19.587332
71.965 19.248339
71.970 19.286997
71.975 18.290117
71.980 18.424805
71.985 18.861444
71.990 18.462715
71.995 18.59646
72.000 19.157104
72.005 19.786589
72.010 20.266779
72.015 19.968369
72.020 20.024343
72.025 20.060146
72.030 19.686428
72.035 19.649759
72.040 19.056507
72.045 18.94861
72.050 18.766481
72.055 18.686338
72.060 18.894054
72.065 18.256994
72.070 17.627592
72.075 17.807873
72.080 17.872494
72.085 18.471828
72.090 19.076138
72.095 19.313112
72.100 19.768808
72.105 20.836916
72.110 20.775917
72.115 20.873819
72.120 20.562647
72.125 19.7337
72.130 19.69343
72.135 19.675125
72.140 19.358418
72.145 19.126312
72.150 18.520237
72.155 18.629829
72.160 18.95927
72.165 18.62117
72.170 17.53908
72.175 17.259829
72.180 17.270144
72.185 17.720743
72.190 17.966658
72.195 17.7232
72.200 17.639292
72.205 18.030907
72.210 18.286201
72.215 18.34594
72.220 18.071646
72.225 18.452223
72.230 18.553698
72.235 19.122145
72.240 19.117434
72.245 19.645275
72.250 20.11516
72.255 19.796034
72.260 19.127392
72.265 19.528538
72.270 19.90061
72.275 20.217094
72.280 20.105124
72.285 19.803782
72.290 20.216413
72.295 20.484709
72.300 20.406183
72.305 19.665651
72.310 18.604414
72.315 18.037088
72.320 17.739836
72.325 17.445112
72.330 17.512817
72.335 17.916023
72.340 18.13603
72.345 19.056273
72.350 19.907953
72.355 20.105436
72.360 20.140034
72.365 20.13172
72.370 19.722504
72.375 20.038528
72.380 19.581244
72.385 19.039055
72.390 18.538404
72.395 17.864014
72.400 17.687859
72.405 17.956137
72.410 17.975874
72.415 18.134148
72.420 17.670935
72.425 17.850101
72.430 17.855377
72.435 17.857592
72.440 17.363722
72.445 17.27346
72.450 17.409168
72.455 17.467087
72.460 16.9342
72.465 16.602037
72.470 16.778994
72.475 16.831188
72.480 16.898462
72.485 16.806808
72.490 17.335491
72.495 17.493565
72.500 17.334352
72.505 17.698408
72.510 17.778276
72.515 17.573751
72.520 17.309093
72.525 17.032902
72.530 17.907673
72.535 17.82457
72.540 17.257038
72.545 17.375128
72.550 17.771103
72.555 18.683672
72.560 18.889154
72.565 18.527597
72.570 18.484722
72.575 18.915268
72.580 19.319515
72.585 19.396244
72.590 18.604286
72.595 18.495678
72.600 18.925533
72.605 19.394411
72.610 18.375385
72.615 17.767696
72.620 18.20652
72.625 18.919703
72.630 18.936844
72.635 18.318855
72.640 18.119675
72.645 18.176474
72.650 18.362383
72.655 18.201296
72.660 18.468193
72.665 18.425966
72.670 18.475855
72.675 18.222874
72.680 18.23406
72.685 18.117498
72.690 18.264137
72.695 18.099077
72.700 17.95768
72.705 17.799034
72.710 18.50906
72.715 18.41523
72.720 17.8811
72.725 17.462551
72.730 17.074095
72.735 17.47665
72.740 18.205151
72.745 18.027584
72.750 18.354771
72.755 18.891146
72.760 18.89036
72.765 19.770247
72.770 19.332636
72.775 18.777992
72.780 18.797632
72.785 18.494434
72.790 18.637741
72.795 18.588017
72.800 18.593298
72.805 18.865662
72.810 19.318132
72.815 19.204641
72.820 19.513927
72.825 19.934978
72.830 19.879801
72.835 19.662903
72.840 19.402174
72.845 19.079536
72.850 18.778757
72.855 18.082394
72.860 16.673939
72.865 16.267353
72.870 16.197645
72.875 15.611506
72.880 15.784348
72.885 15.947845
72.890 16.158318
72.895 16.896259
72.900 16.996929
72.905 17.251143
72.910 17.364166
72.915 16.785711
72.920 16.600397
72.925 16.651348
72.930 16.493475
72.935 16.928917
72.940 17.480461
72.945 17.85656
72.950 18.534103
72.955 18.468216
72.960 18.285807
72.965 17.861694
72.970 17.2743
72.975 16.805845
72.980 16.645542
72.985 16.164795
72.990 16.466665
72.995 16.435041
73.000 16.391256
