!@!!GADDS PLOTSO FILE: Chi integration type
!@!!Title/SampleName: map-14a
!@!!Comment: ?
!@!!User: Bruker Instrument Administrator
!@!!Site: University of Illinois Chicago
!@!!Frame: map-14a_01_000.gfrm
!@!!Wavelengths    1.54184   1.54056   1.54439
!@!!Frame angles: 2Theta: 63.000 Omega: 50.000 Phi: 0.000 Chi: 90.000
!@!!Integration range: 2Theta: 53.000 to 73.000  Gamma: -105.000 to -75.000
!@!!Integration method: bin normalized
!@!N
!@!SS
!@!M
!@!L 0.0 0.0 0.0 0.0
!@!XDegrees
!@!YCounts
53.000 9.852266
53.005 9.448415
53.010 9.290738
53.015 9.322505
53.020 9.103566
53.025 9.245488
53.030 9.030477
53.035 8.962284
53.040 9.21586
53.045 9.405149
53.050 9.272997
53.055 8.695129
53.060 8.367119
53.065 8.698586
53.070 9.048221
53.075 9.504077
53.080 9.473741
53.085 9.713319
53.090 10.342248
53.095 10.362856
53.100 10.295564
53.105 9.789185
53.110 9.629875
53.115 9.390416
53.120 9.387361
53.125 8.83641
53.130 8.692101
53.135 8.481352
53.140 8.610348
53.145 8.711938
53.150 8.958172
53.155 8.820322
53.160 8.982477
53.165 8.83147
53.170 8.785485
53.175 8.77458
53.180 8.478709
53.185 7.833818
53.190 7.731761
53.195 7.78383
53.200 8.370135
53.205 8.421574
53.210 8.648042
53.215 9.047039
53.220 9.624049
53.225 9.88657
53.230 9.635309
53.235 9.043939
53.240 9.365479
53.245 9.337855
53.250 9.607958
53.255 9.399624
53.260 9.566168
53.265 9.807775
53.270 9.865054
53.275 9.665993
53.280 9.176163
53.285 9.126894
53.290 8.981387
53.295 8.879694
53.300 9.054252
53.305 9.057891
53.310 8.905112
53.315 8.842501
53.320 8.895293
53.325 9.100194
53.330 9.293491
53.335 9.380931
53.340 9.22448
53.345 9.597962
53.350 9.260137
53.355 9.15021
53.360 9.247386
53.365 8.796137
53.370 8.565145
53.375 8.255247
53.380 8.240296
53.385 8.729974
53.390 8.374212
53.395 8.232855
53.400 8.431328
53.405 8.850312
53.410 9.127799
53.415 9.134722
53.420 9.220964
53.425 9.45302
53.430 10.112159
53.435 10.256138
53.440 10.225735
53.445 10.462022
53.450 10.300549
53.455 10.521031
53.460 10.227996
53.465 9.589386
53.470 9.276811
53.475 8.923573
53.480 8.901598
53.485 9.280527
53.490 9.095518
53.495 9.210928
53.500 9.328465
53.505 9.541303
53.510 9.674333
53.515 9.232415
53.520 8.724446
53.525 8.951341
53.530 9.10702
53.535 9.366831
53.540 9.385948
53.545 9.388423
53.550 9.384065
53.555 9.503265
53.560 9.393371
53.565 9.551524
53.570 9.391557
53.575 9.454494
53.580 9.550424
53.585 9.654636
53.590 9.636682
53.595 9.571746
53.600 9.274454
53.605 9.370988
53.610 9.045064
53.615 9.435124
53.620 9.888667
53.625 10.087265
53.630 9.957533
53.635 9.985241
53.640 9.982436
53.645 10.164039
53.650 9.581422
53.655 9.133795
53.660 8.955893
53.665 8.900017
53.670 8.627737
53.675 8.785423
53.680 9.015642
53.685 8.891128
53.690 8.823984
53.695 9.424643
53.700 10.102169
53.705 10.160057
53.710 10.059281
53.715 9.976433
53.720 10.543718
53.725 10.398087
53.730 9.77773
53.735 9.342303
53.740 9.477
53.745 9.54353
53.750 9.60035
53.755 9.336475
53.760 9.353367
53.765 9.752213
53.770 9.49398
53.775 9.488618
53.780 9.371797
53.785 9.954022
53.790 10.456882
53.795 10.630828
53.800 10.956357
53.805 11.108994
53.810 11.387537
53.815 11.398238
53.820 10.907483
53.825 11.070506
53.830 10.980169
53.835 11.092505
53.840 10.973417
53.845 10.826349
53.850 10.983016
53.855 11.159247
53.860 11.205352
53.865 11.385288
53.870 10.790214
53.875 10.609375
53.880 10.375583
53.885 9.939534
53.890 9.918655
53.895 9.551034
53.900 9.434964
53.905 9.692743
53.910 9.60086
53.915 9.77556
53.920 9.752824
53.925 9.778753
53.930 10.327468
53.935 10.310182
53.940 10.352701
53.945 10.383757
53.950 10.220922
53.955 10.319112
53.960 9.820673
53.965 9.496662
53.970 9.661274
53.975 9.81189
53.980 9.811647
53.985 9.822908
53.990 9.504672
53.995 9.142433
54.000 9.076492
54.005 9.183106
54.010 8.895162
54.015 8.905568
54.020 9.08469
54.025 9.468985
54.030 9.874581
54.035 9.583012
54.040 9.921942
54.045 10.746692
54.050 11.434816
54.055 11.499804
54.060 11.134891
54.065 11.083417
54.070 11.364102
54.075 11.023631
54.080 10.978858
54.085 10.733722
54.090 10.53293
54.095 10.555931
54.100 10.627363
54.105 10.507402
54.110 10.711539
54.115 10.111848
54.120 10.153303
54.125 10.551623
54.130 10.88479
54.135 10.858184
54.140 10.677227
54.145 10.562695
54.150 10.507496
54.155 10.654298
54.160 10.279578
54.165 9.59037
54.170 9.437674
54.175 9.463362
54.180 9.815265
54.185 9.706791
54.190 9.536942
54.195 9.889933
54.200 10.26143
54.205 10.238025
54.210 9.6099
54.215 9.174818
54.220 9.036238
54.225 8.692464
54.230 8.358173
54.235 8.347496
54.240 8.454404
54.245 9.067945
54.250 9.49171
54.255 9.638789
54.260 9.805084
54.265 10.116158
54.270 9.757437
54.275 9.628441
54.280 8.927152
54.285 8.721851
54.290 9.027973
54.295 9.140516
54.300 9.141412
54.305 9.283739
54.310 9.523397
54.315 9.718222
54.320 9.563337
54.325 9.582837
54.330 9.130569
54.335 9.277437
54.340 9.265897
54.345 9.449129
54.350 9.915706
54.355 9.847861
54.360 9.840574
54.365 10.297683
54.370 10.325334
54.375 9.987565
54.380 9.880926
54.385 9.910963
54.390 10.085696
54.395 9.688666
54.400 9.646882
54.405 10.022277
54.410 10.426373
54.415 10.05505
54.420 9.776946
54.425 9.952788
54.430 10.405457
54.435 10.331163
54.440 9.998803
54.445 9.585414
54.450 9.605702
54.455 9.604969
54.460 9.319123
54.465 8.836466
54.470 8.896807
54.475 9.193915
54.480 9.127897
54.485 8.916749
54.490 9.085715
54.495 9.302764
54.500 9.682464
54.505 9.341107
54.510 9.15728
54.515 9.593209
54.520 9.779567
54.525 9.523243
54.530 9.529114
54.535 9.303401
54.540 9.859225
54.545 9.88891
54.550 9.985733
54.555 9.973245
54.560 10.244063
54.565 10.16648
54.570 10.27926
54.575 9.99548
54.580 10.229571
54.585 10.068512
54.590 10.006543
54.595 10.364129
54.600 10.338985
54.605 10.108097
54.610 9.904089
54.615 9.612022
54.620 9.583265
54.625 9.607635
54.630 9.21844
54.635 9.18294
54.640 9.916142
54.645 10.38314
54.650 10.439017
54.655 10.636704
54.660 10.379628
54.665 10.45118
54.670 10.3949
54.675 9.541585
54.680 9.26209
54.685 9.126706
54.690 9.219871
54.695 9.464856
54.700 9.53384
54.705 9.548675
54.710 9.568529
54.715 9.874559
54.720 9.96946
54.725 9.750521
54.730 9.530185
54.735 9.335839
54.740 9.549792
54.745 9.558125
54.750 9.698221
54.755 9.715759
54.760 9.722916
54.765 10.086136
54.770 10.404117
54.775 10.364697
54.780 10.385247
54.785 10.386805
54.790 10.301902
54.795 10.201695
54.800 10.141628
54.805 9.706164
54.810 10.14606
54.815 10.10361
54.820 10.064078
54.825 10.008705
54.830 10.044496
54.835 9.982101
54.840 9.553124
54.845 9.127414
54.850 9.170451
54.855 9.140618
54.860 9.460237
54.865 9.790092
54.870 10.02535
54.875 10.585869
54.880 10.300474
54.885 10.279567
54.890 10.32294
54.895 10.463511
54.900 10.504996
54.905 10.468351
54.910 10.408082
54.915 10.823539
54.920 11.084105
54.925 11.016306
54.930 10.972378
54.935 10.991637
54.940 10.859081
54.945 11.023918
54.950 11.08712
54.955 10.755546
54.960 10.765883
54.965 10.576237
54.970 10.576623
54.975 11.250473
54.980 11.52546
54.985 11.866806
54.990 12.379812
54.995 12.701612
55.000 12.225892
55.005 11.813527
55.010 11.257383
55.015 11.01843
55.020 10.73447
55.025 10.835417
55.030 10.827993
55.035 11.233971
55.040 11.134883
55.045 10.951515
55.050 10.800653
55.055 10.501378
55.060 10.015378
55.065 9.527529
55.070 9.854581
55.075 10.456175
55.080 10.659415
55.085 10.835506
55.090 10.778867
55.095 11.114225
55.100 11.576255
55.105 11.121843
55.110 10.813667
55.115 10.902765
55.120 11.326315
55.125 11.393229
55.130 11.178199
55.135 11.13201
55.140 11.197381
55.145 11.14169
55.150 10.634838
55.155 10.362961
55.160 10.436048
55.165 10.285875
55.170 10.553404
55.175 11.113884
55.180 11.512773
55.185 11.873632
55.190 11.968188
55.195 11.819869
55.200 12.092841
55.205 11.593261
55.210 11.088111
55.215 10.925713
55.220 10.347631
55.225 10.196141
55.230 10.227296
55.235 10.081205
55.240 10.146437
55.245 9.828957
55.250 10.043777
55.255 10.298035
55.260 10.387856
55.265 10.533001
55.270 10.473023
55.275 10.96017
55.280 11.302436
55.285 10.954209
55.290 10.458346
55.295 10.426118
55.300 10.499928
55.305 10.09253
55.310 9.699409
55.315 9.74136
55.320 9.364988
55.325 9.988355
55.330 9.886548
55.335 9.722178
55.340 9.916145
55.345 9.798905
55.350 9.843081
55.355 10.245562
55.360 10.121227
55.365 9.910188
55.370 9.928654
55.375 9.916165
55.380 9.912681
55.385 9.841246
55.390 9.856384
55.395 9.75607
55.400 9.662982
55.405 9.68884
55.410 9.847209
55.415 9.764903
55.420 9.840985
55.425 9.674756
55.430 9.697657
55.435 9.546307
55.440 9.367545
55.445 9.086541
55.450 9.182161
55.455 9.221042
55.460 9.001504
55.465 9.802126
55.470 10.446553
55.475 10.648258
55.480 10.457738
55.485 10.24397
55.490 10.645411
55.495 10.699717
55.500 10.13975
55.505 9.947933
55.510 10.432328
55.515 10.704781
55.520 10.831281
55.525 10.694454
55.530 10.713013
55.535 11.001083
55.540 10.869376
55.545 10.52698
55.550 10.794756
55.555 10.656303
55.560 10.466882
55.565 10.289739
55.570 9.692215
55.575 9.417717
55.580 9.219707
55.585 9.650619
55.590 9.844792
55.595 9.549807
55.600 9.553241
55.605 9.720192
55.610 9.915017
55.615 9.851781
55.620 9.013209
55.625 8.955855
55.630 8.956272
55.635 8.723756
55.640 8.681316
55.645 9.070556
55.650 9.496191
55.655 9.902045
55.660 9.751042
55.665 9.840361
55.670 9.681861
55.675 9.448728
55.680 9.043082
55.685 8.928005
55.690 9.125818
55.695 9.326507
55.700 10.038393
55.705 10.453981
55.710 10.670806
55.715 10.9031
55.720 10.788998
55.725 11.038383
55.730 11.22463
55.735 10.961748
55.740 11.074282
55.745 11.153977
55.750 10.777373
55.755 10.834332
55.760 10.360067
55.765 9.89908
55.770 9.41929
55.775 9.060179
55.780 9.264215
55.785 9.31965
55.790 9.187134
55.795 9.052222
55.800 9.484748
55.805 9.939259
55.810 10.076824
55.815 10.338247
55.820 10.310116
55.825 10.57842
55.830 10.689605
55.835 10.554216
55.840 10.534167
55.845 10.313001
55.850 9.988407
55.855 9.978727
55.860 9.945563
55.865 9.874727
55.870 9.969949
55.875 9.751204
55.880 9.74968
55.885 9.991287
55.890 9.913995
55.895 9.413915
55.900 9.731454
55.905 9.839315
55.910 10.623176
55.915 10.592035
55.920 10.36727
55.925 10.376838
55.930 10.798516
55.935 10.522612
55.940 10.604254
55.945 9.827235
55.950 9.7525
55.955 9.934223
55.960 9.992944
55.965 9.946037
55.970 9.620621
55.975 9.421877
55.980 9.852965
55.985 9.9653
55.990 10.138908
55.995 10.596504
56.000 10.960983
56.005 11.204739
56.010 10.968157
56.015 11.125206
56.020 11.203614
56.025 11.173316
56.030 11.067221
56.035 11.29685
56.040 11.323543
56.045 11.66413
56.050 11.831035
56.055 11.524982
56.060 11.624617
56.065 11.568686
56.070 11.332069
56.075 11.505642
56.080 11.416448
56.085 11.280983
56.090 11.445932
56.095 11.609684
56.100 11.546031
56.105 11.535085
56.110 11.189218
56.115 11.124031
56.120 11.11687
56.125 10.592576
56.130 9.92616
56.135 9.929654
56.140 9.954799
56.145 10.137097
56.150 9.893492
56.155 10.032903
56.160 10.358745
56.165 10.595874
56.170 10.445701
56.175 10.108304
56.180 9.798786
56.185 9.711663
56.190 9.953835
56.195 9.855397
56.200 9.761646
56.205 9.685907
56.210 9.945114
56.215 10.473055
56.220 10.678552
56.225 10.715045
56.230 10.594638
56.235 10.471478
56.240 10.643517
56.245 10.616159
56.250 10.092334
56.255 9.762997
56.260 9.486014
56.265 9.589647
56.270 9.358706
56.275 9.412862
56.280 9.239242
56.285 9.60992
56.290 9.684134
56.295 9.712428
56.300 9.684618
56.305 9.69154
56.310 9.490887
56.315 9.438792
56.320 9.244121
56.325 8.984794
56.330 9.077991
56.335 9.408991
56.340 9.79138
56.345 10.180825
56.350 10.275311
56.355 10.621316
56.360 10.658491
56.365 10.9004
56.370 11.02227
56.375 11.109243
56.380 10.902534
56.385 10.7822
56.390 10.489038
56.395 10.599493
56.400 10.62004
56.405 10.739487
56.410 11.023488
56.415 11.063635
56.420 10.925874
56.425 11.253389
56.430 11.297583
56.435 11.387083
56.440 10.651421
56.445 10.32694
56.450 10.773812
56.455 11.227719
56.460 11.623569
56.465 11.789581
56.470 11.655309
56.475 12.263695
56.480 12.637699
56.485 12.16201
56.490 12.502526
56.495 12.708323
56.500 12.741901
56.505 12.832353
56.510 12.63499
56.515 12.557182
56.520 12.810936
56.525 12.532861
56.530 12.34111
56.535 11.587766
56.540 11.311304
56.545 11.486215
56.550 11.538074
56.555 11.505957
56.560 11.121907
56.565 11.087554
56.570 11.440613
56.575 11.334914
56.580 10.87566
56.585 11.02421
56.590 11.171385
56.595 11.117136
56.600 11.129395
56.605 11.196816
56.610 11.403218
56.615 11.433311
56.620 11.043096
56.625 10.890466
56.630 10.895724
56.635 10.699559
56.640 10.812509
56.645 10.853029
56.650 11.115646
56.655 11.506458
56.660 12.163384
56.665 12.094175
56.670 12.429015
56.675 12.543126
56.680 12.244966
56.685 12.094357
56.690 11.955921
56.695 12.329123
56.700 12.096285
56.705 11.517331
56.710 11.324658
56.715 11.400664
56.720 11.414943
56.725 11.233508
56.730 10.612265
56.735 10.96002
56.740 11.046529
56.745 10.865751
56.750 11.214897
56.755 11.136219
56.760 11.152994
56.765 10.894203
56.770 10.611728
56.775 10.501517
56.780 10.409432
56.785 10.056409
56.790 10.111587
56.795 9.555003
56.800 9.281631
56.805 9.850794
56.810 10.157387
56.815 10.526617
56.820 10.477544
56.825 10.418444
56.830 11.206586
56.835 11.589918
56.840 11.261208
56.845 11.087146
56.850 10.952341
56.855 10.903618
56.860 10.790312
56.865 10.614267
56.870 10.695648
56.875 10.702592
56.880 10.810955
56.885 10.578009
56.890 10.553912
56.895 10.531886
56.900 10.175808
56.905 10.196109
56.910 10.222189
56.915 10.041917
56.920 10.415477
56.925 10.661534
56.930 11.081068
56.935 11.698883
56.940 11.561423
56.945 11.224348
56.950 11.083158
56.955 10.732698
56.960 10.289214
56.965 9.797153
56.970 9.139261
56.975 9.67184
56.980 10.20636
56.985 10.383677
56.990 10.296129
56.995 10.587244
57.000 11.122637
57.005 11.495367
57.010 11.1238
57.015 11.084548
57.020 11.400599
57.025 11.511193
57.030 11.435776
57.035 11.148391
57.040 11.632379
57.045 11.859861
57.050 12.075026
57.055 11.89878
57.060 11.845867
57.065 11.680335
57.070 11.691547
57.075 10.570298
57.080 10.193059
57.085 9.81685
57.090 9.893493
57.095 9.623908
57.100 9.532744
57.105 9.428951
57.110 9.309967
57.115 9.157825
57.120 9.164948
57.125 9.24146
57.130 9.247082
57.135 9.254663
57.140 9.309691
57.145 9.673201
57.150 9.962172
57.155 10.075957
57.160 10.402449
57.165 10.464551
57.170 10.248637
57.175 9.757145
57.180 9.603715
57.185 9.359256
57.190 9.635508
57.195 9.76099
57.200 10.143501
57.205 10.577763
57.210 10.839006
57.215 10.789452
57.220 10.537869
57.225 10.31523
57.230 10.397171
57.235 10.653666
57.240 10.624405
57.245 10.811835
57.250 10.854497
57.255 10.692001
57.260 10.3093
57.265 9.656716
57.270 8.954313
57.275 9.286997
57.280 9.255875
57.285 9.422632
57.290 9.411687
57.295 9.448229
57.300 9.979746
57.305 10.184735
57.310 10.203104
57.315 10.604382
57.320 10.968195
57.325 10.705543
57.330 10.713162
57.335 10.72149
57.340 10.849913
57.345 10.604099
57.350 10.102245
57.355 9.468645
57.360 9.698988
57.365 9.936188
57.370 9.95273
57.375 9.872688
57.380 10.172763
57.385 10.36445
57.390 11.074747
57.395 11.252197
57.400 10.848861
57.405 10.349817
57.410 9.676208
57.415 9.060605
57.420 9.16966
57.425 8.740093
57.430 8.786116
57.435 8.966615
57.440 9.126419
57.445 9.4937
57.450 9.857502
57.455 9.994494
57.460 10.374439
57.465 10.36522
57.470 10.187995
57.475 10.246946
57.480 10.485028
57.485 10.422711
57.490 10.237183
57.495 9.73969
57.500 9.80804
57.505 10.064472
57.510 9.861975
57.515 9.575061
57.520 9.328272
57.525 9.083696
57.530 9.343078
57.535 9.670795
57.540 9.789876
57.545 10.372804
57.550 10.72837
57.555 10.958369
57.560 11.22674
57.565 11.172836
57.570 10.729937
57.575 10.501026
57.580 10.296249
57.585 9.946689
57.590 9.968805
57.595 10.138274
57.600 10.549336
57.605 11.018369
57.610 11.069776
57.615 10.767171
57.620 10.978853
57.625 11.190532
57.630 10.222541
57.635 9.796404
57.640 10.032131
57.645 10.087428
57.650 10.082249
57.655 9.901623
57.660 10.143591
57.665 11.05115
57.670 10.820524
57.675 10.395001
57.680 10.27447
57.685 10.626854
57.690 10.655405
57.695 10.218442
57.700 9.863431
57.705 10.338922
57.710 10.437099
57.715 10.672112
57.720 10.805429
57.725 11.471393
57.730 12.376884
57.735 12.504229
57.740 11.71896
57.745 11.435184
57.750 11.276858
57.755 10.818197
57.760 10.044597
57.765 9.347013
57.770 9.310601
57.775 9.302463
57.780 9.766919
57.785 9.935198
57.790 9.677489
57.795 9.87377
57.800 9.894945
57.805 10.24922
57.810 10.540694
57.815 10.280452
57.820 10.120877
57.825 9.793837
57.830 9.93334
57.835 9.539194
57.840 8.989669
57.845 9.16048
57.850 9.220049
57.855 9.969007
57.860 10.606689
57.865 10.403958
57.870 11.203208
57.875 11.668166
57.880 11.625296
57.885 11.516746
57.890 11.080091
57.895 10.926711
57.900 11.025665
57.905 10.949462
57.910 10.498278
57.915 10.376291
57.920 10.30128
57.925 10.228302
57.930 10.406785
57.935 10.335811
57.940 10.252382
57.945 10.462573
57.950 10.312527
57.955 10.38685
57.960 10.461102
57.965 10.573483
57.970 10.343554
57.975 10.057118
57.980 10.037291
57.985 10.046234
57.990 10.176684
57.995 10.655359
58.000 10.709011
58.005 10.60288
58.010 10.607806
58.015 10.613381
58.020 10.817126
58.025 10.86161
58.030 10.14796
58.035 9.893204
58.040 10.509924
58.045 10.995118
58.050 11.266269
58.055 11.365922
58.060 10.979401
58.065 11.312083
58.070 11.771963
58.075 11.488113
58.080 11.083086
58.085 10.796899
58.090 10.449778
58.095 10.603098
58.100 10.401724
58.105 10.126307
58.110 9.643521
58.115 9.956256
58.120 10.221158
58.125 10.486269
58.130 10.271176
58.135 10.519127
58.140 10.801801
58.145 10.91547
58.150 10.63706
58.155 10.345593
58.160 10.596018
58.165 10.879975
58.170 10.54476
58.175 10.266742
58.180 10.53166
58.185 10.378322
58.190 10.682384
58.195 10.749236
58.200 10.714084
58.205 10.982501
58.210 10.956861
58.215 10.950379
58.220 11.464232
58.225 11.212089
58.230 10.861613
58.235 10.892267
58.240 10.660016
58.245 11.019382
58.250 10.946008
58.255 11.054331
58.260 11.383639
58.265 11.03231
58.270 10.527042
58.275 10.172731
58.280 10.313464
58.285 10.486565
58.290 9.596137
58.295 9.179691
58.300 9.80701
58.305 10.370365
58.310 10.519054
58.315 9.869199
58.320 9.362901
58.325 9.747766
58.330 9.66608
58.335 9.416975
58.340 9.612782
58.345 10.249513
58.350 10.528378
58.355 10.703543
58.360 10.485094
58.365 10.642878
58.370 10.51519
58.375 10.672037
58.380 10.267308
58.385 10.388563
58.390 10.870858
58.395 11.172945
58.400 11.416639
58.405 11.555913
58.410 11.457955
58.415 11.220312
58.420 11.191236
58.425 11.246684
58.430 11.576257
58.435 11.316669
58.440 10.382483
58.445 9.992002
58.450 10.348827
58.455 10.238866
58.460 10.131615
58.465 9.860435
58.470 10.505507
58.475 11.158635
58.480 11.526064
58.485 11.730484
58.490 11.996658
58.495 11.858193
58.500 11.775498
58.505 11.738758
58.510 11.860357
58.515 11.696544
58.520 11.438317
58.525 11.36902
58.530 11.321719
58.535 11.430757
58.540 11.156931
58.545 10.83166
58.550 10.913796
58.555 10.967231
58.560 10.559175
58.565 10.699255
58.570 10.62467
58.575 10.789508
58.580 11.325339
58.585 10.924207
58.590 10.950445
58.595 11.413886
58.600 12.347659
58.605 12.478613
58.610 12.054533
58.615 11.757771
58.620 12.230213
58.625 12.365036
58.630 12.0737
58.635 11.364852
58.640 11.465889
58.645 11.81836
58.650 12.24767
58.655 12.132149
58.660 12.070186
58.665 11.905374
58.670 11.646214
58.675 11.653358
58.680 11.569345
58.685 11.252037
58.690 11.485929
58.695 11.825708
58.700 12.023376
58.705 11.996924
58.710 12.191715
58.715 12.479443
58.720 12.780179
58.725 12.665437
58.730 12.391918
58.735 12.566645
58.740 12.954691
58.745 12.992209
58.750 12.633993
58.755 12.052262
58.760 11.855939
58.765 11.87262
58.770 11.798896
58.775 11.63819
58.780 11.471035
58.785 11.469261
58.790 11.683163
58.795 11.738987
58.800 11.483567
58.805 11.209699
58.810 11.002954
58.815 11.021458
58.820 10.964351
58.825 10.931991
58.830 10.957499
58.835 10.736228
58.840 10.150982
58.845 10.322481
58.850 10.456375
58.855 10.575293
58.860 10.804839
58.865 10.643582
58.870 11.320292
58.875 11.557691
58.880 11.301987
58.885 10.999838
58.890 10.786764
58.895 10.874879
58.900 11.05738
58.905 10.776069
58.910 11.138178
58.915 11.271729
58.920 11.649813
58.925 11.984958
58.930 11.823792
58.935 11.877214
58.940 11.416315
58.945 10.892768
58.950 10.455812
58.955 10.295886
58.960 10.15899
58.965 10.240156
58.970 10.447095
58.975 11.222538
58.980 11.570185
58.985 11.843818
58.990 11.847127
58.995 12.263009
59.000 12.140432
59.005 12.585375
59.010 13.198019
59.015 14.224755
59.020 14.556844
59.025 14.478102
59.030 14.487776
59.035 14.256511
59.040 13.633905
59.045 12.757974
59.050 11.640332
59.055 11.573941
59.060 11.378679
59.065 11.134964
59.070 11.22879
59.075 10.959939
59.080 11.152994
59.085 11.441783
59.090 11.623059
59.095 11.857899
59.100 11.911888
59.105 11.710658
59.110 12.171705
59.115 12.521029
59.120 12.254884
59.125 11.632339
59.130 11.51917
59.135 11.602297
59.140 11.853114
59.145 11.876069
59.150 11.529701
59.155 11.83166
59.160 12.473887
59.165 12.394588
59.170 12.14467
59.175 11.946447
59.180 11.596548
59.185 11.244558
59.190 10.811321
59.195 10.180482
59.200 10.016108
59.205 10.19231
59.210 10.434274
59.215 10.15402
59.220 10.372747
59.225 11.145986
59.230 11.639262
59.235 11.607617
59.240 11.593736
59.245 11.297788
59.250 11.427964
59.255 11.073252
59.260 10.412153
59.265 10.153931
59.270 10.371241
59.275 10.575971
59.280 10.720039
59.285 10.799459
59.290 11.034515
59.295 11.395635
59.300 11.466064
59.305 11.343709
59.310 11.360533
59.315 11.445325
59.320 11.977
59.325 11.950237
59.330 11.933813
59.335 12.168189
59.340 12.187368
59.345 11.839039
59.350 11.319806
59.355 10.59772
59.360 10.652463
59.365 10.512418
59.370 10.186854
59.375 10.240176
59.380 10.443917
59.385 10.692013
59.390 11.374307
59.395 11.640596
59.400 11.654335
59.405 11.71122
59.410 11.58476
59.415 11.773161
59.420 11.778248
59.425 11.096725
59.430 10.73288
59.435 10.601354
59.440 10.450254
59.445 10.584712
59.450 10.664507
59.455 10.842108
59.460 11.489153
59.465 11.575766
59.470 11.520658
59.475 11.611315
59.480 11.531639
59.485 11.696536
59.490 11.646572
59.495 11.351231
59.500 11.597873
59.505 11.978819
59.510 12.436638
59.515 12.136302
59.520 11.647936
59.525 11.634906
59.530 11.351139
59.535 11.320971
59.540 11.227071
59.545 11.095252
59.550 11.291172
59.555 11.194594
59.560 10.775812
59.565 10.688494
59.570 10.34022
59.575 10.147231
59.580 9.772356
59.585 9.819121
59.590 10.143049
59.595 10.593788
59.600 10.557632
59.605 10.939151
59.610 11.125158
59.615 11.062305
59.620 11.076646
59.625 11.472607
59.630 11.879303
59.635 12.157418
59.640 12.099862
59.645 11.745655
59.650 12.252946
59.655 12.518531
59.660 12.264038
59.665 12.006213
59.670 12.017772
59.675 12.069152
59.680 12.199062
59.685 11.86012
59.690 11.934248
59.695 12.054493
59.700 12.69478
59.705 12.805274
59.710 13.261508
59.715 13.172406
59.720 13.285523
59.725 13.159869
59.730 12.860923
59.735 12.134678
59.740 11.807544
59.745 11.907833
59.750 12.352288
59.755 11.979258
59.760 11.859948
59.765 12.220984
59.770 12.288589
59.775 12.353978
59.780 12.023026
59.785 11.573296
59.790 11.961404
59.795 12.268272
59.800 12.208776
59.805 12.316464
59.810 11.891177
59.815 11.503517
59.820 11.458431
59.825 11.476799
59.830 11.023526
59.835 10.947413
59.840 10.93646
59.845 11.237996
59.850 11.638062
59.855 11.869308
59.860 11.459553
59.865 11.220943
59.870 11.039581
59.875 11.390094
59.880 11.436097
59.885 11.085339
59.890 10.919915
59.895 11.435821
59.900 12.066002
59.905 12.691828
59.910 12.718041
59.915 12.923458
59.920 13.136461
59.925 13.112974
59.930 13.021696
59.935 12.564113
59.940 12.052881
59.945 11.835837
59.950 11.748203
59.955 11.495068
59.960 11.784059
59.965 11.507665
59.970 11.399506
59.975 11.093723
59.980 10.477926
59.985 10.273061
59.990 10.554296
59.995 10.437725
60.000 10.215012
60.005 10.422294
60.010 10.745675
60.015 10.942095
60.020 11.191913
60.025 11.313511
60.030 11.618624
60.035 11.704321
60.040 12.103418
60.045 12.183085
60.050 12.357446
60.055 12.257809
60.060 11.655299
60.065 11.191147
60.070 11.215508
60.075 11.069686
60.080 11.318605
60.085 11.251996
60.090 11.442209
60.095 11.695754
60.100 11.642167
60.105 11.562489
60.110 11.028691
60.115 10.715485
60.120 10.636268
60.125 11.037602
60.130 11.348033
60.135 11.407299
60.140 11.308661
60.145 11.570778
60.150 11.744552
60.155 11.815434
60.160 11.447228
60.165 10.840431
60.170 10.92709
60.175 11.097356
60.180 11.34171
60.185 11.170525
60.190 11.150394
60.195 11.478722
60.200 12.262541
60.205 12.476915
60.210 12.441984
60.215 12.200058
60.220 11.647298
60.225 12.005284
60.230 11.883155
60.235 12.047809
60.240 12.172386
60.245 12.261398
60.250 12.28457
60.255 12.763323
60.260 12.417045
60.265 12.28033
60.270 11.747657
60.275 11.043491
60.280 10.776423
60.285 11.074542
60.290 11.081053
60.295 10.677326
60.300 10.312398
60.305 10.174515
60.310 10.610657
60.315 10.784536
60.320 10.219504
60.325 10.298794
60.330 11.014812
60.335 10.869896
60.340 10.970041
60.345 11.46063
60.350 11.775531
60.355 11.96144
60.360 11.648629
60.365 11.477699
60.370 11.63547
60.375 11.491272
60.380 11.163029
60.385 10.767535
60.390 10.792671
60.395 10.899175
60.400 10.542731
60.405 10.547175
60.410 10.755384
60.415 10.764157
60.420 10.659108
60.425 10.502991
60.430 10.686077
60.435 10.892622
60.440 10.894604
60.445 10.540127
60.450 10.28209
60.455 10.635682
60.460 10.727722
60.465 10.911951
60.470 11.014468
60.475 11.772495
60.480 11.898519
60.485 12.021102
60.490 12.130888
60.495 12.232555
60.500 11.572373
60.505 11.421124
60.510 10.799778
60.515 10.930957
60.520 11.230555
60.525 10.616579
60.530 10.379964
60.535 10.384009
60.540 10.141992
60.545 9.992671
60.550 10.169195
60.555 9.924392
60.560 10.561987
60.565 10.739216
60.570 11.026605
60.575 10.876045
60.580 10.661142
60.585 10.523211
60.590 10.683764
60.595 10.914124
60.600 11.178199
60.605 11.221953
60.610 11.512731
60.615 12.02253
60.620 12.023897
60.625 11.884068
60.630 11.337686
60.635 11.032704
60.640 11.342487
60.645 11.738929
60.650 11.740709
60.655 11.900272
60.660 11.742532
60.665 11.911923
60.670 11.657026
60.675 11.539713
60.680 11.247195
60.685 10.663641
60.690 10.497318
60.695 10.910125
60.700 11.178516
60.705 11.190601
60.710 10.668751
60.715 10.315227
60.720 10.41381
60.725 10.009665
60.730 9.454906
60.735 9.358452
60.740 9.570372
60.745 9.954472
60.750 10.211835
60.755 9.777998
60.760 10.19257
60.765 10.627267
60.770 10.635465
60.775 10.256174
60.780 10.298146
60.785 10.649511
60.790 11.269816
60.795 11.316614
60.800 11.023095
60.805 10.778648
60.810 10.819059
60.815 10.67455
60.820 10.180323
60.825 10.277264
60.830 9.926991
60.835 9.825628
60.840 9.91689
60.845 10.023861
60.850 10.435925
60.855 10.60347
60.860 10.845026
60.865 11.288995
60.870 11.55059
60.875 11.582082
60.880 11.570176
60.885 11.053596
60.890 11.043447
60.895 10.863417
60.900 10.560229
60.905 10.639595
60.910 10.719623
60.915 10.936525
60.920 11.398058
60.925 11.221342
60.930 11.138341
60.935 11.216105
60.940 10.975149
60.945 10.806665
60.950 10.87842
60.955 10.696252
60.960 10.59328
60.965 10.474936
60.970 10.007458
60.975 9.7521
60.980 9.855973
60.985 9.227424
60.990 9.144597
60.995 9.218949
61.000 9.511305
61.005 9.760139
61.010 10.089629
61.015 9.957466
61.020 10.566829
61.025 11.008698
61.030 11.126123
61.035 11.295005
61.040 11.300529
61.045 11.30557
61.050 11.278778
61.055 11.028046
61.060 10.937681
61.065 10.889641
61.070 10.704
61.075 10.744137
61.080 11.082037
61.085 11.36309
61.090 11.764811
61.095 11.866033
61.100 11.833582
61.105 11.648951
61.110 11.639292
61.115 11.325831
61.120 11.208389
61.125 10.983865
61.130 10.686049
61.135 10.59661
61.140 10.81149
61.145 10.406903
61.150 10.333729
61.155 10.336742
61.160 10.085218
61.165 9.880944
61.170 9.563532
61.175 9.199042
61.180 9.304269
61.185 9.359079
61.190 9.142482
61.195 9.745845
61.200 10.304454
61.205 10.727317
61.210 11.109884
61.215 11.650093
61.220 11.814115
61.225 11.824005
61.230 11.263545
61.235 10.842448
61.240 10.780418
61.245 10.945265
61.250 10.588585
61.255 10.519752
61.260 10.649278
61.265 11.086658
61.270 11.00942
61.275 10.560465
61.280 10.465653
61.285 10.153747
61.290 9.807674
61.295 9.305053
61.300 8.657971
61.305 9.272902
61.310 9.338166
61.315 9.291067
61.320 9.856794
61.325 10.486014
61.330 10.626682
61.335 10.713028
61.340 10.27769
61.345 10.080021
61.350 9.814842
61.355 9.454367
61.360 9.377951
61.365 9.912685
61.370 10.288206
61.375 10.734373
61.380 11.156294
61.385 11.545929
61.390 11.771179
61.395 11.07532
61.400 10.950373
61.405 11.004402
61.410 11.172292
61.415 11.422955
61.420 11.30544
61.425 11.508848
61.430 11.937678
61.435 11.747077
61.440 11.61842
61.445 11.184236
61.450 11.091624
61.455 11.105845
61.460 10.808189
61.465 11.203431
61.470 11.556273
61.475 11.534554
61.480 11.493975
61.485 11.34008
61.490 11.334428
61.495 11.161667
61.500 10.845072
61.505 10.869659
61.510 10.874825
61.515 11.082758
61.520 11.043064
61.525 11.129737
61.530 11.195287
61.535 10.829331
61.540 10.524832
61.545 10.603281
61.550 10.522536
61.555 10.529537
61.560 10.5293
61.565 10.334068
61.570 10.670864
61.575 10.871299
61.580 10.695795
61.585 10.751536
61.590 10.847405
61.595 11.116157
61.600 11.51783
61.605 11.614883
61.610 11.804039
61.615 11.775105
61.620 11.9467
61.625 11.964035
61.630 11.725883
61.635 11.617044
61.640 11.288228
61.645 10.731196
61.650 10.541861
61.655 10.024352
61.660 9.699944
61.665 9.833635
61.670 9.497109
61.675 9.69609
61.680 9.924118
61.685 10.21884
61.690 10.602203
61.695 10.865742
61.700 10.835554
61.705 11.297497
61.710 11.614017
61.715 11.614276
61.720 11.036529
61.725 10.627527
61.730 10.430358
61.735 10.274473
61.740 9.886682
61.745 9.693961
61.750 10.109816
61.755 10.497965
61.760 10.963947
61.765 11.059546
61.770 10.924235
61.775 11.143637
61.780 11.122799
61.785 10.67591
61.790 10.991639
61.795 10.84995
61.800 10.948054
61.805 11.39158
61.810 11.914572
61.815 11.914583
61.820 11.964096
61.825 11.719337
61.830 11.593608
61.835 11.407763
61.840 11.553087
61.845 11.37968
61.850 11.722705
61.855 11.962255
61.860 12.012061
61.865 12.636573
61.870 13.15733
61.875 12.958352
61.880 12.496875
61.885 12.026015
61.890 12.354009
61.895 12.18556
61.900 11.548875
61.905 11.46139
61.910 11.496505
61.915 11.640763
61.920 11.640331
61.925 11.312623
61.930 11.681834
61.935 12.258154
61.940 12.183533
61.945 12.041858
61.950 11.745283
61.955 11.900899
61.960 11.602004
61.965 10.987184
61.970 11.022582
61.975 11.110919
61.980 11.297219
61.985 11.25458
61.990 11.201168
61.995 11.302779
62.000 11.780054
62.005 11.465755
62.010 11.198339
62.015 11.07338
62.020 11.524245
62.025 11.718099
62.030 11.625749
62.035 11.338537
62.040 11.045588
62.045 11.668862
62.050 12.035388
62.055 11.653603
62.060 11.56178
62.065 11.510057
62.070 11.32523
62.075 11.275973
62.080 10.645032
62.085 11.055217
62.090 11.605467
62.095 11.796873
62.100 11.807191
62.105 11.638385
62.110 11.70804
62.115 11.769132
62.120 11.194876
62.125 11.099254
62.130 11.291883
62.135 12.390899
62.140 13.121766
62.145 13.62022
62.150 13.943119
62.155 14.300563
62.160 14.033873
62.165 13.921224
62.170 13.149934
62.175 12.741681
62.180 12.217368
62.185 11.895332
62.190 11.659616
62.195 11.705709
62.200 11.341787
62.205 11.564393
62.210 11.831038
62.215 11.910634
62.220 11.886576
62.225 11.706305
62.230 11.903262
62.235 12.153939
62.240 12.215457
62.245 12.044589
62.250 11.757721
62.255 11.611367
62.260 11.381335
62.265 11.214289
62.270 11.359686
62.275 11.191756
62.280 10.712937
62.285 11.101045
62.290 11.285237
62.295 11.84403
62.300 11.731011
62.305 11.58512
62.310 11.311145
62.315 11.676892
62.320 11.596519
62.325 11.274222
62.330 10.812219
62.335 10.505877
62.340 10.817651
62.345 10.980024
62.350 10.686446
62.355 10.523545
62.360 10.509476
62.365 10.749001
62.370 10.998503
62.375 10.718888
62.380 10.614255
62.385 10.717211
62.390 10.642209
62.395 10.866712
62.400 10.611622
62.405 10.220018
62.410 9.93492
62.415 10.126296
62.420 10.545063
62.425 10.884014
62.430 10.883428
62.435 11.251928
62.440 11.5076
62.445 11.853103
62.450 11.935697
62.455 11.934069
62.460 12.078759
62.465 11.957122
62.470 11.860394
62.475 11.678841
62.480 12.253204
62.485 12.125243
62.490 11.740791
62.495 11.607542
62.500 12.205169
62.505 12.128276
62.510 11.977288
62.515 11.363352
62.520 11.675926
62.525 12.475703
62.530 12.798078
62.535 12.401694
62.540 12.637809
62.545 12.951346
62.550 13.514488
62.555 13.584579
62.560 13.117456
62.565 12.85853
62.570 12.923774
62.575 12.96172
62.580 12.507895
62.585 11.512232
62.590 10.800389
62.595 10.445331
62.600 10.207873
62.605 9.950957
62.610 9.232133
62.615 9.488446
62.620 10.193954
62.625 10.636369
62.630 10.639433
62.635 10.756114
62.640 10.899376
62.645 11.527327
62.650 11.934727
62.655 11.707326
62.660 12.134745
62.665 12.246727
62.670 12.442719
62.675 12.948668
62.680 13.174814
62.685 13.095154
62.690 13.109735
62.695 12.719365
62.700 12.626525
62.705 12.546291
62.710 12.465136
62.715 12.034153
62.720 12.072517
62.725 11.882277
62.730 11.92528
62.735 11.963918
62.740 11.830265
62.745 12.193974
62.750 12.193871
62.755 12.330901
62.760 13.077697
62.765 13.358876
62.770 13.358201
62.775 13.436367
62.780 13.149328
62.785 13.215334
62.790 12.842155
62.795 12.374254
62.800 12.043796
62.805 12.358263
62.810 12.28722
62.815 12.402476
62.820 12.840351
62.825 13.305853
62.830 13.295186
62.835 13.494187
62.840 13.192879
62.845 13.071815
62.850 12.821299
62.855 12.221937
62.860 11.84868
62.865 12.034512
62.870 12.201303
62.875 12.338309
62.880 12.374372
62.885 12.786018
62.890 12.949132
62.895 13.081396
62.900 12.289386
62.905 11.872621
62.910 11.73793
62.915 11.452131
62.920 11.060569
62.925 10.541317
62.930 10.753051
62.935 11.213239
62.940 11.317288
62.945 11.496804
62.950 11.674065
62.955 11.676389
62.960 11.838712
62.965 11.377174
62.970 11.14808
62.975 11.605841
62.980 11.534039
62.985 11.767968
62.990 12.245398
62.995 12.336289
63.000 12.551848
63.005 12.785242
63.010 12.613553
63.015 12.398632
63.020 11.828796
63.025 11.893126
63.030 11.983005
63.035 11.963627
63.040 11.819914
63.045 11.515842
63.050 11.94019
63.055 11.673898
63.060 11.263051
63.065 10.90268
63.070 10.880503
63.075 10.522603
63.080 10.661426
63.085 10.615364
63.090 11.047822
63.095 11.062072
63.100 11.107612
63.105 11.15155
63.110 11.293397
63.115 11.604716
63.120 11.232166
63.125 10.922999
63.130 10.85877
63.135 10.616382
63.140 10.408485
63.145 10.517632
63.150 9.893049
63.155 9.962024
63.160 10.070693
63.165 10.36243
63.170 10.828742
63.175 11.605052
63.180 12.226917
63.185 12.443913
63.190 12.711547
63.195 12.834682
63.200 13.012473
63.205 12.951569
63.210 12.390436
63.215 11.461091
63.220 10.949605
63.225 10.615462
63.230 10.431325
63.235 10.396152
63.240 10.681109
63.245 10.685358
63.250 11.065466
63.255 11.529199
63.260 12.024488
63.265 11.909471
63.270 11.776634
63.275 11.436709
63.280 11.808449
63.285 12.344574
63.290 12.064984
63.295 11.711062
63.300 11.650949
63.305 12.028867
63.310 12.450871
63.315 11.754149
63.320 11.332644
63.325 11.506381
63.330 11.334477
63.335 11.511105
63.340 11.075117
63.345 10.746323
63.350 10.736537
63.355 11.020871
63.360 11.571305
63.365 12.749189
63.370 13.399281
63.375 13.442114
63.380 13.355614
63.385 13.623795
63.390 13.438298
63.395 12.595676
63.400 11.59817
63.405 10.747104
63.410 10.641919
63.415 10.778574
63.420 10.985089
63.425 11.17112
63.430 12.017269
63.435 12.263224
63.440 12.09858
63.445 11.941716
63.450 11.985123
63.455 12.032112
63.460 11.758854
63.465 11.688631
63.470 12.132263
63.475 12.791876
63.480 13.161791
63.485 13.328699
63.490 12.956432
63.495 13.156122
63.500 12.965492
63.505 12.974545
63.510 13.161759
63.515 13.067439
63.520 13.014979
63.525 13.272243
63.530 13.206729
63.535 13.576705
63.540 13.070043
63.545 12.501033
63.550 12.089719
63.555 11.71284
63.560 11.189486
63.565 11.170307
63.570 10.622537
63.575 10.689519
63.580 10.930582
63.585 10.851191
63.590 10.916497
63.595 11.230352
63.600 10.878617
63.605 10.930976
63.610 11.042747
63.615 10.89954
63.620 11.137855
63.625 11.058324
63.630 10.765129
63.635 10.668928
63.640 10.504938
63.645 10.077866
63.650 9.967962
63.655 9.942122
63.660 10.317174
63.665 11.000128
63.670 11.27519
63.675 11.415846
63.680 11.988351
63.685 12.635844
63.690 12.977517
63.695 12.905011
63.700 12.468561
63.705 12.022542
63.710 11.715922
63.715 11.176506
63.720 10.748874
63.725 10.632132
63.730 10.748709
63.735 11.246987
63.740 11.939641
63.745 12.402473
63.750 12.138204
63.755 12.06954
63.760 11.731047
63.765 11.440059
63.770 11.155737
63.775 10.938896
63.780 10.800728
63.785 11.179553
63.790 11.527958
63.795 11.914226
63.800 11.942801
63.805 11.954269
63.810 12.078473
63.815 12.411931
63.820 12.269896
63.825 11.834298
63.830 11.775837
63.835 11.813364
63.840 11.863529
63.845 11.650702
63.850 11.69255
63.855 11.853336
63.860 11.974523
63.865 12.004494
63.870 11.850465
63.875 11.68776
63.880 11.862823
63.885 11.543487
63.890 11.917289
63.895 11.636302
63.900 11.359767
63.905 11.686493
63.910 11.892091
63.915 12.183034
63.920 12.334723
63.925 11.962939
63.930 12.209819
63.935 12.331833
63.940 11.742327
63.945 11.684095
63.950 11.297414
63.955 11.3975
63.960 11.918334
63.965 12.08095
63.970 12.461325
63.975 12.752092
63.980 12.615122
63.985 12.781931
63.990 12.957678
63.995 12.285293
64.000 12.422194
64.005 12.77133
64.010 12.5914
64.015 12.244323
64.020 11.625366
64.025 11.080112
64.030 11.32034
64.035 10.601427
64.040 10.043641
64.045 10.440896
64.050 10.810752
64.055 11.256666
64.060 11.466791
64.065 11.699042
64.070 12.007127
64.075 12.393524
64.080 12.412249
64.085 12.330202
64.090 11.902981
64.095 11.522745
64.100 11.406884
64.105 11.648758
64.110 11.354842
64.115 11.324047
64.120 11.010566
64.125 11.031335
64.130 11.37836
64.135 11.462059
64.140 11.686365
64.145 12.019921
64.150 11.900096
64.155 12.311293
64.160 12.483273
64.165 12.628595
64.170 12.149654
64.175 11.604266
64.180 11.277957
64.185 11.238406
64.190 10.930696
64.195 11.084975
64.200 11.109035
64.205 11.343224
64.210 11.572263
64.215 11.405107
64.220 11.511173
64.225 11.826774
64.230 12.148399
64.235 12.243358
64.240 12.333855
64.245 12.232962
64.250 12.426714
64.255 12.501332
64.260 12.601547
64.265 12.179954
64.270 11.573223
64.275 11.201506
64.280 10.885814
64.285 10.501088
64.290 10.505935
64.295 10.062019
64.300 10.070951
64.305 10.188622
64.310 10.897668
64.315 11.625161
64.320 11.766808
64.325 11.807014
64.330 12.203019
64.335 12.354882
64.340 13.043722
64.345 12.66939
64.350 12.606483
64.355 12.48746
64.360 12.88939
64.365 12.901541
64.370 12.585887
64.375 12.29826
64.380 12.567963
64.385 12.653297
64.390 12.788597
64.395 12.630211
64.400 13.068986
64.405 13.484367
64.410 13.55894
64.415 13.274009
64.420 13.071019
64.425 13.114916
64.430 12.949082
64.435 12.853749
64.440 13.254245
64.445 13.462689
64.450 13.529685
64.455 14.161396
64.460 14.857195
64.465 15.153939
64.470 14.616439
64.475 14.358434
64.480 14.235069
64.485 14.338104
64.490 13.673498
64.495 13.426526
64.500 13.759783
64.505 13.64242
64.510 13.840103
64.515 13.913585
64.520 13.593114
64.525 13.761618
64.530 13.428572
64.535 13.008527
64.540 13.302049
64.545 13.206295
64.550 13.327418
64.555 13.967126
64.560 14.03745
64.565 13.928537
64.570 13.889082
64.575 13.588166
64.580 13.376925
64.585 13.062415
64.590 12.565878
64.595 12.367822
64.600 12.521627
64.605 12.292935
64.610 12.27491
64.615 11.941139
64.620 12.397753
64.625 12.332831
64.630 12.341024
64.635 11.975486
64.640 12.262414
64.645 12.458514
64.650 12.983997
64.655 12.563376
64.660 13.048141
64.665 13.717904
64.670 14.14459
64.675 13.904367
64.680 14.071766
64.685 13.944563
64.690 13.510869
64.695 13.027007
64.700 12.967791
64.705 13.2134
64.710 13.737607
64.715 14.360864
64.720 14.556023
64.725 15.092972
64.730 15.148421
64.735 14.950968
64.740 14.542951
64.745 15.034142
64.750 14.776679
64.755 14.551449
64.760 14.632794
64.765 14.778855
64.770 14.894411
64.775 14.574586
64.780 13.580765
64.785 13.342947
64.790 13.875014
64.795 13.694479
64.800 13.278386
64.805 12.862494
64.810 13.198884
64.815 13.6443
64.820 13.745399
64.825 13.16204
64.830 13.463432
64.835 13.965149
64.840 14.153321
64.845 13.977669
64.850 13.681687
64.855 13.40682
64.860 13.345755
64.865 13.068784
64.870 12.714476
64.875 13.24363
64.880 14.25818
64.885 14.454656
64.890 14.140271
64.895 14.744184
64.900 15.20055
64.905 14.94383
64.910 14.705894
64.915 14.654387
64.920 14.922782
64.925 15.604692
64.930 14.956112
64.935 14.823844
64.940 15.450096
64.945 15.297939
64.950 14.471802
64.955 14.158603
64.960 14.636714
64.965 15.224749
64.970 15.659467
64.975 16.214661
64.980 16.514641
64.985 17.017672
64.990 17.902828
64.995 18.119028
65.000 18.174906
65.005 17.920046
65.010 17.596737
65.015 17.808445
65.020 19.063726
65.025 18.820757
65.030 18.623041
65.035 18.600271
65.040 18.408285
65.045 18.094635
65.050 18.015276
65.055 17.170425
65.060 17.336819
65.065 17.286726
65.070 17.450987
65.075 17.741638
65.080 17.936234
65.085 17.671902
65.090 17.324318
65.095 17.468946
65.100 17.443407
65.105 17.291815
65.110 16.948158
65.115 17.05542
65.120 17.406031
65.125 17.568214
65.130 17.841101
65.135 17.529245
65.140 17.376909
65.145 17.71884
65.150 17.373859
65.155 17.023432
65.160 16.542532
65.165 15.899502
65.170 16.267559
65.175 17.040348
65.180 17.023924
65.185 17.013098
65.190 17.235229
65.195 17.205833
65.200 17.75576
65.205 17.476179
65.210 16.520041
65.215 16.240524
65.220 16.818642
65.225 16.914557
65.230 16.803099
65.235 16.474281
65.240 16.161322
65.245 15.789398
65.250 15.619085
65.255 15.002103
65.260 14.890341
65.265 14.556046
65.270 14.15967
65.275 14.535421
65.280 14.440894
65.285 14.281062
65.290 14.298759
65.295 14.312989
65.300 14.505482
65.305 14.176208
65.310 14.158316
65.315 14.86195
65.320 14.769701
65.325 14.520169
65.330 14.198093
65.335 14.335605
65.340 14.745215
65.345 14.399716
65.350 14.581105
65.355 14.945895
65.360 15.283049
65.365 15.506442
65.370 15.283796
65.375 14.60205
65.380 14.257828
65.385 13.461885
65.390 12.896357
65.395 12.466246
65.400 12.287844
65.405 12.572406
65.410 12.824837
65.415 13.463313
65.420 13.884808
65.425 14.072814
65.430 14.198201
65.435 14.668138
65.440 15.051458
65.445 15.355524
65.450 15.322831
65.455 15.20626
65.460 15.420362
65.465 15.330477
65.470 14.88089
65.475 14.815255
65.480 14.359728
65.485 13.735419
65.490 13.679041
65.495 13.69888
65.500 13.792994
65.505 13.670071
65.510 12.757896
65.515 13.238951
65.520 13.861762
65.525 13.733685
65.530 13.660991
65.535 13.610913
65.540 13.964275
65.545 14.143667
65.550 13.847527
65.555 13.700406
65.560 13.948385
65.565 13.816807
65.570 13.661249
65.575 14.075481
65.580 14.914328
65.585 14.888536
65.590 14.87957
65.595 14.308228
65.600 14.639802
65.605 15.19014
65.610 14.791071
65.615 14.266166
65.620 14.582561
65.625 14.373027
65.630 14.671695
65.635 14.29518
65.640 14.03045
65.645 14.292931
65.650 14.756039
65.655 14.644909
65.660 14.871259
65.665 14.962866
65.670 15.332013
65.675 15.265337
65.680 14.97784
65.685 14.725628
65.690 15.013454
65.695 15.091062
65.700 15.214891
65.705 15.03506
65.710 14.959648
65.715 14.862828
65.720 14.712397
65.725 14.820236
65.730 14.932905
65.735 14.438256
65.740 14.192579
65.745 14.148883
65.750 14.007126
65.755 14.013831
65.760 13.624908
65.765 13.727722
65.770 13.768483
65.775 13.891737
65.780 14.016201
65.785 14.303974
65.790 14.732895
65.795 14.934196
65.800 15.001758
65.805 15.305159
65.810 15.605188
65.815 15.758166
65.820 16.075541
65.825 15.956229
65.830 16.009542
65.835 16.279411
65.840 16.27351
65.845 15.817973
65.850 15.824663
65.855 14.970191
65.860 15.237987
65.865 15.528845
65.870 15.577778
65.875 16.140026
65.880 16.890327
65.885 17.157589
65.890 17.770752
65.895 17.618132
65.900 17.969883
65.905 17.673153
65.910 17.190783
65.915 16.714138
65.920 16.372969
65.925 16.160934
65.930 16.190994
65.935 15.98104
65.940 16.245316
65.945 15.8452
65.950 15.91755
65.955 16.337538
65.960 16.275562
65.965 15.870083
65.970 15.359038
65.975 15.681429
65.980 16.442801
65.985 16.502321
65.990 16.406799
65.995 16.417416
66.000 17.166548
66.005 17.396843
66.010 17.011911
66.015 16.64629
66.020 16.770004
66.025 16.70076
66.030 17.221338
66.035 16.550961
66.040 15.906432
66.045 15.709735
66.050 15.825392
66.055 15.395677
66.060 15.569322
66.065 15.899904
66.070 15.592358
66.075 16.060682
66.080 16.613766
66.085 16.91428
66.090 17.503757
66.095 17.418055
66.100 17.373093
66.105 18.220909
66.110 18.693703
66.115 18.553089
66.120 18.411221
66.125 18.027718
66.130 18.026186
66.135 17.834846
66.140 17.193508
66.145 16.633938
66.150 16.555943
66.155 16.511637
66.160 16.395859
66.165 16.032158
66.170 16.032518
66.175 16.517157
66.180 17.066021
66.185 16.802849
66.190 16.565655
66.195 16.399343
66.200 16.627928
66.205 16.698084
66.210 16.562254
66.215 16.490782
66.220 16.932768
66.225 16.940706
66.230 17.364344
66.235 17.63011
66.240 17.377419
66.245 17.002365
66.250 16.938986
66.255 17.104967
66.260 17.388153
66.265 17.336365
66.270 17.191071
66.275 17.005251
66.280 16.999922
66.285 16.614506
66.290 16.298115
66.295 15.896862
66.300 15.506186
66.305 15.940934
66.310 15.978789
66.315 15.887174
66.320 16.05901
66.325 15.955452
66.330 15.948318
66.335 16.080666
66.340 15.385008
66.345 15.172298
66.350 15.277162
66.355 14.888865
66.360 14.783615
66.365 14.75121
66.370 14.690988
66.375 14.620852
66.380 14.475879
66.385 14.061215
66.390 14.401488
66.395 14.474858
66.400 14.293851
66.405 14.157817
66.410 14.97601
66.415 15.179066
66.420 15.439362
66.425 14.938335
66.430 14.691492
66.435 14.773733
66.440 14.534746
66.445 13.810995
66.450 13.772114
66.455 13.982485
66.460 14.287166
66.465 14.424275
66.470 15.187246
66.475 15.205756
66.480 15.132798
66.485 15.130286
66.490 14.782763
66.495 14.987493
66.500 14.77344
66.505 14.34944
66.510 14.329057
66.515 14.307264
66.520 14.30993
66.525 14.628561
66.530 14.609425
66.535 14.780998
66.540 14.698863
66.545 15.045791
66.550 15.082837
66.555 14.88582
66.560 14.569571
66.565 14.553871
66.570 14.78476
66.575 14.744254
66.580 14.056075
66.585 13.419384
66.590 13.402031
66.595 13.385798
66.600 13.113673
66.605 12.984778
66.610 12.768754
66.615 12.815907
66.620 13.094399
66.625 13.161771
66.630 13.408877
66.635 13.457092
66.640 13.265397
66.645 13.246255
66.650 13.660751
66.655 13.381932
66.660 12.857099
66.665 12.301587
66.670 12.02698
66.675 12.207424
66.680 12.52362
66.685 12.449997
66.690 12.971548
66.695 13.515895
66.700 13.950298
66.705 14.033934
66.710 13.504357
66.715 13.324999
66.720 13.474353
66.725 12.758759
66.730 12.006956
66.735 11.364909
66.740 11.156871
66.745 10.984615
66.750 11.201097
66.755 11.161229
66.760 11.597012
66.765 11.88204
66.770 11.996986
66.775 11.960105
66.780 11.913679
66.785 11.441799
66.790 11.529788
66.795 11.381632
66.800 11.39248
66.805 11.599114
66.810 11.846249
66.815 11.851053
66.820 11.99092
66.825 11.586117
66.830 12.062254
66.835 12.388085
66.840 12.226853
66.845 12.026978
66.850 12.326625
66.855 12.238617
66.860 12.761713
66.865 12.463211
66.870 12.032022
66.875 12.246214
66.880 12.544531
66.885 12.509914
66.890 12.621557
66.895 12.469823
66.900 12.337392
66.905 12.420612
66.910 12.677564
66.915 12.236038
66.920 11.894736
66.925 11.889344
66.930 11.570398
66.935 11.400971
66.940 11.598207
66.945 11.553538
66.950 11.565997
66.955 11.369517
66.960 11.105985
66.965 11.331635
66.970 11.680984
66.975 11.532277
66.980 11.725748
66.985 12.196448
66.990 12.946676
66.995 13.141945
67.000 13.030861
67.005 13.503474
67.010 13.342712
67.015 13.110764
67.020 12.874035
67.025 12.470266
67.030 12.515882
67.035 12.350612
67.040 11.830693
67.045 12.178281
67.050 12.288114
67.055 11.9605
67.060 11.920708
67.065 11.591478
67.070 11.455369
67.075 11.099223
67.080 10.709756
67.085 10.800395
67.090 11.14573
67.095 11.275327
67.100 10.846212
67.105 11.155905
67.110 11.503899
67.115 11.721206
67.120 11.82216
67.125 12.099782
67.130 12.001641
67.135 12.149997
67.140 12.239518
67.145 12.256151
67.150 12.215354
67.155 12.016402
67.160 11.961157
67.165 12.443591
67.170 12.922027
67.175 12.88271
67.180 13.223569
67.185 13.281845
67.190 13.374896
67.195 13.417066
67.200 13.062727
67.205 13.015923
67.210 12.675247
67.215 12.903411
67.220 13.121013
67.225 12.673887
67.230 12.531399
67.235 12.343583
67.240 12.501254
67.245 13.07585
67.250 12.86224
67.255 12.912379
67.260 12.432595
67.265 12.40453
67.270 12.596314
67.275 12.43451
67.280 12.12347
67.285 12.256436
67.290 12.331708
67.295 13.213652
67.300 13.361256
67.305 13.532705
67.310 13.828263
67.315 13.359719
67.320 12.65881
67.325 12.356511
67.330 11.807565
67.335 11.553442
67.340 11.234483
67.345 11.710662
67.350 11.94992
67.355 11.875729
67.360 12.319982
67.365 12.542512
67.370 12.418231
67.375 12.303344
67.380 11.745808
67.385 11.891754
67.390 11.786458
67.395 11.676738
67.400 11.940964
67.405 11.93704
67.410 12.208662
67.415 12.029543
67.420 12.311383
67.425 12.553576
67.430 12.426831
67.435 12.330394
67.440 12.639331
67.445 12.046862
67.450 12.354691
67.455 12.220886
67.460 12.102402
67.465 12.048617
67.470 12.454005
67.475 12.303905
67.480 12.466862
67.485 13.029583
67.490 13.013678
67.495 13.296205
67.500 13.543937
67.505 13.168408
67.510 13.565749
67.515 13.677135
67.520 13.588034
67.525 13.295774
67.530 12.963139
67.535 12.728247
67.540 12.555861
67.545 12.359898
67.550 12.087922
67.555 11.615341
67.560 11.516194
67.565 11.648259
67.570 11.935075
67.575 11.782363
67.580 11.653455
67.585 11.639897
67.590 11.980092
67.595 12.354833
67.600 11.882217
67.605 11.350077
67.610 11.536939
67.615 11.749913
67.620 12.040151
67.625 12.033166
67.630 12.327258
67.635 12.577585
67.640 13.120749
67.645 12.810106
67.650 12.611259
67.655 12.173149
67.660 11.594335
67.665 11.144571
67.670 11.093935
67.675 10.963602
67.680 11.665539
67.685 11.879144
67.690 12.285332
67.695 12.460821
67.700 12.632658
67.705 12.941813
67.710 13.356421
67.715 13.423269
67.720 13.891379
67.725 13.913862
67.730 14.382687
67.735 14.368982
67.740 14.160149
67.745 13.519366
67.750 13.167247
67.755 12.560549
67.760 12.258583
67.765 12.260918
67.770 11.912646
67.775 11.795113
67.780 11.498966
67.785 11.072218
67.790 11.566889
67.795 11.47918
67.800 11.706005
67.805 11.762724
67.810 11.681016
67.815 12.402367
67.820 13.143201
67.825 13.031104
67.830 13.451926
67.835 13.077419
67.840 13.291693
67.845 13.685723
67.850 13.288555
67.855 12.976485
67.860 13.181942
67.865 13.183312
67.870 13.214667
67.875 13.481682
67.880 13.688131
67.885 14.024488
67.890 13.891033
67.895 13.662333
67.900 14.105283
67.905 14.208135
67.910 13.977589
67.915 13.565475
67.920 13.750564
67.925 13.865069
67.930 13.862144
67.935 13.613806
67.940 14.0717
67.945 14.069364
67.950 14.067714
67.955 13.915081
67.960 14.157543
67.965 13.726244
67.970 13.747505
67.975 13.394629
67.980 13.661399
67.985 13.831905
67.990 13.588953
67.995 13.184876
68.000 13.384227
68.005 13.177453
68.010 12.796589
68.015 12.456113
68.020 12.289409
68.025 12.105828
68.030 12.27588
68.035 12.086355
68.040 11.574941
68.045 11.477269
68.050 11.543332
68.055 11.56162
68.060 11.444947
68.065 11.506767
68.070 11.607116
68.075 12.471058
68.080 12.666315
68.085 12.379825
68.090 11.997159
68.095 12.456816
68.100 12.368791
68.105 12.342064
68.110 12.205125
68.115 12.554359
68.120 12.733634
68.125 13.462808
68.130 13.66829
68.135 13.636982
68.140 13.714418
68.145 13.391756
68.150 13.324634
68.155 13.682693
68.160 13.492579
68.165 13.289347
68.170 13.344938
68.175 12.914277
68.180 13.035167
68.185 13.08464
68.190 13.34457
68.195 13.194275
68.200 12.914586
68.205 12.816815
68.210 13.24311
68.215 13.263988
68.220 12.738284
68.225 11.781732
68.230 11.537005
68.235 11.869291
68.240 12.029735
68.245 11.642056
68.250 11.623977
68.255 11.779802
68.260 12.017245
68.265 12.021549
68.270 11.542914
68.275 11.440104
68.280 11.429757
68.285 11.138186
68.290 11.660256
68.295 11.636329
68.300 11.367699
68.305 11.418612
68.310 11.509058
68.315 11.781051
68.320 11.849075
68.325 11.299582
68.330 11.194915
68.335 11.993668
68.340 12.327631
68.345 12.464416
68.350 12.275632
68.355 12.897156
68.360 13.056847
68.365 13.108845
68.370 12.984061
68.375 13.079823
68.380 12.999765
68.385 13.212384
68.390 12.688404
68.395 12.840889
68.400 12.964951
68.405 12.559148
68.410 12.431201
68.415 12.100259
68.420 11.759144
68.425 11.92565
68.430 11.4904
68.435 11.263105
68.440 10.966576
68.445 10.426697
68.450 11.053091
68.455 11.386229
68.460 11.387593
68.465 11.585444
68.470 11.30165
68.475 11.671898
68.480 11.822076
68.485 12.001325
68.490 11.632394
68.495 11.400689
68.500 12.127628
68.505 12.822924
68.510 12.759357
68.515 13.043303
68.520 12.902951
68.525 12.716566
68.530 12.811369
68.535 12.303373
68.540 12.112074
68.545 12.213573
68.550 12.070137
68.555 12.122534
68.560 12.336056
68.565 12.308732
68.570 12.777005
68.575 12.697461
68.580 12.870289
68.585 12.728407
68.590 12.978948
68.595 13.439182
68.600 13.929503
68.605 13.994585
68.610 13.956636
68.615 13.743511
68.620 13.515463
68.625 13.233899
68.630 13.143126
68.635 12.672561
68.640 12.448671
68.645 12.542334
68.650 12.856438
68.655 13.29812
68.660 13.33717
68.665 13.429895
68.670 13.255145
68.675 13.01613
68.680 12.580443
68.685 12.250701
68.690 12.123338
68.695 12.288427
68.700 11.922867
68.705 12.26141
68.710 12.230402
68.715 12.474666
68.720 12.747924
68.725 12.905183
68.730 13.187714
68.735 13.637305
68.740 13.302454
68.745 13.540036
68.750 13.299342
68.755 12.993793
68.760 13.230605
68.765 12.982821
68.770 12.603155
68.775 12.810493
68.780 12.84775
68.785 12.976877
68.790 12.977615
68.795 11.97382
68.800 11.485964
68.805 11.644027
68.810 11.738312
68.815 11.645639
68.820 11.914726
68.825 12.252707
68.830 12.54647
68.835 13.041887
68.840 13.189491
68.845 13.306142
68.850 13.429091
68.855 13.253946
68.860 12.968764
68.865 13.581859
68.870 13.723045
68.875 13.571962
68.880 13.496354
68.885 13.52293
68.890 13.330523
68.895 13.458847
68.900 13.202094
68.905 12.987839
68.910 12.593411
68.915 12.503205
68.920 12.832302
68.925 13.413332
68.930 12.851989
68.935 12.915537
68.940 13.156013
68.945 13.00653
68.950 12.955232
68.955 13.067624
68.960 13.019509
68.965 13.190206
68.970 12.97515
68.975 12.627637
68.980 12.754572
68.985 12.856297
68.990 11.906758
68.995 11.789496
69.000 12.025871
69.005 12.592818
69.010 13.362433
69.015 13.756135
69.020 13.893329
69.025 14.443468
69.030 14.401381
69.035 14.771361
69.040 14.659294
69.045 14.63416
69.050 14.485098
69.055 14.513031
69.060 14.397035
69.065 14.175996
69.070 13.908032
69.075 13.594393
69.080 13.403724
69.085 13.571792
69.090 13.433964
69.095 13.577883
69.100 14.044177
69.105 14.215222
69.110 14.456275
69.115 14.636899
69.120 14.759697
69.125 14.860092
69.130 15.315001
69.135 14.949717
69.140 14.530012
69.145 14.026808
69.150 13.82467
69.155 13.531384
69.160 12.942354
69.165 12.740797
69.170 13.035217
69.175 14.152817
69.180 14.885347
69.185 15.149496
69.190 15.545565
69.195 15.646775
69.200 15.018945
69.205 15.066955
69.210 14.418963
69.215 13.949968
69.220 13.514866
69.225 13.662488
69.230 13.756601
69.235 14.394823
69.240 14.099512
69.245 14.477921
69.250 15.076767
69.255 15.205548
69.260 15.332465
69.265 15.142506
69.270 14.773217
69.275 14.41776
69.280 13.694357
69.285 13.142962
69.290 13.411463
69.295 13.165707
69.300 12.982527
69.305 13.230817
69.310 13.713003
69.315 14.315748
69.320 14.192512
69.325 13.878942
69.330 14.340599
69.335 14.844819
69.340 14.700293
69.345 14.77993
69.350 15.229541
69.355 15.38335
69.360 15.623796
69.365 15.178533
69.370 15.161601
69.375 15.313475
69.380 14.890101
69.385 14.849467
69.390 14.825496
69.395 14.384912
69.400 14.760332
69.405 14.450941
69.410 14.624287
69.415 14.688861
69.420 14.454632
69.425 14.479115
69.430 14.656572
69.435 14.50563
69.440 14.413313
69.445 14.323153
69.450 14.386024
69.455 14.846684
69.460 15.103369
69.465 14.990571
69.470 15.018789
69.475 15.309804
69.480 15.212121
69.485 15.030288
69.490 15.031642
69.495 15.366733
69.500 15.825222
69.505 15.955136
69.510 15.613093
69.515 15.829217
69.520 15.694227
69.525 15.118098
69.530 15.094679
69.535 15.012214
69.540 15.291465
69.545 15.738162
69.550 15.594984
69.555 15.754876
69.560 15.61981
69.565 15.199628
69.570 14.767536
69.575 14.512467
69.580 14.359138
69.585 14.506871
69.590 14.496353
69.595 14.626432
69.600 14.547589
69.605 14.514241
69.610 14.444208
69.615 14.77666
69.620 14.716594
69.625 14.737479
69.630 15.186232
69.635 15.693148
69.640 16.048668
69.645 15.214535
69.650 14.461213
69.655 14.853044
69.660 15.30166
69.665 14.975536
69.670 14.581495
69.675 14.697271
69.680 15.267326
69.685 15.597653
69.690 15.144945
69.695 14.985946
69.700 15.187201
69.705 15.217328
69.710 14.988347
69.715 15.037585
69.720 14.785004
69.725 14.722668
69.730 14.506351
69.735 14.604845
69.740 14.636369
69.745 14.595478
69.750 14.322201
69.755 14.494123
69.760 14.930172
69.765 14.778421
69.770 14.701339
69.775 14.38386
69.780 15.047913
69.785 15.24772
69.790 15.000826
69.795 15.30226
69.800 15.413319
69.805 15.607135
69.810 16.012577
69.815 15.600781
69.820 15.25027
69.825 15.589637
69.830 14.552968
69.835 14.355115
69.840 13.757634
69.845 13.671432
69.850 13.933689
69.855 14.051364
69.860 13.357497
69.865 13.353775
69.870 13.810582
69.875 13.732817
69.880 13.624683
69.885 13.957344
69.890 13.871722
69.895 14.113182
69.900 13.762646
69.905 13.234015
69.910 13.1335
69.915 12.18889
69.920 11.663984
69.925 11.349058
69.930 11.177244
69.935 11.364882
69.940 11.26054
69.945 11.306231
69.950 11.436698
69.955 11.296014
69.960 11.810963
69.965 12.293966
69.970 11.92362
69.975 11.971459
69.980 12.634032
69.985 13.088724
69.990 13.206141
69.995 12.662089
70.000 12.008778
70.005 12.336974
70.010 12.615518
70.015 12.229372
70.020 12.538774
70.025 13.018482
70.030 13.141945
70.035 13.63358
70.040 13.441819
70.045 12.887802
70.050 13.115256
70.055 12.675479
70.060 12.020159
70.065 12.074638
70.070 12.439558
70.075 12.722435
70.080 12.818609
70.085 12.68491
70.090 12.747582
70.095 13.139174
70.100 13.333809
70.105 13.253086
70.110 13.496993
70.115 13.571175
70.120 13.472049
70.125 13.134065
70.130 13.32087
70.135 13.676155
70.140 13.182138
70.145 13.084325
70.150 13.174013
70.155 13.66004
70.160 13.711114
70.165 12.906488
70.170 12.327797
70.175 12.200872
70.180 11.830459
70.185 11.598157
70.190 11.692857
70.195 11.890595
70.200 12.069458
70.205 11.993221
70.210 12.577705
70.215 12.804721
70.220 12.467725
70.225 12.202882
70.230 12.074614
70.235 12.368025
70.240 11.992204
70.245 11.357286
70.250 11.377183
70.255 11.513733
70.260 11.465575
70.265 11.648475
70.270 11.828244
70.275 12.456935
70.280 13.023222
70.285 13.196535
70.290 13.610829
70.295 13.67734
70.300 13.677659
70.305 13.845079
70.310 13.661926
70.315 13.283012
70.320 12.701426
70.325 12.419363
70.330 12.485838
70.335 12.185456
70.340 11.901849
70.345 12.174865
70.350 12.275597
70.355 12.19441
70.360 11.867539
70.365 11.586079
70.370 11.675316
70.375 11.718427
70.380 11.537907
70.385 11.93037
70.390 12.121465
70.395 12.46487
70.400 12.791586
70.405 12.567503
70.410 12.590149
70.415 12.493141
70.420 12.377629
70.425 12.389054
70.430 12.492082
70.435 12.535423
70.440 12.693405
70.445 12.711953
70.450 12.176518
70.455 11.7693
70.460 12.218091
70.465 12.107029
70.470 12.266545
70.475 12.212265
70.480 12.101871
70.485 12.73462
70.490 12.612732
70.495 12.233299
70.500 11.726633
70.505 11.217479
70.510 11.363303
70.515 12.214997
70.520 12.409314
70.525 12.842006
70.530 13.406903
70.535 13.679206
70.540 13.880262
70.545 14.126239
70.550 13.249375
70.555 13.125125
70.560 12.789664
70.565 12.302382
70.570 12.423645
70.575 12.28753
70.580 12.046493
70.585 12.247021
70.590 12.321805
70.595 12.410832
70.600 12.52888
70.605 12.22543
70.610 11.827961
70.615 11.504567
70.620 12.184434
70.625 12.262151
70.630 11.778106
70.635 11.409313
70.640 11.799288
70.645 12.036007
70.650 12.014814
70.655 11.974482
70.660 12.559601
70.665 12.981842
70.670 13.561356
70.675 13.583623
70.680 13.861999
70.685 14.141232
70.690 13.493502
70.695 13.27912
70.700 12.97343
70.705 12.651989
70.710 13.102693
70.715 12.955175
70.720 13.317387
70.725 13.112733
70.730 13.036898
70.735 13.084101
70.740 13.116344
70.745 12.862988
70.750 12.562541
70.755 12.136044
70.760 11.891838
70.765 12.104046
70.770 12.17866
70.775 12.139212
70.780 11.713621
70.785 11.42102
70.790 11.28246
70.795 11.567659
70.800 11.758316
70.805 11.717938
70.810 11.7766
70.815 11.817947
70.820 12.264121
70.825 12.109862
70.830 11.479308
70.835 11.240608
70.840 11.102985
70.845 11.218719
70.850 11.831841
70.855 11.784779
70.860 12.085456
70.865 12.219159
70.870 12.051984
70.875 11.922898
70.880 11.737027
70.885 11.3426
70.890 11.179612
70.895 11.273593
70.900 11.511367
70.905 11.598811
70.910 11.492496
70.915 11.245788
70.920 10.927018
70.925 11.195424
70.930 11.317286
70.935 11.326415
70.940 11.426634
70.945 11.673583
70.950 12.226447
70.955 12.260681
70.960 11.990506
70.965 11.533446
70.970 11.344013
70.975 11.569199
70.980 11.766241
70.985 11.587597
70.990 11.930266
70.995 12.229674
71.000 12.567364
71.005 12.691586
71.010 12.33492
71.015 12.457839
71.020 12.47458
71.025 12.181696
71.030 11.909972
71.035 11.698378
71.040 11.761077
71.045 11.692631
71.050 11.361717
71.055 11.651656
71.060 11.48208
71.065 11.673437
71.070 11.687421
71.075 11.627891
71.080 12.409071
71.085 12.67044
71.090 12.911982
71.095 13.316789
71.100 13.498775
71.105 13.268826
71.110 12.684117
71.115 12.117494
71.120 12.03021
71.125 11.741854
71.130 11.413354
71.135 11.748136
71.140 12.44167
71.145 12.879803
71.150 13.18835
71.155 13.114358
71.160 13.376657
71.165 13.542786
71.170 13.478628
71.175 13.609707
71.180 13.171271
71.185 12.565007
71.190 12.316138
71.195 11.63194
71.200 11.044592
71.205 10.810064
71.210 10.579526
71.215 10.735591
71.220 10.743867
71.225 10.859937
71.230 11.49105
71.235 11.587173
71.240 11.467282
71.245 11.305684
71.250 11.496347
71.255 11.42616
71.260 11.497339
71.265 11.4673
71.270 11.465417
71.275 11.960077
71.280 12.559918
71.285 12.553388
71.290 12.524924
71.295 12.356382
71.300 12.262255
71.305 12.196556
71.310 11.623118
71.315 11.476912
71.320 11.567964
71.325 11.6027
71.330 11.873829
71.335 11.910439
71.340 11.839986
71.345 11.428442
71.350 11.280631
71.355 11.464668
71.360 11.261686
71.365 10.964054
71.370 10.645514
71.375 10.723058
71.380 10.819774
71.385 10.361772
71.390 9.965078
71.395 9.678146
71.400 9.701383
71.405 10.435686
71.410 10.221358
71.415 10.358627
71.420 10.453403
71.425 10.24581
71.430 10.637086
71.435 9.909422
71.440 9.531714
71.445 9.807895
71.450 10.191877
71.455 10.711974
71.460 11.194179
71.465 11.239066
71.470 11.901816
71.475 12.385848
71.480 12.0744
71.485 11.691807
71.490 11.014756
71.495 11.3454
71.500 11.613807
71.505 11.562351
71.510 11.260122
71.515 11.629907
71.520 12.10436
71.525 12.192758
71.530 12.068013
71.535 11.829965
71.540 11.944676
71.545 11.808607
71.550 11.93312
71.555 11.66511
71.560 11.609648
71.565 11.776843
71.570 11.548602
71.575 11.480478
71.580 11.310034
71.585 11.240936
71.590 11.091418
71.595 11.352736
71.600 11.471547
71.605 11.83313
71.610 11.889614
71.615 11.926902
71.620 12.141843
71.625 12.098368
71.630 11.754585
71.635 11.751783
71.640 11.683392
71.645 11.27892
71.650 11.240156
71.655 11.446493
71.660 11.851086
71.665 11.742513
71.670 11.475982
71.675 11.44515
71.680 11.799904
71.685 12.075204
71.690 11.592782
71.695 11.710261
71.700 11.899791
71.705 12.178076
71.710 12.741851
71.715 12.471898
71.720 12.028942
71.725 11.944548
71.730 12.06681
71.735 11.827324
71.740 11.444398
71.745 11.337536
71.750 11.389354
71.755 11.705087
71.760 11.642115
71.765 11.573336
71.770 11.349062
71.775 11.047769
71.780 10.748499
71.785 10.553706
71.790 10.567758
71.795 10.205168
71.800 10.643266
71.805 10.885875
71.810 11.044564
71.815 11.685066
71.820 11.710254
71.825 11.770343
71.830 12.158404
71.835 12.092684
71.840 12.189719
71.845 12.699086
71.850 12.956838
71.855 12.876698
71.860 12.851289
71.865 12.333491
71.870 11.854682
71.875 11.72681
71.880 11.342491
71.885 11.328356
71.890 11.404813
71.895 11.474673
71.900 11.885869
71.905 12.575234
71.910 12.688729
71.915 12.20716
71.920 12.014473
71.925 12.190764
71.930 12.3811
71.935 12.456733
71.940 11.927416
71.945 11.994776
71.950 12.030807
71.955 11.768034
71.960 11.882526
71.965 11.737365
71.970 11.341134
71.975 11.480539
71.980 11.429748
71.985 11.496984
71.990 11.652289
71.995 11.270703
72.000 11.346864
72.005 11.507216
72.010 11.274136
72.015 11.463039
72.020 11.720511
72.025 11.834288
72.030 12.067323
72.035 12.028961
72.040 12.015177
72.045 11.914999
72.050 11.718004
72.055 11.558217
72.060 11.899405
72.065 11.606221
72.070 11.804536
72.075 11.640493
72.080 11.722574
72.085 11.26937
72.090 11.206842
72.095 10.84965
72.100 11.073626
72.105 11.032706
72.110 11.170628
72.115 11.281906
72.120 11.910976
72.125 11.606852
72.130 11.555836
72.135 11.451374
72.140 11.520638
72.145 11.315436
72.150 10.915353
72.155 10.315965
72.160 10.488731
72.165 10.50696
72.170 10.115684
72.175 10.484189
72.180 10.732713
72.185 11.089392
72.190 11.308243
72.195 11.107106
72.200 10.900396
72.205 10.816688
72.210 10.908102
72.215 10.80934
72.220 10.847595
72.225 10.697324
72.230 10.993429
72.235 11.409872
72.240 11.637944
72.245 11.600289
72.250 11.506481
72.255 11.647709
72.260 11.524182
72.265 11.38061
72.270 11.134646
72.275 11.010314
72.280 11.053733
72.285 10.783974
72.290 10.897047
72.295 11.162367
72.300 11.229472
72.305 11.423753
72.310 11.582751
72.315 11.598881
72.320 11.737336
72.325 11.456017
72.330 11.205649
72.335 11.375412
72.340 11.093611
72.345 10.871403
72.350 10.648485
72.355 10.794876
72.360 11.196745
72.365 11.408259
72.370 11.458344
72.375 11.466147
72.380 11.737538
72.385 11.576734
72.390 11.533999
72.395 11.675297
72.400 11.912272
72.405 12.035684
72.410 11.531726
72.415 11.777863
72.420 11.825013
72.425 11.530053
72.430 10.804735
72.435 10.62672
72.440 10.385492
72.445 10.721583
72.450 10.707459
72.455 11.038548
72.460 11.413665
72.465 12.09754
72.470 11.910471
72.475 12.108184
72.480 11.671744
72.485 11.738342
72.490 11.322628
72.495 10.890662
72.500 10.626813
72.505 11.029263
72.510 11.316985
72.515 11.769862
72.520 12.062698
72.525 12.238821
72.530 11.947579
72.535 12.021544
72.540 12.01767
72.545 11.570309
72.550 11.309036
72.555 10.552563
72.560 10.684578
72.565 11.169408
72.570 10.749636
72.575 10.789616
72.580 11.058132
72.585 11.027364
72.590 11.654159
72.595 11.271567
72.600 11.660433
72.605 12.018216
72.610 11.761159
72.615 11.768075
72.620 11.90452
72.625 11.9764
72.630 12.171104
72.635 11.589653
72.640 11.211528
72.645 11.150899
72.650 11.111636
72.655 11.253877
72.660 11.202518
72.665 10.763184
72.670 10.41384
72.675 10.460462
72.680 10.604454
72.685 10.217058
72.690 9.732402
72.695 10.238273
72.700 10.492394
72.705 10.831221
72.710 10.866088
72.715 10.73091
72.720 11.370705
72.725 11.47597
72.730 11.230132
72.735 11.53032
72.740 11.531023
72.745 11.540494
72.750 11.848412
72.755 11.413312
72.760 11.487638
72.765 11.430545
72.770 11.654315
72.775 12.066338
72.780 11.81685
72.785 11.74197
72.790 12.07404
72.795 12.0391
72.800 12.165345
72.805 11.969275
72.810 11.639289
72.815 11.831154
72.820 11.408341
72.825 11.347382
72.830 10.987786
72.835 10.358894
72.840 10.24101
72.845 10.6568
72.850 11.027489
72.855 11.202714
72.860 11.108927
72.865 11.222837
72.870 11.719277
72.875 11.26343
72.880 10.911847
72.885 10.57935
72.890 10.621667
72.895 10.644976
72.900 10.50626
72.905 10.56626
72.910 10.414845
72.915 10.458105
72.920 10.534112
72.925 10.381674
72.930 10.459911
72.935 10.335889
72.940 10.364777
72.945 10.432178
72.950 10.404211
72.955 10.552979
72.960 10.805594
72.965 10.470464
72.970 10.472302
72.975 10.584724
72.980 10.807979
72.985 10.723793
72.990 10.674129
72.995 10.757233
73.000 11.299158
