!@!!GADDS PLOTSO FILE: Chi integration type
!@!!Title/SampleName: map-56
!@!!Comment: ?
!@!!User: Bruker Instrument Administrator
!@!!Site: University of Illinois Chicago
!@!!Frame: map-56_01_000.gfrm
!@!!Wavelengths    1.54184   1.54056   1.54439
!@!!Frame angles: 2Theta: 63.000 Omega: 50.000 Phi: 0.000 Chi: 90.000
!@!!Integration range: 2Theta: 53.000 to 73.000  Gamma: -105.000 to -75.000
!@!!Integration method: bin normalized
!@!N
!@!SS
!@!M
!@!L 0.0 0.0 0.0 0.0
!@!XDegrees
!@!YCounts
53.000 8.932756
53.005 9.192768
53.010 9.482739
53.015 9.203359
53.020 9.508697
53.025 9.989295
53.030 10.284575
53.035 10.739655
53.040 11.048828
53.045 11.313312
53.050 11.84645
53.055 11.331562
53.060 11.021489
53.065 10.511466
53.070 10.27146
53.075 9.999791
53.080 10.067753
53.085 10.468981
53.090 11.088099
53.095 11.317061
53.100 11.064101
53.105 10.465825
53.110 10.112947
53.115 9.74999
53.120 9.075789
53.125 8.648923
53.130 9.109072
53.135 9.745453
53.140 10.310064
53.145 10.896481
53.150 11.154482
53.155 11.462325
53.160 11.567952
53.165 11.011876
53.170 10.620566
53.175 10.20569
53.180 9.788487
53.185 9.826331
53.190 9.66437
53.195 9.371266
53.200 9.433883
53.205 9.472226
53.210 9.815024
53.215 10.33269
53.220 10.240328
53.225 10.341513
53.230 10.362914
53.235 10.49543
53.240 10.422666
53.245 10.067585
53.250 10.008245
53.255 10.551546
53.260 10.498378
53.265 10.771962
53.270 11.142105
53.275 11.307328
53.280 11.394595
53.285 10.749206
53.290 10.079653
53.295 10.398269
53.300 10.426857
53.305 10.652541
53.310 10.627261
53.315 10.677644
53.320 11.070376
53.325 11.089336
53.330 11.036772
53.335 10.581607
53.340 10.06733
53.345 10.328375
53.350 10.297298
53.355 10.155619
53.360 10.54756
53.365 10.341712
53.370 10.642614
53.375 10.285078
53.380 9.900158
53.385 9.640138
53.390 9.461194
53.395 9.485307
53.400 9.565451
53.405 9.90827
53.410 10.252159
53.415 10.473608
53.420 10.755124
53.425 10.699445
53.430 10.104911
53.435 10.352927
53.440 10.080554
53.445 10.299438
53.450 10.359247
53.455 10.505656
53.460 10.818769
53.465 10.979942
53.470 10.803991
53.475 10.799507
53.480 10.409219
53.485 10.474652
53.490 10.354482
53.495 10.40449
53.500 10.239581
53.505 10.863274
53.510 10.769567
53.515 10.933794
53.520 11.389382
53.525 11.876355
53.530 11.990073
53.535 12.098847
53.540 11.262094
53.545 11.635784
53.550 11.631567
53.555 11.309068
53.560 11.04705
53.565 10.944667
53.570 11.034207
53.575 11.08859
53.580 10.873701
53.585 10.860866
53.590 11.290359
53.595 11.440491
53.600 11.137711
53.605 10.852992
53.610 11.345175
53.615 11.216544
53.620 10.765005
53.625 10.284868
53.630 9.92651
53.635 9.946164
53.640 9.90809
53.645 9.787522
53.650 10.12099
53.655 10.508096
53.660 10.614848
53.665 10.77931
53.670 10.877174
53.675 10.898756
53.680 10.781109
53.685 11.0142
53.690 11.101883
53.695 11.321686
53.700 11.421391
53.705 11.725781
53.710 11.836508
53.715 11.765023
53.720 11.350342
53.725 11.3019
53.730 10.481443
53.735 9.921084
53.740 9.485065
53.745 9.570077
53.750 9.534564
53.755 9.698822
53.760 9.661168
53.765 10.094427
53.770 10.654709
53.775 10.715175
53.780 10.545238
53.785 10.361119
53.790 9.923904
53.795 9.960529
53.800 10.153707
53.805 9.888103
53.810 9.986794
53.815 9.966575
53.820 9.892499
53.825 10.302371
53.830 10.596504
53.835 10.633902
53.840 10.745136
53.845 10.728069
53.850 10.575431
53.855 10.768144
53.860 10.893703
53.865 10.923721
53.870 10.65952
53.875 10.604694
53.880 10.84384
53.885 11.139624
53.890 11.351633
53.895 10.563472
53.900 10.196114
53.905 10.633781
53.910 10.404094
53.915 10.276552
53.920 10.264008
53.925 10.253973
53.930 10.775437
53.935 10.812908
53.940 10.351318
53.945 10.6513
53.950 11.138505
53.955 11.272624
53.960 11.227365
53.965 11.76284
53.970 12.163624
53.975 12.580413
53.980 12.474577
53.985 12.09993
53.990 11.840131
53.995 11.67978
54.000 11.408836
54.005 11.305929
54.010 11.144534
54.015 10.769293
54.020 10.698897
54.025 10.984625
54.030 10.988349
54.035 10.886898
54.040 10.871106
54.045 11.014072
54.050 11.485493
54.055 11.6165
54.060 11.502952
54.065 12.019442
54.070 12.382509
54.075 12.522942
54.080 12.442118
54.085 12.318688
54.090 12.570105
54.095 12.325006
54.100 11.962515
54.105 11.602177
54.110 11.376631
54.115 11.085967
54.120 10.740051
54.125 10.182791
54.130 10.638847
54.135 11.015416
54.140 11.069673
54.145 11.851341
54.150 12.607655
54.155 12.820155
54.160 12.956202
54.165 12.705018
54.170 12.473158
54.175 12.386113
54.180 11.802945
54.185 11.884007
54.190 11.647497
54.195 11.480445
54.200 11.945925
54.205 12.03495
54.210 11.934287
54.215 11.3797
54.220 10.795937
54.225 11.491095
54.230 11.241365
54.235 11.466912
54.240 11.744285
54.245 11.976126
54.250 12.352407
54.255 12.971132
54.260 13.07936
54.265 13.132642
54.270 12.225493
54.275 12.423072
54.280 12.990809
54.285 13.15755
54.290 13.10365
54.295 12.62511
54.300 12.666289
54.305 12.523582
54.310 12.267921
54.315 11.764586
54.320 11.130111
54.325 10.94926
54.330 11.210212
54.335 11.483989
54.340 11.26837
54.345 11.20085
54.350 11.339586
54.355 11.469944
54.360 11.466278
54.365 11.40586
54.370 11.438823
54.375 11.653544
54.380 11.261374
54.385 10.901107
54.390 10.85071
54.395 10.556907
54.400 10.117099
54.405 9.367322
54.410 9.039404
54.415 9.398029
54.420 9.474844
54.425 9.601029
54.430 9.947937
54.435 10.472157
54.440 11.078584
54.445 11.269614
54.450 11.734813
54.455 12.272053
54.460 12.481165
54.465 12.458387
54.470 11.913992
54.475 11.807227
54.480 12.019382
54.485 11.948956
54.490 11.936132
54.495 11.83743
54.500 11.885893
54.505 12.000917
54.510 11.810387
54.515 11.695632
54.520 11.272143
54.525 10.785083
54.530 10.707918
54.535 11.144451
54.540 11.539582
54.545 11.016567
54.550 10.570622
54.555 10.972411
54.560 11.384341
54.565 11.75882
54.570 11.751385
54.575 11.702199
54.580 12.167871
54.585 11.62007
54.590 11.086966
54.595 10.634398
54.600 9.876293
54.605 9.792391
54.610 9.906797
54.615 10.362337
54.620 10.691196
54.625 11.219135
54.630 11.353995
54.635 11.831719
54.640 12.162907
54.645 12.88234
54.650 13.120667
54.655 13.558071
54.660 13.727611
54.665 13.721589
54.670 13.13226
54.675 12.53757
54.680 12.036953
54.685 12.224566
54.690 11.412601
54.695 10.537406
54.700 10.391994
54.705 10.510174
54.710 10.771862
54.715 10.557457
54.720 10.457965
54.725 11.372693
54.730 11.637096
54.735 12.238536
54.740 12.05588
54.745 11.710179
54.750 11.432221
54.755 10.95345
54.760 10.469511
54.765 10.329139
54.770 9.935943
54.775 10.100435
54.780 9.986738
54.785 10.315136
54.790 10.857931
54.795 11.064772
54.800 11.320112
54.805 11.642828
54.810 11.759676
54.815 11.970325
54.820 12.118387
54.825 11.860549
54.830 12.027647
54.835 11.849893
54.840 11.586423
54.845 11.30302
54.850 11.286367
54.855 10.890382
54.860 11.380409
54.865 11.274076
54.870 11.48787
54.875 12.165466
54.880 13.365144
54.885 13.776504
54.890 14.079044
54.895 13.898491
54.900 13.62748
54.905 13.412601
54.910 13.355906
54.915 13.536608
54.920 13.594974
54.925 13.065721
54.930 13.129871
54.935 13.444637
54.940 13.201899
54.945 12.944465
54.950 11.824829
54.955 11.605552
54.960 11.70892
54.965 11.52342
54.970 11.466163
54.975 11.093794
54.980 10.936014
54.985 11.422686
54.990 11.183533
54.995 11.241669
55.000 11.202574
55.005 11.323847
55.010 11.487747
55.015 11.537371
55.020 11.907787
55.025 12.247524
55.030 12.017091
55.035 11.399856
55.040 11.344846
55.045 11.356656
55.050 10.620018
55.055 10.525707
55.060 10.749829
55.065 10.993056
55.070 11.363624
55.075 11.512036
55.080 12.015642
55.085 12.229907
55.090 11.785872
55.095 12.058684
55.100 12.072682
55.105 12.494344
55.110 12.2634
55.115 11.739883
55.120 11.37343
55.125 11.362114
55.130 10.998367
55.135 11.160187
55.140 10.994538
55.145 11.15446
55.150 11.440238
55.155 11.646719
55.160 12.227088
55.165 12.671798
55.170 12.242434
55.175 12.298488
55.180 12.193263
55.185 12.442893
55.190 12.970491
55.195 12.786506
55.200 12.881749
55.205 13.240014
55.210 13.560976
55.215 13.689551
55.220 13.311255
55.225 12.89818
55.230 12.765922
55.235 12.787058
55.240 12.182344
55.245 11.408331
55.250 11.033531
55.255 11.463485
55.260 11.506783
55.265 10.974161
55.270 11.515984
55.275 12.303992
55.280 13.062947
55.285 13.042797
55.290 12.697189
55.295 12.855933
55.300 13.245608
55.305 12.657254
55.310 12.464387
55.315 12.313535
55.320 12.542613
55.325 12.700021
55.330 12.179854
55.335 12.128508
55.340 12.480326
55.345 12.304828
55.350 11.983784
55.355 12.046316
55.360 12.591434
55.365 12.840304
55.370 12.500401
55.375 11.92179
55.380 12.080619
55.385 12.156974
55.390 11.701068
55.395 11.349451
55.400 11.47104
55.405 11.854623
55.410 12.300647
55.415 11.970439
55.420 12.455415
55.425 13.027055
55.430 13.312632
55.435 13.223428
55.440 12.991619
55.445 13.282419
55.450 13.425398
55.455 12.966994
55.460 12.476068
55.465 12.461283
55.470 12.651341
55.475 12.612316
55.480 12.736254
55.485 12.752868
55.490 13.123735
55.495 13.133115
55.500 13.414974
55.505 13.37794
55.510 13.34395
55.515 13.203297
55.520 13.083232
55.525 12.891527
55.530 13.297084
55.535 13.331235
55.540 13.728498
55.545 13.867935
55.550 13.955511
55.555 13.617417
55.560 13.505489
55.565 12.88971
55.570 12.384571
55.575 11.836753
55.580 11.183186
55.585 11.338531
55.590 12.405684
55.595 12.390199
55.600 12.060887
55.605 12.085568
55.610 12.813865
55.615 13.05856
55.620 12.615357
55.625 11.963476
55.630 11.883235
55.635 12.575066
55.640 12.991264
55.645 13.053501
55.650 12.991592
55.655 12.532293
55.660 12.423059
55.665 12.273887
55.670 11.70111
55.675 10.851032
55.680 10.520467
55.685 10.691788
55.690 11.226409
55.695 11.600474
55.700 11.717131
55.705 11.572455
55.710 11.582471
55.715 11.319331
55.720 11.391286
55.725 11.700092
55.730 11.75453
55.735 11.763485
55.740 12.345984
55.745 12.594258
55.750 13.065855
55.755 13.099006
55.760 12.418921
55.765 12.4614
55.770 12.59884
55.775 12.569766
55.780 12.91414
55.785 12.720283
55.790 12.220694
55.795 12.188791
55.800 11.919368
55.805 11.881838
55.810 11.567725
55.815 11.278188
55.820 11.551938
55.825 11.971454
55.830 12.411288
55.835 12.306594
55.840 12.362112
55.845 12.719793
55.850 13.041644
55.855 13.009234
55.860 12.688841
55.865 12.486836
55.870 12.988008
55.875 13.39621
55.880 13.434145
55.885 13.103383
55.890 12.956504
55.895 13.560284
55.900 13.912179
55.905 13.898669
55.910 13.514318
55.915 13.69029
55.920 13.967105
55.925 14.0673
55.930 13.403014
55.935 13.160416
55.940 13.72617
55.945 14.153011
55.950 14.066201
55.955 13.953848
55.960 14.49648
55.965 14.804924
55.970 14.49115
55.975 13.816783
55.980 12.752436
55.985 12.919297
55.990 13.495242
55.995 13.553371
56.000 13.799563
56.005 13.380259
56.010 13.305193
56.015 13.683382
56.020 12.89374
56.025 11.944849
56.030 11.453971
56.035 11.253092
56.040 11.953308
56.045 11.930871
56.050 12.135527
56.055 12.557269
56.060 12.626527
56.065 13.286923
56.070 13.855741
56.075 13.925059
56.080 13.676766
56.085 13.994554
56.090 14.288354
56.095 14.474563
56.100 14.009449
56.105 13.816163
56.110 13.454614
56.115 13.315202
56.120 12.675082
56.125 12.545033
56.130 12.312148
56.135 12.347121
56.140 12.799691
56.145 13.213519
56.150 13.893848
56.155 14.420347
56.160 14.502947
56.165 14.779351
56.170 14.557493
56.175 13.837924
56.180 13.577996
56.185 13.520075
56.190 13.444347
56.195 13.305847
56.200 12.661766
56.205 12.656345
56.210 13.644241
56.215 13.937284
56.220 13.538424
56.225 13.219523
56.230 13.528389
56.235 13.89243
56.240 14.234125
56.245 13.912498
56.250 14.223299
56.255 14.080153
56.260 14.160293
56.265 14.190027
56.270 14.516153
56.275 14.441891
56.280 13.852913
56.285 13.582135
56.290 13.958389
56.295 14.469347
56.300 14.105458
56.305 13.929388
56.310 13.850216
56.315 14.024884
56.320 13.663888
56.325 13.006281
56.330 13.21094
56.335 13.814695
56.340 13.566998
56.345 13.570993
56.350 13.291198
56.355 13.438602
56.360 13.394134
56.365 12.920815
56.370 12.926106
56.375 13.123632
56.380 13.137141
56.385 13.377943
56.390 13.806643
56.395 14.15314
56.400 14.168551
56.405 13.666568
56.410 13.758094
56.415 13.461998
56.420 13.817449
56.425 13.53359
56.430 13.044504
56.435 12.68867
56.440 12.95258
56.445 12.930014
56.450 13.477501
56.455 13.059221
56.460 13.494081
56.465 13.772707
56.470 13.668373
56.475 13.686469
56.480 13.806924
56.485 13.297951
56.490 13.86699
56.495 13.957054
56.500 14.250981
56.505 14.462982
56.510 13.858213
56.515 13.651617
56.520 13.186877
56.525 12.507212
56.530 11.921661
56.535 11.819011
56.540 11.840862
56.545 12.131151
56.550 11.913853
56.555 12.074599
56.560 12.111905
56.565 12.869933
56.570 12.697522
56.575 13.057009
56.580 13.074487
56.585 13.158233
56.590 13.456756
56.595 13.676367
56.600 13.217767
56.605 13.292468
56.610 13.029718
56.615 13.447576
56.620 13.761703
56.625 13.887165
56.630 13.84634
56.635 13.669513
56.640 13.724585
56.645 13.629865
56.650 13.083138
56.655 13.18842
56.660 13.202503
56.665 13.242462
56.670 13.895739
56.675 13.937367
56.680 14.085711
56.685 14.049863
56.690 14.131031
56.695 13.669629
56.700 13.964856
56.705 13.907024
56.710 14.235557
56.715 14.361136
56.720 14.612351
56.725 14.342142
56.730 14.354049
56.735 14.320252
56.740 14.451527
56.745 14.39715
56.750 14.302244
56.755 14.45512
56.760 14.894875
56.765 14.722577
56.770 14.502766
56.775 14.111177
56.780 14.039029
56.785 14.077223
56.790 14.189501
56.795 14.619635
56.800 14.630478
56.805 14.531208
56.810 14.604586
56.815 14.51557
56.820 14.868894
56.825 14.512725
56.830 13.86469
56.835 14.391121
56.840 14.351073
56.845 14.439573
56.850 14.488997
56.855 14.414212
56.860 14.463522
56.865 14.705387
56.870 14.973358
56.875 14.969435
56.880 14.764284
56.885 14.289586
56.890 14.251208
56.895 14.483746
56.900 14.395697
56.905 14.084736
56.910 14.119059
56.915 14.306885
56.920 14.318713
56.925 13.857519
56.930 13.55209
56.935 13.262031
56.940 13.409853
56.945 13.170683
56.950 12.906842
56.955 13.286864
56.960 13.59963
56.965 14.170532
56.970 14.442142
56.975 14.418034
56.980 14.296325
56.985 14.335997
56.990 14.450474
56.995 14.496701
57.000 14.308793
57.005 13.918
57.010 13.691701
57.015 13.714111
57.020 14.357195
57.025 13.735188
57.030 13.399382
57.035 13.168804
57.040 13.131022
57.045 13.324479
57.050 13.366613
57.055 13.310258
57.060 13.357211
57.065 13.448129
57.070 13.814444
57.075 14.114169
57.080 14.433053
57.085 14.282372
57.090 14.663815
57.095 15.142331
57.100 15.693081
57.105 15.694194
57.110 15.732431
57.115 16.092985
57.120 16.052105
57.125 15.526579
57.130 15.464417
57.135 14.952058
57.140 15.195953
57.145 14.820369
57.150 14.680289
57.155 14.833775
57.160 15.518695
57.165 15.839738
57.170 15.835292
57.175 15.222502
57.180 15.29154
57.185 15.080578
57.190 15.325963
57.195 15.129552
57.200 14.962394
57.205 14.796417
57.210 15.461203
57.215 15.767323
57.220 15.408158
57.225 14.997317
57.230 15.009893
57.235 14.912163
57.240 14.336686
57.245 13.988284
57.250 13.929133
57.255 14.136089
57.260 13.731058
57.265 13.415918
57.270 13.437518
57.275 14.108509
57.280 14.461065
57.285 14.045933
57.290 13.865431
57.295 13.707952
57.300 13.696896
57.305 14.673326
57.310 14.627346
57.315 13.855153
57.320 14.191338
57.325 15.237416
57.330 15.733052
57.335 15.882381
57.340 15.54088
57.345 15.697003
57.350 16.136999
57.355 15.940444
57.360 15.042367
57.365 14.77121
57.370 14.47288
57.375 14.708543
57.380 14.271854
57.385 14.154189
57.390 14.423167
57.395 14.679465
57.400 14.809248
57.405 14.723586
57.410 14.533543
57.415 14.973987
57.420 15.285903
57.425 15.465714
57.430 15.65562
57.435 15.715252
57.440 15.265162
57.445 15.121535
57.450 14.802179
57.455 14.625691
57.460 14.797865
57.465 14.720625
57.470 14.730815
57.475 14.907426
57.480 14.538076
57.485 14.811461
57.490 14.847823
57.495 14.383704
57.500 14.582174
57.505 14.545921
57.510 14.461537
57.515 14.70165
57.520 14.512738
57.525 14.370422
57.530 14.341644
57.535 14.391167
57.540 14.621876
57.545 14.541632
57.550 14.945518
57.555 15.021268
57.560 14.941537
57.565 14.841916
57.570 14.991647
57.575 15.253888
57.580 15.535681
57.585 15.685116
57.590 15.945757
57.595 15.957002
57.600 16.042875
57.605 15.618182
57.610 15.294819
57.615 15.070888
57.620 15.119827
57.625 15.595039
57.630 15.830056
57.635 15.909039
57.640 15.835094
57.645 15.420837
57.650 14.96057
57.655 14.695999
57.660 14.300426
57.665 13.767363
57.670 13.419859
57.675 13.749598
57.680 14.139869
57.685 14.309733
57.690 14.233441
57.695 14.286911
57.700 14.392297
57.705 14.436877
57.710 14.168818
57.715 14.54306
57.720 14.934142
57.725 14.983606
57.730 15.065225
57.735 15.584702
57.740 16.14439
57.745 16.175901
57.750 16.253736
57.755 16.429665
57.760 15.70167
57.765 15.553637
57.770 15.2279
57.775 15.31954
57.780 15.346377
57.785 14.904304
57.790 14.648259
57.795 15.317832
57.800 15.427066
57.805 15.497356
57.810 15.264364
57.815 15.300724
57.820 15.062141
57.825 14.932669
57.830 14.655099
57.835 14.570227
57.840 14.461967
57.845 14.606308
57.850 15.187981
57.855 15.347809
57.860 15.814161
57.865 16.159794
57.870 16.351377
57.875 16.051556
57.880 15.413112
57.885 15.051399
57.890 15.209576
57.895 14.63201
57.900 14.65344
57.905 14.332892
57.910 14.70312
57.915 15.410305
57.920 15.575196
57.925 15.72729
57.930 16.060432
57.935 15.546232
57.940 16.112495
57.945 15.893405
57.950 15.649242
57.955 15.605188
57.960 15.557491
57.965 15.493834
57.970 16.103067
57.975 15.827364
57.980 15.235765
57.985 15.48902
57.990 15.494704
57.995 15.030901
58.000 14.593349
58.005 14.446307
58.010 14.82227
58.015 15.183874
58.020 14.978215
58.025 14.797804
58.030 15.744502
58.035 16.375544
58.040 16.122946
58.045 16.433031
58.050 16.21607
58.055 16.209608
58.060 16.049276
58.065 15.476089
58.070 15.272799
58.075 14.987668
58.080 14.541097
58.085 14.708075
58.090 14.749957
58.095 15.438272
58.100 15.570108
58.105 15.5902
58.110 16.160807
58.115 16.454096
58.120 16.63438
58.125 16.606842
58.130 16.415668
58.135 16.215475
58.140 15.568936
58.145 15.437423
58.150 15.6344
58.155 15.279914
58.160 15.320951
58.165 14.790725
58.170 14.948466
58.175 15.526825
58.180 15.662891
58.185 16.21032
58.190 16.35372
58.195 16.417564
58.200 16.666462
58.205 16.869478
58.210 16.679729
58.215 16.000633
58.220 15.257318
58.225 15.093063
58.230 14.820016
58.235 14.904205
58.240 15.137431
58.245 15.230418
58.250 15.286322
58.255 15.316378
58.260 14.956859
58.265 15.007963
58.270 15.128724
58.275 15.341763
58.280 15.613612
58.285 15.848063
58.290 16.215736
58.295 16.894585
58.300 16.884464
58.305 16.429785
58.310 16.374607
58.315 15.981935
58.320 15.731854
58.325 15.342452
58.330 14.588674
58.335 14.749942
58.340 14.855333
58.345 15.19908
58.350 15.345297
58.355 15.121625
58.360 14.949965
58.365 15.563465
58.370 15.362477
58.375 15.13184
58.380 14.892871
58.385 14.897734
58.390 14.994834
58.395 15.453543
58.400 15.485585
58.405 15.88401
58.410 16.059896
58.415 16.106857
58.420 16.535782
58.425 16.579201
58.430 16.496813
58.435 16.159878
58.440 15.865472
58.445 15.717308
58.450 15.316843
58.455 15.568291
58.460 16.207451
58.465 15.795513
58.470 15.790742
58.475 15.833602
58.480 15.62633
58.485 15.30619
58.490 14.787551
58.495 14.374164
58.500 14.568348
58.505 14.32145
58.510 14.513464
58.515 14.429607
58.520 14.705887
58.525 14.6619
58.530 14.668904
58.535 15.19873
58.540 15.301784
58.545 15.149043
58.550 15.587314
58.555 15.832278
58.560 16.235891
58.565 16.059095
58.570 16.263641
58.575 16.642237
58.580 16.933939
58.585 17.019455
58.590 16.614443
58.595 16.796228
58.600 16.976625
58.605 16.279806
58.610 16.139795
58.615 15.700315
58.620 15.590895
58.625 15.904797
58.630 16.026567
58.635 16.529026
58.640 16.438858
58.645 16.758514
58.650 17.469259
58.655 17.745274
58.660 17.230188
58.665 17.107542
58.670 17.152205
58.675 17.902725
58.680 17.372084
58.685 16.578444
58.690 16.683239
58.695 17.932762
58.700 18.094889
58.705 17.762899
58.710 17.503212
58.715 17.746698
58.720 17.861996
58.725 17.786928
58.730 16.821472
58.735 16.405704
58.740 16.470806
58.745 16.293766
58.750 16.526762
58.755 16.869379
58.760 16.32403
58.765 15.700644
58.770 15.357259
58.775 15.512806
58.780 15.161885
58.785 14.740239
58.790 14.895403
58.795 14.799103
58.800 15.576269
58.805 16.000374
58.810 15.576891
58.815 16.339211
58.820 16.083853
58.825 15.308379
58.830 15.525588
58.835 15.574743
58.840 15.863105
58.845 16.139841
58.850 16.003559
58.855 16.246653
58.860 16.634253
58.865 16.354851
58.870 15.614218
58.875 15.525801
58.880 14.876748
58.885 14.966984
58.890 15.201397
58.895 15.17769
58.900 15.238634
58.905 15.316522
58.910 15.707163
58.915 15.880582
58.920 15.811481
58.925 15.557726
58.930 15.395138
58.935 15.727463
58.940 15.568354
58.945 15.212281
58.950 15.176289
58.955 15.270594
58.960 15.925378
58.965 16.620853
58.970 16.259777
58.975 16.131784
58.980 15.92736
58.985 16.046455
58.990 15.582185
58.995 15.312246
59.000 14.97278
59.005 15.618278
59.010 16.444054
59.015 16.591581
59.020 16.305908
59.025 16.489614
59.030 16.217293
59.035 16.214731
59.040 16.584209
59.045 17.014149
59.050 17.340328
59.055 17.87351
59.060 17.837849
59.065 18.259909
59.070 18.310015
59.075 17.607601
59.080 16.926291
59.085 16.10029
59.090 16.014639
59.095 16.095669
59.100 16.158445
59.105 16.306761
59.110 16.159258
59.115 16.165815
59.120 16.47406
59.125 16.25853
59.130 16.208035
59.135 15.919814
59.140 15.827512
59.145 16.235624
59.150 16.032595
59.155 16.513565
59.160 16.879932
59.165 16.960119
59.170 17.063204
59.175 17.193623
59.180 17.227427
59.185 17.56164
59.190 17.376556
59.195 17.387661
59.200 17.185194
59.205 16.859638
59.210 16.713284
59.215 16.474068
59.220 16.6005
59.225 16.534901
59.230 16.514952
59.235 16.801334
59.240 17.108831
59.245 16.940472
59.250 16.921621
59.255 16.811586
59.260 16.864712
59.265 16.974758
59.270 17.339161
59.275 17.428026
59.280 17.871363
59.285 17.898478
59.290 18.439014
59.295 18.813639
59.300 19.560354
59.305 19.172409
59.310 19.043516
59.315 19.082443
59.320 18.758259
59.325 18.677141
59.330 18.664682
59.335 17.78199
59.340 17.544315
59.345 17.159752
59.350 17.29446
59.355 17.788719
59.360 17.142488
59.365 16.383877
59.370 16.578365
59.375 17.086714
59.380 17.582766
59.385 17.385448
59.390 18.17857
59.395 18.367702
59.400 18.88014
59.405 18.888472
59.410 18.487148
59.415 17.695841
59.420 17.445496
59.425 16.598202
59.430 16.338982
59.435 16.107204
59.440 16.869318
59.445 17.190472
59.450 17.328821
59.455 17.94154
59.460 18.283039
59.465 18.426167
59.470 18.182909
59.475 17.468079
59.480 17.270519
59.485 17.334171
59.490 16.787655
59.495 17.112936
59.500 16.836311
59.505 16.124752
59.510 16.017979
59.515 15.965151
59.520 16.707319
59.525 16.421492
59.530 15.388848
59.535 15.482833
59.540 15.917886
59.545 16.416805
59.550 16.94615
59.555 16.665674
59.560 17.33094
59.565 17.983797
59.570 17.876287
59.575 18.019838
59.580 17.833162
59.585 17.592396
59.590 17.652939
59.595 17.371496
59.600 17.482971
59.605 18.1493
59.610 18.0289
59.615 17.87463
59.620 18.205236
59.625 18.059135
59.630 18.433912
59.635 18.205711
59.640 17.741104
59.645 18.107096
59.650 18.474134
59.655 18.843424
59.660 19.756794
59.665 20.214485
59.670 20.648348
59.675 20.936888
59.680 20.724684
59.685 20.364285
59.690 19.801813
59.695 19.413776
59.700 19.176409
59.705 18.923666
59.710 18.857935
59.715 18.893545
59.720 19.163929
59.725 18.896065
59.730 18.716709
59.735 18.690296
59.740 19.228184
59.745 19.34305
59.750 19.122625
59.755 19.242268
59.760 20.193737
59.765 20.361107
59.770 20.451155
59.775 20.417583
59.780 20.203653
59.785 19.913773
59.790 19.200939
59.795 18.265993
59.800 17.795673
59.805 17.570911
59.810 17.425404
59.815 18.19985
59.820 19.165436
59.825 19.664202
59.830 20.201889
59.835 20.021576
59.840 20.238508
59.845 20.083311
59.850 19.43589
59.855 18.832449
59.860 18.272568
59.865 18.466564
59.870 18.783178
59.875 18.465357
59.880 18.719646
59.885 19.248884
59.890 19.568731
59.895 19.859287
59.900 19.301189
59.905 19.215998
59.910 19.718035
59.915 19.872766
59.920 19.502415
59.925 20.126225
59.930 20.34132
59.935 21.064602
59.940 21.14176
59.945 20.854124
59.950 20.801353
59.955 20.934671
59.960 20.415966
59.965 20.468899
59.970 20.589216
59.975 20.875896
59.980 21.08791
59.985 20.674728
59.990 21.215223
59.995 21.434698
60.000 21.425152
60.005 22.001125
60.010 21.9596
60.015 22.029982
60.020 22.564531
60.025 22.542395
60.030 22.292521
60.035 21.662384
60.040 20.528584
60.045 20.16173
60.050 19.877232
60.055 19.745899
60.060 19.359941
60.065 19.640293
60.070 20.139355
60.075 20.782539
60.080 21.001461
60.085 21.148193
60.090 21.370644
60.095 21.806076
60.100 21.568913
60.105 21.109406
60.110 20.751129
60.115 20.747044
60.120 21.433922
60.125 21.475641
60.130 21.661661
60.135 21.785803
60.140 22.217924
60.145 22.855824
60.150 23.076979
60.155 22.691769
60.160 22.626177
60.165 23.300661
60.170 23.70385
60.175 23.776205
60.180 23.776131
60.185 23.031181
60.190 22.983484
60.195 22.711943
60.200 21.508028
60.205 21.035894
60.210 20.542423
60.215 20.621948
60.220 21.295721
60.225 21.558435
60.230 21.656553
60.235 22.184631
60.240 22.916136
60.245 23.529953
60.250 24.166733
60.255 23.761509
60.260 23.338327
60.265 23.224094
60.270 22.846357
60.275 22.39949
60.280 22.184883
60.285 21.470016
60.290 21.448524
60.295 21.672705
60.300 22.02273
60.305 22.137053
60.310 21.979183
60.315 21.302202
60.320 21.125935
60.325 21.639856
60.330 21.602383
60.335 21.500864
60.340 21.859114
60.345 22.338367
60.350 23.325743
60.355 23.131163
60.360 22.922825
60.365 23.10463
60.370 22.686007
60.375 21.915043
60.380 21.407852
60.385 21.54801
60.390 22.312357
60.395 22.506777
60.400 21.897598
60.405 22.221506
60.410 22.693411
60.415 22.907194
60.420 22.543434
60.425 22.344061
60.430 22.271597
60.435 21.98587
60.440 21.78607
60.445 22.06926
60.450 22.238001
60.455 21.913147
60.460 20.991928
60.465 20.899292
60.470 21.654001
60.475 22.056894
60.480 21.685946
60.485 21.133495
60.490 21.361673
60.495 21.749062
60.500 21.367039
60.505 20.448338
60.510 20.055691
60.515 20.344988
60.520 20.551231
60.525 20.662159
60.530 20.842581
60.535 21.166494
60.540 21.952438
60.545 22.372286
60.550 22.683464
60.555 22.632376
60.560 22.467604
60.565 22.363583
60.570 21.908381
60.575 21.801723
60.580 21.271141
60.585 20.544508
60.590 20.45686
60.595 20.631104
60.600 20.980988
60.605 21.178133
60.610 21.265446
60.615 21.601768
60.620 21.864056
60.625 22.106163
60.630 22.279057
60.635 22.323341
60.640 21.882725
60.645 21.459309
60.650 21.0459
60.655 20.876104
60.660 20.593962
60.665 19.816336
60.670 19.694807
60.675 20.128164
60.680 20.666595
60.685 20.659599
60.690 20.986546
60.695 20.885572
60.700 21.130836
60.705 21.420942
60.710 21.317141
60.715 21.145916
60.720 21.264347
60.725 21.032963
60.730 21.32164
60.735 21.435074
60.740 20.802086
60.745 20.840788
60.750 20.307901
60.755 19.95196
60.760 19.908537
60.765 19.589098
60.770 19.467463
60.775 19.685493
60.780 19.699978
60.785 20.052904
60.790 20.455433
60.795 20.720209
60.800 21.05863
60.805 20.991856
60.810 21.409456
60.815 21.36268
60.820 20.861006
60.825 20.519114
60.830 20.000744
60.835 20.204447
60.840 20.10882
60.845 19.186869
60.850 18.737272
60.855 18.735233
60.860 18.371075
60.865 18.161062
60.870 17.913126
60.875 18.522095
60.880 19.088602
60.885 19.061474
60.890 19.399275
60.895 19.703291
60.900 20.072575
60.905 19.788605
60.910 19.062878
60.915 18.183939
60.920 18.092197
60.925 17.727837
60.930 17.763819
60.935 18.090757
60.940 17.938316
60.945 18.069305
60.950 18.619997
60.955 19.362978
60.960 19.433014
60.965 19.201305
60.970 18.322186
60.975 18.258759
60.980 18.317236
60.985 18.459028
60.990 17.894308
60.995 18.194626
61.000 18.484575
61.005 18.898289
61.010 18.802534
61.015 18.683527
61.020 18.975388
61.025 18.57716
61.030 17.924036
61.035 17.635595
61.040 17.403578
61.045 16.946365
61.050 17.062677
61.055 16.415331
61.060 16.915529
61.065 17.218214
61.070 17.38126
61.075 17.310146
61.080 17.830479
61.085 17.689924
61.090 17.722176
61.095 17.457129
61.100 17.685734
61.105 17.482677
61.110 17.684666
61.115 17.755419
61.120 17.86268
61.125 17.722433
61.130 17.570446
61.135 17.354609
61.140 17.646233
61.145 18.072401
61.150 18.244865
61.155 18.46328
61.160 18.648026
61.165 18.708515
61.170 18.423203
61.175 18.997187
61.180 18.605944
61.185 18.040438
61.190 18.005295
61.195 18.449501
61.200 19.022545
61.205 19.00279
61.210 18.904633
61.215 19.916702
61.220 19.900351
61.225 20.753435
61.230 21.349617
61.235 21.267492
61.240 21.470734
61.245 21.442694
61.250 21.049191
61.255 21.175356
61.260 20.345327
61.265 19.299316
61.270 18.775578
61.275 18.440136
61.280 17.591532
61.285 17.731432
61.290 18.192822
61.295 17.967985
61.300 17.752829
61.305 18.01639
61.310 17.892944
61.315 18.433022
61.320 18.338915
61.325 18.604305
61.330 19.001484
61.335 19.902895
61.340 19.466547
61.345 19.222029
61.350 18.594837
61.355 18.305325
61.360 17.728249
61.365 17.5797
61.370 16.719196
61.375 16.999006
61.380 17.62512
61.385 18.124411
61.390 17.777084
61.395 17.401279
61.400 17.467606
61.405 18.210106
61.410 18.580896
61.415 18.289362
61.420 18.343077
61.425 19.078209
61.430 19.294182
61.435 19.16522
61.440 18.876085
61.445 18.834074
61.450 18.856989
61.455 17.996246
61.460 16.865381
61.465 16.594206
61.470 15.979168
61.475 15.462573
61.480 15.850719
61.485 16.032282
61.490 16.330286
61.495 16.955093
61.500 17.136721
61.505 17.245266
61.510 17.333679
61.515 17.196156
61.520 16.970413
61.525 17.225103
61.530 16.999952
61.535 16.892076
61.540 17.531612
61.545 18.025881
61.550 17.965818
61.555 18.500374
61.560 18.473701
61.565 18.511208
61.570 18.744564
61.575 18.864733
61.580 18.304089
61.585 17.533361
61.590 17.101448
61.595 16.996197
61.600 17.14538
61.605 17.460665
61.610 17.312668
61.615 17.862743
61.620 18.658558
61.625 18.608112
61.630 18.525255
61.635 18.811249
61.640 18.261127
61.645 17.577505
61.650 16.898254
61.655 16.41045
61.660 16.981358
61.665 16.643805
61.670 16.216694
61.675 16.840609
61.680 17.493734
61.685 17.672977
61.690 17.901924
61.695 17.637476
61.700 17.856815
61.705 17.581669
61.710 17.420616
61.715 17.362011
61.720 17.409248
61.725 17.362509
61.730 16.915421
61.735 17.21122
61.740 17.657232
61.745 17.232412
61.750 17.271223
61.755 17.473324
61.760 17.335442
61.765 17.809029
61.770 17.946203
61.775 18.177916
61.780 18.297937
61.785 18.177738
61.790 18.154142
61.795 18.722279
61.800 18.831141
61.805 18.532301
61.810 19.071623
61.815 19.459591
61.820 19.445873
61.825 19.340647
61.830 18.705597
61.835 18.699398
61.840 18.768835
61.845 17.743855
61.850 17.04615
61.855 17.256622
61.860 17.449015
61.865 18.078976
61.870 17.982674
61.875 17.942459
61.880 18.60158
61.885 19.514328
61.890 19.758123
61.895 19.778532
61.900 19.539181
61.905 19.367832
61.910 18.946711
61.915 18.32003
61.920 18.089535
61.925 17.945492
61.930 17.456261
61.935 17.461233
61.940 17.416883
61.945 17.621292
61.950 17.698135
61.955 17.216652
61.960 17.058475
61.965 17.223272
61.970 17.401953
61.975 17.504345
61.980 17.362131
61.985 17.189974
61.990 16.925259
61.995 16.965992
62.000 16.66946
62.005 16.398359
62.010 16.591515
62.015 16.749352
62.020 17.239784
62.025 17.466501
62.030 17.066879
62.035 16.660872
62.040 16.586256
62.045 16.735264
62.050 16.65428
62.055 16.534922
62.060 16.63323
62.065 17.089071
62.070 17.534414
62.075 17.84853
62.080 17.988157
62.085 18.543531
62.090 18.330782
62.095 18.373915
62.100 18.886677
62.105 19.193642
62.110 18.759193
62.115 18.474876
62.120 18.531324
62.125 19.163303
62.130 19.528442
62.135 19.389736
62.140 19.210068
62.145 19.543907
62.150 19.811932
62.155 19.287474
62.160 18.449789
62.165 18.546328
62.170 18.988386
62.175 18.887924
62.180 18.455448
62.185 18.148998
62.190 18.171089
62.195 18.155581
62.200 17.208048
62.205 16.723667
62.210 17.044256
62.215 16.762226
62.220 16.836639
62.225 16.426472
62.230 16.484009
62.235 16.763359
62.240 17.020269
62.245 17.389111
62.250 17.973953
62.255 18.023712
62.260 18.549227
62.265 18.932999
62.270 19.007208
62.275 18.887379
62.280 18.288778
62.285 18.311625
62.290 17.899126
62.295 17.791622
62.300 17.767452
62.305 17.097298
62.310 16.808546
62.315 16.752825
62.320 16.394415
62.325 16.771675
62.330 17.242695
62.335 17.160212
62.340 17.589649
62.345 17.80373
62.350 17.519894
62.355 17.351942
62.360 17.183939
62.365 17.036182
62.370 17.080475
62.375 16.582209
62.380 16.371672
62.385 16.768436
62.390 16.752949
62.395 17.068977
62.400 17.169792
62.405 17.747665
62.410 18.582615
62.415 18.71097
62.420 18.890799
62.425 19.02297
62.430 18.742674
62.435 18.424446
62.440 18.121477
62.445 18.105104
62.450 18.877213
62.455 19.280283
62.460 19.923794
62.465 20.18502
62.470 20.399784
62.475 20.465424
62.480 20.337622
62.485 19.767836
62.490 19.264011
62.495 19.221167
62.500 18.674416
62.505 17.888145
62.510 17.980818
62.515 17.930565
62.520 18.366133
62.525 18.200642
62.530 17.608257
62.535 18.088045
62.540 18.236324
62.545 17.681475
62.550 17.137087
62.555 17.100655
62.560 17.783308
62.565 18.646088
62.570 19.184374
62.575 19.103649
62.580 19.322298
62.585 19.166178
62.590 18.451378
62.595 18.131702
62.600 17.735678
62.605 17.760582
62.610 18.104811
62.615 18.4769
62.620 18.45952
62.625 18.178213
62.630 17.678722
62.635 17.467381
62.640 17.065107
62.645 17.377337
62.650 18.038857
62.655 18.774988
62.660 18.712044
62.665 18.743195
62.670 18.739178
62.675 18.552296
62.680 18.040863
62.685 17.095701
62.690 16.851103
62.695 17.745724
62.700 17.900963
62.705 18.16641
62.710 18.092289
62.715 17.866106
62.720 17.724873
62.725 17.419685
62.730 17.897642
62.735 18.245804
62.740 18.272797
62.745 18.41762
62.750 18.740889
62.755 18.911169
62.760 18.956255
62.765 19.159924
62.770 18.836439
62.775 18.02685
62.780 17.936069
62.785 17.962658
62.790 17.813339
62.795 17.707668
62.800 17.075336
62.805 17.372854
62.810 18.145706
62.815 18.04373
62.820 17.995388
62.825 18.012806
62.830 17.807644
62.835 18.132217
62.840 17.982941
62.845 17.717325
62.850 18.002779
62.855 18.037619
62.860 18.157322
62.865 18.308384
62.870 17.597994
62.875 17.774107
62.880 17.735973
62.885 18.030691
62.890 17.288925
62.895 17.106556
62.900 16.57015
62.905 16.399212
62.910 15.926555
62.915 15.928506
62.920 15.775688
62.925 15.962727
62.930 16.033916
62.935 16.162697
62.940 16.107197
62.945 16.134315
62.950 16.106426
62.955 15.877131
62.960 15.878413
62.965 16.226959
62.970 17.370935
62.975 18.224651
62.980 18.974281
62.985 18.992004
62.990 19.865028
62.995 20.377373
63.000 20.18063
63.005 19.244831
63.010 18.631557
63.015 18.131067
63.020 17.952383
63.025 17.295034
63.030 17.273804
63.035 17.142223
63.040 17.066401
63.045 16.961002
63.050 17.241987
63.055 17.51915
63.060 17.477806
63.065 17.20364
63.070 17.737278
63.075 17.900919
63.080 18.317677
63.085 18.116207
63.090 17.76235
63.095 18.109972
63.100 18.183643
63.105 17.854965
63.110 18.120445
63.115 18.256077
63.120 18.688124
63.125 19.549974
63.130 19.157681
63.135 18.894186
63.140 19.183107
63.145 18.882023
63.150 17.910046
63.155 17.036322
63.160 16.630573
63.165 16.679173
63.170 16.871803
63.175 16.570084
63.180 16.733244
63.185 17.310638
63.190 17.322107
63.195 17.285727
63.200 17.901041
63.205 18.381464
63.210 18.376669
63.215 18.277052
63.220 18.333679
63.225 18.511656
63.230 18.139301
63.235 18.068132
63.240 17.619738
63.245 17.840763
63.250 17.953293
63.255 18.36558
63.260 18.218851
63.265 18.056879
63.270 17.522659
63.275 17.866476
63.280 17.555811
63.285 17.15015
63.290 16.517103
63.295 16.352266
63.300 16.688927
63.305 17.027372
63.310 17.169554
63.315 17.754999
63.320 18.086435
63.325 18.528885
63.330 19.277626
63.335 19.19923
63.340 19.082817
63.345 18.951485
63.350 18.587626
63.355 18.555822
63.360 17.636593
63.365 17.172594
63.370 17.403372
63.375 17.123173
63.380 16.865782
63.385 16.544798
63.390 16.615322
63.395 17.411457
63.400 17.2707
63.405 17.276384
63.410 17.210569
63.415 17.130424
63.420 17.958511
63.425 18.364286
63.430 18.625431
63.435 18.722052
63.440 18.518173
63.445 18.976948
63.450 19.496534
63.455 18.837791
63.460 18.131681
63.465 17.928549
63.470 18.261055
63.475 18.24898
63.480 18.240377
63.485 17.929295
63.490 18.086256
63.495 18.047558
63.500 17.89896
63.505 18.311581
63.510 18.54224
63.515 18.164814
63.520 18.093813
63.525 17.849989
63.530 18.028511
63.535 18.086029
63.540 17.672045
63.545 16.942356
63.550 16.577635
63.555 16.639553
63.560 16.427443
63.565 16.296095
63.570 15.965593
63.575 15.694365
63.580 16.065817
63.585 16.660841
63.590 17.052349
63.595 17.532694
63.600 17.778364
63.605 17.924065
63.610 17.967339
63.615 18.053143
63.620 17.974262
63.625 17.717972
63.630 17.28462
63.635 17.88044
63.640 18.470097
63.645 18.621468
63.650 18.626541
63.655 18.857948
63.660 19.337751
63.665 19.52944
63.670 18.814201
63.675 18.368505
63.680 18.361671
63.685 18.518074
63.690 17.879574
63.695 17.795567
63.700 18.127605
63.705 18.166174
63.710 18.108736
63.715 18.420609
63.720 18.62813
63.725 19.273535
63.730 19.296141
63.735 19.316355
63.740 19.688766
63.745 19.888531
63.750 19.378786
63.755 19.061911
63.760 18.846125
63.765 18.717066
63.770 18.374056
63.775 18.266895
63.780 17.919392
63.785 18.362778
63.790 17.944935
63.795 17.683836
63.800 17.950253
63.805 18.18515
63.810 18.407402
63.815 18.157564
63.820 17.952003
63.825 18.410927
63.830 18.546501
63.835 18.855162
63.840 19.158772
63.845 19.197079
63.850 20.130575
63.855 20.852755
63.860 20.9228
63.865 21.07412
63.870 20.513714
63.875 20.036707
63.880 19.897257
63.885 19.437506
63.890 18.844629
63.895 18.508385
63.900 18.069452
63.905 18.184538
63.910 17.962952
63.915 17.993877
63.920 18.83131
63.925 19.317024
63.930 19.345467
63.935 19.688393
63.940 20.124922
63.945 20.528534
63.950 20.212612
63.955 19.473152
63.960 19.597406
63.965 20.070824
63.970 20.135988
63.975 19.930704
63.980 20.007507
63.985 20.747486
63.990 20.816336
63.995 20.279612
64.000 19.545204
64.005 19.672869
64.010 20.146057
64.015 19.969725
64.020 19.47187
64.025 19.610287
64.030 19.998678
64.035 20.010654
64.040 19.510468
64.045 19.138945
64.050 19.061197
64.055 18.258047
64.060 17.76774
64.065 17.288626
64.070 17.586426
64.075 17.721758
64.080 17.014364
64.085 17.07407
64.090 17.561815
64.095 17.422211
64.100 17.180613
64.105 17.447248
64.110 17.928467
64.115 18.236265
64.120 18.795078
64.125 19.120552
64.130 19.501266
64.135 19.96151
64.140 19.363453
64.145 18.74115
64.150 18.610758
64.155 17.782818
64.160 17.548317
64.165 17.612085
64.170 18.150541
64.175 18.258587
64.180 18.369198
64.185 18.317438
64.190 18.866245
64.195 18.552231
64.200 18.399645
64.205 18.22048
64.210 18.560371
64.215 19.002941
64.220 18.715376
64.225 18.406342
64.230 18.597105
64.235 18.349041
64.240 18.372875
64.245 18.059786
64.250 17.984585
64.255 18.213451
64.260 18.632235
64.265 18.793867
64.270 18.947826
64.275 19.086485
64.280 19.392618
64.285 19.369213
64.290 19.722872
64.295 19.215487
64.300 19.002394
64.305 18.860785
64.310 18.86755
64.315 18.174471
64.320 17.913206
64.325 17.70495
64.330 18.113283
64.335 18.496103
64.340 18.896208
64.345 19.122143
64.350 19.677732
64.355 20.249527
64.360 20.918486
64.365 21.01902
64.370 21.106142
64.375 20.372086
64.380 20.02367
64.385 20.11595
64.390 19.608021
64.395 19.223907
64.400 19.123814
64.405 19.253876
64.410 19.858488
64.415 19.941973
64.420 19.762257
64.425 20.007105
64.430 20.053038
64.435 19.947598
64.440 19.977436
64.445 19.934521
64.450 19.868677
64.455 19.443417
64.460 19.43491
64.465 19.927149
64.470 20.362776
64.475 20.265087
64.480 19.876245
64.485 19.727348
64.490 19.896009
64.495 20.431776
64.500 20.456171
64.505 20.331429
64.510 21.008194
64.515 21.955812
64.520 21.994514
64.525 22.158422
64.530 21.743345
64.535 22.082083
64.540 21.583963
64.545 20.804192
64.550 20.598225
64.555 20.898529
64.560 20.249886
64.565 20.836748
64.570 20.219778
64.575 20.339855
64.580 20.379827
64.585 19.929014
64.590 19.947268
64.595 19.824245
64.600 18.902676
64.605 19.440157
64.610 19.662291
64.615 19.328186
64.620 19.708429
64.625 20.310448
64.630 20.669672
64.635 20.518974
64.640 20.075077
64.645 20.375845
64.650 21.035801
64.655 20.81975
64.660 20.334206
64.665 19.982971
64.670 19.67371
64.675 19.364716
64.680 18.909689
64.685 18.324007
64.690 18.505505
64.695 18.380714
64.700 19.431602
64.705 20.842257
64.710 21.931194
64.715 22.636215
64.720 22.988533
64.725 22.147512
64.730 22.3223
64.735 21.743803
64.740 21.045681
64.745 20.37755
64.750 20.397421
64.755 20.423758
64.760 21.610376
64.765 22.161926
64.770 21.969088
64.775 22.326286
64.780 22.703543
64.785 22.62191
64.790 22.620071
64.795 22.498131
64.800 22.586205
64.805 22.486813
64.810 22.317545
64.815 21.864296
64.820 21.944929
64.825 22.265089
64.830 21.575392
64.835 21.387711
64.840 22.124306
64.845 22.060812
64.850 22.029984
64.855 21.791409
64.860 20.982422
64.865 20.765549
64.870 20.969212
64.875 21.00643
64.880 21.564569
64.885 21.930763
64.890 21.682999
64.895 21.946028
64.900 22.156216
64.905 21.770372
64.910 21.403173
64.915 21.29475
64.920 20.96489
64.925 21.278049
64.930 21.80488
64.935 21.842192
64.940 22.195368
64.945 22.129293
64.950 21.24721
64.955 20.991072
64.960 20.923513
64.965 20.555368
64.970 20.737743
64.975 20.459349
64.980 20.782391
64.985 21.730129
64.990 22.296068
64.995 22.808119
65.000 23.409809
65.005 23.599876
65.010 23.816847
65.015 24.039251
65.020 25.139711
65.025 25.054583
65.030 24.544617
65.035 24.390043
65.040 24.538067
65.045 24.597704
65.050 24.369202
65.055 23.349184
65.060 23.564888
65.065 24.120724
65.070 23.588184
65.075 23.414434
65.080 23.390169
65.085 23.458921
65.090 24.107197
65.095 23.867537
65.100 23.410631
65.105 23.949598
65.110 24.169333
65.115 24.271566
65.120 24.3946
65.125 23.888245
65.130 24.042215
65.135 24.186186
65.140 24.220226
65.145 23.998404
65.150 23.784342
65.155 23.162861
65.160 22.146002
65.165 22.260168
65.170 22.661127
65.175 22.526327
65.180 22.417364
65.185 22.641029
65.190 22.563438
65.195 22.701307
65.200 22.509256
65.205 22.424379
65.210 22.809771
65.215 23.272783
65.220 23.462481
65.225 23.578226
65.230 23.860556
65.235 23.362568
65.240 23.081926
65.245 23.037039
65.250 23.210659
65.255 23.406521
65.260 23.860191
65.265 24.337736
65.270 24.955906
65.275 25.120792
65.280 24.915186
65.285 23.895947
65.290 23.32835
65.295 23.249699
65.300 22.936371
65.305 22.751734
65.310 23.4088
65.315 23.410143
65.320 23.967194
65.325 24.289349
65.330 24.434694
65.335 24.362543
65.340 24.036285
65.345 23.570232
65.350 23.174915
65.355 23.323771
65.360 23.19301
65.365 23.08123
65.370 23.785334
65.375 24.448706
65.380 24.170277
65.385 25.154537
65.390 25.569548
65.395 25.710945
65.400 25.745522
65.405 25.86677
65.410 25.324955
65.415 25.467428
65.420 24.830959
65.425 24.465412
65.430 24.694029
65.435 24.973137
65.440 25.090027
65.445 25.758884
65.450 25.705116
65.455 25.780413
65.460 25.824957
65.465 25.517536
65.470 25.159105
65.475 25.095556
65.480 25.268358
65.485 25.589436
65.490 26.537439
65.495 26.543034
65.500 26.523281
65.505 26.639771
65.510 26.863016
65.515 27.155714
65.520 26.295742
65.525 25.52426
65.530 26.01989
65.535 26.823187
65.540 27.236111
65.545 27.6045
65.550 28.528097
65.555 29.959469
65.560 30.441978
65.565 30.228413
65.570 30.312613
65.575 30.716932
65.580 31.335083
65.585 31.035526
65.590 30.344269
65.595 29.83008
65.600 30.73311
65.605 31.388594
65.610 31.723305
65.615 31.901564
65.620 32.467976
65.625 33.469635
65.630 33.830109
65.635 33.024357
65.640 32.663662
65.645 32.628036
65.650 31.769974
65.655 31.725922
65.660 31.806911
65.665 32.979843
65.670 33.19981
65.675 33.606758
65.680 33.302338
65.685 33.79195
65.690 33.964916
65.695 33.938744
65.700 33.591003
65.705 33.681961
65.710 33.602432
65.715 34.339924
65.720 34.035957
65.725 33.913227
65.730 34.045349
65.735 34.857079
65.740 35.006409
65.745 35.173378
65.750 35.38776
65.755 36.037994
65.760 35.57336
65.765 35.322929
65.770 34.882607
65.775 35.055447
65.780 35.248367
65.785 35.552177
65.790 35.675777
65.795 35.989964
65.800 36.255272
65.805 36.284592
65.810 36.04475
65.815 35.885452
65.820 36.157131
65.825 37.128029
65.830 38.099365
65.835 37.883667
65.840 37.974773
65.845 38.074986
65.850 38.152458
65.855 36.966671
65.860 36.495892
65.865 35.626911
65.870 36.675774
65.875 36.86507
65.880 36.906731
65.885 37.009109
65.890 37.838753
65.895 38.100521
65.900 39.359398
65.905 39.159832
65.910 39.072945
65.915 39.490921
65.920 39.931496
65.925 40.277916
65.930 41.162643
65.935 41.033157
65.940 41.080383
65.945 40.91143
65.950 40.434078
65.955 40.760578
65.960 40.908432
65.965 40.558044
65.970 39.979458
65.975 39.878002
65.980 40.312943
65.985 40.662437
65.990 40.110283
65.995 39.464352
66.000 38.848976
66.005 39.191391
66.010 39.179699
66.015 39.440987
66.020 38.971199
66.025 38.954216
66.030 39.084755
66.035 39.008999
66.040 39.252907
66.045 38.874924
66.050 38.485779
66.055 37.844646
66.060 37.335571
66.065 36.312088
66.070 35.643154
66.075 35.173
66.080 35.564034
66.085 35.614643
66.090 36.087795
66.095 35.971508
66.100 36.605171
66.105 37.304455
66.110 36.90514
66.115 36.829815
66.120 37.142315
66.125 37.190819
66.130 37.849937
66.135 37.89595
66.140 37.92437
66.145 37.898552
66.150 37.78632
66.155 36.859898
66.160 36.011875
66.165 35.514618
66.170 35.540104
66.175 35.476246
66.180 35.379566
66.185 35.248177
66.190 35.972622
66.195 37.081062
66.200 37.180893
66.205 37.300266
66.210 36.963348
66.215 36.465023
66.220 36.367016
66.225 36.636604
66.230 35.944855
66.235 35.545666
66.240 34.661411
66.245 34.174477
66.250 34.979515
66.255 35.07362
66.260 34.682865
66.265 35.120056
66.270 35.493984
66.275 35.396248
66.280 35.4184
66.285 34.519054
66.290 33.573757
66.295 33.311543
66.300 32.795673
66.305 32.360161
66.310 31.816259
66.315 31.045774
66.320 31.3958
66.325 31.42584
66.330 30.630627
66.335 30.230495
66.340 29.077827
66.345 28.669985
66.350 29.000208
66.355 28.796476
66.360 28.393843
66.365 28.884508
66.370 28.863558
66.375 29.83301
66.380 30.156704
66.385 30.452133
66.390 30.035389
66.395 30.15127
66.400 30.279724
66.405 30.457203
66.410 30.589371
66.415 30.85251
66.420 30.836105
66.425 31.420963
66.430 31.520277
66.435 30.971127
66.440 30.803436
66.445 30.454653
66.450 30.032215
66.455 29.811609
66.460 28.72249
66.465 28.380486
66.470 28.629913
66.475 28.275702
66.480 28.330597
66.485 27.952906
66.490 28.007418
66.495 28.716639
66.500 28.707726
66.505 28.468016
66.510 28.703207
66.515 28.840736
66.520 28.833517
66.525 28.38586
66.530 28.107008
66.535 28.328268
66.540 28.099443
66.545 27.836077
66.550 27.845556
66.555 28.430283
66.560 28.600567
66.565 28.731459
66.570 28.423578
66.575 28.509874
66.580 28.436749
66.585 27.602892
66.590 27.073238
66.595 27.311445
66.600 26.882881
66.605 26.432543
66.610 25.831476
66.615 25.539549
66.620 26.024588
66.625 26.086014
66.630 26.172112
66.635 27.083935
66.640 27.458216
66.645 27.612043
66.650 27.629932
66.655 27.621054
66.660 27.108679
66.665 26.585209
66.670 26.191286
66.675 25.858488
66.680 26.035578
66.685 25.895355
66.690 24.875719
66.695 24.786882
66.700 24.881046
66.705 24.980513
66.710 25.397938
66.715 25.699476
66.720 25.927973
66.725 26.126245
66.730 26.406729
66.735 26.056906
66.740 25.844234
66.745 24.962265
66.750 24.680027
66.755 24.823233
66.760 25.457285
66.765 25.300432
66.770 26.005859
66.775 26.4636
66.780 27.648083
66.785 27.550804
66.790 27.006813
66.795 27.137999
66.800 26.932974
66.805 26.812946
66.810 26.949497
66.815 25.831438
66.820 25.859621
66.825 26.10803
66.830 25.969507
66.835 26.422729
66.840 26.347595
66.845 25.822498
66.850 25.689869
66.855 25.248144
66.860 24.641562
66.865 24.047112
66.870 23.943485
66.875 23.335712
66.880 23.271891
66.885 24.010777
66.890 24.539539
66.895 24.447935
66.900 24.50951
66.905 23.680708
66.910 23.455891
66.915 23.371561
66.920 22.926226
66.925 22.371695
66.930 22.69062
66.935 22.815754
66.940 22.72793
66.945 22.871712
66.950 22.934921
66.955 23.400438
66.960 24.29431
66.965 24.415051
66.970 23.858027
66.975 23.713898
66.980 23.540478
66.985 23.613796
66.990 23.002178
66.995 22.758081
67.000 23.118048
67.005 23.088287
67.010 22.812342
67.015 22.264051
67.020 22.639534
67.025 22.877588
67.030 22.617409
67.035 22.715263
67.040 23.555645
67.045 24.167826
67.050 25.188152
67.055 24.609264
67.060 24.791416
67.065 24.820768
67.070 24.677784
67.075 24.039486
67.080 24.18252
67.085 24.065079
67.090 24.081133
67.095 24.017818
67.100 24.238388
67.105 24.076962
67.110 24.878948
67.115 24.656317
67.120 24.549265
67.125 24.039801
67.130 23.693636
67.135 23.651085
67.140 23.445808
67.145 22.964165
67.150 22.800737
67.155 23.029461
67.160 23.731321
67.165 23.80632
67.170 23.552174
67.175 23.89633
67.180 23.247255
67.185 23.75491
67.190 23.534164
67.195 23.162983
67.200 23.159588
67.205 23.375761
67.210 22.672028
67.215 23.650341
67.220 23.593636
67.225 23.55271
67.230 23.359318
67.235 23.062258
67.240 22.488405
67.245 23.168421
67.250 22.789749
67.255 22.555149
67.260 22.052818
67.265 22.155905
67.270 21.874508
67.275 22.328768
67.280 21.985249
67.285 21.800301
67.290 21.672565
67.295 22.365833
67.300 22.498566
67.305 23.262571
67.310 23.337221
67.315 23.510445
67.320 23.443382
67.325 23.579424
67.330 23.002449
67.335 22.615234
67.340 22.31702
67.345 22.166105
67.350 22.310587
67.355 22.688349
67.360 22.677914
67.365 23.902988
67.370 24.420156
67.375 24.476755
67.380 24.455383
67.385 23.899603
67.390 23.618435
67.395 23.044132
67.400 21.969992
67.405 20.996986
67.410 20.982891
67.415 20.797342
67.420 21.459007
67.425 21.585794
67.430 21.888277
67.435 22.184282
67.440 22.81176
67.445 22.826097
67.450 23.179556
67.455 22.526957
67.460 22.299562
67.465 21.985903
67.470 22.222988
67.475 21.877768
67.480 21.846577
67.485 21.997686
67.490 22.455746
67.495 22.871363
67.500 23.300009
67.505 23.665367
67.510 24.014029
67.515 24.320921
67.520 24.33617
67.525 24.172064
67.530 24.165621
67.535 23.544477
67.540 22.609327
67.545 22.230576
67.550 21.442513
67.555 20.751879
67.560 20.829603
67.565 20.731771
67.570 21.139475
67.575 21.557444
67.580 21.698952
67.585 22.044189
67.590 22.214861
67.595 22.217268
67.600 22.436689
67.605 22.500818
67.610 22.866257
67.615 22.646303
67.620 22.542446
67.625 22.20722
67.630 21.9568
67.635 21.612553
67.640 21.596102
67.645 21.443735
67.650 21.362598
67.655 22.182177
67.660 22.66357
67.665 22.846136
67.670 23.113008
67.675 23.201691
67.680 23.257912
67.685 23.882593
67.690 23.862253
67.695 23.588057
67.700 23.289728
67.705 23.410521
67.710 23.411335
67.715 23.559731
67.720 22.998602
67.725 22.963762
67.730 22.76268
67.735 22.635187
67.740 22.257694
67.745 22.111099
67.750 21.661366
67.755 21.504915
67.760 21.215841
67.765 21.619225
67.770 22.214621
67.775 22.160261
67.780 21.892508
67.785 21.61694
67.790 22.102217
67.795 22.586561
67.800 22.244816
67.805 22.15642
67.810 22.255491
67.815 22.220173
67.820 22.317619
67.825 21.917482
67.830 21.528677
67.835 21.73756
67.840 21.308392
67.845 20.719324
67.850 20.696474
67.855 20.942247
67.860 20.775023
67.865 21.670265
67.870 21.915533
67.875 21.869078
67.880 22.435413
67.885 22.710928
67.890 22.7199
67.895 22.982826
67.900 22.450962
67.905 22.738422
67.910 23.233353
67.915 23.436171
67.920 23.886183
67.925 24.004675
67.930 23.820415
67.935 24.223717
67.940 23.801432
67.945 23.605934
67.950 23.141905
67.955 23.081959
67.960 22.704901
67.965 22.875305
67.970 22.936127
67.975 23.606335
67.980 23.61068
67.985 24.484791
67.990 24.449232
67.995 24.549986
68.000 24.07659
68.005 23.167952
68.010 23.025747
68.015 22.800301
68.020 21.847464
68.025 21.471582
68.030 21.482557
68.035 21.611246
68.040 21.22407
68.045 20.681227
68.050 20.730453
68.055 20.54888
68.060 20.718546
68.065 20.498383
68.070 20.301788
68.075 20.857212
68.080 21.020365
68.085 21.150261
68.090 21.46623
68.095 21.507521
68.100 22.250107
68.105 22.923595
68.110 23.202551
68.115 22.914667
68.120 23.112585
68.125 23.203106
68.130 23.200901
68.135 22.575951
68.140 22.310312
68.145 22.733932
68.150 22.981234
68.155 22.627901
68.160 23.03257
68.165 23.496693
68.170 23.782087
68.175 23.447216
68.180 22.76
68.185 22.871387
68.190 23.102737
68.195 22.514196
68.200 22.151735
68.205 22.325106
68.210 22.590544
68.215 23.035139
68.220 22.856049
68.225 22.635563
68.230 23.046219
68.235 22.710503
68.240 22.406158
68.245 22.242165
68.250 21.735079
68.255 21.665638
68.260 21.991852
68.265 22.417273
68.270 22.090408
68.275 21.64208
68.280 21.395803
68.285 22.057035
68.290 22.178776
68.295 22.018902
68.300 21.049297
68.305 21.567873
68.310 21.895086
68.315 21.563925
68.320 21.128584
68.325 21.468775
68.330 22.028872
68.335 22.286207
68.340 21.912971
68.345 21.734165
68.350 22.555668
68.355 22.530849
68.360 21.948887
68.365 21.097301
68.370 21.72036
68.375 22.194695
68.380 22.039362
68.385 21.666019
68.390 22.273376
68.395 22.606577
68.400 22.425995
68.405 21.784315
68.410 21.390598
68.415 21.201515
68.420 21.020996
68.425 20.268713
68.430 20.133139
68.435 20.434685
68.440 21.067207
68.445 21.203108
68.450 22.191
68.455 22.835384
68.460 22.84417
68.465 22.874331
68.470 23.111296
68.475 23.144329
68.480 23.368584
68.485 22.628408
68.490 21.906015
68.495 22.335449
68.500 22.163105
68.505 21.65206
68.510 21.913687
68.515 21.482597
68.520 21.28908
68.525 21.754789
68.530 21.604132
68.535 21.413572
68.540 21.323755
68.545 21.16193
68.550 21.980644
68.555 22.513353
68.560 22.534016
68.565 22.735186
68.570 22.791195
68.575 23.023109
68.580 22.702892
68.585 22.521591
68.590 22.333052
68.595 21.966669
68.600 22.28923
68.605 22.833916
68.610 22.725122
68.615 23.293127
68.620 23.128727
68.625 23.452703
68.630 24.012217
68.635 24.151943
68.640 24.06765
68.645 24.575453
68.650 24.309935
68.655 23.563007
68.660 22.859034
68.665 21.718332
68.670 21.378633
68.675 21.051033
68.680 20.058395
68.685 19.779835
68.690 20.652008
68.695 20.80422
68.700 20.978563
68.705 20.619865
68.710 20.121141
68.715 20.110033
68.720 19.833412
68.725 20.166508
68.730 20.879456
68.735 21.603884
68.740 22.021646
68.745 22.114412
68.750 22.554522
68.755 22.665993
68.760 22.819366
68.765 23.292301
68.770 23.211306
68.775 23.254089
68.780 23.925814
68.785 23.826227
68.790 24.140375
68.795 23.196888
68.800 23.033806
68.805 23.304598
68.810 23.891441
68.815 24.063698
68.820 24.065538
68.825 24.440277
68.830 24.570959
68.835 24.188082
68.840 24.196733
68.845 23.672939
68.850 23.813112
68.855 24.294262
68.860 24.445728
68.865 24.979357
68.870 25.07176
68.875 24.421062
68.880 24.019318
68.885 24.527342
68.890 24.318735
68.895 23.726784
68.900 23.49441
68.905 24.144571
68.910 24.514198
68.915 24.334225
68.920 23.257479
68.925 22.805954
68.930 22.806517
68.935 22.810614
68.940 22.946846
68.945 23.480148
68.950 24.060335
68.955 24.515219
68.960 24.540749
68.965 24.712248
68.970 24.201513
68.975 23.65477
68.980 23.884266
68.985 24.123678
68.990 23.976402
68.995 24.556301
69.000 25.453833
69.005 26.040583
69.010 26.24044
69.015 25.547712
69.020 25.362717
69.025 25.261417
69.030 24.955608
69.035 24.318968
69.040 24.329897
69.045 24.708305
69.050 24.51473
69.055 24.66655
69.060 25.500412
69.065 26.023844
69.070 26.373293
69.075 25.933565
69.080 26.144779
69.085 26.485193
69.090 26.848099
69.095 26.733013
69.100 26.722019
69.105 26.525537
69.110 26.314222
69.115 25.796146
69.120 26.371342
69.125 26.202978
69.130 26.047157
69.135 25.615088
69.140 26.002733
69.145 26.146811
69.150 26.024605
69.155 26.227915
69.160 26.101698
69.165 25.817984
69.170 25.788248
69.175 25.269911
69.180 26.000055
69.185 26.243998
69.190 25.837465
69.195 25.945654
69.200 26.637913
69.205 26.790434
69.210 27.284878
69.215 27.336445
69.220 27.465122
69.225 28.0977
69.230 27.897999
69.235 28.134991
69.240 28.57608
69.245 28.886637
69.250 28.981991
69.255 28.164696
69.260 27.79406
69.265 28.01314
69.270 27.518553
69.275 27.398502
69.280 26.900736
69.285 26.74321
69.290 27.388601
69.295 27.955671
69.300 28.221651
69.305 28.343744
69.310 27.805931
69.315 27.744047
69.320 28.341719
69.325 28.83987
69.330 28.647051
69.335 28.611418
69.340 29.922127
69.345 31.217154
69.350 32.451572
69.355 32.627167
69.360 31.870651
69.365 31.697515
69.370 31.495508
69.375 30.553989
69.380 29.14415
69.385 28.482357
69.390 28.482077
69.395 28.200378
69.400 28.173393
69.405 27.426126
69.410 27.33363
69.415 28.273607
69.420 28.228313
69.425 28.387348
69.430 28.397654
69.435 28.426451
69.440 28.735304
69.445 29.148512
69.450 29.282227
69.455 28.714216
69.460 28.445683
69.465 28.477448
69.470 28.56403
69.475 29.025085
69.480 28.974112
69.485 29.560572
69.490 30.338621
69.495 30.527994
69.500 30.739618
69.505 31.261736
69.510 31.578773
69.515 30.927961
69.520 29.400908
69.525 29.262417
69.530 28.46269
69.535 28.77404
69.540 28.55583
69.545 27.894291
69.550 28.550648
69.555 28.200605
69.560 28.384367
69.565 29.121017
69.570 29.007315
69.575 29.337753
69.580 30.024687
69.585 29.151503
69.590 28.947754
69.595 28.732407
69.600 28.763102
69.605 28.740313
69.610 27.972004
69.615 27.490704
69.620 28.212481
69.625 29.112722
69.630 29.179562
69.635 29.540073
69.640 29.646814
69.645 30.426159
69.650 30.746233
69.655 30.298956
69.660 30.071886
69.665 29.427099
69.670 28.972523
69.675 29.008444
69.680 28.424498
69.685 28.779119
69.690 28.763603
69.695 28.319792
69.700 29.007313
69.705 29.292023
69.710 28.801704
69.715 28.617405
69.720 28.563248
69.725 28.766571
69.730 29.126755
69.735 29.037125
69.740 28.40777
69.745 28.502068
69.750 28.778252
69.755 28.414085
69.760 28.927195
69.765 27.854645
69.770 26.858328
69.775 26.911943
69.780 26.983994
69.785 26.903006
69.790 26.264467
69.795 26.272161
69.800 26.681599
69.805 26.420458
69.810 26.164923
69.815 25.471157
69.820 25.427742
69.825 25.526619
69.830 25.248516
69.835 25.00202
69.840 24.760403
69.845 24.504543
69.850 24.021296
69.855 24.214689
69.860 24.18252
69.865 24.178774
69.870 24.316206
69.875 25.08176
69.880 25.585564
69.885 25.209805
69.890 24.793505
69.895 25.009495
69.900 25.191534
69.905 25.354267
69.910 24.42145
69.915 24.301273
69.920 24.617352
69.925 24.678013
69.930 23.632055
69.935 23.008816
69.940 22.853823
69.945 22.900246
69.950 22.761259
69.955 22.765162
69.960 22.550669
69.965 23.04719
69.970 23.324596
69.975 23.206936
69.980 22.882235
69.985 22.471867
69.990 22.187546
69.995 22.208183
70.000 22.089359
70.005 21.588968
70.010 21.272736
70.015 21.929155
70.020 21.806747
70.025 21.887548
70.030 21.581194
70.035 21.961296
70.040 22.335718
70.045 22.716528
70.050 22.723299
70.055 23.33992
70.060 22.916353
70.065 23.224138
70.070 22.652046
70.075 22.727077
70.080 22.414854
70.085 21.52401
70.090 21.185196
70.095 21.468176
70.100 21.160038
70.105 20.21966
70.110 19.70191
70.115 19.972586
70.120 20.062254
70.125 19.675137
70.130 18.991795
70.135 18.885567
70.140 19.882114
70.145 19.813578
70.150 18.909943
70.155 19.064554
70.160 19.816126
70.165 20.588778
70.170 20.745325
70.175 20.356682
70.180 20.896172
70.185 22.345295
70.190 22.208521
70.195 22.345608
70.200 22.379551
70.205 22.307064
70.210 22.259272
70.215 22.285702
70.220 21.763922
70.225 21.618441
70.230 21.325811
70.235 21.750174
70.240 22.523886
70.245 22.655931
70.250 22.845863
70.255 23.061028
70.260 23.197145
70.265 23.132908
70.270 22.710785
70.275 22.621136
70.280 22.780935
70.285 22.601929
70.290 22.619343
70.295 22.522215
70.300 22.525475
70.305 22.280069
70.310 21.901598
70.315 21.757502
70.320 21.696154
70.325 21.02124
70.330 21.032816
70.335 20.973679
70.340 20.70583
70.345 20.17672
70.350 19.857477
70.355 19.442686
70.360 18.959801
70.365 18.740517
70.370 18.609707
70.375 18.990982
70.380 19.268194
70.385 19.623829
70.390 20.286152
70.395 21.181278
70.400 21.602251
70.405 22.130623
70.410 22.315742
70.415 21.980743
70.420 22.212986
70.425 22.022856
70.430 21.589657
70.435 21.335741
70.440 21.248566
70.445 20.333998
70.450 20.547682
70.455 19.925917
70.460 19.83745
70.465 19.794165
70.470 19.401014
70.475 19.281723
70.480 20.323614
70.485 20.25629
70.490 21.00382
70.495 21.588814
70.500 21.422031
70.505 21.636951
70.510 21.603527
70.515 21.74155
70.520 21.341446
70.525 20.793201
70.530 20.68821
70.535 20.803249
70.540 20.813742
70.545 20.899731
70.550 20.68239
70.555 20.694748
70.560 20.966854
70.565 21.441469
70.570 21.602169
70.575 21.175106
70.580 21.206123
70.585 21.164326
70.590 21.200184
70.595 20.88829
70.600 20.396465
70.605 20.118595
70.610 20.500702
70.615 20.49309
70.620 20.505548
70.625 20.377071
70.630 20.29147
70.635 20.458921
70.640 20.326181
70.645 19.669897
70.650 19.012007
70.655 19.637609
70.660 19.290594
70.665 18.710892
70.670 18.760572
70.675 19.270746
70.680 19.367542
70.685 19.917158
70.690 19.887712
70.695 20.083595
70.700 20.852564
70.705 20.949272
70.710 20.380856
70.715 20.906111
70.720 20.977932
70.725 20.737848
70.730 20.680847
70.735 19.554638
70.740 19.552135
70.745 19.767302
70.750 19.762548
70.755 19.829121
70.760 20.280735
70.765 20.527498
70.770 20.765448
70.775 20.706514
70.780 20.594723
70.785 20.256889
70.790 20.14082
70.795 19.786299
70.800 20.020535
70.805 20.800194
70.810 20.711987
70.815 20.823162
70.820 20.46401
70.825 20.336098
70.830 20.062586
70.835 20.179298
70.840 19.79723
70.845 19.747063
70.850 20.336945
70.855 21.098104
70.860 21.449913
70.865 21.665573
70.870 21.346153
70.875 21.765842
70.880 21.768644
70.885 21.266176
70.890 20.499874
70.895 20.162092
70.900 20.107269
70.905 20.310591
70.910 19.956602
70.915 19.791533
70.920 19.041193
70.925 18.35239
70.930 18.442944
70.935 18.099043
70.940 17.146135
70.945 17.307577
70.950 17.52317
70.955 18.262125
70.960 18.846338
70.965 18.682379
70.970 19.548481
70.975 20.353712
70.980 20.159985
70.985 19.915426
70.990 19.284842
70.995 18.748165
71.000 18.364063
71.005 17.761898
71.010 17.623676
71.015 18.010473
71.020 18.191441
71.025 18.681185
71.030 19.030569
71.035 18.982141
71.040 19.067944
71.045 18.845314
71.050 18.450909
71.055 19.034021
71.060 19.505863
71.065 19.799198
71.070 20.243267
71.075 20.219126
71.080 20.425161
71.085 20.310999
71.090 19.663479
71.095 19.177654
71.100 18.69319
71.105 18.474493
71.110 17.969934
71.115 18.04183
71.120 17.971352
71.125 18.582756
71.130 18.84779
71.135 18.954893
71.140 19.233397
71.145 19.552052
71.150 19.305023
71.155 18.926825
71.160 18.223789
71.165 18.620331
71.170 19.251183
71.175 19.425335
71.180 19.052181
71.185 19.657993
71.190 19.862831
71.195 19.592169
71.200 19.70639
71.205 20.175686
71.210 20.074896
71.215 20.504042
71.220 20.364382
71.225 20.125126
71.230 20.474863
71.235 19.804598
71.240 19.102867
71.245 19.216928
71.250 19.683916
71.255 19.826632
71.260 20.350628
71.265 20.557571
71.270 20.274744
71.275 20.247616
71.280 20.417458
71.285 20.352438
71.290 21.185883
71.295 20.988628
71.300 20.573641
71.305 20.643412
71.310 20.500122
71.315 20.075703
71.320 19.679182
71.325 18.350225
71.330 18.192099
71.335 18.423019
71.340 18.482182
71.345 18.690199
71.350 18.991659
71.355 19.62575
71.360 19.739733
71.365 20.040792
71.370 20.17943
71.375 20.381477
71.380 19.582663
71.385 19.251635
71.390 18.868168
71.395 19.605249
71.400 19.930178
71.405 20.417007
71.410 20.999056
71.415 21.382196
71.420 21.265018
71.425 21.524691
71.430 21.234529
71.435 20.693142
71.440 20.014833
71.445 19.664421
71.450 19.688826
71.455 19.48126
71.460 18.802439
71.465 18.831791
71.470 19.498575
71.475 20.00684
71.480 20.666815
71.485 20.808281
71.490 21.080158
71.495 21.499918
71.500 21.212729
71.505 20.642971
71.510 20.240448
71.515 19.681074
71.520 19.916885
71.525 20.405519
71.530 20.444407
71.535 20.666451
71.540 20.755941
71.545 20.347864
71.550 20.645338
71.555 20.505411
71.560 20.203939
71.565 20.325994
71.570 20.218567
71.575 20.496702
71.580 20.560051
71.585 20.584873
71.590 21.004871
71.595 21.191267
71.600 21.319492
71.605 21.177029
71.610 20.889753
71.615 20.377966
71.620 20.354279
71.625 20.216724
71.630 20.630726
71.635 20.972126
71.640 21.303194
71.645 21.382433
71.650 21.430788
71.655 20.938406
71.660 20.593697
71.665 19.82341
71.670 18.892958
71.675 18.300121
71.680 17.942827
71.685 17.849487
71.690 17.964411
71.695 18.047649
71.700 18.333971
71.705 18.479008
71.710 17.96137
71.715 18.70413
71.720 18.857471
71.725 18.647869
71.730 18.607712
71.735 18.785297
71.740 19.174438
71.745 19.754688
71.750 19.525095
71.755 19.825144
71.760 19.492508
71.765 19.229073
71.770 18.934269
71.775 19.070837
71.780 19.095486
71.785 18.963732
71.790 18.801048
71.795 19.286428
71.800 19.4911
71.805 19.504498
71.810 18.914894
71.815 18.666243
71.820 19.203245
71.825 19.338388
71.830 19.047544
71.835 19.049366
71.840 19.678024
71.845 20.353506
71.850 20.222076
71.855 19.486752
71.860 19.076797
71.865 18.830227
71.870 18.613029
71.875 18.456461
71.880 18.304449
71.885 18.906067
71.890 18.977438
71.895 19.173092
71.900 19.295019
71.905 19.425898
71.910 19.859985
71.915 19.157827
71.920 19.228052
71.925 19.737513
71.930 19.39271
71.935 18.976347
71.940 18.772852
71.945 18.720633
71.950 18.846004
71.955 18.306553
71.960 18.417385
71.965 18.747292
71.970 19.424875
71.975 19.283562
71.980 19.63689
71.985 19.754269
71.990 19.379936
71.995 18.948912
72.000 19.062677
72.005 19.034863
72.010 18.671444
72.015 18.268782
72.020 18.328474
72.025 19.179667
72.030 19.386873
72.035 19.014732
72.040 19.154119
72.045 19.443607
72.050 19.743109
72.055 20.028704
72.060 19.70479
72.065 19.728495
72.070 19.542404
72.075 19.341398
72.080 19.903791
72.085 19.972742
72.090 20.145065
72.095 20.354786
72.100 20.421116
72.105 20.708693
72.110 20.852976
72.115 20.308237
72.120 19.972702
72.125 19.607594
72.130 20.197245
72.135 20.131123
72.140 19.741926
72.145 19.826223
72.150 20.258085
72.155 20.119308
72.160 19.833069
72.165 19.768906
72.170 20.110704
72.175 20.541029
72.180 20.205507
72.185 19.543474
72.190 19.994215
72.195 19.929071
72.200 19.414526
72.205 19.031034
72.210 18.694796
72.215 18.922905
72.220 18.952791
72.225 19.265478
72.230 19.562334
72.235 20.287405
72.240 20.681635
72.245 20.758087
72.250 20.344353
72.255 19.705563
72.260 18.944117
72.265 18.631405
72.270 18.10368
72.275 18.059481
72.280 18.292234
72.285 18.74431
72.290 19.098772
72.295 19.150238
72.300 18.944897
72.305 18.7192
72.310 18.212807
72.315 18.561834
72.320 18.724855
72.325 18.885067
72.330 19.351503
72.335 19.824699
72.340 20.685392
72.345 21.085163
72.350 20.503517
72.355 20.721889
72.360 20.179989
72.365 20.121386
72.370 19.610165
72.375 19.126175
72.380 19.173653
72.385 18.626078
72.390 18.721754
72.395 19.144215
72.400 18.792229
72.405 18.353489
72.410 17.735128
72.415 18.07987
72.420 18.523331
72.425 18.575951
72.430 18.621672
72.435 18.849691
72.440 19.119837
72.445 19.756552
72.450 20.029846
72.455 20.563368
72.460 20.253485
72.465 19.873344
72.470 19.689491
72.475 19.714972
72.480 19.169991
72.485 18.333136
72.490 17.951643
72.495 17.440762
72.500 17.7227
72.505 18.220833
72.510 17.936882
72.515 17.909763
72.520 18.202679
72.525 18.360378
72.530 18.816034
72.535 19.02717
72.540 19.255377
72.545 19.498215
72.550 19.891863
72.555 19.465054
72.560 18.918215
72.565 18.271557
72.570 17.609953
72.575 17.247484
72.580 17.671492
72.585 17.744112
72.590 17.980839
72.595 18.389402
72.600 19.01894
72.605 18.995342
72.610 19.198112
72.615 18.751951
72.620 18.728071
72.625 19.038132
72.630 18.776073
72.635 18.85594
72.640 18.431812
72.645 18.011856
72.650 18.042206
72.655 17.677441
72.660 17.272186
72.665 16.724329
72.670 16.656652
72.675 16.570505
72.680 16.281971
72.685 16.1355
72.690 16.721373
72.695 17.53512
72.700 18.310587
72.705 18.545059
72.710 19.040922
72.715 19.023087
72.720 18.865051
72.725 18.337717
72.730 18.590212
72.735 17.854582
72.740 18.36194
72.745 19.042767
72.750 19.049761
72.755 18.498604
72.760 18.482557
72.765 18.598415
72.770 18.410418
72.775 17.4538
72.780 16.804281
72.785 16.749487
72.790 17.352264
72.795 16.931875
72.800 16.884892
72.805 17.296486
72.810 17.222319
72.815 17.8964
72.820 18.09481
72.825 17.457806
72.830 17.195801
72.835 17.568281
72.840 17.488401
72.845 17.445051
72.850 17.253395
72.855 17.450184
72.860 17.7775
72.865 17.263277
72.870 16.396618
72.875 16.111372
72.880 16.207209
72.885 16.4098
72.890 16.23226
72.895 16.359043
72.900 16.361877
72.905 16.739868
72.910 17.057961
72.915 17.30592
72.920 17.331701
72.925 18.008369
72.930 18.603661
72.935 19.377771
72.940 19.64822
72.945 19.850723
72.950 19.377232
72.955 18.851381
72.960 18.172596
72.965 17.897724
72.970 17.705128
72.975 17.527775
72.980 17.633701
72.985 17.96855
72.990 18.282616
72.995 17.481247
73.000 17.626621
