!@!!GADDS PLOTSO FILE: Chi integration type
!@!!Title/SampleName: map-43
!@!!Comment: ?
!@!!User: Bruker Instrument Administrator
!@!!Site: University of Illinois Chicago
!@!!Frame: map-43_01_000.gfrm
!@!!Wavelengths    1.54184   1.54056   1.54439
!@!!Frame angles: 2Theta: 63.000 Omega: 50.000 Phi: 0.000 Chi: 90.000
!@!!Integration range: 2Theta: 53.000 to 73.000  Gamma: -105.000 to -75.000
!@!!Integration method: bin normalized
!@!N
!@!SS
!@!M
!@!L 0.0 0.0 0.0 0.0
!@!XDegrees
!@!YCounts
53.000 7.251428
53.005 7.374058
53.010 7.328882
53.015 7.203763
53.020 7.676602
53.025 7.876162
53.030 8.375499
53.035 8.525177
53.040 8.297002
53.045 8.384739
53.050 8.071218
53.055 7.934488
53.060 7.786556
53.065 7.663674
53.070 7.339485
53.075 7.05691
53.080 6.972588
53.085 7.351039
53.090 7.262967
53.095 6.672346
53.100 6.261264
53.105 6.442564
53.110 6.592979
53.115 6.817753
53.120 6.47299
53.125 6.207242
53.130 6.585397
53.135 6.632795
53.140 6.814923
53.145 7.008737
53.150 6.815404
53.155 7.272987
53.160 7.37886
53.165 7.36344
53.170 7.559759
53.175 7.520144
53.180 7.340961
53.185 7.152246
53.190 6.680945
53.195 6.739381
53.200 6.746643
53.205 6.884094
53.210 7.073695
53.215 7.562019
53.220 7.951833
53.225 8.054755
53.230 8.307558
53.235 8.093359
53.240 7.876921
53.245 7.936259
53.250 7.48346
53.255 7.341004
53.260 7.501513
53.265 7.394582
53.270 7.558582
53.275 7.559786
53.280 7.565956
53.285 7.808312
53.290 7.755119
53.295 7.622634
53.300 7.628105
53.305 7.793407
53.310 7.518724
53.315 7.806775
53.320 8.050273
53.325 7.953253
53.330 7.86927
53.335 7.454767
53.340 7.47621
53.345 7.81468
53.350 7.406482
53.355 7.160178
53.360 7.345466
53.365 7.690574
53.370 8.09628
53.375 7.798481
53.380 7.658051
53.385 7.571513
53.390 7.833922
53.395 7.9821
53.400 7.833895
53.405 7.751966
53.410 8.114802
53.415 8.132732
53.420 7.96553
53.425 7.82614
53.430 7.916129
53.435 7.93799
53.440 8.064764
53.445 7.749763
53.450 7.990261
53.455 8.477116
53.460 8.556558
53.465 8.84197
53.470 8.710464
53.475 8.442829
53.480 8.530402
53.485 8.436714
53.490 8.185775
53.495 7.502123
53.500 7.148795
53.505 7.235227
53.510 7.331805
53.515 7.477102
53.520 7.279952
53.525 7.154725
53.530 7.340052
53.535 7.058547
53.540 7.021833
53.545 7.557986
53.550 7.606636
53.555 8.17638
53.560 8.882292
53.565 9.270778
53.570 9.364618
53.575 9.496059
53.580 9.182178
53.585 8.817965
53.590 8.59926
53.595 8.650121
53.600 8.525634
53.605 8.327669
53.610 7.819045
53.615 8.131669
53.620 8.264401
53.625 8.375693
53.630 8.653968
53.635 9.257598
53.640 9.975893
53.645 10.192607
53.650 9.848885
53.655 9.301355
53.660 8.831134
53.665 8.508212
53.670 8.455292
53.675 8.239947
53.680 8.372173
53.685 8.633863
53.690 9.087776
53.695 9.118917
53.700 9.042336
53.705 9.098672
53.710 9.006274
53.715 8.811286
53.720 8.619497
53.725 8.719284
53.730 9.092059
53.735 9.237142
53.740 9.483919
53.745 9.722625
53.750 10.096047
53.755 10.34592
53.760 10.0832
53.765 9.941593
53.770 9.664104
53.775 8.987527
53.780 9.124105
53.785 8.709955
53.790 8.457658
53.795 8.343562
53.800 8.020039
53.805 7.940176
53.810 8.112796
53.815 7.850024
53.820 7.949663
53.825 8.199226
53.830 8.357805
53.835 8.379396
53.840 8.181811
53.845 8.361786
53.850 8.554128
53.855 8.377876
53.860 8.140537
53.865 8.180137
53.870 7.945869
53.875 8.315015
53.880 8.471635
53.885 8.782344
53.890 9.074469
53.895 8.812025
53.900 8.702786
53.905 8.900894
53.910 8.213948
53.915 7.700089
53.920 7.528672
53.925 7.415699
53.930 7.59502
53.935 7.669872
53.940 8.002477
53.945 8.593102
53.950 8.818429
53.955 8.787446
53.960 9.434435
53.965 9.612741
53.970 9.485676
53.975 9.226864
53.980 9.244996
53.985 9.204018
53.990 9.162259
53.995 9.11855
54.000 9.233678
54.005 9.412652
54.010 9.288677
54.015 9.075695
54.020 9.218532
54.025 9.36896
54.030 8.986479
54.035 9.074035
54.040 8.861507
54.045 8.498394
54.050 8.441469
54.055 8.235432
54.060 8.331977
54.065 8.102357
54.070 7.805338
54.075 8.050076
54.080 8.134665
54.085 8.449131
54.090 8.397874
54.095 8.212334
54.100 8.239555
54.105 7.919523
54.110 7.706867
54.115 7.480187
54.120 7.226682
54.125 7.679478
54.130 7.362653
54.135 8.181908
54.140 8.366888
54.145 8.578609
54.150 9.058939
54.155 9.310913
54.160 9.462653
54.165 9.805943
54.170 9.507865
54.175 9.796262
54.180 9.732349
54.185 9.582264
54.190 9.265185
54.195 8.854388
54.200 9.089067
54.205 8.929279
54.210 8.755072
54.215 8.407681
54.220 8.315599
54.225 8.65272
54.230 8.855513
54.235 8.888627
54.240 9.3641
54.245 9.585495
54.250 9.843465
54.255 9.674262
54.260 9.603064
54.265 9.580428
54.270 9.408322
54.275 9.37139
54.280 9.339105
54.285 9.172202
54.290 9.153419
54.295 9.234535
54.300 8.580146
54.305 8.138449
54.310 8.109935
54.315 8.331586
54.320 8.370201
54.325 8.267324
54.330 8.048856
54.335 8.367092
54.340 8.821217
54.345 8.800166
54.350 8.562885
54.355 8.283508
54.360 8.344518
54.365 8.498625
54.370 8.693976
54.375 8.420686
54.380 8.768682
54.385 9.067285
54.390 9.279016
54.395 9.255367
54.400 9.02741
54.405 8.870004
54.410 8.743998
54.415 8.453317
54.420 8.33287
54.425 8.2981
54.430 8.358035
54.435 8.500044
54.440 8.795353
54.445 9.064664
54.450 9.459517
54.455 9.743115
54.460 9.87831
54.465 9.860088
54.470 9.762468
54.475 9.810542
54.480 9.355515
54.485 8.891185
54.490 8.962894
54.495 8.745606
54.500 8.730611
54.505 8.94095
54.510 8.809975
54.515 9.136891
54.520 9.113351
54.525 8.911551
54.530 9.218451
54.535 9.317345
54.540 9.25348
54.545 8.992437
54.550 8.849835
54.555 8.971019
54.560 9.160607
54.565 8.87049
54.570 8.573397
54.575 8.751354
54.580 8.877576
54.585 8.983335
54.590 8.940677
54.595 8.717361
54.600 8.736065
54.605 9.119314
54.610 9.034183
54.615 8.893719
54.620 9.104014
54.625 8.994086
54.630 9.340825
54.635 9.432856
54.640 8.760595
54.645 8.924381
54.650 9.299786
54.655 9.003987
54.660 9.343627
54.665 9.452558
54.670 9.643478
54.675 9.723748
54.680 9.787874
54.685 9.593649
54.690 9.872131
54.695 9.671431
54.700 9.907382
54.705 10.144934
54.710 10.543958
54.715 10.426779
54.720 10.172433
54.725 10.053341
54.730 9.982041
54.735 9.50526
54.740 9.074816
54.745 8.742214
54.750 8.934202
54.755 9.640082
54.760 10.146758
54.765 10.48607
54.770 10.762761
54.775 11.30797
54.780 11.511935
54.785 11.134983
54.790 10.407496
54.795 9.886737
54.800 9.357224
54.805 9.217125
54.810 8.973212
54.815 9.017586
54.820 9.325678
54.825 9.409441
54.830 9.428369
54.835 9.434833
54.840 9.42751
54.845 9.303881
54.850 9.60631
54.855 9.757182
54.860 10.07745
54.865 10.4215
54.870 10.993323
54.875 11.309805
54.880 11.207968
54.885 11.163718
54.890 11.035421
54.895 10.697674
54.900 10.288192
54.905 9.955679
54.910 9.946256
54.915 10.432507
54.920 10.495599
54.925 10.826053
54.930 11.34999
54.935 11.566504
54.940 11.610558
54.945 11.363286
54.950 11.433613
54.955 11.446042
54.960 11.703241
54.965 11.509294
54.970 11.322151
54.975 11.066601
54.980 10.834683
54.985 10.060274
54.990 9.092788
54.995 8.525489
55.000 8.260113
55.005 8.324265
55.010 8.617412
55.015 8.708906
55.020 9.28764
55.025 9.925302
55.030 10.295863
55.035 10.440925
55.040 10.420332
55.045 10.190014
55.050 9.976733
55.055 9.75425
55.060 9.519015
55.065 9.850268
55.070 10.130617
55.075 10.4562
55.080 10.505057
55.085 10.451649
55.090 10.433973
55.095 10.36224
55.100 10.012116
55.105 10.247792
55.110 10.470049
55.115 10.767255
55.120 10.947999
55.125 10.632429
55.130 10.629578
55.135 10.652283
55.140 9.976746
55.145 9.547888
55.150 9.739526
55.155 9.554679
55.160 9.403863
55.165 9.117628
55.170 9.15111
55.175 9.43338
55.180 9.762365
55.185 9.633704
55.190 10.066075
55.195 10.223457
55.200 10.173322
55.205 9.793647
55.210 10.032996
55.215 9.777556
55.220 9.540269
55.225 9.624345
55.230 9.809951
55.235 10.179301
55.240 10.175802
55.245 9.769441
55.250 9.902228
55.255 9.853875
55.260 9.309381
55.265 9.513675
55.270 9.605682
55.275 9.777616
55.280 9.777383
55.285 9.919022
55.290 10.198892
55.295 10.877226
55.300 11.071209
55.305 11.051929
55.310 11.023581
55.315 11.081824
55.320 10.671927
55.325 10.499638
55.330 10.201902
55.335 9.899986
55.340 10.190508
55.345 10.293897
55.350 10.489844
55.355 10.59101
55.360 11.022011
55.365 10.670203
55.370 10.170112
55.375 9.795186
55.380 9.674209
55.385 9.543469
55.390 9.855968
55.395 9.55336
55.400 9.828071
55.405 10.447377
55.410 10.443764
55.415 10.297219
55.420 10.279764
55.425 9.790792
55.430 10.094193
55.435 9.880339
55.440 9.392042
55.445 9.586156
55.450 9.773312
55.455 9.777603
55.460 9.776738
55.465 9.586572
55.470 10.094151
55.475 10.477965
55.480 10.251888
55.485 10.493623
55.490 11.106349
55.495 11.100543
55.500 10.855667
55.505 10.596681
55.510 10.194105
55.515 9.942046
55.520 9.38268
55.525 9.292487
55.530 9.5959
55.535 10.56527
55.540 10.733659
55.545 11.056479
55.550 10.916774
55.555 10.90759
55.560 10.909175
55.565 11.046408
55.570 10.628236
55.575 10.218419
55.580 10.669872
55.585 11.327841
55.590 11.150722
55.595 11.150649
55.600 10.661094
55.605 10.839986
55.610 11.396195
55.615 10.986479
55.620 11.0357
55.625 11.257976
55.630 11.108098
55.635 11.063216
55.640 10.559789
55.645 10.453966
55.650 10.537314
55.655 10.310812
55.660 10.229669
55.665 10.147619
55.670 10.189213
55.675 10.304433
55.680 9.898236
55.685 10.045986
55.690 10.122874
55.695 9.814557
55.700 9.967001
55.705 9.991717
55.710 10.100111
55.715 10.240922
55.720 10.072194
55.725 10.150425
55.730 10.558038
55.735 10.566048
55.740 10.415663
55.745 10.07484
55.750 10.376721
55.755 10.477497
55.760 10.610293
55.765 10.493511
55.770 10.50268
55.775 10.790269
55.780 11.080471
55.785 10.983129
55.790 11.130185
55.795 11.245761
55.800 11.155723
55.805 11.119617
55.810 10.824117
55.815 10.383274
55.820 10.351053
55.825 9.894191
55.830 10.067958
55.835 10.211974
55.840 10.263724
55.845 10.942712
55.850 10.77458
55.855 10.782006
55.860 10.796492
55.865 10.668354
55.870 10.659684
55.875 10.662056
55.880 10.142126
55.885 10.545127
55.890 10.492957
55.895 10.450748
55.900 9.870044
55.905 9.594626
55.910 10.049673
55.915 10.803483
55.920 10.902382
55.925 10.972774
55.930 11.081153
55.935 11.395504
55.940 11.42653
55.945 11.254188
55.950 11.298202
55.955 11.429072
55.960 11.534455
55.965 11.686934
55.970 11.977033
55.975 11.839993
55.980 11.491683
55.985 10.551657
55.990 10.049096
55.995 10.307573
56.000 10.429293
56.005 10.281433
56.010 10.494205
56.015 10.882147
56.020 11.575534
56.025 11.533714
56.030 11.715551
56.035 11.442368
56.040 11.161372
56.045 10.470237
56.050 10.342153
56.055 10.384705
56.060 10.130762
56.065 9.867127
56.070 10.267576
56.075 10.846695
56.080 11.225916
56.085 10.957572
56.090 11.013983
56.095 10.935176
56.100 10.793169
56.105 10.602598
56.110 10.887029
56.115 10.871342
56.120 11.103292
56.125 11.06334
56.130 11.452819
56.135 11.630587
56.140 11.70283
56.145 11.004285
56.150 10.722121
56.155 10.80131
56.160 11.008511
56.165 11.004209
56.170 11.190783
56.175 11.209854
56.180 11.451544
56.185 11.495812
56.190 11.625778
56.195 11.577112
56.200 11.53615
56.205 11.143554
56.210 11.432775
56.215 11.485229
56.220 11.474353
56.225 11.079996
56.230 11.070429
56.235 11.377293
56.240 11.36183
56.245 11.140257
56.250 11.462612
56.255 11.757284
56.260 12.317398
56.265 12.281628
56.270 12.111848
56.275 12.323328
56.280 12.189293
56.285 11.967581
56.290 12.066415
56.295 11.387925
56.300 11.021468
56.305 11.181334
56.310 11.648438
56.315 12.191559
56.320 12.252625
56.325 12.0415
56.330 12.430807
56.335 12.937646
56.340 12.54589
56.345 11.989407
56.350 11.861436
56.355 11.906551
56.360 11.328273
56.365 10.893879
56.370 10.807023
56.375 10.656115
56.380 10.653159
56.385 10.057881
56.390 10.451465
56.395 10.940987
56.400 11.535187
56.405 11.436685
56.410 11.40726
56.415 11.262874
56.420 11.114192
56.425 10.779957
56.430 10.708044
56.435 11.023569
56.440 11.097227
56.445 11.788059
56.450 12.048179
56.455 12.230936
56.460 12.424299
56.465 12.047137
56.470 11.286653
56.475 10.946856
56.480 10.681437
56.485 11.18361
56.490 11.289141
56.495 11.019239
56.500 10.859262
56.505 11.425243
56.510 11.429965
56.515 11.026235
56.520 11.077852
56.525 11.585885
56.530 11.974339
56.535 12.232373
56.540 12.121243
56.545 11.978088
56.550 11.904666
56.555 11.43436
56.560 10.694906
56.565 11.442805
56.570 11.786006
56.575 11.424047
56.580 11.597889
56.585 11.61882
56.590 11.908453
56.595 12.008883
56.600 10.896625
56.605 10.472246
56.610 10.228331
56.615 10.115708
56.620 10.060647
56.625 9.824835
56.630 10.223275
56.635 10.852923
56.640 11.711348
56.645 12.441746
56.650 13.096482
56.655 13.221178
56.660 13.521158
56.665 13.463354
56.670 13.227632
56.675 13.235799
56.680 13.132401
56.685 13.144501
56.690 13.232045
56.695 13.490883
56.700 13.657811
56.705 13.499889
56.710 12.937509
56.715 13.120856
56.720 13.056961
56.725 13.199567
56.730 13.007866
56.735 12.946074
56.740 12.707449
56.745 12.744034
56.750 12.901346
56.755 12.461283
56.760 12.735669
56.765 13.232754
56.770 12.845886
56.775 13.205938
56.780 13.01982
56.785 12.58453
56.790 12.669874
56.795 12.13775
56.800 11.443714
56.805 11.711463
56.810 11.761615
56.815 11.860872
56.820 11.863178
56.825 11.668127
56.830 11.811275
56.835 12.450562
56.840 12.527348
56.845 12.443395
56.850 12.693059
56.855 13.130318
56.860 13.032993
56.865 13.032118
56.870 12.302723
56.875 12.50074
56.880 12.263977
56.885 11.887916
56.890 11.525179
56.895 11.80596
56.900 11.810147
56.905 12.401347
56.910 12.387571
56.915 12.513788
56.920 12.656728
56.925 12.979896
56.930 12.801871
56.935 12.3769
56.940 12.077837
56.945 12.207029
56.950 12.17878
56.955 11.991754
56.960 11.936651
56.965 12.022884
56.970 12.079736
56.975 12.133327
56.980 11.868798
56.985 11.96787
56.990 12.075511
56.995 11.83343
57.000 11.884333
57.005 12.021225
57.010 12.03401
57.015 12.286442
57.020 12.5906
57.025 12.935086
57.030 13.198109
57.035 13.280345
57.040 13.269707
57.045 13.184522
57.050 12.970831
57.055 13.055541
57.060 12.990725
57.065 12.843901
57.070 13.14696
57.075 13.693066
57.080 13.408544
57.085 13.030978
57.090 12.328735
57.095 12.089426
57.100 12.42158
57.105 12.224888
57.110 11.89661
57.115 12.778935
57.120 13.163147
57.125 13.166186
57.130 13.37127
57.135 13.163111
57.140 12.879595
57.145 13.086871
57.150 12.543696
57.155 12.406674
57.160 12.752675
57.165 12.398194
57.170 12.484863
57.175 12.934455
57.180 12.57117
57.185 13.006824
57.190 13.511518
57.195 13.448166
57.200 13.665165
57.205 13.729017
57.210 14.067939
57.215 14.290384
57.220 13.822054
57.225 13.251855
57.230 13.122416
57.235 13.112484
57.240 12.902248
57.245 12.789144
57.250 12.733807
57.255 13.226457
57.260 13.488697
57.265 13.660024
57.270 13.453118
57.275 13.255156
57.280 12.722889
57.285 12.937855
57.290 12.571734
57.295 12.272495
57.300 12.164945
57.305 12.587123
57.310 12.470284
57.315 13.013912
57.320 12.764688
57.325 12.60835
57.330 12.800152
57.335 12.750834
57.340 12.767825
57.345 12.804083
57.350 12.313775
57.355 12.366162
57.360 12.313212
57.365 12.480435
57.370 12.294291
57.375 12.152339
57.380 12.275227
57.385 12.348174
57.390 12.258655
57.395 12.155074
57.400 11.809208
57.405 12.049951
57.410 11.950694
57.415 12.17832
57.420 11.853848
57.425 12.147987
57.430 12.63798
57.435 12.79003
57.440 12.516992
57.445 12.633606
57.450 12.898507
57.455 13.161629
57.460 12.968399
57.465 13.123776
57.470 13.30665
57.475 13.936739
57.480 13.878039
57.485 13.349585
57.490 13.677175
57.495 13.724582
57.500 13.447512
57.505 13.436502
57.510 12.577188
57.515 12.788764
57.520 12.783139
57.525 12.671955
57.530 12.47096
57.535 12.187531
57.540 12.349114
57.545 12.626425
57.550 12.867068
57.555 12.423634
57.560 12.269115
57.565 12.196603
57.570 12.403115
57.575 12.3739
57.580 12.165114
57.585 11.906407
57.590 12.383444
57.595 12.837571
57.600 13.413265
57.605 13.131773
57.610 13.097007
57.615 12.740695
57.620 12.567763
57.625 12.391679
57.630 11.770112
57.635 11.412029
57.640 11.217589
57.645 11.426566
57.650 11.678818
57.655 11.893813
57.660 12.210426
57.665 12.537163
57.670 12.558446
57.675 12.812805
57.680 12.421322
57.685 12.29923
57.690 12.331512
57.695 11.909324
57.700 11.97523
57.705 12.221889
57.710 12.293751
57.715 12.820438
57.720 12.844556
57.725 12.509253
57.730 12.828335
57.735 12.966223
57.740 13.056051
57.745 13.378424
57.750 13.019298
57.755 13.112
57.760 13.763049
57.765 13.568206
57.770 13.434407
57.775 13.093009
57.780 12.950659
57.785 13.381804
57.790 13.514072
57.795 13.017663
57.800 12.651885
57.805 12.467394
57.810 12.649388
57.815 13.03256
57.820 13.153728
57.825 13.086548
57.830 13.361159
57.835 13.738264
57.840 13.632825
57.845 13.244596
57.850 13.203659
57.855 13.009701
57.860 13.169817
57.865 13.37147
57.870 13.480584
57.875 13.523604
57.880 13.235988
57.885 12.861156
57.890 12.847664
57.895 12.704186
57.900 12.595011
57.905 12.532704
57.910 12.809297
57.915 13.693472
57.920 14.225583
57.925 14.483998
57.930 14.077606
57.935 14.092892
57.940 14.307434
57.945 14.106126
57.950 13.832096
57.955 13.610258
57.960 13.923554
57.965 14.238343
57.970 14.136306
57.975 14.395065
57.980 14.598383
57.985 14.262813
57.990 13.572482
57.995 13.094045
58.000 12.670032
58.005 12.564928
58.010 12.490773
58.015 12.452269
58.020 12.464746
58.025 12.603985
58.030 13.093461
58.035 13.825689
58.040 13.673259
58.045 13.167885
58.050 12.799187
58.055 12.892369
58.060 12.845912
58.065 12.602318
58.070 12.132622
58.075 11.923894
58.080 12.775829
58.085 13.382587
58.090 13.743768
58.095 13.616484
58.100 13.430618
58.105 13.62401
58.110 13.578603
58.115 12.81388
58.120 12.189618
58.125 11.815344
58.130 11.609768
58.135 11.905402
58.140 12.138953
58.145 12.500605
58.150 12.590623
58.155 12.738257
58.160 12.713265
58.165 13.211914
58.170 13.279945
58.175 13.131459
58.180 13.26381
58.185 13.84887
58.190 14.252189
58.195 14.920787
58.200 15.06373
58.205 14.783658
58.210 14.395857
58.215 14.393726
58.220 14.003365
58.225 13.866766
58.230 13.512067
58.235 13.454835
58.240 13.670334
58.245 13.675784
58.250 13.1347
58.255 12.908801
58.260 12.723934
58.265 12.461084
58.270 11.860548
58.275 11.741934
58.280 12.457141
58.285 12.934873
58.290 12.623112
58.295 12.776421
58.300 13.029236
58.305 13.469284
58.310 13.578341
58.315 13.198595
58.320 13.196806
58.325 13.520445
58.330 13.414461
58.335 13.776436
58.340 13.866113
58.345 14.018164
58.350 13.742637
58.355 13.640279
58.360 13.863221
58.365 14.252129
58.370 14.467985
58.375 14.70223
58.380 14.446648
58.385 14.947817
58.390 15.208219
58.395 15.67455
58.400 15.496305
58.405 15.299179
58.410 15.283084
58.415 15.435109
58.420 15.277063
58.425 15.007792
58.430 14.756383
58.435 14.082598
58.440 13.713723
58.445 13.339963
58.450 13.186437
58.455 13.451582
58.460 13.684856
58.465 13.639786
58.470 14.008191
58.475 14.471654
58.480 14.840555
58.485 15.165482
58.490 15.273762
58.495 15.454164
58.500 15.254292
58.505 15.576823
58.510 15.392697
58.515 15.389072
58.520 15.911722
58.525 15.484589
58.530 15.005883
58.535 15.048814
58.540 14.642254
58.545 14.638931
58.550 14.259787
58.555 13.133294
58.560 13.565457
58.565 13.554002
58.570 13.154017
58.575 12.550516
58.580 11.664935
58.585 11.517527
58.590 11.701226
58.595 11.643189
58.600 11.780914
58.605 12.40501
58.610 13.40302
58.615 14.19591
58.620 14.207788
58.625 14.468861
58.630 15.207541
58.635 15.510247
58.640 14.920665
58.645 14.237993
58.650 14.545249
58.655 15.302614
58.660 15.210323
58.665 14.427258
58.670 14.768758
58.675 15.73863
58.680 16.048864
58.685 15.548302
58.690 15.695784
58.695 15.608479
58.700 15.247582
58.705 14.911057
58.710 14.250041
58.715 14.351749
58.720 14.403654
58.725 14.126461
58.730 13.211692
58.735 13.425869
58.740 13.831594
58.745 14.780542
58.750 14.60623
58.755 14.173159
58.760 13.992065
58.765 14.290354
58.770 14.323803
58.775 14.038976
58.780 13.278492
58.785 13.204648
58.790 13.33333
58.795 13.527465
58.800 13.446824
58.805 12.925889
58.810 12.666221
58.815 12.920354
58.820 12.904028
58.825 13.127323
58.830 13.162157
58.835 13.392678
58.840 13.51834
58.845 13.557057
58.850 13.956933
58.855 14.497943
58.860 14.418921
58.865 14.820273
58.870 14.740124
58.875 15.014935
58.880 14.85172
58.885 14.168531
58.890 13.874853
58.895 13.462518
58.900 12.675958
58.905 12.472091
58.910 12.413629
58.915 13.123382
58.920 13.826985
58.925 13.700321
58.930 13.949438
58.935 14.683885
58.940 14.501372
58.945 14.775516
58.950 14.256902
58.955 13.871694
58.960 13.951188
58.965 13.978565
58.970 14.109426
58.975 14.596062
58.980 13.657432
58.985 13.992208
58.990 14.208541
58.995 14.341688
59.000 14.38763
59.005 14.483381
59.010 14.872277
59.015 15.460528
59.020 15.278538
59.025 15.104535
59.030 15.472898
59.035 15.597181
59.040 15.594193
59.045 15.819526
59.050 16.245657
59.055 16.284676
59.060 16.663275
59.065 16.532299
59.070 16.27877
59.075 15.906187
59.080 15.589706
59.085 15.22187
59.090 15.002438
59.095 14.469137
59.100 14.65598
59.105 14.781898
59.110 14.755565
59.115 14.260629
59.120 14.116573
59.125 14.493191
59.130 15.16258
59.135 14.617603
59.140 14.687743
59.145 15.053852
59.150 15.553872
59.155 15.547189
59.160 15.515031
59.165 15.421196
59.170 15.595138
59.175 15.408176
59.180 14.980945
59.185 15.150836
59.190 15.514694
59.195 15.420926
59.200 15.439157
59.205 15.264152
59.210 15.484776
59.215 15.009261
59.220 14.776024
59.225 14.442595
59.230 14.109186
59.235 14.151597
59.240 14.334313
59.245 14.387448
59.250 14.670573
59.255 14.303131
59.260 14.073811
59.265 13.959373
59.270 13.52634
59.275 13.639952
59.280 13.397841
59.285 13.808537
59.290 14.823372
59.295 15.400432
59.300 15.430147
59.305 15.674814
59.310 15.868572
59.315 16.42415
59.320 16.517513
59.325 16.219494
59.330 16.201246
59.335 16.266493
59.340 16.568459
59.345 16.528624
59.350 16.212408
59.355 15.659753
59.360 15.070248
59.365 14.967817
59.370 15.000053
59.375 14.490469
59.380 14.404449
59.385 14.732657
59.390 15.028533
59.395 15.110703
59.400 15.062755
59.405 15.2823
59.410 15.317722
59.415 15.111697
59.420 15.032479
59.425 15.901569
59.430 16.851589
59.435 17.104816
59.440 17.201172
59.445 17.104807
59.450 17.109657
59.455 16.637682
59.460 15.825235
59.465 15.636679
59.470 15.275009
59.475 15.03923
59.480 15.152372
59.485 15.155651
59.490 15.599838
59.495 16.122374
59.500 15.807947
59.505 15.839281
59.510 16.078812
59.515 16.082706
59.520 16.231022
59.525 15.786613
59.530 15.456013
59.535 15.71777
59.540 16.27758
59.545 16.805126
59.550 17.584349
59.555 18.025774
59.560 18.927685
59.565 18.695324
59.570 18.395046
59.575 18.557272
59.580 18.018032
59.585 17.442791
59.590 17.10243
59.595 16.284643
59.600 16.191891
59.605 16.441553
59.610 16.083717
59.615 16.18252
59.620 16.56587
59.625 16.92
59.630 17.802851
59.635 18.32341
59.640 18.341158
59.645 18.302713
59.650 18.247038
59.655 17.151728
59.660 17.32198
59.665 17.118711
59.670 17.34218
59.675 17.310402
59.680 17.313253
59.685 17.448748
59.690 18.071562
59.695 18.096453
59.700 18.21081
59.705 18.337244
59.710 18.889303
59.715 19.365923
59.720 19.339643
59.725 19.443745
59.730 19.533545
59.735 19.843758
59.740 19.221563
59.745 18.593626
59.750 18.763567
59.755 18.781609
59.760 18.736935
59.765 18.413097
59.770 17.627663
59.775 18.151175
59.780 18.540087
59.785 18.673204
59.790 18.764793
59.795 18.844763
59.800 18.661737
59.805 19.25951
59.810 19.805
59.815 20.221113
59.820 20.254778
59.825 20.644352
59.830 20.793715
59.835 21.166237
59.840 21.562651
59.845 21.368891
59.850 20.68025
59.855 20.663857
59.860 20.682133
59.865 20.945244
59.870 21.088179
59.875 20.781328
59.880 20.820333
59.885 21.787287
59.890 21.99371
59.895 21.735987
59.900 21.529051
59.905 21.058531
59.910 20.998632
59.915 20.670191
59.920 20.39579
59.925 20.651045
59.930 20.735313
59.935 20.775942
59.940 21.384327
59.945 21.176924
59.950 21.003426
59.955 20.962585
59.960 20.902433
59.965 20.959522
59.970 21.445627
59.975 21.457859
59.980 21.281399
59.985 21.361023
59.990 21.336094
59.995 20.742016
60.000 20.403992
60.005 19.924662
60.010 20.308147
60.015 21.096992
60.020 21.362354
60.025 21.489805
60.030 21.820625
60.035 22.166182
60.040 22.484858
60.045 23.227987
60.050 23.784014
60.055 23.486597
60.060 23.07099
60.065 23.102619
60.070 22.658342
60.075 22.169882
60.080 20.96489
60.085 20.375227
60.090 20.957617
60.095 21.604528
60.100 21.981859
60.105 22.808962
60.110 22.881113
60.115 22.376682
60.120 22.481512
60.125 22.429604
60.130 21.911457
60.135 21.35569
60.140 21.117582
60.145 21.076351
60.150 21.572084
60.155 21.742041
60.160 21.746094
60.165 22.611967
60.170 22.771132
60.175 22.976395
60.180 23.186981
60.185 23.422024
60.190 23.121641
60.195 22.956055
60.200 22.799921
60.205 22.763718
60.210 21.982426
60.215 21.949203
60.220 21.157066
60.225 21.347271
60.230 21.234734
60.235 20.811466
60.240 20.836422
60.245 20.987534
60.250 20.677574
60.255 20.694695
60.260 20.451317
60.265 19.969032
60.270 19.831097
60.275 19.862888
60.280 20.149008
60.285 20.068771
60.290 20.251713
60.295 19.979231
60.300 19.87359
60.305 19.709724
60.310 19.574244
60.315 19.111576
60.320 19.523388
60.325 19.741962
60.330 20.014555
60.335 20.304697
60.340 20.565521
60.345 21.623564
60.350 22.438976
60.355 22.272703
60.360 22.211927
60.365 22.013283
60.370 21.819622
60.375 21.209108
60.380 20.141113
60.385 19.830759
60.390 20.053894
60.395 20.225588
60.400 20.367306
60.405 20.949001
60.410 21.240128
60.415 21.514547
60.420 21.214773
60.425 20.707384
60.430 20.262032
60.435 20.238083
60.440 20.538204
60.445 20.857292
60.450 20.244164
60.455 20.089067
60.460 20.275333
60.465 20.570625
60.470 20.490496
60.475 19.514584
60.480 19.007359
60.485 18.903936
60.490 18.550739
60.495 18.105772
60.500 17.715778
60.505 17.777569
60.510 18.319633
60.515 18.35511
60.520 18.678949
60.525 19.2204
60.530 19.16127
60.535 19.198006
60.540 19.223528
60.545 19.081133
60.550 18.848841
60.555 18.893589
60.560 18.770649
60.565 18.908785
60.570 18.595135
60.575 18.684269
60.580 18.628515
60.585 18.685698
60.590 18.588116
60.595 18.936584
60.600 19.363916
60.605 19.620382
60.610 19.139784
60.615 18.69943
60.620 18.990013
60.625 18.975302
60.630 18.63472
60.635 17.931919
60.640 17.767464
60.645 17.854313
60.650 18.231909
60.655 17.742741
60.660 17.204933
60.665 16.741623
60.670 16.436802
60.675 16.395369
60.680 16.041737
60.685 15.992615
60.690 16.597723
60.695 17.348757
60.700 17.373247
60.705 17.256077
60.710 17.188145
60.715 17.402719
60.720 17.140343
60.725 16.603987
60.730 16.461931
60.735 17.533104
60.740 18.25399
60.745 18.631279
60.750 18.99736
60.755 19.171408
60.760 19.174665
60.765 19.207373
60.770 18.758415
60.775 17.886152
60.780 17.552942
60.785 17.681894
60.790 17.506161
60.795 16.989283
60.800 16.267775
60.805 16.099228
60.810 16.663599
60.815 16.050299
60.820 15.838284
60.825 16.424057
60.830 17.142893
60.835 17.463907
60.840 17.695572
60.845 17.821989
60.850 18.168167
60.855 17.728775
60.860 17.503092
60.865 17.808073
60.870 17.682882
60.875 17.553202
60.880 17.196941
60.885 16.968613
60.890 17.399031
60.895 17.527771
60.900 17.140766
60.905 16.977407
60.910 16.612556
60.915 16.624695
60.920 16.866543
60.925 16.815035
60.930 16.047808
60.935 16.006624
60.940 16.174116
60.945 16.048368
60.950 16.050303
60.955 15.861698
60.960 15.435387
60.965 16.165527
60.970 16.560034
60.975 16.703077
60.980 17.009729
60.985 16.384874
60.990 16.546463
60.995 16.79903
61.000 16.497452
61.005 16.379541
61.010 16.246653
61.015 16.447861
61.020 16.427828
61.025 16.090322
61.030 15.603352
61.035 15.624076
61.040 15.456261
61.045 15.36729
61.050 15.329433
61.055 15.858414
61.060 16.267143
61.065 16.423325
61.070 16.095411
61.075 15.492132
61.080 15.269952
61.085 15.474387
61.090 15.561567
61.095 15.778035
61.100 15.995019
61.105 16.247175
61.110 16.644308
61.115 17.356863
61.120 16.921164
61.125 16.052633
61.130 15.604527
61.135 16.193377
61.140 16.380697
61.145 16.275293
61.150 15.912949
61.155 16.277021
61.160 16.358829
61.165 16.169239
61.170 15.237123
61.175 14.631443
61.180 14.969494
61.185 14.723975
61.190 14.802116
61.195 15.109311
61.200 15.955763
61.205 16.327675
61.210 16.838297
61.215 17.300089
61.220 17.974342
61.225 18.122637
61.230 18.459841
61.235 17.603401
61.240 17.265692
61.245 17.225163
61.250 16.517681
61.255 15.929678
61.260 15.88601
61.265 15.999845
61.270 15.917425
61.275 15.845358
61.280 15.660449
61.285 15.541324
61.290 15.577347
61.295 15.121129
61.300 14.414938
61.305 14.459021
61.310 14.944229
61.315 14.911757
61.320 15.022716
61.325 15.192953
61.330 15.390037
61.335 15.142212
61.340 15.393665
61.345 15.070917
61.350 15.284478
61.355 15.514948
61.360 15.125197
61.365 15.523829
61.370 15.792668
61.375 16.395432
61.380 16.760138
61.385 16.667368
61.390 16.706362
61.395 17.20582
61.400 17.373039
61.405 17.987621
61.410 17.851973
61.415 17.491722
61.420 17.171803
61.425 17.394859
61.430 17.511137
61.435 17.733929
61.440 17.717768
61.445 17.375767
61.450 17.386055
61.455 18.021042
61.460 17.764614
61.465 17.495907
61.470 17.097633
61.475 17.118568
61.480 17.237038
61.485 17.517538
61.490 17.125566
61.495 17.00387
61.500 16.999846
61.505 16.933081
61.510 16.760775
61.515 16.354006
61.520 16.343733
61.525 16.329266
61.530 16.786497
61.535 16.829245
61.540 16.849522
61.545 16.711853
61.550 16.731113
61.555 16.32531
61.560 16.487221
61.565 16.043184
61.570 15.956831
61.575 15.846522
61.580 16.508879
61.585 16.807505
61.590 16.68931
61.595 16.67033
61.600 16.79056
61.605 17.481936
61.610 17.924623
61.615 17.663984
61.620 17.467606
61.625 17.301268
61.630 17.037714
61.635 16.913286
61.640 16.090897
61.645 15.532812
61.650 14.696496
61.655 14.73017
61.660 14.820419
61.665 14.44807
61.670 14.168999
61.675 14.735055
61.680 14.942322
61.685 15.353561
61.690 15.491257
61.695 15.587508
61.700 15.782279
61.705 15.723465
61.710 15.03404
61.715 15.31467
61.720 16.183222
61.725 16.481956
61.730 16.59273
61.735 16.748123
61.740 17.050894
61.745 17.221193
61.750 16.393881
61.755 15.609178
61.760 15.191024
61.765 15.400664
61.770 15.137323
61.775 15.254295
61.780 15.208557
61.785 15.411195
61.790 15.721376
61.795 15.811968
61.800 15.884509
61.805 16.136234
61.810 16.422363
61.815 16.236193
61.820 15.948846
61.825 16.130104
61.830 16.016466
61.835 15.627732
61.840 15.574189
61.845 15.116853
61.850 15.451584
61.855 15.299268
61.860 14.93205
61.865 15.454267
61.870 15.372555
61.875 15.447629
61.880 15.906192
61.885 16.509985
61.890 16.931063
61.895 17.117453
61.900 16.876543
61.905 17.769558
61.910 18.053421
61.915 18.495493
61.920 18.330734
61.925 18.514189
61.930 18.169226
61.935 17.660139
61.940 17.26808
61.945 17.483168
61.950 17.051514
61.955 16.954
61.960 16.816141
61.965 17.095989
61.970 17.666204
61.975 17.418234
61.980 17.028461
61.985 16.890608
61.990 17.080191
61.995 17.308805
62.000 17.299574
62.005 17.400677
62.010 17.192968
62.015 17.121767
62.020 16.933348
62.025 16.527494
62.030 16.971003
62.035 16.587574
62.040 16.591146
62.045 16.796307
62.050 16.885954
62.055 17.046551
62.060 16.834555
62.065 16.24016
62.070 16.701351
62.075 16.412956
62.080 16.079737
62.085 16.030523
62.090 16.26652
62.095 16.238838
62.100 15.744008
62.105 15.49302
62.110 15.89187
62.115 16.01292
62.120 15.650992
62.125 15.896929
62.130 16.089399
62.135 16.2097
62.140 16.358238
62.145 15.812469
62.150 15.6817
62.155 15.782094
62.160 15.754289
62.165 16.077831
62.170 17.09877
62.175 17.706944
62.180 18.555235
62.185 18.504416
62.190 17.790283
62.195 17.13912
62.200 16.808407
62.205 17.145542
62.210 16.9345
62.215 16.420935
62.220 16.589188
62.225 17.16753
62.230 17.35854
62.235 17.356483
62.240 16.736204
62.245 16.708069
62.250 16.902336
62.255 16.574839
62.260 16.13224
62.265 16.708225
62.270 16.85989
62.275 16.580734
62.280 16.071774
62.285 15.633115
62.290 15.982366
62.295 15.757042
62.300 14.703308
62.305 14.837927
62.310 14.507714
62.315 14.727414
62.320 15.043894
62.325 15.111985
62.330 15.663974
62.335 16.155489
62.340 16.084761
62.345 16.547522
62.350 16.264582
62.355 16.122917
62.360 16.162804
62.365 16.484369
62.370 16.883272
62.375 16.3641
62.380 16.206852
62.385 16.752428
62.390 16.377954
62.395 16.17363
62.400 15.728214
62.405 15.196852
62.410 15.52882
62.415 15.347533
62.420 15.69862
62.425 16.128216
62.430 16.173912
62.435 16.294149
62.440 16.609238
62.445 16.876471
62.450 17.007015
62.455 16.794958
62.460 16.822584
62.465 16.927433
62.470 17.36841
62.475 17.584629
62.480 17.65266
62.485 17.508251
62.490 17.345543
62.495 17.396038
62.500 17.453825
62.505 16.812698
62.510 16.738888
62.515 16.437714
62.520 16.120354
62.525 15.630185
62.530 15.810306
62.535 15.539353
62.540 15.450986
62.545 15.037431
62.550 15.557608
62.555 16.492935
62.560 16.857433
62.565 16.892275
62.570 17.226608
62.575 17.209785
62.580 17.385221
62.585 17.292023
62.590 16.439972
62.595 16.123541
62.600 15.803658
62.605 15.955017
62.610 16.361343
62.615 16.273201
62.620 15.952192
62.625 16.273079
62.630 16.328362
62.635 16.20203
62.640 15.788713
62.645 15.628881
62.650 15.558336
62.655 15.455433
62.660 15.33784
62.665 15.693698
62.670 15.911899
62.675 15.864727
62.680 16.356546
62.685 16.421543
62.690 16.163012
62.695 16.271183
62.700 15.992247
62.705 16.253279
62.710 16.602703
62.715 16.402628
62.720 16.562733
62.725 17.44499
62.730 17.767632
62.735 18.062323
62.740 18.114464
62.745 17.846294
62.750 17.626827
62.755 17.67448
62.760 17.506227
62.765 17.273724
62.770 16.857824
62.775 16.502609
62.780 16.359316
62.785 16.401993
62.790 16.287531
62.795 16.302721
62.800 16.086931
62.805 16.304907
62.810 16.351656
62.815 16.091055
62.820 15.410874
62.825 14.982147
62.830 14.775328
62.835 14.974632
62.840 14.944098
62.845 14.889905
62.850 15.162467
62.855 15.495509
62.860 15.9484
62.865 15.954717
62.870 16.127638
62.875 16.179806
62.880 16.383244
62.885 16.788647
62.890 16.701992
62.895 16.266949
62.900 16.16431
62.905 15.804897
62.910 16.25144
62.915 15.919056
62.920 15.914079
62.925 16.242533
62.930 16.48477
62.935 16.751516
62.940 16.665203
62.945 16.283192
62.950 16.19976
62.955 15.593445
62.960 15.35037
62.965 15.172656
62.970 15.152104
62.975 15.53561
62.980 15.523597
62.985 15.896848
62.990 16.201515
62.995 16.298326
63.000 16.66366
63.005 16.597353
63.010 16.802963
63.015 17.053085
63.020 17.297483
63.025 17.715975
63.030 17.829313
63.035 17.519922
63.040 17.08238
63.045 16.656698
63.050 16.926876
63.055 16.780899
63.060 16.813955
63.065 16.451286
63.070 16.468189
63.075 16.940214
63.080 16.980869
63.085 16.518391
63.090 16.097836
63.095 15.762358
63.100 16.12837
63.105 16.917561
63.110 17.187754
63.115 17.546896
63.120 18.06732
63.125 18.738544
63.130 18.870884
63.135 19.00115
63.140 18.766512
63.145 18.475645
63.150 18.186762
63.155 18.317726
63.160 18.015669
63.165 18.022036
63.170 17.99844
63.175 18.190109
63.180 18.508154
63.185 18.444357
63.190 17.841356
63.195 17.59244
63.200 17.697218
63.205 17.701288
63.210 17.120415
63.215 16.56102
63.220 16.628544
63.225 16.826653
63.230 17.457064
63.235 17.464966
63.240 17.297907
63.245 16.856586
63.250 17.071825
63.255 17.735868
63.260 17.939045
63.265 17.273457
63.270 16.867746
63.275 16.84124
63.280 17.734976
63.285 17.721733
63.290 16.710247
63.295 16.28322
63.300 16.434889
63.305 16.868624
63.310 16.850765
63.315 16.818884
63.320 17.374369
63.325 17.5117
63.330 17.96163
63.335 18.329285
63.340 17.786074
63.345 17.240772
63.350 16.750551
63.355 15.834242
63.360 15.978886
63.365 15.8497
63.370 15.95812
63.375 16.790812
63.380 17.137108
63.385 17.868317
63.390 18.049839
63.395 17.63913
63.400 18.027287
63.405 17.833975
63.410 17.600117
63.415 17.626751
63.420 17.103329
63.425 17.622372
63.430 17.703463
63.435 17.129282
63.440 16.923365
63.445 17.038942
63.450 17.175095
63.455 16.602571
63.460 16.352003
63.465 16.86113
63.470 17.231596
63.475 17.395699
63.480 17.78512
63.485 18.279566
63.490 18.946005
63.495 18.436096
63.500 17.982389
63.505 18.007221
63.510 18.201784
63.515 17.429441
63.520 17.335108
63.525 17.626257
63.530 18.003096
63.535 17.963709
63.540 17.442373
63.545 16.985474
63.550 17.16785
63.555 16.931576
63.560 16.626419
63.565 16.831493
63.570 17.1784
63.575 18.13061
63.580 17.799328
63.585 17.921122
63.590 17.875448
63.595 17.664934
63.600 17.615667
63.605 17.678928
63.610 16.982599
63.615 17.571957
63.620 17.996708
63.625 18.054203
63.630 18.544315
63.635 18.430162
63.640 18.305361
63.645 18.411964
63.650 18.060276
63.655 17.509119
63.660 17.490288
63.665 18.298267
63.670 18.153683
63.675 18.33901
63.680 18.746042
63.685 18.501394
63.690 17.968618
63.695 17.665262
63.700 16.994276
63.705 16.45854
63.710 16.298183
63.715 15.819455
63.720 16.392597
63.725 17.229967
63.730 16.995321
63.735 16.795635
63.740 17.409267
63.745 17.0256
63.750 17.538839
63.755 17.401571
63.760 17.505941
63.765 18.189444
63.770 18.926111
63.775 19.081011
63.780 19.205748
63.785 19.030424
63.790 18.942263
63.795 18.936468
63.800 18.717974
63.805 18.10848
63.810 17.618801
63.815 18.199778
63.820 18.115799
63.825 18.065014
63.830 17.993937
63.835 17.65559
63.840 17.022675
63.845 16.83436
63.850 16.242779
63.855 16.084322
63.860 16.165054
63.865 16.621016
63.870 16.835144
63.875 17.309002
63.880 17.610241
63.885 17.460516
63.890 17.334391
63.895 17.340326
63.900 17.010218
63.905 17.104677
63.910 16.911005
63.915 17.022726
63.920 17.392088
63.925 17.818031
63.930 17.270138
63.935 17.221773
63.940 16.993227
63.945 17.237339
63.950 17.23604
63.955 16.988031
63.960 16.527603
63.965 16.934504
63.970 17.133789
63.975 17.469553
63.980 17.781425
63.985 17.457111
63.990 17.572382
63.995 18.126328
64.000 18.367054
64.005 18.666756
64.010 19.11025
64.015 19.191986
64.020 19.450827
64.025 19.370579
64.030 18.940594
64.035 18.516582
64.040 17.662182
64.045 17.863131
64.050 18.25979
64.055 18.05662
64.060 17.980656
64.065 18.298052
64.070 18.574663
64.075 18.50728
64.080 17.935144
64.085 17.22727
64.090 17.016314
64.095 16.801041
64.100 16.387461
64.105 16.082138
64.110 16.406445
64.115 16.415888
64.120 17.248566
64.125 17.945116
64.130 18.203545
64.135 18.627773
64.140 18.893311
64.145 18.75794
64.150 18.352493
64.155 17.590687
64.160 17.338955
64.165 17.263308
64.170 16.962355
64.175 16.532333
64.180 16.132118
64.185 16.451992
64.190 16.378542
64.195 16.288155
64.200 16.292547
64.205 16.281691
64.210 16.449888
64.215 16.800634
64.220 16.579336
64.225 17.381706
64.230 17.773521
64.235 17.942801
64.240 18.261229
64.245 18.730696
64.250 18.853722
64.255 18.815165
64.260 18.603212
64.265 18.643412
64.270 18.76895
64.275 18.588575
64.280 18.241087
64.285 17.836988
64.290 17.67543
64.295 17.391567
64.300 17.035715
64.305 17.191366
64.310 17.372696
64.315 17.278816
64.320 17.782673
64.325 17.937426
64.330 17.976793
64.335 17.988136
64.340 17.603794
64.345 17.580885
64.350 18.24239
64.355 18.644276
64.360 19.30061
64.365 19.731548
64.370 19.402451
64.375 19.093355
64.380 18.718403
64.385 18.191038
64.390 17.490208
64.395 16.870031
64.400 16.518789
64.405 16.801811
64.410 17.382067
64.415 18.069258
64.420 18.50882
64.425 18.934921
64.430 18.805979
64.435 18.951197
64.440 19.24795
64.445 19.258886
64.450 19.043362
64.455 18.260416
64.460 18.107351
64.465 17.883995
64.470 17.621197
64.475 17.349453
64.480 17.150293
64.485 17.64043
64.490 17.983965
64.495 18.123793
64.500 18.683735
64.505 18.641453
64.510 18.947874
64.515 18.798466
64.520 18.172054
64.525 18.210611
64.530 18.255535
64.535 17.655794
64.540 17.573568
64.545 17.516958
64.550 18.000219
64.555 18.243134
64.560 18.3326
64.565 18.172853
64.570 18.606047
64.575 18.259544
64.580 18.217964
64.585 17.685627
64.590 17.721697
64.595 17.450741
64.600 17.440422
64.605 17.478336
64.610 17.821314
64.615 17.92107
64.620 17.919455
64.625 17.642662
64.630 17.198198
64.635 17.52887
64.640 17.576431
64.645 17.16991
64.650 17.060297
64.655 16.855371
64.660 17.140354
64.665 17.651447
64.670 17.993225
64.675 18.049309
64.680 17.944349
64.685 18.500887
64.690 18.499134
64.695 18.760262
64.700 18.723562
64.705 17.765217
64.710 17.883362
64.715 18.064342
64.720 17.863638
64.725 18.266376
64.730 18.087219
64.735 18.726608
64.740 19.816547
64.745 20.286301
64.750 20.636181
64.755 20.566301
64.760 20.044926
64.765 19.729204
64.770 19.361137
64.775 18.678797
64.780 19.021416
64.785 19.110855
64.790 19.235846
64.795 19.782639
64.800 19.925714
64.805 19.490429
64.810 19.392712
64.815 19.349602
64.820 19.439543
64.825 19.229235
64.830 19.032831
64.835 19.175707
64.840 19.523705
64.845 19.715744
64.850 19.678404
64.855 19.58547
64.860 19.500969
64.865 19.323069
64.870 19.435026
64.875 19.686937
64.880 19.202835
64.885 18.742285
64.890 19.399038
64.895 19.92078
64.900 20.125818
64.905 19.446707
64.910 19.078604
64.915 19.594875
64.920 19.940172
64.925 19.381207
64.930 18.806185
64.935 18.972439
64.940 19.596432
64.945 19.158379
64.950 19.321808
64.955 19.263842
64.960 19.163864
64.965 19.233624
64.970 19.561317
64.975 19.245474
64.980 19.553225
64.985 19.315844
64.990 19.450129
64.995 20.275604
65.000 20.471462
65.005 20.578867
65.010 21.288736
65.015 21.521885
65.020 22.418968
65.025 21.838625
65.030 21.308979
65.035 21.512274
65.040 21.158737
65.045 21.157076
65.050 20.867006
65.055 19.771818
65.060 19.759161
65.065 19.367666
65.070 19.100634
65.075 19.363634
65.080 19.345926
65.085 20.026924
65.090 20.233919
65.095 20.828268
65.100 21.538553
65.105 22.122042
65.110 21.787096
65.115 21.778362
65.120 21.505379
65.125 21.679829
65.130 21.208593
65.135 21.197313
65.140 20.801256
65.145 21.062016
65.150 21.226604
65.155 21.29896
65.160 21.581268
65.165 22.011126
65.170 21.992924
65.175 22.477674
65.180 22.413406
65.185 22.187031
65.190 21.7691
65.195 21.244648
65.200 21.487951
65.205 21.51495
65.210 20.726875
65.215 21.032558
65.220 21.351324
65.225 21.500113
65.230 21.538528
65.235 20.901758
65.240 21.178324
65.245 21.199413
65.250 20.76582
65.255 20.708525
65.260 21.18618
65.265 21.871101
65.270 22.160725
65.275 22.335596
65.280 22.568607
65.285 22.551611
65.290 22.524418
65.295 21.974756
65.300 21.017025
65.305 20.720663
65.310 20.299849
65.315 20.073408
65.320 20.488407
65.325 21.187677
65.330 21.987619
65.335 22.949936
65.340 23.908817
65.345 24.347435
65.350 24.064045
65.355 23.431845
65.360 22.688082
65.365 22.32008
65.370 22.588188
65.375 22.542255
65.380 22.683855
65.385 23.458744
65.390 24.021809
65.395 24.423809
65.400 23.771051
65.405 23.04883
65.410 22.889055
65.415 22.851431
65.420 22.650263
65.425 22.713552
65.430 22.809166
65.435 23.265526
65.440 23.486626
65.445 23.438528
65.450 23.590864
65.455 23.839401
65.460 23.49262
65.465 24.331221
65.470 24.744619
65.475 24.201986
65.480 23.812487
65.485 24.035355
65.490 24.18996
65.495 24.183599
65.500 23.583073
65.505 24.487108
65.510 25.335262
65.515 25.834074
65.520 26.041565
65.525 26.259924
65.530 27.190641
65.535 27.764629
65.540 27.945381
65.545 28.337011
65.550 27.84083
65.555 28.420424
65.560 28.793055
65.565 28.539459
65.570 28.12702
65.575 27.842762
65.580 29.069311
65.585 30.330797
65.590 29.842396
65.595 29.652634
65.600 29.988417
65.605 30.524817
65.610 30.659018
65.615 30.15267
65.620 29.875906
65.625 30.01568
65.630 29.808868
65.635 29.804489
65.640 30.531357
65.645 31.373676
65.650 32.241421
65.655 31.971029
65.660 31.915426
65.665 32.276638
65.670 31.806038
65.675 31.303486
65.680 30.494473
65.685 30.624365
65.690 31.454735
65.695 31.538298
65.700 31.030689
65.705 31.543867
65.710 31.965155
65.715 32.195057
65.720 31.280273
65.725 30.739437
65.730 31.495333
65.735 32.84811
65.740 33.302273
65.745 33.629719
65.750 33.902184
65.755 34.561432
65.760 35.355244
65.765 35.740108
65.770 35.628132
65.775 35.305664
65.780 34.946186
65.785 35.266632
65.790 35.086483
65.795 35.14085
65.800 34.678444
65.805 34.921608
65.810 35.103188
65.815 35.488754
65.820 35.595001
65.825 36.156204
65.830 36.672497
65.835 36.65155
65.840 36.248917
65.845 36.330589
65.850 36.868004
65.855 37.208309
65.860 36.534534
65.865 35.999393
65.870 35.782455
65.875 35.920757
65.880 36.082127
65.885 35.776894
65.890 35.972359
65.895 36.547878
65.900 36.849506
65.905 37.217117
65.910 37.540195
65.915 37.42617
65.920 37.184326
65.925 37.533863
65.930 37.413151
65.935 38.757374
65.940 39.160282
65.945 38.774891
65.950 38.824234
65.955 39.67334
65.960 39.806194
65.965 40.67379
65.970 40.726456
65.975 40.063854
65.980 39.975792
65.985 40.169758
65.990 39.729572
65.995 38.601383
66.000 37.74921
66.005 36.881435
66.010 37.753349
66.015 38.433086
66.020 38.731831
66.025 38.827309
66.030 40.201584
66.035 40.132404
66.040 40.147839
66.045 39.685856
66.050 38.664127
66.055 38.48048
66.060 38.840061
66.065 38.07597
66.070 38.045395
66.075 38.942387
66.080 39.743217
66.085 39.954468
66.090 39.353951
66.095 38.75296
66.100 39.65612
66.105 40.26247
66.110 39.16444
66.115 38.975559
66.120 38.642929
66.125 39.11573
66.130 39.433376
66.135 38.709667
66.140 37.928528
66.145 37.460297
66.150 37.072392
66.155 37.614983
66.160 37.99464
66.165 38.088593
66.170 37.573494
66.175 37.317463
66.180 38.129852
66.185 37.964127
66.190 37.55241
66.195 37.330498
66.200 37.42691
66.205 37.776386
66.210 37.177048
66.215 36.199696
66.220 35.765903
66.225 35.527802
66.230 35.50708
66.235 35.35685
66.240 34.789558
66.245 35.251717
66.250 35.794365
66.255 36.269199
66.260 36.225952
66.265 35.525127
66.270 34.557331
66.275 34.759697
66.280 35.123997
66.285 35.086662
66.290 35.651981
66.295 35.460102
66.300 35.146637
66.305 35.190891
66.310 34.963181
66.315 33.933277
66.320 33.728912
66.325 33.229103
66.330 33.321384
66.335 33.287834
66.340 33.706699
66.345 33.50174
66.350 33.929832
66.355 33.590893
66.360 32.95166
66.365 32.785355
66.370 32.461105
66.375 31.757689
66.380 30.866489
66.385 30.361322
66.390 30.324923
66.395 30.371212
66.400 30.034817
66.405 30.121937
66.410 30.358547
66.415 31.263542
66.420 31.293882
66.425 31.273554
66.430 30.629425
66.435 30.457062
66.440 30.372944
66.445 29.916365
66.450 29.027472
66.455 29.317688
66.460 28.739708
66.465 29.052145
66.470 28.615244
66.475 27.853716
66.480 27.9645
66.485 28.146555
66.490 27.576275
66.495 27.503368
66.500 27.193832
66.505 27.563028
66.510 27.70764
66.515 27.732964
66.520 28.050611
66.525 28.047077
66.530 28.435204
66.535 28.117336
66.540 28.288912
66.545 28.473219
66.550 27.633135
66.555 27.13714
66.560 27.098713
66.565 26.856302
66.570 27.251228
66.575 27.022112
66.580 27.17131
66.585 27.447433
66.590 27.700472
66.595 27.380625
66.600 27.135426
66.605 26.398972
66.610 25.919773
66.615 24.65221
66.620 24.656338
66.625 23.711407
66.630 22.976421
66.635 22.303173
66.640 22.929371
66.645 23.376028
66.650 24.118784
66.655 23.762423
66.660 23.631144
66.665 24.503733
66.670 24.889736
66.675 24.709896
66.680 24.304193
66.685 24.422554
66.690 24.684231
66.695 24.607834
66.700 23.788662
66.705 23.419558
66.710 23.248783
66.715 23.455488
66.720 22.810282
66.725 22.58066
66.730 22.098263
66.735 22.295933
66.740 22.596992
66.745 22.699537
66.750 22.729952
66.755 22.968821
66.760 23.288233
66.765 23.992292
66.770 24.005465
66.775 23.339546
66.780 22.998583
66.785 23.261459
66.790 22.547119
66.795 22.426306
66.800 22.513636
66.805 22.405439
66.810 22.867134
66.815 22.895632
66.820 22.843693
66.825 22.770142
66.830 22.322094
66.835 21.911999
66.840 21.592262
66.845 21.637072
66.850 21.867073
66.855 22.075741
66.860 22.411041
66.865 22.374559
66.870 22.48332
66.875 22.98448
66.880 22.667368
66.885 22.355761
66.890 21.382444
66.895 21.450544
66.900 22.029268
66.905 22.059809
66.910 22.22373
66.915 22.350357
66.920 22.641621
66.925 22.898918
66.930 22.680979
66.935 22.642199
66.940 22.444771
66.945 21.787348
66.950 21.44994
66.955 20.780746
66.960 20.38052
66.965 20.242655
66.970 19.965021
66.975 20.07321
66.980 20.086452
66.985 20.146938
66.990 20.175886
66.995 20.394163
67.000 21.255005
67.005 21.585573
67.010 21.655674
67.015 22.268589
67.020 22.232805
67.025 22.557589
67.030 22.907356
67.035 22.614246
67.040 21.946907
67.045 21.861881
67.050 21.578171
67.055 21.115103
67.060 20.776913
67.065 20.228865
67.070 20.349245
67.075 21.104137
67.080 21.163193
67.085 21.471827
67.090 21.960943
67.095 22.042093
67.100 22.396013
67.105 22.042593
67.110 21.229156
67.115 20.813347
67.120 20.857018
67.125 21.08223
67.130 21.571178
67.135 21.406187
67.140 20.683792
67.145 21.021248
67.150 22.048283
67.155 21.626295
67.160 21.185497
67.165 21.47337
67.170 21.677359
67.175 22.367504
67.180 22.763214
67.185 22.508871
67.190 22.914793
67.195 22.894232
67.200 22.001087
67.205 21.449162
67.210 20.993677
67.215 21.137936
67.220 21.112745
67.225 21.218462
67.230 21.306122
67.235 21.364975
67.240 21.948919
67.245 22.427732
67.250 22.061028
67.255 21.80554
67.260 21.820087
67.265 21.722261
67.270 21.638212
67.275 21.68239
67.280 21.315847
67.285 20.717323
67.290 20.524643
67.295 20.499855
67.300 20.580435
67.305 20.863094
67.310 20.308231
67.315 20.576506
67.320 20.692238
67.325 20.483526
67.330 20.25983
67.335 20.580931
67.340 20.567759
67.345 20.516813
67.350 20.022663
67.355 19.878265
67.360 20.242136
67.365 20.756884
67.370 20.774538
67.375 20.937551
67.380 21.549128
67.385 22.080013
67.390 22.124355
67.395 21.685064
67.400 21.008263
67.405 20.488045
67.410 20.155851
67.415 19.865259
67.420 19.640839
67.425 19.946131
67.430 20.396454
67.435 21.023838
67.440 21.279196
67.445 21.543882
67.450 21.360256
67.455 21.312824
67.460 20.752539
67.465 19.967913
67.470 19.635593
67.475 19.574972
67.480 19.356234
67.485 19.006889
67.490 18.978762
67.495 19.411329
67.500 20.036154
67.505 19.955486
67.510 19.923504
67.515 19.896559
67.520 19.873755
67.525 20.14069
67.530 20.236942
67.535 20.033848
67.540 19.98815
67.545 20.212469
67.550 20.488375
67.555 20.808414
67.560 20.971579
67.565 21.206223
67.570 21.520838
67.575 21.58823
67.580 21.675949
67.585 21.504934
67.590 21.572834
67.595 21.385416
67.600 21.017742
67.605 20.815657
67.610 20.705259
67.615 20.114847
67.620 20.257519
67.625 20.023251
67.630 19.821398
67.635 20.111124
67.640 20.196285
67.645 20.05591
67.650 20.344172
67.655 20.651773
67.660 21.011635
67.665 20.668425
67.670 20.489584
67.675 20.23185
67.680 20.112694
67.685 19.986908
67.690 19.666761
67.695 19.674488
67.700 20.127924
67.705 20.680145
67.710 21.140909
67.715 21.458227
67.720 21.883663
67.725 21.428421
67.730 20.86681
67.735 20.770121
67.740 21.067347
67.745 21.312658
67.750 21.310633
67.755 21.038019
67.760 21.86825
67.765 22.155445
67.770 22.202026
67.775 21.53027
67.780 21.011072
67.785 20.670231
67.790 20.278255
67.795 20.193861
67.800 19.851404
67.805 19.383604
67.810 19.339869
67.815 19.963577
67.820 20.627106
67.825 21.104992
67.830 20.519953
67.835 20.320646
67.840 20.513426
67.845 20.606079
67.850 20.696762
67.855 20.424978
67.860 20.131706
67.865 20.296745
67.870 20.632883
67.875 20.757717
67.880 20.712576
67.885 20.228022
67.890 20.340075
67.895 20.475674
67.900 20.217331
67.905 20.027037
67.910 20.060986
67.915 20.232443
67.920 20.685505
67.925 20.123112
67.930 19.9203
67.935 20.300449
67.940 20.701681
67.945 20.164066
67.950 19.503
67.955 19.162466
67.960 19.50448
67.965 19.283915
67.970 18.749874
67.975 18.607115
67.980 18.560804
67.985 18.962481
67.990 19.399588
67.995 19.591164
68.000 20.096333
68.005 19.89398
68.010 19.801411
68.015 20.301889
68.020 19.755804
68.025 18.894936
68.030 18.400036
68.035 17.857756
68.040 18.075871
68.045 17.624346
68.050 17.339254
68.055 17.798141
68.060 18.102623
68.065 18.45475
68.070 18.903299
68.075 19.106331
68.080 19.93786
68.085 20.394995
68.090 20.380749
68.095 20.767197
68.100 20.651957
68.105 21.148355
68.110 22.009193
68.115 21.781734
68.120 21.134602
68.125 21.350918
68.130 21.046139
68.135 20.927691
68.140 20.725479
68.145 20.188448
68.150 20.111004
68.155 20.437685
68.160 20.594082
68.165 20.583422
68.170 20.717621
68.175 20.712076
68.180 20.390045
68.185 20.693584
68.190 20.740112
68.195 20.088696
68.200 20.39076
68.205 20.671822
68.210 20.17168
68.215 20.283997
68.220 20.515163
68.225 20.993025
68.230 21.672722
68.235 21.442694
68.240 21.714663
68.245 22.294006
68.250 21.429695
68.255 20.783504
68.260 20.636673
68.265 20.26507
68.270 20.190348
68.275 20.287096
68.280 20.32625
68.285 20.731842
68.290 20.524647
68.295 19.928787
68.300 20.033436
68.305 20.057999
68.310 20.205235
68.315 20.808802
68.320 21.028549
68.325 21.19207
68.330 21.555569
68.335 21.171555
68.340 20.812572
68.345 20.433592
68.350 20.106983
68.355 19.839237
68.360 19.833593
68.365 19.684803
68.370 19.664579
68.375 19.428442
68.380 19.203527
68.385 19.317745
68.390 19.103354
68.395 19.050146
68.400 19.083353
68.405 20.027411
68.410 20.708698
68.415 20.200531
68.420 20.121058
68.425 20.502169
68.430 20.904215
68.435 21.100555
68.440 20.334476
68.445 19.539223
68.450 20.225376
68.455 19.821762
68.460 20.332905
68.465 20.169376
68.470 19.882179
68.475 20.100756
68.480 20.258034
68.485 20.261667
68.490 20.434237
68.495 20.279049
68.500 20.884436
68.505 21.331245
68.510 21.135981
68.515 21.528746
68.520 22.306273
68.525 22.024092
68.530 22.014755
68.535 22.008497
68.540 21.564331
68.545 22.225925
68.550 22.28709
68.555 21.726183
68.560 22.548685
68.565 22.460222
68.570 22.125883
68.575 21.538218
68.580 21.092739
68.585 20.520212
68.590 20.3318
68.595 19.763309
68.600 19.517132
68.605 20.061892
68.610 21.110697
68.615 21.580622
68.620 21.957897
68.625 22.019493
68.630 21.886021
68.635 21.61231
68.640 21.226114
68.645 21.037519
68.650 20.360151
68.655 20.417973
68.660 20.159433
68.665 20.934147
68.670 21.012249
68.675 20.189348
68.680 19.959969
68.685 20.310705
68.690 20.0891
68.695 20.436129
68.700 20.423151
68.705 20.81679
68.710 21.331421
68.715 21.554893
68.720 21.647982
68.725 21.492661
68.730 21.039516
68.735 20.395424
68.740 19.897186
68.745 19.574137
68.750 19.840202
68.755 19.701275
68.760 19.982191
68.765 20.311762
68.770 20.594954
68.775 21.048643
68.780 21.00107
68.785 21.053293
68.790 21.365505
68.795 21.248352
68.800 21.37977
68.805 21.971277
68.810 22.838223
68.815 23.152393
68.820 23.212378
68.825 22.579376
68.830 22.873695
68.835 22.979898
68.840 22.091377
68.845 21.322224
68.850 21.389956
68.855 21.652611
68.860 22.449539
68.865 22.347635
68.870 21.777552
68.875 22.018854
68.880 22.117327
68.885 21.960386
68.890 21.980339
68.895 22.153584
68.900 22.375435
68.905 22.415813
68.910 22.017763
68.915 22.034456
68.920 21.672428
68.925 21.258915
68.930 20.251659
68.935 19.84058
68.940 20.358374
68.945 20.960089
68.950 21.032976
68.955 20.928434
68.960 21.380651
68.965 21.639584
68.970 21.946623
68.975 21.987242
68.980 22.48719
68.985 23.047878
68.990 23.514961
68.995 23.183762
69.000 23.62542
69.005 23.831018
69.010 23.9172
69.015 23.959742
69.020 23.983631
69.025 24.031469
69.030 23.838766
69.035 23.355049
69.040 23.314606
69.045 23.178665
69.050 22.766893
69.055 22.124805
69.060 22.140133
69.065 22.640234
69.070 23.248203
69.075 23.515167
69.080 24.164297
69.085 24.691088
69.090 24.738678
69.095 24.534929
69.100 24.639809
69.105 24.602543
69.110 24.45153
69.115 23.503883
69.120 23.418396
69.125 23.581728
69.130 23.748493
69.135 23.803312
69.140 23.593918
69.145 23.719587
69.150 23.962826
69.155 23.995541
69.160 24.385662
69.165 24.698431
69.170 24.725962
69.175 24.900778
69.180 24.888355
69.185 25.285372
69.190 25.310602
69.195 24.919094
69.200 24.641029
69.205 25.116972
69.210 25.645201
69.215 25.648724
69.220 26.279621
69.225 26.539417
69.230 27.096327
69.235 26.770901
69.240 26.796547
69.245 27.270445
69.250 27.535809
69.255 27.595873
69.260 27.205826
69.265 26.957809
69.270 26.985273
69.275 26.843863
69.280 26.473011
69.285 26.359232
69.290 25.909615
69.295 26.280148
69.300 26.734333
69.305 27.001532
69.310 26.831059
69.315 26.998331
69.320 27.657656
69.325 27.69817
69.330 28.290796
69.335 28.374172
69.340 28.392307
69.345 29.656885
69.350 29.594723
69.355 29.974174
69.360 30.715313
69.365 30.296085
69.370 30.300741
69.375 30.270741
69.380 29.466312
69.385 28.969423
69.390 28.404137
69.395 28.04431
69.400 28.289274
69.405 28.317165
69.410 27.859869
69.415 28.039431
69.420 28.14234
69.425 28.526934
69.430 28.890993
69.435 28.661922
69.440 28.980833
69.445 29.801449
69.450 29.985081
69.455 30.051685
69.460 29.156919
69.465 29.044483
69.470 28.793871
69.475 28.404726
69.480 28.007813
69.485 27.569431
69.490 27.321171
69.495 27.15167
69.500 27.682419
69.505 28.385672
69.510 28.788977
69.515 29.706448
69.520 30.553841
69.525 30.94187
69.530 31.567038
69.535 31.096806
69.540 31.455336
69.545 31.729033
69.550 31.36939
69.555 31.570267
69.560 31.675165
69.565 30.859699
69.570 31.229408
69.575 30.72254
69.580 30.759178
69.585 30.081274
69.590 29.663284
69.595 28.943249
69.600 28.98341
69.605 28.277588
69.610 28.008244
69.615 27.966526
69.620 28.399443
69.625 29.016554
69.630 29.519106
69.635 30.420267
69.640 30.783466
69.645 30.957533
69.650 30.367405
69.655 31.21047
69.660 30.892767
69.665 30.784956
69.670 29.835606
69.675 30.038162
69.680 29.965086
69.685 29.73531
69.690 28.713785
69.695 28.19656
69.700 28.387369
69.705 28.830545
69.710 27.937225
69.715 27.621866
69.720 27.443119
69.725 27.393547
69.730 27.666569
69.735 27.226814
69.740 27.407595
69.745 27.749008
69.750 27.497654
69.755 27.314678
69.760 27.170519
69.765 27.582329
69.770 27.493797
69.775 26.992157
69.780 27.118284
69.785 27.809549
69.790 27.469511
69.795 26.910625
69.800 26.736176
69.805 26.854055
69.810 27.080572
69.815 26.772976
69.820 25.958424
69.825 26.395672
69.830 26.142263
69.835 25.402813
69.840 24.717222
69.845 24.263016
69.850 24.584261
69.855 24.554419
69.860 24.642962
69.865 25.137506
69.870 25.438643
69.875 25.165985
69.880 24.903448
69.885 24.531878
69.890 24.363419
69.895 24.291216
69.900 23.753662
69.905 23.849726
69.910 24.439342
69.915 25.070612
69.920 25.496735
69.925 25.41683
69.930 24.254519
69.935 24.056301
69.940 23.659397
69.945 22.842653
69.950 22.733671
69.955 21.821289
69.960 21.812542
69.965 21.898994
69.970 22.124954
69.975 21.782663
69.980 21.616711
69.985 21.308298
69.990 21.580084
69.995 21.663315
70.000 21.390488
70.005 21.138214
70.010 21.309105
70.015 21.73184
70.020 21.940702
70.025 22.511543
70.030 22.334959
70.035 22.100088
70.040 21.62322
70.045 21.481546
70.050 21.212217
70.055 20.867189
70.060 19.990349
70.065 19.854452
70.070 20.75424
70.075 21.88546
70.080 22.10457
70.085 22.269741
70.090 22.404154
70.095 22.762514
70.100 22.878023
70.105 21.924921
70.110 21.439892
70.115 20.877211
70.120 20.877905
70.125 20.73222
70.130 20.89057
70.135 21.406223
70.140 21.799099
70.145 22.247612
70.150 22.373837
70.155 22.581966
70.160 22.804354
70.165 23.14983
70.170 23.333843
70.175 23.257208
70.180 23.284904
70.185 23.263454
70.190 23.274349
70.195 23.126322
70.200 22.332409
70.205 21.942879
70.210 21.477934
70.215 21.374361
70.220 21.359734
70.225 20.861925
70.230 20.447012
70.235 20.371181
70.240 20.509527
70.245 20.457191
70.250 19.870699
70.255 19.68788
70.260 19.421204
70.265 19.223978
70.270 18.949261
70.275 18.891066
70.280 19.292128
70.285 19.248405
70.290 19.480625
70.295 19.842314
70.300 19.969067
70.305 19.813648
70.310 19.437181
70.315 19.062971
70.320 19.484234
70.325 19.41563
70.330 19.089622
70.335 19.3692
70.340 18.386696
70.345 18.454033
70.350 18.332062
70.355 18.307117
70.360 18.670307
70.365 19.101374
70.370 18.742456
70.375 19.606121
70.380 19.145115
70.385 18.985039
70.390 18.374319
70.395 18.136986
70.400 18.437799
70.405 18.871559
70.410 19.170456
70.415 19.324951
70.420 19.665985
70.425 19.988384
70.430 19.932169
70.435 19.521616
70.440 19.534164
70.445 19.055231
70.450 18.663687
70.455 18.095898
70.460 17.707569
70.465 17.762276
70.470 17.807962
70.475 18.267326
70.480 19.205265
70.485 19.579279
70.490 19.870491
70.495 19.554283
70.500 19.637863
70.505 20.081642
70.510 19.149429
70.515 18.716713
70.520 18.704601
70.525 19.29579
70.530 19.870398
70.535 19.284946
70.540 18.863331
70.545 19.05048
70.550 19.592434
70.555 19.508583
70.560 19.435387
70.565 19.38793
70.570 19.677048
70.575 19.703236
70.580 19.413162
70.585 18.857203
70.590 19.319799
70.595 19.184864
70.600 19.209356
70.605 19.157576
70.610 19.567801
70.615 19.405825
70.620 19.760025
70.625 19.105427
70.630 19.001944
70.635 18.989153
70.640 19.079832
70.645 19.143587
70.650 19.966385
70.655 19.734869
70.660 19.248602
70.665 18.938093
70.670 19.175121
70.675 19.006826
70.680 18.822702
70.685 18.871187
70.690 19.428791
70.695 19.793987
70.700 19.638611
70.705 19.135166
70.710 19.006363
70.715 18.602346
70.720 18.354654
70.725 18.001116
70.730 18.03311
70.735 18.593578
70.740 18.755495
70.745 19.296154
70.750 19.456913
70.755 19.844185
70.760 19.500637
70.765 19.227757
70.770 18.656431
70.775 18.887037
70.780 18.935333
70.785 19.224157
70.790 19.706528
70.795 19.905254
70.800 19.774416
70.805 19.724541
70.810 19.200176
70.815 18.675379
70.820 18.374567
70.825 17.807444
70.830 18.58432
70.835 19.215254
70.840 19.295761
70.845 19.334057
70.850 20.244453
70.855 20.375669
70.860 20.705587
70.865 20.458309
70.870 19.952148
70.875 20.429134
70.880 20.394207
70.885 19.556015
70.890 19.095701
70.895 18.608532
70.900 18.973558
70.905 19.171377
70.910 18.952971
70.915 18.740437
70.920 18.27614
70.925 18.612186
70.930 18.789572
70.935 18.373655
70.940 19.261318
70.945 19.754993
70.950 19.97105
70.955 20.003784
70.960 19.306246
70.965 18.687477
70.970 18.529461
70.975 17.7773
70.980 17.562637
70.985 17.425507
70.990 17.109886
70.995 16.975805
71.000 16.703751
71.005 16.674124
71.010 16.508108
71.015 16.534845
71.020 16.958773
71.025 17.70738
71.030 18.068098
71.035 18.431522
71.040 18.469322
71.045 18.600203
71.050 18.408092
71.055 18.202324
71.060 18.192333
71.065 18.095835
71.070 18.578037
71.075 18.526901
71.080 18.173889
71.085 18.278625
71.090 18.922554
71.095 19.578194
71.100 19.678076
71.105 19.345306
71.110 18.637451
71.115 18.729073
71.120 19.013601
71.125 18.322821
71.130 17.696417
71.135 17.368254
71.140 17.417271
71.145 17.670856
71.150 17.363676
71.155 16.984869
71.160 16.708565
71.165 16.747021
71.170 17.403105
71.175 17.810356
71.180 17.90885
71.185 17.984522
71.190 17.870392
71.195 17.999104
71.200 18.228462
71.205 17.901312
71.210 18.156147
71.215 18.521353
71.220 18.822948
71.225 18.857195
71.230 18.622393
71.235 18.654037
71.240 18.973635
71.245 18.740845
71.250 19.065691
71.255 19.198092
71.260 19.155241
71.265 19.739996
71.270 20.263201
71.275 19.967876
71.280 19.763897
71.285 19.112442
71.290 19.322037
71.295 19.498505
71.300 19.144489
71.305 18.379408
71.310 18.591061
71.315 18.501734
71.320 18.668207
71.325 18.461746
71.330 18.401098
71.335 18.480083
71.340 18.061625
71.345 18.1313
71.350 18.006435
71.355 17.729319
71.360 17.607773
71.365 17.740093
71.370 17.461731
71.375 17.664286
71.380 17.799952
71.385 17.289518
71.390 17.216103
71.395 17.300549
71.400 17.249695
71.405 17.72444
71.410 18.066675
71.415 17.991268
71.420 17.878569
71.425 17.835192
71.430 17.860605
71.435 18.032494
71.440 17.736336
71.445 16.850863
71.450 17.06089
71.455 17.910479
71.460 18.178963
71.465 17.75572
71.470 17.621708
71.475 17.657194
71.480 18.206436
71.485 18.396404
71.490 18.143318
71.495 18.186396
71.500 18.837309
71.505 18.973936
71.510 19.582188
71.515 19.339869
71.520 19.539188
71.525 19.322107
71.530 19.009384
71.535 18.538952
71.540 18.300499
71.545 17.719328
71.550 17.754065
71.555 17.833788
71.560 17.757713
71.565 18.095116
71.570 18.101793
71.575 17.939428
71.580 17.286839
71.585 17.708691
71.590 17.648668
71.595 17.799738
71.600 17.692741
71.605 17.933273
71.610 18.817699
71.615 18.567802
71.620 18.246073
71.625 18.807999
71.630 18.8871
71.635 19.413305
71.640 19.204731
71.645 19.069437
71.650 19.400795
71.655 18.777493
71.660 18.615734
71.665 18.401836
71.670 17.801588
71.675 17.341379
71.680 17.175627
71.685 16.909277
71.690 17.305878
71.695 17.403551
71.700 17.626728
71.705 17.786034
71.710 17.63586
71.715 17.963324
71.720 18.482168
71.725 18.084162
71.730 17.582743
71.735 16.903418
71.740 16.629868
71.745 16.96501
71.750 16.619905
71.755 16.316786
71.760 16.536589
71.765 16.660583
71.770 17.054668
71.775 17.704067
71.780 17.862295
71.785 18.173771
71.790 18.081121
71.795 18.397074
71.800 18.314465
71.805 18.790573
71.810 19.228268
71.815 19.41118
71.820 19.620152
71.825 19.15019
71.830 18.757084
71.835 19.734749
71.840 19.245132
71.845 18.709078
71.850 18.176216
71.855 18.496553
71.860 18.737001
71.865 18.790606
71.870 18.37557
71.875 18.052797
71.880 18.516068
71.885 18.438614
71.890 18.281763
71.895 18.455074
71.900 18.485518
71.905 18.630678
71.910 18.367422
71.915 18.17873
71.920 18.696297
71.925 18.731348
71.930 19.053783
71.935 19.472731
71.940 19.117458
71.945 19.041094
71.950 18.965967
71.955 19.311335
71.960 19.58386
71.965 19.172113
71.970 18.38271
71.975 18.721848
71.980 18.937437
71.985 18.482231
71.990 17.922201
71.995 17.418671
72.000 17.406755
72.005 17.791386
72.010 17.339046
72.015 17.002525
72.020 17.14802
72.025 17.296036
72.030 17.42618
72.035 17.395029
72.040 17.391151
72.045 18.668613
72.050 19.7869
72.055 19.973774
72.060 19.432291
72.065 19.642328
72.070 19.60207
72.075 19.072563
72.080 17.987885
72.085 17.082878
72.090 17.556082
72.095 18.391014
72.100 18.283205
72.105 18.27401
72.110 18.097151
72.115 18.269098
72.120 18.574688
72.125 17.483566
72.130 16.384737
72.135 16.772104
72.140 17.304371
72.145 17.250443
72.150 17.408026
72.155 17.562397
72.160 18.444614
72.165 19.574394
72.170 19.96876
72.175 20.685083
72.180 20.841459
72.185 20.222113
72.190 19.880949
72.195 19.780054
72.200 19.065493
72.205 18.25375
72.210 18.000725
72.215 18.053003
72.220 18.113995
72.225 17.811119
72.230 17.073086
72.235 17.035812
72.240 17.109224
72.245 17.557539
72.250 17.126509
72.255 16.954796
72.260 17.218178
72.265 18.206535
72.270 17.946196
72.275 17.387978
72.280 16.554955
72.285 16.849623
72.290 17.467871
72.295 17.183168
72.300 16.837576
72.305 17.3601
72.310 17.800385
72.315 18.419685
72.320 18.238539
72.325 18.272341
72.330 18.930357
72.335 19.365274
72.340 18.973356
72.345 18.822659
72.350 18.48477
72.355 18.305288
72.360 17.862947
72.365 17.213438
72.370 16.563126
72.375 16.453024
72.380 16.940523
72.385 17.726538
72.390 17.858084
72.395 17.456308
72.400 17.85837
72.405 18.016388
72.410 17.932709
72.415 17.395481
72.420 17.295738
72.425 18.030924
72.430 18.24214
72.435 18.063231
72.440 18.376019
72.445 18.782404
72.450 18.733587
72.455 18.550417
72.460 18.066706
72.465 17.980177
72.470 18.813223
72.475 18.784225
72.480 19.572439
72.485 19.964769
72.490 19.864904
72.495 20.704721
72.500 20.872955
72.505 20.505516
72.510 20.120787
72.515 19.430067
72.520 19.41873
72.525 19.068205
72.530 18.990952
72.535 18.541212
72.540 18.852867
72.545 18.7927
72.550 18.494295
72.555 18.888052
72.560 19.148212
72.565 18.700081
72.570 18.275558
72.575 18.013702
72.580 18.161194
72.585 18.130775
72.590 17.691803
72.595 16.986687
72.600 17.164454
72.605 17.619955
72.610 17.367928
72.615 17.274042
72.620 17.356085
72.625 17.574276
72.630 17.665731
72.635 17.652885
72.640 17.481449
72.645 17.528503
72.650 17.560156
72.655 17.579012
72.660 17.824469
72.665 17.761578
72.670 17.411751
72.675 17.472599
72.680 17.508356
72.685 17.646769
72.690 17.895849
72.695 18.586575
72.700 18.566456
72.705 18.188049
72.710 17.803837
72.715 17.440619
72.720 17.626083
72.725 17.014048
72.730 16.40225
72.735 16.949799
72.740 17.215649
72.745 17.681078
72.750 17.952448
72.755 17.321451
72.760 17.452488
72.765 17.609018
72.770 17.736462
72.775 17.823812
72.780 17.657774
72.785 17.885714
72.790 18.516247
72.795 17.833649
72.800 17.698479
72.805 17.562151
72.810 17.363121
72.815 17.560751
72.820 17.297787
72.825 17.703022
72.830 17.514517
72.835 17.556206
72.840 17.526937
72.845 17.457027
72.850 17.349735
72.855 17.551626
72.860 17.696501
72.865 17.888321
72.870 17.509613
72.875 17.854914
72.880 18.079262
72.885 17.742792
72.890 17.45256
72.895 17.153563
72.900 17.707207
72.905 18.006714
72.910 17.568956
72.915 17.636337
72.920 17.287191
72.925 17.374113
72.930 17.460327
72.935 16.84252
72.940 16.743517
72.945 16.180775
72.950 16.000006
72.955 16.39189
72.960 16.835829
72.965 16.133608
72.970 16.469078
72.975 16.609081
72.980 17.489763
72.985 17.459848
72.990 17.306362
72.995 16.881704
73.000 17.109013
