!@!!GADDS PLOTSO FILE: Chi integration type
!@!!Title/SampleName: map-16b
!@!!Comment: ?
!@!!User: Bruker Instrument Administrator
!@!!Site: University of Illinois Chicago
!@!!Frame: map-16b_01_000.gfrm
!@!!Wavelengths    1.54184   1.54056   1.54439
!@!!Frame angles: 2Theta: 63.000 Omega: 50.000 Phi: 0.000 Chi: 90.000
!@!!Integration range: 2Theta: 53.000 to 73.000  Gamma: -105.000 to -75.000
!@!!Integration method: bin normalized
!@!N
!@!SS
!@!M
!@!L 0.0 0.0 0.0 0.0
!@!XDegrees
!@!YCounts
53.000 4.157692
53.005 4.281431
53.010 4.226405
53.015 4.282442
53.020 4.344023
53.025 3.945223
53.030 3.961071
53.035 4.095353
53.040 4.176342
53.045 4.375341
53.050 4.247443
53.055 4.077366
53.060 4.184261
53.065 4.161093
53.070 3.970331
53.075 3.924934
53.080 3.775168
53.085 3.679091
53.090 3.862252
53.095 4.076272
53.100 3.985618
53.105 3.937602
53.110 4.124783
53.115 4.307855
53.120 4.425921
53.125 4.238923
53.130 4.113558
53.135 4.391127
53.140 4.427591
53.145 4.389555
53.150 4.211541
53.155 4.101608
53.160 3.91097
53.165 4.014547
53.170 3.969483
53.175 3.923635
53.180 3.814275
53.185 3.556073
53.190 3.299083
53.195 3.439957
53.200 3.37572
53.205 3.283491
53.210 3.51651
53.215 3.627271
53.220 3.983029
53.225 4.288741
53.230 3.976283
53.235 4.114645
53.240 4.052449
53.245 3.90552
53.250 3.870541
53.255 3.644377
53.260 3.530782
53.265 3.632636
53.270 3.373939
53.275 3.089538
53.280 2.971956
53.285 2.859802
53.290 2.95842
53.295 2.934308
53.300 2.853024
53.305 3.214475
53.310 3.222003
53.315 3.231207
53.320 3.552467
53.325 3.819924
53.330 3.881174
53.335 4.012185
53.340 4.088623
53.345 4.322311
53.350 4.48389
53.355 4.43206
53.360 4.19257
53.365 4.067304
53.370 3.967658
53.375 3.802382
53.380 3.772795
53.385 3.485432
53.390 3.383149
53.395 3.415747
53.400 3.461742
53.405 3.140065
53.410 3.241616
53.415 3.30202
53.420 3.50614
53.425 3.3481
53.430 3.247935
53.435 3.390368
53.440 3.852556
53.445 4.0823
53.450 4.223463
53.455 4.056508
53.460 3.945941
53.465 4.001449
53.470 3.746534
53.475 3.796827
53.480 3.428611
53.485 3.316038
53.490 3.477574
53.495 3.723737
53.500 3.972
53.505 4.042264
53.510 3.891939
53.515 4.121083
53.520 4.011412
53.525 4.029535
53.530 3.883639
53.535 3.861189
53.540 3.867882
53.545 3.822471
53.550 3.787822
53.555 3.93645
53.560 4.223201
53.565 4.255898
53.570 4.274072
53.575 4.5603
53.580 4.960748
53.585 5.021125
53.590 4.831461
53.595 5.145532
53.600 5.496196
53.605 5.725564
53.610 5.525485
53.615 5.024627
53.620 5.03429
53.625 4.67331
53.630 4.348906
53.635 4.142634
53.640 3.79909
53.645 3.763682
53.650 3.984922
53.655 3.92158
53.660 4.217221
53.665 4.146918
53.670 3.951774
53.675 4.066092
53.680 3.943985
53.685 3.693381
53.690 3.954724
53.695 3.999245
53.700 3.782881
53.705 3.557414
53.710 3.76676
53.715 3.8176
53.720 4.056264
53.725 4.47244
53.730 4.630139
53.735 4.741919
53.740 4.75585
53.745 4.754819
53.750 4.770743
53.755 4.496356
53.760 4.135083
53.765 4.088256
53.770 4.300456
53.775 4.089859
53.780 4.012926
53.785 4.134935
53.790 4.235303
53.795 4.333995
53.800 4.477358
53.805 4.43746
53.810 4.676455
53.815 4.651908
53.820 4.711007
53.825 4.393462
53.830 3.869791
53.835 3.657136
53.840 3.605229
53.845 3.623428
53.850 3.785923
53.855 3.877476
53.860 4.221992
53.865 4.388629
53.870 4.38703
53.875 4.526433
53.880 4.529757
53.885 4.222163
53.890 3.927739
53.895 3.611398
53.900 3.65231
53.905 3.778854
53.910 3.79444
53.915 3.558937
53.920 3.741118
53.925 3.978074
53.930 4.149901
53.935 4.258846
53.940 4.019282
53.945 3.964393
53.950 4.024837
53.955 3.962507
53.960 3.820635
53.965 3.856014
53.970 3.642115
53.975 3.683554
53.980 3.909472
53.985 4.186539
53.990 4.360551
53.995 4.504135
54.000 4.586533
54.005 4.596596
54.010 4.563065
54.015 4.21171
54.020 4.326815
54.025 4.293002
54.030 4.388719
54.035 4.533251
54.040 4.775715
54.045 4.928582
54.050 4.643594
54.055 4.250027
54.060 4.245548
54.065 3.826481
54.070 3.811084
54.075 3.437297
54.080 3.373684
54.085 3.625321
54.090 3.592651
54.095 3.896064
54.100 4.031258
54.105 4.151035
54.110 4.567358
54.115 4.601183
54.120 4.402044
54.125 4.453619
54.130 4.17347
54.135 3.853242
54.140 3.798565
54.145 3.792354
54.150 4.184109
54.155 4.374289
54.160 4.520294
54.165 4.766364
54.170 4.911462
54.175 4.763025
54.180 4.399287
54.185 4.264376
54.190 4.336677
54.195 4.077444
54.200 4.201228
54.205 4.231713
54.210 4.360417
54.215 4.482263
54.220 4.259936
54.225 4.11998
54.230 3.962692
54.235 3.542166
54.240 3.478822
54.245 3.30926
54.250 3.371031
54.255 3.507197
54.260 3.775702
54.265 4.001935
54.270 4.442212
54.275 4.633288
54.280 4.76883
54.285 4.724196
54.290 4.547044
54.295 4.277818
54.300 4.38252
54.305 4.323919
54.310 4.027597
54.315 4.30002
54.320 4.503254
54.325 4.677882
54.330 4.735796
54.335 4.469764
54.340 4.577124
54.345 4.561271
54.350 4.397535
54.355 4.256822
54.360 4.202291
54.365 4.531602
54.370 4.544055
54.375 4.456368
54.380 4.160882
54.385 3.870588
54.390 3.96043
54.395 3.791397
54.400 3.59156
54.405 3.888404
54.410 4.356985
54.415 4.805766
54.420 4.701514
54.425 4.477087
54.430 4.679879
54.435 4.330926
54.440 3.917952
54.445 3.4147
54.450 3.208535
54.455 3.341452
54.460 3.146582
54.465 3.058835
54.470 3.49818
54.475 3.75595
54.480 3.90695
54.485 3.988504
54.490 4.224643
54.495 4.450501
54.500 4.356097
54.505 3.977299
54.510 3.795973
54.515 3.832721
54.520 3.954452
54.525 3.954812
54.530 4.091421
54.535 4.220055
54.540 4.540183
54.545 4.651435
54.550 4.713959
54.555 4.724371
54.560 4.709205
54.565 4.768548
54.570 4.748095
54.575 4.199804
54.580 4.36411
54.585 4.37462
54.590 4.605731
54.595 4.451446
54.600 4.197558
54.605 4.245379
54.610 4.738004
54.615 4.456639
54.620 4.080472
54.625 3.798919
54.630 3.729483
54.635 4.055265
54.640 4.094054
54.645 3.972644
54.650 4.209876
54.655 4.489396
54.660 4.793408
54.665 4.930956
54.670 4.778118
54.675 4.631735
54.680 4.796556
54.685 4.726135
54.690 4.669256
54.695 4.386562
54.700 4.121543
54.705 4.224366
54.710 4.521138
54.715 4.28005
54.720 4.076252
54.725 3.961314
54.730 4.391067
54.735 4.690444
54.740 4.443552
54.745 4.318082
54.750 4.388257
54.755 4.664724
54.760 4.525202
54.765 4.473458
54.770 4.449347
54.775 4.431961
54.780 4.21208
54.785 4.473846
54.790 4.628174
54.795 4.840995
54.800 4.832686
54.805 5.074483
54.810 5.478622
54.815 5.627561
54.820 5.115586
54.825 4.883169
54.830 4.743354
54.835 4.71799
54.840 4.52668
54.845 4.561622
54.850 4.64776
54.855 4.916554
54.860 4.933032
54.865 4.88855
54.870 4.722265
54.875 4.768477
54.880 4.805318
54.885 4.809307
54.890 4.97071
54.895 5.386726
54.900 5.588368
54.905 5.463677
54.910 5.472898
54.915 5.441943
54.920 5.553713
54.925 5.588032
54.930 5.534451
54.935 5.50234
54.940 5.496698
54.945 5.276529
54.950 5.008521
54.955 4.939094
54.960 4.680469
54.965 4.291679
54.970 3.968719
54.975 3.863646
54.980 4.096821
54.985 4.351345
54.990 4.326084
54.995 4.3295
55.000 4.326937
55.005 4.541196
55.010 4.682141
55.015 4.701052
55.020 4.851856
55.025 4.723251
55.030 5.017257
55.035 5.257556
55.040 5.326812
55.045 5.587162
55.050 5.782632
55.055 5.705407
55.060 5.587644
55.065 5.340465
55.070 5.283048
55.075 5.179523
55.080 4.505548
55.085 4.01403
55.090 4.120578
55.095 4.200206
55.100 4.410009
55.105 4.624656
55.110 4.610536
55.115 4.726877
55.120 4.924252
55.125 5.077203
55.130 5.147584
55.135 5.078825
55.140 5.049164
55.145 5.236165
55.150 5.598585
55.155 5.712982
55.160 5.492899
55.165 5.104903
55.170 4.923597
55.175 5.039651
55.180 5.195392
55.185 4.892107
55.190 4.596465
55.195 5.038469
55.200 5.380124
55.205 5.34679
55.210 5.014533
55.215 4.848933
55.220 5.181949
55.225 5.526044
55.230 5.353436
55.235 5.412546
55.240 5.26211
55.245 5.281671
55.250 5.312849
55.255 5.091393
55.260 4.747244
55.265 4.459223
55.270 4.557354
55.275 4.218741
55.280 4.031164
55.285 3.684912
55.290 3.737757
55.295 4.094958
55.300 4.079122
55.305 4.111553
55.310 5.057681
55.315 5.486838
55.320 5.907053
55.325 5.990899
55.330 5.96847
55.335 6.23081
55.340 5.883694
55.345 5.279059
55.350 5.028136
55.355 5.020984
55.360 5.258812
55.365 5.037457
55.370 5.088527
55.375 5.114175
55.380 5.029857
55.385 4.988922
55.390 4.544906
55.395 4.100132
55.400 4.077206
55.405 4.140055
55.410 4.417668
55.415 4.565977
55.420 4.564613
55.425 4.489241
55.430 4.484409
55.435 4.242382
55.440 3.824671
55.445 3.918052
55.450 3.749238
55.455 3.777006
55.460 3.97153
55.465 4.415905
55.470 4.505608
55.475 4.498237
55.480 4.539093
55.485 4.988977
55.490 4.958861
55.495 4.725958
55.500 4.381998
55.505 4.538489
55.510 4.530697
55.515 4.15587
55.520 4.190984
55.525 4.437362
55.530 4.248754
55.535 4.249721
55.540 4.168139
55.545 4.38593
55.550 4.427152
55.555 4.080573
55.560 4.223747
55.565 4.874723
55.570 5.273348
55.575 5.477111
55.580 5.419091
55.585 5.381491
55.590 5.686792
55.595 5.543003
55.600 5.219645
55.605 5.116954
55.610 4.905948
55.615 4.795149
55.620 4.906119
55.625 4.760295
55.630 4.609084
55.635 4.782731
55.640 4.618282
55.645 4.568509
55.650 4.676716
55.655 4.804929
55.660 4.854007
55.665 4.992289
55.670 5.027616
55.675 5.22489
55.680 5.469599
55.685 5.296092
55.690 5.013171
55.695 4.845339
55.700 4.706611
55.705 4.353235
55.710 4.282012
55.715 4.432944
55.720 4.512498
55.725 4.422932
55.730 4.567301
55.735 4.76104
55.740 4.844206
55.745 4.839628
55.750 4.621859
55.755 4.623099
55.760 4.467027
55.765 4.361581
55.770 4.496217
55.775 4.576279
55.780 4.639676
55.785 4.923057
55.790 5.147784
55.795 5.707832
55.800 5.601267
55.805 5.05026
55.810 4.942078
55.815 4.852215
55.820 4.577256
55.825 4.204824
55.830 4.213772
55.835 4.43347
55.840 4.570899
55.845 4.556691
55.850 4.714839
55.855 4.95818
55.860 5.076254
55.865 4.823311
55.870 4.722255
55.875 4.836948
55.880 5.1762
55.885 5.174905
55.890 5.571676
55.895 5.436416
55.900 5.835157
55.905 6.330844
55.910 6.577916
55.915 6.510021
55.920 6.293943
55.925 6.148713
55.930 6.342683
55.935 6.235313
55.940 5.799933
55.945 5.578001
55.950 5.519424
55.955 5.543507
55.960 5.506166
55.965 5.498276
55.970 5.364742
55.975 5.237436
55.980 5.149891
55.985 4.834832
55.990 4.633422
55.995 4.408393
56.000 4.319449
56.005 4.178437
56.010 4.141164
56.015 4.423383
56.020 4.791148
56.025 5.148456
56.030 5.117049
56.035 5.256219
56.040 5.655194
56.045 5.61878
56.050 5.209234
56.055 5.061038
56.060 4.97137
56.065 5.098836
56.070 4.944796
56.075 4.99165
56.080 5.308391
56.085 5.224004
56.090 5.134733
56.095 5.314941
56.100 5.355014
56.105 5.322468
56.110 5.207132
56.115 5.381862
56.120 5.681602
56.125 5.69615
56.130 5.605472
56.135 5.768525
56.140 5.930795
56.145 6.091112
56.150 5.798111
56.155 5.696888
56.160 6.184552
56.165 6.310485
56.170 5.879378
56.175 5.460414
56.180 5.345695
56.185 5.362799
56.190 5.599564
56.195 5.012146
56.200 4.8661
56.205 5.153033
56.210 5.544325
56.215 5.737919
56.220 5.91307
56.225 5.836499
56.230 6.064878
56.235 6.194991
56.240 6.04969
56.245 5.768034
56.250 5.421047
56.255 5.300921
56.260 5.217345
56.265 5.256532
56.270 5.389249
56.275 5.388352
56.280 5.703584
56.285 5.993871
56.290 6.157813
56.295 6.063512
56.300 5.729965
56.305 5.424691
56.310 5.512698
56.315 5.336964
56.320 5.243228
56.325 4.836923
56.330 5.011587
56.335 5.049563
56.340 5.45
56.345 5.601639
56.350 5.65135
56.355 5.742651
56.360 6.509188
56.365 6.783459
56.370 7.009761
56.375 6.885048
56.380 6.655851
56.385 6.453694
56.390 6.306291
56.395 5.77246
56.400 5.797695
56.405 5.812634
56.410 6.007
56.415 5.911135
56.420 5.943625
56.425 6.417972
56.430 6.42735
56.435 6.167974
56.440 6.040993
56.445 6.292154
56.450 6.78854
56.455 6.882963
56.460 6.255497
56.465 6.096192
56.470 6.319024
56.475 6.233415
56.480 5.982055
56.485 5.748922
56.490 6.173908
56.495 6.684184
56.500 6.691781
56.505 6.43766
56.510 6.65861
56.515 6.573461
56.520 6.563585
56.525 6.081429
56.530 5.583087
56.535 5.437002
56.540 5.598087
56.545 5.481091
56.550 5.72439
56.555 5.453938
56.560 5.449087
56.565 5.882275
56.570 6.060329
56.575 5.857794
56.580 5.776782
56.585 5.588301
56.590 5.660786
56.595 5.551161
56.600 5.362225
56.605 5.31602
56.610 5.244531
56.615 4.843428
56.620 4.86373
56.625 4.976933
56.630 4.99711
56.635 4.982083
56.640 4.883453
56.645 5.129578
56.650 5.469398
56.655 5.369721
56.660 5.067628
56.665 4.905711
56.670 4.817196
56.675 4.882426
56.680 4.783336
56.685 4.967752
56.690 5.353726
56.695 5.826827
56.700 6.185735
56.705 6.210854
56.710 6.603965
56.715 6.649544
56.720 6.35364
56.725 6.068091
56.730 6.377687
56.735 6.71927
56.740 6.477544
56.745 6.441627
56.750 6.378895
56.755 6.357552
56.760 6.258398
56.765 5.887679
56.770 5.443272
56.775 5.768337
56.780 5.583091
56.785 5.58213
56.790 5.842066
56.795 6.101788
56.800 6.157827
56.805 6.168842
56.810 6.178352
56.815 6.059165
56.820 5.935327
56.825 5.649508
56.830 5.474566
56.835 5.251749
56.840 5.131068
56.845 4.78131
56.850 4.827978
56.855 4.937495
56.860 4.916436
56.865 4.893757
56.870 4.890033
56.875 5.078528
56.880 5.17552
56.885 4.964564
56.890 5.12927
56.895 5.021519
56.900 5.065189
56.905 5.360902
56.910 5.376314
56.915 5.533947
56.920 5.797915
56.925 5.880839
56.930 6.142504
56.935 6.168791
56.940 5.881667
56.945 5.917713
56.950 6.06557
56.955 6.16124
56.960 5.881209
56.965 5.997259
56.970 6.542783
56.975 6.655672
56.980 6.38372
56.985 6.381747
56.990 6.362936
56.995 6.584826
57.000 6.099648
57.005 5.824145
57.010 5.568943
57.015 5.691607
57.020 5.457467
57.025 5.16691
57.030 5.206498
57.035 5.284971
57.040 5.138392
57.045 5.101955
57.050 5.079064
57.055 5.273035
57.060 5.356894
57.065 5.595125
57.070 5.73952
57.075 6.132802
57.080 6.26211
57.085 5.981692
57.090 5.866669
57.095 5.617902
57.100 5.345423
57.105 5.274282
57.110 4.940263
57.115 4.93233
57.120 5.299006
57.125 5.59851
57.130 6.009463
57.135 6.078656
57.140 6.027752
57.145 6.172026
57.150 6.183267
57.155 5.97789
57.160 5.939633
57.165 5.87987
57.170 6.155373
57.175 6.189903
57.180 6.144635
57.185 6.257026
57.190 6.452409
57.195 6.242561
57.200 6.068089
57.205 5.759192
57.210 5.956403
57.215 6.219572
57.220 6.208008
57.225 6.437768
57.230 6.681319
57.235 6.625523
57.240 6.681086
57.245 6.217323
57.250 5.980744
57.255 5.835772
57.260 5.459104
57.265 5.33812
57.270 5.416683
57.275 5.433981
57.280 5.488533
57.285 5.270796
57.290 5.134571
57.295 5.211009
57.300 5.343425
57.305 5.343194
57.310 5.561887
57.315 5.70565
57.320 6.250916
57.325 6.548595
57.330 6.488584
57.335 6.301093
57.340 6.111037
57.345 5.807172
57.350 5.641726
57.355 5.265275
57.360 4.96646
57.365 5.17355
57.370 5.418192
57.375 5.589433
57.380 5.595952
57.385 5.684836
57.390 5.918224
57.395 6.255648
57.400 6.051946
57.405 6.13132
57.410 6.113659
57.415 6.0833
57.420 6.352378
57.425 6.19173
57.430 5.786737
57.435 5.482783
57.440 5.2916
57.445 5.305162
57.450 5.424586
57.455 5.583843
57.460 5.589999
57.465 5.534688
57.470 5.629616
57.475 5.463551
57.480 5.665982
57.485 5.727277
57.490 5.795638
57.495 6.226827
57.500 6.614317
57.505 6.806943
57.510 6.996534
57.515 7.139182
57.520 6.611676
57.525 6.425943
57.530 5.958485
57.535 5.546095
57.540 5.201674
57.545 5.077689
57.550 4.835711
57.555 4.926784
57.560 4.886561
57.565 5.095988
57.570 5.433135
57.575 5.762256
57.580 5.869133
57.585 6.081114
57.590 6.06476
57.595 5.967435
57.600 5.790137
57.605 5.374198
57.610 5.045612
57.615 5.224903
57.620 5.450079
57.625 5.614743
57.630 5.790594
57.635 6.12442
57.640 6.387429
57.645 6.398754
57.650 6.439151
57.655 6.561081
57.660 6.700092
57.665 6.72345
57.670 7.085129
57.675 7.312661
57.680 7.261621
57.685 6.965753
57.690 6.385588
57.695 6.358105
57.700 5.915616
57.705 5.456821
57.710 5.521523
57.715 5.660927
57.720 6.035456
57.725 6.236566
57.730 6.205256
57.735 6.656099
57.740 6.825232
57.745 7.158434
57.750 6.9749
57.755 6.726333
57.760 6.764245
57.765 6.839333
57.770 6.669775
57.775 6.60429
57.780 6.068527
57.785 5.903837
57.790 5.797748
57.795 5.77897
57.800 5.527594
57.805 5.728094
57.810 5.798166
57.815 6.079118
57.820 6.509146
57.825 6.611156
57.830 6.592822
57.835 6.426086
57.840 6.090096
57.845 5.995533
57.850 5.87259
57.855 5.642149
57.860 5.520517
57.865 5.772323
57.870 5.775224
57.875 5.732783
57.880 5.643553
57.885 5.46576
57.890 5.565633
57.895 5.74054
57.900 5.964428
57.905 6.647709
57.910 6.891932
57.915 6.85778
57.920 7.188081
57.925 7.422644
57.930 7.19417
57.935 7.062708
57.940 6.740716
57.945 6.899283
57.950 6.829509
57.955 6.527915
57.960 6.101872
57.965 6.24373
57.970 6.367462
57.975 6.503243
57.980 6.430431
57.985 6.539442
57.990 6.764849
57.995 6.843818
58.000 6.769942
58.005 6.841932
58.010 6.568323
58.015 6.513587
58.020 6.610908
58.025 6.686239
58.030 6.507628
58.035 6.380583
58.040 6.159038
58.045 6.287304
58.050 6.418642
58.055 6.409442
58.060 6.408329
58.065 6.788098
58.070 6.573845
58.075 6.456336
58.080 6.258442
58.085 6.042164
58.090 5.725206
58.095 5.351326
58.100 5.516916
58.105 5.781663
58.110 5.627465
58.115 5.936747
58.120 5.994283
58.125 6.332571
58.130 6.633062
58.135 6.675905
58.140 6.847328
58.145 6.908105
58.150 6.549372
58.155 6.53372
58.160 6.173421
58.165 5.809947
58.170 5.190889
58.175 4.933486
58.180 5.17703
58.185 4.864967
58.190 4.983794
58.195 5.005812
58.200 5.076026
58.205 5.4308
58.210 5.41253
58.215 5.468717
58.220 5.802219
58.225 5.834846
58.230 5.900268
58.235 6.168279
58.240 6.057801
58.245 5.631604
58.250 5.610973
58.255 5.506623
58.260 5.723166
58.265 5.826081
58.270 5.668908
58.275 6.057121
58.280 6.323994
58.285 6.345505
58.290 6.547047
58.295 6.326949
58.300 6.069699
58.305 6.426803
58.310 6.310571
58.315 6.440772
58.320 6.467653
58.325 6.247764
58.330 6.302183
58.335 6.756801
58.340 6.639876
58.345 6.141357
58.350 5.935722
58.355 5.508156
58.360 5.512084
58.365 5.490338
58.370 5.115622
58.375 4.937066
58.380 5.253114
58.385 5.514116
58.390 6.030888
58.395 6.157701
58.400 6.188861
58.405 6.329951
58.410 6.341928
58.415 6.344482
58.420 6.193554
58.425 6.173944
58.430 6.571918
58.435 6.7245
58.440 6.892593
58.445 6.739046
58.450 6.488495
58.455 6.506133
58.460 6.732244
58.465 6.525543
58.470 6.259754
58.475 5.751762
58.480 5.780879
58.485 6.033185
58.490 5.747189
58.495 5.633475
58.500 5.45657
58.505 5.70171
58.510 6.178699
58.515 6.110722
58.520 5.85832
58.525 5.908051
58.530 5.762403
58.535 5.813261
58.540 5.715876
58.545 5.386024
58.550 5.36745
58.555 5.467605
58.560 5.383474
58.565 5.236129
58.570 5.638033
58.575 5.668117
58.580 5.754367
58.585 5.709444
58.590 5.473759
58.595 5.430321
58.600 5.628386
58.605 5.512866
58.610 5.64225
58.615 5.587558
58.620 5.675208
58.625 5.700117
58.630 5.887049
58.635 5.84076
58.640 5.723109
58.645 5.568513
58.650 5.908
58.655 6.210621
58.660 6.68516
58.665 6.685869
58.670 6.577393
58.675 6.762072
58.680 6.682582
58.685 6.532296
58.690 6.71515
58.695 7.136342
58.700 6.893713
58.705 6.887583
58.710 6.805581
58.715 6.877361
58.720 6.934954
58.725 6.790641
58.730 6.398153
58.735 6.598541
58.740 6.933764
58.745 6.990914
58.750 7.218952
58.755 6.995931
58.760 7.041768
58.765 6.832606
58.770 7.018276
58.775 6.806629
58.780 6.914173
58.785 7.207758
58.790 7.478195
58.795 7.387352
58.800 7.342706
58.805 7.137925
58.810 7.39117
58.815 7.573407
58.820 7.065058
58.825 7.034268
58.830 7.059154
58.835 7.260364
58.840 7.326726
58.845 6.854515
58.850 6.337578
58.855 6.473747
58.860 6.202673
58.865 5.956492
58.870 6.101969
58.875 5.64591
58.880 5.719201
58.885 6.07869
58.890 6.224784
58.895 6.797594
58.900 7.011239
58.905 7.101697
58.910 7.611505
58.915 7.710017
58.920 7.922419
58.925 7.923167
58.930 7.531211
58.935 7.215215
58.940 6.573584
58.945 6.73852
58.950 6.85775
58.955 6.585323
58.960 6.385672
58.965 6.316477
58.970 6.185057
58.975 6.360527
58.980 6.42449
58.985 6.264123
58.990 5.99173
58.995 5.919024
59.000 6.120963
59.005 6.673343
59.010 6.871855
59.015 6.179625
59.020 6.284875
59.025 6.689639
59.030 6.775587
59.035 6.722342
59.040 6.571917
59.045 6.353085
59.050 6.750519
59.055 6.676875
59.060 6.717187
59.065 6.675596
59.070 6.513027
59.075 6.827293
59.080 6.99562
59.085 6.813182
59.090 6.707262
59.095 6.437448
59.100 6.389234
59.105 6.074669
59.110 5.308073
59.115 4.814137
59.120 4.812908
59.125 4.772048
59.130 4.939776
59.135 5.307577
59.140 5.928753
59.145 6.422187
59.150 6.74382
59.155 6.515762
59.160 6.432431
59.165 6.369944
59.170 6.271399
59.175 5.918681
59.180 6.153454
59.185 6.2214
59.190 6.415776
59.195 6.498599
59.200 6.345496
59.205 6.220039
59.210 6.232881
59.215 5.710499
59.220 5.73867
59.225 5.673282
59.230 5.83154
59.235 6.027655
59.240 6.007503
59.245 6.309857
59.250 6.518137
59.255 6.382538
59.260 6.475294
59.265 6.213519
59.270 6.070184
59.275 6.030931
59.280 5.937871
59.285 5.956588
59.290 5.954005
59.295 5.961215
59.300 6.263371
59.305 6.471596
59.310 6.257895
59.315 6.127283
59.320 6.122171
59.325 5.940189
59.330 5.75327
59.335 5.563962
59.340 5.562876
59.345 5.963727
59.350 6.023853
59.355 5.751482
59.360 6.068634
59.365 6.499059
59.370 6.568801
59.375 6.483942
59.380 6.192311
59.385 6.404039
59.390 6.986712
59.395 6.897586
59.400 6.322183
59.405 6.288226
59.410 6.546661
59.415 6.647944
59.420 6.372182
59.425 6.270512
59.430 6.379116
59.435 6.840603
59.440 6.717304
59.445 6.597144
59.450 6.283054
59.455 6.32055
59.460 6.157141
59.465 6.177227
59.470 6.009611
59.475 6.298769
59.480 6.152083
59.485 6.501934
59.490 6.650662
59.495 6.501291
59.500 6.408834
59.505 6.491294
59.510 6.353401
59.515 6.222151
59.520 6.011364
59.525 5.900142
59.530 5.945577
59.535 5.999505
59.540 6.014172
59.545 6.090091
59.550 6.351338
59.555 6.440603
59.560 6.300236
59.565 6.598974
59.570 6.552284
59.575 6.515295
59.580 6.605023
59.585 6.45027
59.590 6.306393
59.595 6.519598
59.600 6.335984
59.605 6.503473
59.610 6.34431
59.615 6.265363
59.620 6.531528
59.625 6.934588
59.630 6.776781
59.635 6.781908
59.640 6.730907
59.645 6.796978
59.650 6.63137
59.655 6.55247
59.660 6.425612
59.665 7.18223
59.670 7.065039
59.675 7.083115
59.680 7.087335
59.685 7.532982
59.690 7.799022
59.695 7.632413
59.700 7.257824
59.705 7.252678
59.710 7.235757
59.715 7.278244
59.720 6.947474
59.725 7.121167
59.730 7.134395
59.735 6.884286
59.740 7.19093
59.745 7.053038
59.750 7.175523
59.755 7.219687
59.760 6.707776
59.765 6.595438
59.770 6.500002
59.775 6.259306
59.780 6.430384
59.785 6.268539
59.790 6.632222
59.795 7.017922
59.800 7.261156
59.805 7.139084
59.810 6.881793
59.815 6.979294
59.820 7.360802
59.825 7.120285
59.830 6.988717
59.835 6.883674
59.840 7.128703
59.845 7.84931
59.850 7.81123
59.855 7.192283
59.860 7.069414
59.865 7.04384
59.870 7.195289
59.875 7.37771
59.880 7.203996
59.885 7.23303
59.890 7.483615
59.895 7.154047
59.900 6.980082
59.905 7.156083
59.910 6.936388
59.915 6.622141
59.920 6.413754
59.925 6.434267
59.930 6.73016
59.935 6.771936
59.940 6.43688
59.945 6.651999
59.950 6.738122
59.955 6.980635
59.960 6.964613
59.965 6.795895
59.970 6.973914
59.975 6.967139
59.980 6.680817
59.985 6.613762
59.990 6.598835
59.995 6.807449
60.000 6.962746
60.005 6.707576
60.010 6.50417
60.015 6.304132
60.020 6.216661
60.025 5.965463
60.030 5.71954
60.035 5.677297
60.040 5.966044
60.045 6.293851
60.050 6.364561
60.055 6.396808
60.060 6.481204
60.065 6.467516
60.070 6.252093
60.075 6.22069
60.080 6.292477
60.085 6.620054
60.090 6.673079
60.095 6.788433
60.100 6.613155
60.105 6.533656
60.110 6.519867
60.115 6.522963
60.120 6.618762
60.125 6.467509
60.130 6.46345
60.135 6.746002
60.140 6.805132
60.145 6.676236
60.150 6.476216
60.155 6.537173
60.160 6.481996
60.165 6.402564
60.170 6.66714
60.175 6.855114
60.180 6.66446
60.185 6.700455
60.190 6.687422
60.195 6.91785
60.200 7.357154
60.205 7.231797
60.210 7.356491
60.215 7.567026
60.220 7.368897
60.225 7.051525
60.230 6.87508
60.235 6.574969
60.240 6.742582
60.245 6.792943
60.250 6.881566
60.255 7.216883
60.260 7.269012
60.265 7.177047
60.270 6.88202
60.275 6.601781
60.280 6.36029
60.285 5.995083
60.290 5.679783
60.295 5.896486
60.300 5.786495
60.305 6.068737
60.310 6.23802
60.315 6.335613
60.320 6.421244
60.325 6.408937
60.330 6.442163
60.335 6.670635
60.340 6.581718
60.345 6.512754
60.350 6.687685
60.355 6.73255
60.360 6.378126
60.365 6.132145
60.370 6.366575
60.375 6.683895
60.380 7.132946
60.385 7.264549
60.390 7.294973
60.395 7.593177
60.400 7.704293
60.405 7.337922
60.410 6.745675
60.415 6.132398
60.420 5.65617
60.425 5.868299
60.430 5.970837
60.435 5.678521
60.440 5.744812
60.445 6.173402
60.450 6.267017
60.455 6.392451
60.460 6.29954
60.465 6.19718
60.470 6.331126
60.475 6.355562
60.480 6.073442
60.485 6.080404
60.490 5.965214
60.495 6.012663
60.500 6.000022
60.505 6.328281
60.510 6.265891
60.515 6.204557
60.520 6.308561
60.525 6.738584
60.530 6.910106
60.535 7.059722
60.540 7.032745
60.545 7.138883
60.550 7.404365
60.555 7.388675
60.560 7.08601
60.565 7.232224
60.570 7.582381
60.575 7.82194
60.580 7.988794
60.585 7.752964
60.590 7.526357
60.595 7.47538
60.600 7.231407
60.605 6.816839
60.610 7.061045
60.615 7.377384
60.620 7.515971
60.625 7.589633
60.630 7.652711
60.635 7.389318
60.640 7.345618
60.645 6.288937
60.650 5.913214
60.655 6.027702
60.660 5.816125
60.665 5.846258
60.670 6.135488
60.675 6.453443
60.680 6.647634
60.685 6.721532
60.690 6.688704
60.695 7.053308
60.700 7.328769
60.705 6.846178
60.710 6.665656
60.715 6.557367
60.720 6.356692
60.725 6.479348
60.730 6.287663
60.735 6.139609
60.740 6.32869
60.745 6.373796
60.750 6.115632
60.755 5.93051
60.760 5.749549
60.765 5.920281
60.770 6.067479
60.775 6.354501
60.780 6.623118
60.785 6.962242
60.790 6.913611
60.795 6.830976
60.800 7.084372
60.805 6.913966
60.810 6.691119
60.815 6.654104
60.820 7.153487
60.825 7.636377
60.830 7.777282
60.835 7.185153
60.840 7.002301
60.845 7.083726
60.850 6.808839
60.855 6.635026
60.860 6.43465
60.865 6.371249
60.870 6.172427
60.875 6.027998
60.880 5.565941
60.885 5.705888
60.890 5.605988
60.895 5.420128
60.900 5.287247
60.905 5.77458
60.910 6.095313
60.915 6.589333
60.920 6.889052
60.925 6.780411
60.930 6.787536
60.935 6.991826
60.940 7.062768
60.945 7.443434
60.950 7.286249
60.955 7.173889
60.960 7.320612
60.965 7.202643
60.970 6.92742
60.975 6.449508
60.980 5.728832
60.985 5.540566
60.990 5.853218
60.995 5.760101
61.000 6.061409
61.005 6.375326
61.010 6.461761
61.015 6.777836
61.020 6.739595
61.025 6.443994
61.030 6.716694
61.035 6.659596
61.040 6.750722
61.045 6.830929
61.050 6.609499
61.055 6.483668
61.060 6.656075
61.065 6.701695
61.070 6.842904
61.075 6.857242
61.080 7.153617
61.085 7.73397
61.090 7.936479
61.095 7.50522
61.100 7.491382
61.105 7.368062
61.110 7.584451
61.115 7.704888
61.120 7.150569
61.125 7.297039
61.130 7.35474
61.135 7.09102
61.140 6.784246
61.145 6.421627
61.150 6.324409
61.155 6.760947
61.160 6.809721
61.165 6.828719
61.170 7.085493
61.175 7.604211
61.180 7.666243
61.185 7.385272
61.190 7.154356
61.195 7.132527
61.200 7.495315
61.205 7.646346
61.210 7.143617
61.215 7.436679
61.220 7.960079
61.225 8.088503
61.230 7.914939
61.235 7.484464
61.240 7.609096
61.245 8.084064
61.250 7.806453
61.255 7.32123
61.260 7.326425
61.265 7.350626
61.270 7.415446
61.275 6.758351
61.280 6.145985
61.285 5.900828
61.290 6.054695
61.295 6.140581
61.300 6.277272
61.305 6.133814
61.310 6.528201
61.315 6.721467
61.320 6.795534
61.325 6.838337
61.330 6.565707
61.335 6.562382
61.340 6.757355
61.345 6.978165
61.350 7.080594
61.355 7.132413
61.360 7.373607
61.365 7.390027
61.370 7.750967
61.375 7.845849
61.380 7.39768
61.385 7.238609
61.390 7.159148
61.395 6.71867
61.400 6.543512
61.405 5.74368
61.410 5.509293
61.415 5.645754
61.420 5.862481
61.425 5.878443
61.430 5.895829
61.435 5.877632
61.440 6.238115
61.445 6.484512
61.450 6.669001
61.455 6.957306
61.460 6.931759
61.465 6.843287
61.470 7.060147
61.475 7.317835
61.480 7.489464
61.485 7.271921
61.490 6.926839
61.495 6.867146
61.500 7.383295
61.505 7.567974
61.510 7.48908
61.515 7.690809
61.520 7.503745
61.525 7.901643
61.530 8.285217
61.535 8.109924
61.540 7.76082
61.545 7.419639
61.550 7.317961
61.555 7.402219
61.560 7.002334
61.565 6.82317
61.570 6.319165
61.575 6.406024
61.580 6.491234
61.585 6.506151
61.590 6.905803
61.595 6.666591
61.600 6.810889
61.605 7.113591
61.610 7.15625
61.615 7.177574
61.620 6.913768
61.625 7.015946
61.630 7.229466
61.635 6.920034
61.640 7.252455
61.645 7.27244
61.650 7.016055
61.655 6.63798
61.660 6.259452
61.665 6.585738
61.670 6.726701
61.675 6.337015
61.680 6.119081
61.685 6.099821
61.690 6.321452
61.695 6.371916
61.700 6.124423
61.705 6.016024
61.710 6.389466
61.715 6.604728
61.720 7.000474
61.725 7.231831
61.730 7.602566
61.735 7.72785
61.740 7.652048
61.745 7.396978
61.750 7.310351
61.755 7.015639
61.760 6.940437
61.765 6.831086
61.770 6.87539
61.775 7.079816
61.780 7.055852
61.785 6.930646
61.790 7.193306
61.795 7.439134
61.800 7.236531
61.805 7.136134
61.810 7.56632
61.815 7.524773
61.820 7.541029
61.825 7.762145
61.830 7.699472
61.835 7.871243
61.840 7.817788
61.845 7.265265
61.850 7.256222
61.855 7.457623
61.860 7.203291
61.865 6.897309
61.870 6.723112
61.875 6.731121
61.880 7.079669
61.885 7.380263
61.890 7.779704
61.895 7.628822
61.900 7.744077
61.905 7.898909
61.910 7.872788
61.915 7.813992
61.920 7.765111
61.925 7.597439
61.930 7.491459
61.935 7.462797
61.940 7.508146
61.945 7.736484
61.950 7.47744
61.955 7.30006
61.960 7.244057
61.965 7.438565
61.970 7.678653
61.975 7.369123
61.980 7.057415
61.985 7.142624
61.990 7.177288
61.995 7.039511
62.000 7.311509
62.005 7.713514
62.010 8.014931
62.015 8.085196
62.020 8.190032
62.025 8.260397
62.030 7.966693
62.035 7.342372
62.040 6.890649
62.045 6.83523
62.050 7.408333
62.055 7.483519
62.060 7.332086
62.065 7.694417
62.070 7.710535
62.075 7.720366
62.080 7.755463
62.085 7.230964
62.090 6.886901
62.095 6.965778
62.100 6.991477
62.105 7.139163
62.110 6.998204
62.115 6.980044
62.120 6.921289
62.125 7.039689
62.130 7.130694
62.135 7.420843
62.140 7.127373
62.145 7.101829
62.150 7.329709
62.155 7.370971
62.160 7.195937
62.165 7.20737
62.170 7.136756
62.175 7.455194
62.180 7.36331
62.185 7.214115
62.190 7.342334
62.195 7.578058
62.200 7.611872
62.205 7.459231
62.210 7.472939
62.215 7.763215
62.220 7.841213
62.225 7.763372
62.230 7.419158
62.235 7.134982
62.240 7.068014
62.245 7.118041
62.250 7.0712
62.255 6.975737
62.260 7.18823
62.265 7.446192
62.270 7.311979
62.275 7.146553
62.280 7.201679
62.285 7.165477
62.290 7.209651
62.295 7.210478
62.300 7.258409
62.305 7.564044
62.310 8.021432
62.315 7.870318
62.320 7.886657
62.325 7.73651
62.330 7.550974
62.335 7.634129
62.340 8.029387
62.345 8.288414
62.350 8.341305
62.355 8.357234
62.360 8.451592
62.365 8.485245
62.370 8.423151
62.375 8.302095
62.380 8.37133
62.385 8.681895
62.390 8.667799
62.395 8.737146
62.400 8.845853
62.405 8.584021
62.410 8.357645
62.415 8.036243
62.420 7.776731
62.425 7.765605
62.430 7.817899
62.435 7.784862
62.440 7.650025
62.445 7.571912
62.450 7.691993
62.455 7.527764
62.460 7.603691
62.465 7.627022
62.470 7.829566
62.475 8.163726
62.480 8.123013
62.485 8.197075
62.490 8.036922
62.495 8.04366
62.500 7.89397
62.505 7.847713
62.510 7.896492
62.515 7.573343
62.520 7.210217
62.525 7.017335
62.530 7.004371
62.535 7.008468
62.540 6.78445
62.545 6.664749
62.550 6.815621
62.555 6.888303
62.560 6.970379
62.565 7.012053
62.570 6.822986
62.575 6.975099
62.580 6.752929
62.585 6.834212
62.590 6.999649
62.595 7.037796
62.600 6.886688
62.605 7.332704
62.610 7.168797
62.615 7.137243
62.620 7.161777
62.625 7.382903
62.630 7.862503
62.635 8.274703
62.640 8.387574
62.645 9.093923
62.650 9.495353
62.655 9.303019
62.660 9.043804
62.665 8.729582
62.670 8.418672
62.675 8.087648
62.680 7.676924
62.685 7.754806
62.690 8.238568
62.695 8.707794
62.700 8.654092
62.705 8.739655
62.710 8.73857
62.715 8.512933
62.720 8.680915
62.725 8.911231
62.730 8.951399
62.735 9.371664
62.740 9.65686
62.745 9.798317
62.750 9.998549
62.755 9.90416
62.760 9.468928
62.765 9.261867
62.770 9.248843
62.775 8.850159
62.780 8.84341
62.785 8.499319
62.790 8.294106
62.795 8.184241
62.800 8.364734
62.805 8.181626
62.810 8.083677
62.815 8.116428
62.820 8.839162
62.825 8.968357
62.830 9.251234
62.835 9.305625
62.840 9.25544
62.845 9.506548
62.850 9.533094
62.855 8.897467
62.860 8.884228
62.865 8.351739
62.870 7.914567
62.875 7.802816
62.880 7.848793
62.885 7.667854
62.890 7.503899
62.895 7.320258
62.900 7.560005
62.905 7.847067
62.910 7.946464
62.915 7.918194
62.920 8.252408
62.925 8.537193
62.930 8.402223
62.935 7.760787
62.940 7.581897
62.945 7.145998
62.950 6.83877
62.955 6.512297
62.960 6.197165
62.965 6.108446
62.970 6.760619
62.975 7.10518
62.980 7.421966
62.985 7.389385
62.990 7.769571
62.995 8.027835
63.000 8.23602
63.005 8.200938
63.010 8.366665
63.015 8.907491
63.020 9.041556
63.025 9.355631
63.030 9.426103
63.035 9.490156
63.040 9.374679
63.045 8.960277
63.050 8.752121
63.055 8.676359
63.060 8.041193
63.065 8.11622
63.070 7.816386
63.075 7.378113
63.080 7.569343
63.085 7.234191
63.090 7.212624
63.095 7.276709
63.100 7.184033
63.105 7.723392
63.110 8.064799
63.115 7.839817
63.120 7.677231
63.125 7.751399
63.130 7.793419
63.135 7.70118
63.140 7.269579
63.145 7.261141
63.150 7.300376
63.155 7.831789
63.160 7.727604
63.165 7.779573
63.170 7.839046
63.175 8.087631
63.180 7.826813
63.185 7.732238
63.190 7.485737
63.195 7.558694
63.200 7.325414
63.205 6.939891
63.210 6.974656
63.215 7.115984
63.220 7.53222
63.225 7.522545
63.230 7.186492
63.235 7.229398
63.240 7.434694
63.245 7.320299
63.250 7.475325
63.255 7.219388
63.260 7.351048
63.265 7.704806
63.270 7.701366
63.275 7.615501
63.280 7.195179
63.285 6.704675
63.290 6.233429
63.295 6.503174
63.300 7.106771
63.305 7.549726
63.310 7.994337
63.315 8.485664
63.320 9.14131
63.325 9.574242
63.330 9.166056
63.335 8.530395
63.340 8.47152
63.345 8.172675
63.350 8.108348
63.355 7.991364
63.360 7.801927
63.365 7.715721
63.370 8.020303
63.375 7.684873
63.380 7.850616
63.385 7.790075
63.390 7.774388
63.395 8.002154
63.400 8.032624
63.405 7.439791
63.410 7.572088
63.415 7.744156
63.420 7.735146
63.425 7.691453
63.430 7.540772
63.435 7.093506
63.440 7.01832
63.445 6.984731
63.450 7.144552
63.455 7.29207
63.460 7.187685
63.465 7.230568
63.470 7.594248
63.475 8.035996
63.480 7.925511
63.485 7.357903
63.490 6.852934
63.495 6.578937
63.500 6.519555
63.505 6.373306
63.510 6.177708
63.515 6.616713
63.520 7.071048
63.525 7.402814
63.530 7.351236
63.535 7.743503
63.540 7.978658
63.545 8.20334
63.550 8.090577
63.555 7.810944
63.560 7.82534
63.565 8.084636
63.570 8.019738
63.575 7.832247
63.580 7.327374
63.585 7.264184
63.590 7.150597
63.595 7.22969
63.600 7.239389
63.605 7.144123
63.610 7.218613
63.615 7.598046
63.620 7.527573
63.625 7.907223
63.630 7.802527
63.635 7.701044
63.640 7.115368
63.645 6.779159
63.650 6.382055
63.655 6.220289
63.660 6.073073
63.665 6.144425
63.670 6.454859
63.675 6.897357
63.680 6.872207
63.685 6.786553
63.690 6.722836
63.695 6.674212
63.700 6.493898
63.705 6.754095
63.710 7.106665
63.715 7.296466
63.720 7.513104
63.725 7.460884
63.730 7.419436
63.735 7.433968
63.740 7.11711
63.745 6.752004
63.750 6.687908
63.755 6.711867
63.760 6.776698
63.765 6.626271
63.770 6.731488
63.775 6.879384
63.780 7.014877
63.785 7.091075
63.790 7.352766
63.795 7.599495
63.800 7.700655
63.805 7.417893
63.810 6.785832
63.815 6.831842
63.820 6.813902
63.825 6.741919
63.830 6.749047
63.835 6.676757
63.840 7.04194
63.845 7.689836
63.850 7.687737
63.855 8.133866
63.860 8.152895
63.865 7.983517
63.870 7.848971
63.875 7.493125
63.880 7.107876
63.885 6.648633
63.890 6.451825
63.895 6.324042
63.900 6.165806
63.905 5.978617
63.910 5.941488
63.915 6.250546
63.920 6.722065
63.925 6.2853
63.930 6.19842
63.935 6.731189
63.940 7.451478
63.945 7.749549
63.950 7.522016
63.955 7.146444
63.960 7.387834
63.965 7.235844
63.970 6.9563
63.975 6.459007
63.980 6.594657
63.985 6.873024
63.990 7.342913
63.995 7.422805
64.000 7.840809
64.005 8.461493
64.010 8.619283
64.015 8.601162
64.020 8.459333
64.025 7.9519
64.030 7.78703
64.035 7.595586
64.040 7.177337
64.045 7.044974
64.050 6.824927
64.055 7.019731
64.060 7.744448
64.065 8.085452
64.070 8.235737
64.075 7.984231
64.080 8.035783
64.085 8.523029
64.090 8.249727
64.095 7.967416
64.100 7.689967
64.105 7.42393
64.110 7.542984
64.115 7.289719
64.120 6.802793
64.125 6.709824
64.130 6.661256
64.135 7.108831
64.140 7.111582
64.145 7.175962
64.150 7.258994
64.155 7.190045
64.160 7.184188
64.165 6.936787
64.170 6.72801
64.175 6.872829
64.180 6.902823
64.185 6.906054
64.190 6.814371
64.195 6.703021
64.200 6.751449
64.205 6.658891
64.210 6.564142
64.215 6.312169
64.220 6.456428
64.225 6.683184
64.230 6.861282
64.235 6.807267
64.240 6.800693
64.245 6.905654
64.250 6.907673
64.255 7.075754
64.260 7.412039
64.265 7.215273
64.270 7.143928
64.275 6.86973
64.280 6.643978
64.285 6.57211
64.290 6.27472
64.295 5.957971
64.300 6.054689
64.305 6.331731
64.310 6.41633
64.315 6.570294
64.320 6.872601
64.325 7.080307
64.330 6.910511
64.335 6.963912
64.340 6.818563
64.345 6.841466
64.350 7.157324
64.355 7.116904
64.360 7.41643
64.365 7.451075
64.370 7.167603
64.375 7.245785
64.380 7.540159
64.385 7.603294
64.390 7.624397
64.395 7.682495
64.400 7.832887
64.405 8.013278
64.410 7.834008
64.415 7.575559
64.420 7.502411
64.425 7.317159
64.430 6.943975
64.435 7.476964
64.440 8.251175
64.445 8.495736
64.450 8.508827
64.455 8.513894
64.460 8.531831
64.465 8.546441
64.470 8.098279
64.475 7.59679
64.480 7.580802
64.485 7.7345
64.490 7.784245
64.495 7.882051
64.500 8.123583
64.505 8.137594
64.510 7.87101
64.515 7.698912
64.520 7.293903
64.525 7.033516
64.530 6.915596
64.535 7.297997
64.540 7.346235
64.545 7.305419
64.550 7.528467
64.555 7.812404
64.560 7.691613
64.565 7.541908
64.570 6.863451
64.575 7.342947
64.580 7.585901
64.585 7.743618
64.590 7.777408
64.595 7.648506
64.600 7.732368
64.605 7.860934
64.610 7.204465
64.615 6.844376
64.620 6.520652
64.625 6.40561
64.630 6.737242
64.635 6.748064
64.640 7.123989
64.645 7.532724
64.650 7.492388
64.655 7.303558
64.660 7.297689
64.665 7.102918
64.670 6.973097
64.675 6.495545
64.680 6.116211
64.685 6.465756
64.690 6.821622
64.695 7.312951
64.700 7.409113
64.705 7.496898
64.710 7.759263
64.715 7.909283
64.720 7.999951
64.725 7.948947
64.730 7.942445
64.735 7.864523
64.740 7.91487
64.745 8.038204
64.750 7.985546
64.755 7.58201
64.760 7.116063
64.765 6.799823
64.770 7.076069
64.775 7.031756
64.780 7.079441
64.785 7.297436
64.790 7.924376
64.795 8.194799
64.800 8.307561
64.805 8.524168
64.810 8.980162
64.815 9.068381
64.820 8.643408
64.825 8.610511
64.830 8.872693
64.835 8.907169
64.840 8.482573
64.845 8.116511
64.850 8.302198
64.855 8.777141
64.860 8.555071
64.865 8.749642
64.870 8.673315
64.875 8.864242
64.880 8.821097
64.885 8.969056
64.890 8.933038
64.895 9.09003
64.900 9.265789
64.905 9.706506
64.910 9.780642
64.915 9.821556
64.920 9.917639
64.925 10.102423
64.930 10.434809
64.935 10.200109
64.940 9.922458
64.945 10.025724
64.950 9.958011
64.955 9.738536
64.960 9.490124
64.965 9.080632
64.970 8.902352
64.975 8.92856
64.980 8.605597
64.985 8.642263
64.990 8.751559
64.995 8.744117
65.000 8.609329
65.005 8.510292
65.010 8.53459
65.015 8.532701
65.020 8.513359
65.025 8.593755
65.030 9.072396
65.035 9.658505
65.040 9.991929
65.045 9.904047
65.050 10.09648
65.055 9.836108
65.060 9.813704
65.065 9.484381
65.070 9.23788
65.075 9.263072
65.080 9.23697
65.085 9.3601
65.090 9.712929
65.095 9.434943
65.100 9.719068
65.105 9.865376
65.110 9.912755
65.115 9.643844
65.120 9.220598
65.125 8.826646
65.130 8.781487
65.135 8.760637
65.140 8.418519
65.145 8.474003
65.150 8.606967
65.155 8.647318
65.160 8.831461
65.165 8.773687
65.170 8.505827
65.175 8.290657
65.180 8.317896
65.185 8.410953
65.190 8.790297
65.195 9.053325
65.200 8.814399
65.205 8.62166
65.210 8.555684
65.215 8.785233
65.220 8.909527
65.225 8.882622
65.230 8.844048
65.235 8.838827
65.240 8.984497
65.245 9.015076
65.250 8.912274
65.255 8.870577
65.260 8.83226
65.265 8.718357
65.270 9.479987
65.275 9.622347
65.280 9.993423
65.285 9.760468
65.290 9.373134
65.295 8.925692
65.300 8.589287
65.305 8.085573
65.310 8.013825
65.315 7.663279
65.320 7.524242
65.325 7.877187
65.330 8.316731
65.335 8.093663
65.340 7.644464
65.345 7.680247
65.350 7.350539
65.355 7.167731
65.360 7.137864
65.365 6.985458
65.370 7.137954
65.375 7.444466
65.380 7.391494
65.385 7.509904
65.390 7.610415
65.395 7.477902
65.400 7.365346
65.405 7.673976
65.410 7.766662
65.415 7.546383
65.420 7.377989
65.425 7.484193
65.430 7.713367
65.435 7.6986
65.440 7.38982
65.445 7.142736
65.450 7.390855
65.455 7.684543
65.460 7.7551
65.465 7.782749
65.470 8.118048
65.475 8.386341
65.480 8.53957
65.485 8.50385
65.490 8.11116
65.495 8.275731
65.500 8.141003
65.505 7.650954
65.510 7.542835
65.515 7.403377
65.520 7.339446
65.525 7.721827
65.530 7.650915
65.535 7.792209
65.540 8.117708
65.545 8.064216
65.550 7.926208
65.555 7.818019
65.560 7.636213
65.565 7.810088
65.570 8.177917
65.575 7.938355
65.580 8.323045
65.585 8.709373
65.590 9.051349
65.595 9.14371
65.600 8.428629
65.605 7.885792
65.610 7.967928
65.615 7.441893
65.620 7.166696
65.625 6.819682
65.630 6.901499
65.635 7.188693
65.640 7.168031
65.645 6.855257
65.650 6.827858
65.655 7.170044
65.660 7.301179
65.665 7.232442
65.670 7.237966
65.675 7.40383
65.680 7.827937
65.685 7.913256
65.690 7.996618
65.695 7.752052
65.700 8.025079
65.705 8.649171
65.710 8.700921
65.715 8.551131
65.720 8.179858
65.725 8.161401
65.730 8.475869
65.735 8.05763
65.740 7.432528
65.745 7.356365
65.750 7.614003
65.755 8.06119
65.760 7.99838
65.765 8.011306
65.770 8.354282
65.775 8.445731
65.780 8.044898
65.785 7.278403
65.790 6.949341
65.795 6.912577
65.800 6.977719
65.805 6.587131
65.810 6.620376
65.815 6.85207
65.820 7.633234
65.825 7.31561
65.830 7.292099
65.835 7.172992
65.840 7.314702
65.845 7.386413
65.850 7.54723
65.855 7.605278
65.860 8.053839
65.865 7.981386
65.870 7.696399
65.875 7.616941
65.880 7.720758
65.885 7.574205
65.890 7.208386
65.895 6.928391
65.900 6.950241
65.905 7.220937
65.910 7.141907
65.915 7.107681
65.920 7.332811
65.925 7.333137
65.930 7.276657
65.935 7.272418
65.940 7.230321
65.945 7.472804
65.950 7.325163
65.955 7.180143
65.960 7.272463
65.965 7.656815
65.970 7.75643
65.975 7.919468
65.980 7.931288
65.985 8.107459
65.990 8.118661
65.995 8.028817
66.000 8.036383
66.005 7.667722
66.010 7.392762
66.015 7.290699
66.020 6.825376
66.025 7.000844
66.030 6.999288
66.035 6.739246
66.040 7.011325
66.045 7.059755
66.050 7.102471
66.055 7.390618
66.060 7.775757
66.065 7.951764
66.070 8.102462
66.075 8.021067
66.080 7.868951
66.085 7.751459
66.090 7.585616
66.095 7.250998
66.100 7.231156
66.105 7.171139
66.110 7.083797
66.115 7.232607
66.120 7.387384
66.125 7.348896
66.130 7.401506
66.135 7.45699
66.140 7.842996
66.145 7.995778
66.150 7.811186
66.155 7.606076
66.160 7.79736
66.165 7.758084
66.170 7.912015
66.175 7.731713
66.180 7.729167
66.185 7.671931
66.190 7.840939
66.195 7.730551
66.200 7.66089
66.205 7.488393
66.210 7.430319
66.215 7.351593
66.220 7.570924
66.225 7.319799
66.230 7.635268
66.235 7.7226
66.240 7.75375
66.245 8.01184
66.250 8.167641
66.255 8.267681
66.260 8.14564
66.265 8.079664
66.270 8.443283
66.275 8.078917
66.280 7.73556
66.285 7.894808
66.290 7.786689
66.295 8.098569
66.300 7.980983
66.305 7.46787
66.310 7.865923
66.315 7.681269
66.320 7.589493
66.325 8.115345
66.330 8.11757
66.335 7.912897
66.340 8.257691
66.345 8.071139
66.350 7.900839
66.355 8.063979
66.360 7.750577
66.365 7.559823
66.370 7.711977
66.375 7.637712
66.380 7.762684
66.385 7.991865
66.390 7.613246
66.395 7.343699
66.400 7.550368
66.405 7.336203
66.410 7.378907
66.415 7.545539
66.420 7.750749
66.425 7.887897
66.430 8.163908
66.435 8.005324
66.440 8.056326
66.445 7.847753
66.450 7.720541
66.455 7.743209
66.460 7.670612
66.465 7.478125
66.470 7.59336
66.475 7.79567
66.480 8.12302
66.485 8.086382
66.490 8.205792
66.495 8.014822
66.500 7.939496
66.505 8.308223
66.510 8.323302
66.515 7.823729
66.520 7.437448
66.525 7.155461
66.530 7.534805
66.535 7.306014
66.540 6.907251
66.545 7.002845
66.550 7.611008
66.555 7.629676
66.560 7.667556
66.565 7.788177
66.570 8.101621
66.575 8.184232
66.580 8.002586
66.585 8.016352
66.590 8.449003
66.595 8.917754
66.600 8.88234
66.605 8.820879
66.610 8.595149
66.615 8.385304
66.620 8.216315
66.625 8.206083
66.630 7.746982
66.635 7.682149
66.640 7.218894
66.645 7.283966
66.650 7.280699
66.655 6.952742
66.660 6.622084
66.665 6.442051
66.670 6.170031
66.675 5.992889
66.680 5.953179
66.685 6.321919
66.690 6.131886
66.695 6.095339
66.700 6.427664
66.705 6.793337
66.710 7.190341
66.715 7.16728
66.720 7.006815
66.725 7.373509
66.730 7.056163
66.735 7.153771
66.740 7.13909
66.745 7.447549
66.750 7.682176
66.755 7.619261
66.760 7.58471
66.765 7.970605
66.770 7.736184
66.775 7.588728
66.780 7.509968
66.785 7.522539
66.790 7.956356
66.795 7.973718
66.800 7.976569
66.805 8.391009
66.810 8.55289
66.815 8.713925
66.820 8.572849
66.825 8.124398
66.830 8.101232
66.835 7.889759
66.840 7.605804
66.845 7.510841
66.850 7.496615
66.855 7.5013
66.860 7.753031
66.865 7.969381
66.870 8.077117
66.875 8.334724
66.880 8.325177
66.885 8.010881
66.890 7.731341
66.895 7.787865
66.900 7.760799
66.905 8.145962
66.910 8.128149
66.915 8.138585
66.920 8.17506
66.925 8.416665
66.930 8.265706
66.935 8.210034
66.940 7.470762
66.945 7.168118
66.950 6.893044
66.955 6.813864
66.960 6.558234
66.965 6.20624
66.970 5.807509
66.975 6.16822
66.980 6.360755
66.985 6.83349
66.990 7.108315
66.995 7.405077
67.000 7.778279
67.005 8.145759
67.010 7.80498
67.015 7.601597
67.020 7.356992
67.025 7.039468
67.030 7.048209
67.035 7.009397
67.040 6.814212
67.045 6.826377
67.050 6.933934
67.055 7.170616
67.060 7.174458
67.065 7.098672
67.070 7.421795
67.075 7.928723
67.080 8.11561
67.085 8.150841
67.090 7.827543
67.095 7.884476
67.100 7.996063
67.105 7.337223
67.110 6.918066
67.115 6.788296
67.120 6.986425
67.125 7.036824
67.130 7.131861
67.135 7.225971
67.140 7.433805
67.145 7.620131
67.150 7.657966
67.155 7.490035
67.160 7.863098
67.165 7.615565
67.170 7.501173
67.175 7.154289
67.180 6.982885
67.185 6.801488
67.190 6.782574
67.195 7.006109
67.200 7.417313
67.205 7.230093
67.210 7.650283
67.215 7.834756
67.220 7.731701
67.225 7.655297
67.230 7.204261
67.235 6.993931
67.240 7.467935
67.245 7.647835
67.250 7.662009
67.255 8.111
67.260 8.340193
67.265 8.51858
67.270 8.691442
67.275 8.672141
67.280 8.29431
67.285 7.985447
67.290 7.568328
67.295 7.408407
67.300 7.210625
67.305 7.12988
67.310 6.834181
67.315 6.805759
67.320 7.305605
67.325 7.779791
67.330 7.809341
67.335 8.087222
67.340 8.381742
67.345 8.893543
67.350 9.256374
67.355 9.106038
67.360 8.651092
67.365 8.246593
67.370 7.962422
67.375 7.8106
67.380 7.010417
67.385 6.679178
67.390 6.936111
67.395 6.987351
67.400 7.244605
67.405 7.269797
67.410 7.184038
67.415 8.120176
67.420 8.51839
67.425 8.49193
67.430 8.646728
67.435 8.84908
67.440 8.831742
67.445 8.657384
67.450 7.898595
67.455 7.706396
67.460 7.803037
67.465 7.692635
67.470 7.934487
67.475 8.096729
67.480 8.520258
67.485 9.056114
67.490 8.749619
67.495 8.364289
67.500 8.234067
67.505 7.692033
67.510 7.62566
67.515 7.621348
67.520 7.732641
67.525 7.959392
67.530 8.508497
67.535 8.551185
67.540 8.341794
67.545 8.118779
67.550 7.581245
67.555 7.254846
67.560 7.135589
67.565 6.932103
67.570 7.059703
67.575 7.383206
67.580 7.518895
67.585 7.960487
67.590 8.080874
67.595 8.189068
67.600 8.377725
67.605 8.261265
67.610 8.138797
67.615 7.900083
67.620 7.570345
67.625 7.238492
67.630 6.912464
67.635 6.595888
67.640 6.748449
67.645 7.024124
67.650 6.956419
67.655 6.99091
67.660 7.132839
67.665 7.513593
67.670 7.60784
67.675 7.279994
67.680 7.313345
67.685 7.512083
67.690 7.366208
67.695 7.081443
67.700 6.664115
67.705 6.772053
67.710 6.788217
67.715 6.453833
67.720 6.317643
67.725 6.456297
67.730 6.560612
67.735 6.500004
67.740 6.615178
67.745 6.961383
67.750 7.355778
67.755 7.669208
67.760 7.866632
67.765 8.028073
67.770 8.373193
67.775 7.98482
67.780 7.949768
67.785 8.039967
67.790 7.988315
67.795 8.587711
67.800 8.82865
67.805 9.355005
67.810 9.633513
67.815 9.731472
67.820 9.597517
67.825 9.609422
67.830 9.020455
67.835 9.045212
67.840 8.749655
67.845 8.646471
67.850 8.691698
67.855 8.89495
67.860 9.103212
67.865 9.17742
67.870 9.152469
67.875 9.176416
67.880 9.272072
67.885 9.322722
67.890 9.20281
67.895 9.162964
67.900 9.235539
67.905 9.12781
67.910 8.931314
67.915 9.000048
67.920 8.540762
67.925 8.048819
67.930 8.025543
67.935 8.060184
67.940 8.356339
67.945 8.364672
67.950 8.266033
67.955 8.352908
67.960 8.974491
67.965 9.13988
67.970 9.000338
67.975 8.91967
67.980 8.84634
67.985 9.184362
67.990 9.208993
67.995 9.092731
68.000 8.994576
68.005 8.817787
68.010 8.902283
68.015 8.900486
68.020 8.871835
68.025 8.761156
68.030 8.449008
68.035 8.288247
68.040 8.571601
68.045 8.591967
68.050 9.004191
68.055 8.833731
68.060 8.722367
68.065 8.47275
68.070 8.361283
68.075 8.09423
68.080 7.925816
68.085 7.572248
68.090 7.536829
68.095 7.97701
68.100 8.475056
68.105 8.616353
68.110 8.459567
68.115 8.430367
68.120 8.74283
68.125 8.935551
68.130 8.829303
68.135 8.490647
68.140 8.197066
68.145 8.267123
68.150 8.34822
68.155 8.05656
68.160 7.858526
68.165 7.90227
68.170 7.901783
68.175 7.778047
68.180 7.774898
68.185 8.249352
68.190 8.379158
68.195 8.177509
68.200 7.614015
68.205 7.876364
68.210 8.082428
68.215 8.176018
68.220 7.596333
68.225 7.292435
68.230 7.48426
68.235 7.556767
68.240 7.417279
68.245 7.238485
68.250 6.934592
68.255 6.971618
68.260 7.140203
68.265 6.990323
68.270 6.91608
68.275 7.045478
68.280 7.095984
68.285 7.490851
68.290 7.623018
68.295 7.886821
68.300 7.941175
68.305 7.821773
68.310 7.729009
68.315 7.398651
68.320 7.300812
68.325 7.300193
68.330 6.989386
68.335 7.218899
68.340 7.519032
68.345 7.847879
68.350 8.231597
68.355 8.258954
68.360 8.001964
68.365 7.927952
68.370 7.991046
68.375 7.909131
68.380 7.698641
68.385 7.504892
68.390 7.472929
68.395 7.751329
68.400 8.080744
68.405 7.96982
68.410 8.058041
68.415 8.030713
68.420 7.812432
68.425 7.674101
68.430 7.308869
68.435 6.998224
68.440 6.948377
68.445 6.683917
68.450 7.003645
68.455 7.292749
68.460 7.312245
68.465 7.444002
68.470 7.433562
68.475 7.349912
68.480 7.592504
68.485 7.303598
68.490 7.314103
68.495 7.608302
68.500 7.754933
68.505 7.814393
68.510 7.508752
68.515 7.451542
68.520 7.493596
68.525 7.573776
68.530 7.706414
68.535 7.334092
68.540 7.268847
68.545 7.298693
68.550 7.564125
68.555 7.50965
68.560 7.351955
68.565 7.618692
68.570 7.888582
68.575 8.008286
68.580 8.38614
68.585 7.957096
68.590 7.897271
68.595 7.598448
68.600 7.398449
68.605 7.403429
68.610 7.260013
68.615 7.071391
68.620 7.210007
68.625 7.007375
68.630 7.019988
68.635 7.448997
68.640 7.745441
68.645 8.122627
68.650 8.33012
68.655 8.513483
68.660 9.081332
68.665 9.028958
68.670 8.807613
68.675 8.560893
68.680 8.381369
68.685 8.220063
68.690 8.146807
68.695 7.777654
68.700 7.547809
68.705 7.467574
68.710 7.685824
68.715 7.853146
68.720 7.921324
68.725 7.692784
68.730 7.437089
68.735 7.426589
68.740 7.313026
68.745 7.182573
68.750 7.186614
68.755 7.315912
68.760 7.898213
68.765 8.503167
68.770 8.616853
68.775 8.804185
68.780 8.906817
68.785 8.48665
68.790 8.131853
68.795 7.463833
68.800 7.019308
68.805 6.648114
68.810 6.793658
68.815 7.1663
68.820 7.290569
68.825 7.566185
68.830 8.155889
68.835 8.901934
68.840 9.394185
68.845 8.903387
68.850 8.799075
68.855 9.200226
68.860 9.309803
68.865 9.277107
68.870 9.231709
68.875 9.03221
68.880 8.858909
68.885 8.467064
68.890 8.02601
68.895 7.836145
68.900 8.037616
68.905 7.813306
68.910 7.851728
68.915 8.434653
68.920 8.646693
68.925 9.244189
68.930 9.429191
68.935 9.133003
68.940 8.894693
68.945 8.677742
68.950 8.455748
68.955 8.223759
68.960 8.113801
68.965 8.085515
68.970 8.173759
68.975 8.424046
68.980 8.572709
68.985 8.480324
68.990 8.848674
68.995 8.718962
69.000 8.629793
69.005 8.51557
69.010 8.639525
69.015 8.870741
69.020 9.174004
69.025 9.00764
69.030 8.934082
69.035 8.89844
69.040 8.910979
69.045 8.635248
69.050 8.520535
69.055 8.281759
69.060 8.333947
69.065 8.604975
69.070 8.636974
69.075 8.456274
69.080 8.573075
69.085 8.784215
69.090 8.996709
69.095 9.087003
69.100 8.868386
69.105 8.907691
69.110 9.087789
69.115 9.045669
69.120 8.832741
69.125 8.58921
69.130 8.459099
69.135 8.439525
69.140 8.414331
69.145 8.381754
69.150 8.046407
69.155 7.753657
69.160 7.835064
69.165 8.065569
69.170 8.22068
69.175 8.007708
69.180 8.131589
69.185 8.280018
69.190 8.682327
69.195 8.724254
69.200 8.310692
69.205 8.369859
69.210 8.573974
69.215 8.506264
69.220 8.614366
69.225 8.518099
69.230 8.321769
69.235 8.513691
69.240 8.223409
69.245 8.26546
69.250 8.439815
69.255 8.338074
69.260 8.509922
69.265 8.255259
69.270 8.064459
69.275 7.726745
69.280 7.678463
69.285 7.253097
69.290 7.025919
69.295 7.048242
69.300 7.473204
69.305 7.924682
69.310 7.857401
69.315 7.94723
69.320 8.041203
69.325 7.922418
69.330 7.842417
69.335 7.566339
69.340 7.396471
69.345 7.747295
69.350 8.030291
69.355 8.241928
69.360 8.249731
69.365 7.952044
69.370 7.967402
69.375 8.065531
69.380 7.867137
69.385 7.874412
69.390 7.981794
69.395 8.038715
69.400 8.118455
69.405 8.009822
69.410 7.798263
69.415 7.352759
69.420 7.143575
69.425 7.200526
69.430 7.64039
69.435 7.832021
69.440 8.087724
69.445 8.313205
69.450 8.418087
69.455 8.022666
69.460 7.630695
69.465 7.079159
69.470 6.715998
69.475 6.399136
69.480 6.254222
69.485 6.425365
69.490 6.867839
69.495 7.003658
69.500 7.157867
69.505 7.504847
69.510 7.83436
69.515 8.184093
69.520 7.940347
69.525 7.854842
69.530 8.101907
69.535 8.246279
69.540 7.986009
69.545 7.571013
69.550 7.432374
69.555 7.294827
69.560 6.84687
69.565 6.755431
69.570 6.851596
69.575 6.809725
69.580 7.006982
69.585 6.86795
69.590 7.283618
69.595 7.709033
69.600 7.719446
69.605 7.740311
69.610 7.743545
69.615 7.841615
69.620 7.863416
69.625 8.208447
69.630 8.24671
69.635 8.073884
69.640 7.983275
69.645 7.889564
69.650 8.104322
69.655 8.124143
69.660 7.997848
69.665 8.063219
69.670 7.954689
69.675 7.951728
69.680 7.799013
69.685 7.789083
69.690 7.803582
69.695 7.529439
69.700 7.76078
69.705 7.802827
69.710 7.651626
69.715 7.72648
69.720 7.460653
69.725 7.322083
69.730 6.896199
69.735 6.570059
69.740 6.812097
69.745 7.307074
69.750 7.251039
69.755 7.162772
69.760 7.144911
69.765 7.334592
69.770 7.385005
69.775 7.28379
69.780 7.264402
69.785 7.605816
69.790 7.664494
69.795 7.54907
69.800 7.718719
69.805 7.681239
69.810 7.405483
69.815 7.153864
69.820 7.103316
69.825 7.069312
69.830 7.220643
69.835 7.31501
69.840 7.443767
69.845 7.670061
69.850 7.786358
69.855 7.842928
69.860 8.275602
69.865 8.128016
69.870 8.066831
69.875 8.07529
69.880 7.930658
69.885 7.818223
69.890 7.645648
69.895 7.565828
69.900 7.683383
69.905 8.347527
69.910 8.293963
69.915 8.396667
69.920 8.557477
69.925 8.721477
69.930 8.499711
69.935 8.290159
69.940 8.022875
69.945 8.123975
69.950 8.26183
69.955 8.653338
69.960 8.268093
69.965 8.138165
69.970 7.858479
69.975 7.633664
69.980 7.610496
69.985 7.265181
69.990 6.542935
69.995 7.142387
70.000 7.532638
70.005 7.583182
70.010 7.546175
70.015 7.751331
70.020 7.642417
70.025 7.859198
70.030 7.70432
70.035 7.56814
70.040 7.784605
70.045 7.732092
70.050 7.699066
70.055 7.78237
70.060 7.632198
70.065 7.508998
70.070 7.563674
70.075 7.367895
70.080 7.067636
70.085 6.878963
70.090 6.885279
70.095 7.040846
70.100 7.740079
70.105 8.179604
70.110 8.420009
70.115 8.865707
70.120 8.790438
70.125 8.556504
70.130 7.988214
70.135 7.349253
70.140 7.37556
70.145 7.260713
70.150 7.236066
70.155 7.469339
70.160 7.961191
70.165 8.373027
70.170 8.245229
70.175 8.177123
70.180 8.215243
70.185 8.414989
70.190 8.506067
70.195 8.383799
70.200 8.759914
70.205 8.747971
70.210 8.670527
70.215 8.937256
70.220 8.69316
70.225 8.788308
70.230 8.603279
70.235 8.740139
70.240 9.018269
70.245 8.859562
70.250 8.850905
70.255 9.077721
70.260 9.148404
70.265 9.04842
70.270 8.398057
70.275 8.078356
70.280 8.210034
70.285 7.95129
70.290 7.713366
70.295 7.988174
70.300 8.240798
70.305 8.542452
70.310 9.09905
70.315 9.58586
70.320 9.698763
70.325 9.722355
70.330 9.688673
70.335 9.639258
70.340 9.351383
70.345 9.311755
70.350 8.842848
70.355 8.871144
70.360 8.490812
70.365 8.064791
70.370 8.218882
70.375 8.385126
70.380 8.568315
70.385 8.792783
70.390 8.774505
70.395 8.947721
70.400 9.216964
70.405 9.266133
70.410 9.12148
70.415 8.480043
70.420 8.177376
70.425 8.01049
70.430 7.979223
70.435 7.881021
70.440 7.963651
70.445 7.658435
70.450 7.858781
70.455 8.167624
70.460 8.408168
70.465 8.220484
70.470 8.215508
70.475 8.479124
70.480 9.037096
70.485 9.290533
70.490 9.624758
70.495 9.422132
70.500 9.831203
70.505 9.861009
70.510 9.828901
70.515 9.963961
70.520 9.365461
70.525 9.041181
70.530 9.036562
70.535 8.676443
70.540 8.713608
70.545 8.663256
70.550 8.713479
70.555 8.669601
70.560 8.781437
70.565 9.220545
70.570 9.140197
70.575 9.00508
70.580 8.631213
70.585 8.366303
70.590 8.26025
70.595 8.019991
70.600 7.916106
70.605 7.966183
70.610 7.936285
70.615 8.445303
70.620 8.696155
70.625 8.804984
70.630 8.761172
70.635 8.638657
70.640 8.47186
70.645 8.13316
70.650 7.917615
70.655 7.836645
70.660 7.870555
70.665 7.80389
70.670 8.004543
70.675 8.310211
70.680 8.387464
70.685 8.203341
70.690 8.219608
70.695 8.328192
70.700 8.258682
70.705 7.801301
70.710 7.484633
70.715 7.541049
70.720 7.829672
70.725 7.944244
70.730 7.83393
70.735 7.523968
70.740 7.421736
70.745 7.254906
70.750 6.980489
70.755 6.899858
70.760 6.549638
70.765 6.684978
70.770 6.961404
70.775 7.139465
70.780 7.458373
70.785 7.488906
70.790 7.315242
70.795 7.566516
70.800 7.761978
70.805 7.738985
70.810 7.567937
70.815 7.402186
70.820 7.545757
70.825 7.424706
70.830 7.252091
70.835 7.344153
70.840 7.635476
70.845 7.676951
70.850 7.580904
70.855 7.07448
70.860 6.903409
70.865 6.903213
70.870 6.786891
70.875 6.792759
70.880 7.011226
70.885 7.294906
70.890 7.936116
70.895 8.016769
70.900 8.15442
70.905 8.282866
70.910 8.048892
70.915 8.105595
70.920 7.678112
70.925 7.236071
70.930 7.206113
70.935 6.895834
70.940 7.166349
70.945 7.038049
70.950 6.843567
70.955 7.396025
70.960 7.764459
70.965 8.031138
70.970 8.0604
70.975 7.845993
70.980 8.046269
70.985 7.702725
70.990 7.247378
70.995 7.048831
71.000 6.950769
71.005 6.962727
71.010 6.832458
71.015 7.140594
71.020 7.699725
71.025 7.909112
71.030 7.900561
71.035 7.66528
71.040 7.933263
71.045 7.893399
71.050 7.526009
71.055 7.042861
71.060 6.932921
71.065 6.88308
71.070 7.247439
71.075 7.172359
71.080 7.270094
71.085 7.358864
71.090 7.78596
71.095 7.864748
71.100 7.808657
71.105 7.66154
71.110 7.853984
71.115 7.791733
71.120 8.007976
71.125 7.958974
71.130 8.236645
71.135 8.136868
71.140 8.011801
71.145 8.154807
71.150 8.13026
71.155 7.9262
71.160 7.675852
71.165 7.595694
71.170 7.903705
71.175 7.731666
71.180 7.65691
71.185 7.864642
71.190 7.929396
71.195 8.335096
71.200 8.150397
71.205 7.783468
71.210 7.73305
71.215 7.592666
71.220 7.342074
71.225 7.44373
71.230 7.25591
71.235 7.623685
71.240 7.832555
71.245 8.001635
71.250 8.184579
71.255 8.24064
71.260 8.157385
71.265 8.238147
71.270 7.872747
71.275 7.948778
71.280 7.903896
71.285 8.119591
71.290 8.205182
71.295 8.324408
71.300 7.915475
71.305 8.160957
71.310 8.519279
71.315 8.654224
71.320 8.474344
71.325 8.233513
71.330 7.948291
71.335 8.147056
71.340 7.806648
71.345 7.330722
71.350 7.06415
71.355 7.106235
71.360 6.91456
71.365 7.284569
71.370 7.34248
71.375 7.454405
71.380 7.62816
71.385 7.646822
71.390 7.639801
71.395 7.847956
71.400 7.750184
71.405 7.659353
71.410 7.568673
71.415 7.319444
71.420 7.417068
71.425 7.298862
71.430 7.474096
71.435 7.68118
71.440 7.704169
71.445 7.521222
71.450 7.454168
71.455 7.477765
71.460 7.407064
71.465 6.976403
71.470 7.003125
71.475 7.233342
71.480 7.440008
71.485 7.713254
71.490 8.023233
71.495 8.358893
71.500 8.280178
71.505 8.60327
71.510 8.654982
71.515 8.938329
71.520 8.284698
71.525 7.588571
71.530 7.456373
71.535 7.14278
71.540 7.035041
71.545 6.902005
71.550 7.051587
71.555 7.445274
71.560 7.874771
71.565 7.577431
71.570 7.354681
71.575 6.922257
71.580 6.655748
71.585 6.148786
71.590 5.986869
71.595 6.141704
71.600 6.383439
71.605 6.895165
71.610 7.00172
71.615 7.055562
71.620 7.283762
71.625 7.266645
71.630 7.387928
71.635 7.647818
71.640 7.559531
71.645 7.590773
71.650 7.507401
71.655 7.410612
71.660 7.289946
71.665 7.166529
71.670 6.938623
71.675 6.901124
71.680 7.066975
71.685 7.218195
71.690 7.313523
71.695 7.451537
71.700 7.353983
71.705 7.437007
71.710 7.424932
71.715 7.626675
71.720 7.456664
71.725 7.300386
71.730 7.337762
71.735 7.454151
71.740 7.46455
71.745 7.570695
71.750 7.551993
71.755 7.68015
71.760 8.04219
71.765 8.058438
71.770 8.126013
71.775 7.604699
71.780 7.618496
71.785 7.619001
71.790 7.334074
71.795 7.068133
71.800 7.004516
71.805 7.046967
71.810 7.19881
71.815 7.43778
71.820 7.918977
71.825 7.867184
71.830 7.57802
71.835 7.582916
71.840 7.583535
71.845 7.527943
71.850 7.301937
71.855 7.048804
71.860 7.315361
71.865 7.230521
71.870 7.311781
71.875 7.888421
71.880 7.640444
71.885 7.502126
71.890 7.777817
71.895 7.865941
71.900 7.973707
71.905 7.780398
71.910 7.994189
71.915 8.264233
71.920 8.116138
71.925 7.966224
71.930 8.211607
71.935 8.300666
71.940 8.403668
71.945 8.137455
71.950 8.067777
71.955 8.024385
71.960 8.040191
71.965 7.938323
71.970 8.013564
71.975 7.71799
71.980 7.833149
71.985 7.875863
71.990 7.809731
71.995 7.956792
72.000 8.262928
72.005 8.262122
72.010 7.866751
72.015 7.727177
72.020 7.790196
72.025 8.009996
72.030 7.505602
72.035 6.863291
72.040 6.627019
72.045 6.748186
72.050 6.693995
72.055 6.734254
72.060 6.467432
72.065 6.760446
72.070 7.260744
72.075 7.25259
72.080 7.432859
72.085 7.833272
72.090 7.727961
72.095 7.942154
72.100 8.131936
72.105 8.090616
72.110 8.087032
72.115 7.692977
72.120 7.237917
72.125 7.560677
72.130 7.623052
72.135 7.28453
72.140 7.194352
72.145 7.396017
72.150 7.465285
72.155 7.747481
72.160 7.209658
72.165 7.022737
72.170 7.442439
72.175 7.229361
72.180 7.115901
72.185 7.164004
72.190 7.251494
72.195 7.761222
72.200 7.607126
72.205 7.385229
72.210 7.582625
72.215 7.630056
72.220 7.46854
72.225 6.876127
72.230 6.611467
72.235 6.77476
72.240 6.976674
72.245 6.873554
72.250 6.887722
72.255 7.228643
72.260 7.59921
72.265 7.591782
72.270 7.549717
72.275 7.811079
72.280 7.938467
72.285 7.287464
72.290 7.189775
72.295 7.214541
72.300 6.961124
72.305 7.067991
72.310 6.611926
72.315 6.761495
72.320 7.169333
72.325 7.126482
72.330 7.405107
72.335 7.813975
72.340 7.726589
72.345 8.054764
72.350 8.213119
72.355 8.192036
72.360 7.829132
72.365 7.547957
72.370 7.699115
72.375 7.609324
72.380 7.180922
72.385 7.44004
72.390 7.354809
72.395 7.59789
72.400 7.767748
72.405 7.453222
72.410 7.758718
72.415 7.824924
72.420 7.856853
72.425 7.921007
72.430 7.643981
72.435 7.477719
72.440 7.170413
72.445 7.199183
72.450 7.282557
72.455 7.288736
72.460 7.486914
72.465 7.648955
72.470 7.826066
72.475 7.775203
72.480 7.744218
72.485 7.554365
72.490 7.29876
72.495 7.14953
72.500 7.009784
72.505 6.939216
72.510 6.825521
72.515 7.099124
72.520 7.206341
72.525 7.273006
72.530 7.365407
72.535 7.753204
72.540 7.682391
72.545 7.878316
72.550 7.684729
72.555 7.467265
72.560 7.092643
72.565 6.503222
72.570 6.187642
72.575 6.350594
72.580 6.146664
72.585 6.015531
72.590 6.424205
72.595 6.925461
72.600 7.327199
72.605 7.255049
72.610 7.439965
72.615 7.349067
72.620 7.381304
72.625 7.479194
72.630 7.174726
72.635 7.172439
72.640 7.351656
72.645 7.237823
72.650 7.301427
72.655 6.985131
72.660 6.674517
72.665 7.035546
72.670 7.315325
72.675 7.639346
72.680 7.64899
72.685 7.918755
72.690 8.361959
72.695 8.285849
72.700 8.091588
72.705 7.803437
72.710 7.277766
72.715 6.892354
72.720 6.69353
72.725 6.687086
72.730 6.484664
72.735 6.404425
72.740 6.848309
72.745 7.286148
72.750 7.528144
72.755 7.218455
72.760 7.224299
72.765 7.259288
72.770 6.983524
72.775 6.497361
72.780 6.614614
72.785 6.747051
72.790 6.836763
72.795 6.932544
72.800 7.045113
72.805 7.276167
72.810 7.076474
72.815 6.648395
72.820 6.848656
72.825 7.502344
72.830 7.695232
72.835 7.616991
72.840 7.77869
72.845 8.286399
72.850 8.259042
72.855 8.244922
72.860 8.012281
72.865 7.578599
72.870 7.607274
72.875 7.226973
72.880 6.833263
72.885 6.613299
72.890 6.245507
72.895 6.411615
72.900 7.042105
72.905 7.176383
72.910 7.442187
72.915 7.582343
72.920 7.485323
72.925 7.521751
72.930 7.802979
72.935 7.46723
72.940 7.892431
72.945 7.912377
72.950 8.088535
72.955 8.172395
72.960 8.023123
72.965 7.75664
72.970 8.076468
72.975 8.00474
72.980 7.888412
72.985 7.880134
72.990 8.239489
72.995 8.138402
73.000 7.690842
