!@!!GADDS PLOTSO FILE: Chi integration type
!@!!Title/SampleName: map-17
!@!!Comment: ?
!@!!User: Bruker Instrument Administrator
!@!!Site: University of Illinois Chicago
!@!!Frame: map-17_01_000.gfrm
!@!!Wavelengths    1.54184   1.54056   1.54439
!@!!Frame angles: 2Theta: 63.000 Omega: 50.000 Phi: 0.000 Chi: 90.000
!@!!Integration range: 2Theta: 53.000 to 73.000  Gamma: -105.000 to -75.000
!@!!Integration method: bin normalized
!@!N
!@!SS
!@!M
!@!L 0.0 0.0 0.0 0.0
!@!XDegrees
!@!YCounts
53.000 7.487175
53.005 7.527291
53.010 7.237176
53.015 6.741973
53.020 6.877355
53.025 7.001308
53.030 6.667275
53.035 6.346921
53.040 6.412567
53.045 6.775809
53.050 6.9344
53.055 7.127984
53.060 7.231933
53.065 7.382166
53.070 7.583315
53.075 7.669958
53.080 7.965955
53.085 8.29222
53.090 8.186289
53.095 8.063859
53.100 7.849054
53.105 8.023913
53.110 7.892012
53.115 7.500532
53.120 7.140014
53.125 6.934515
53.130 6.608467
53.135 6.454437
53.140 6.160716
53.145 5.952207
53.150 5.87008
53.155 6.308276
53.160 6.939383
53.165 7.228472
53.170 7.343468
53.175 7.53547
53.180 7.519557
53.185 7.358084
53.190 7.094271
53.195 6.805884
53.200 6.84313
53.205 6.818679
53.210 6.463108
53.215 6.46319
53.220 6.046634
53.225 6.02468
53.230 6.086597
53.235 6.243271
53.240 6.410647
53.245 6.727904
53.250 6.940479
53.255 7.134421
53.260 7.080406
53.265 7.188765
53.270 7.256057
53.275 7.329009
53.280 7.499487
53.285 8.086766
53.290 7.891533
53.295 7.544438
53.300 7.250541
53.305 7.283464
53.310 7.452353
53.315 7.139958
53.320 6.739149
53.325 7.593809
53.330 7.995955
53.335 8.005158
53.340 7.627225
53.345 7.437081
53.350 7.382905
53.355 7.305214
53.360 6.665316
53.365 6.612257
53.370 6.667705
53.375 6.881595
53.380 6.85624
53.385 7.209068
53.390 7.299546
53.395 7.357038
53.400 7.166346
53.405 7.214036
53.410 7.373654
53.415 7.303625
53.420 7.180147
53.425 7.213063
53.430 7.562072
53.435 7.481876
53.440 7.288787
53.445 6.967829
53.450 7.473527
53.455 7.532773
53.460 7.41515
53.465 7.81503
53.470 8.269514
53.475 8.398352
53.480 8.133953
53.485 7.94989
53.490 7.910994
53.495 7.276851
53.500 6.836022
53.505 6.460813
53.510 6.306115
53.515 6.415162
53.520 6.095984
53.525 6.496345
53.530 7.060443
53.535 6.636291
53.540 6.793843
53.545 6.808105
53.550 7.003703
53.555 7.394841
53.560 7.400328
53.565 7.467162
53.570 8.10913
53.575 8.351357
53.580 8.285608
53.585 8.311775
53.590 8.153565
53.595 7.873915
53.600 7.768411
53.605 7.572242
53.610 7.658448
53.615 7.665976
53.620 7.362016
53.625 7.550699
53.630 7.827145
53.635 7.577838
53.640 7.616128
53.645 7.554288
53.650 7.708193
53.655 7.360924
53.660 7.227631
53.665 7.03575
53.670 7.390155
53.675 7.444746
53.680 7.964783
53.685 8.455023
53.690 8.87901
53.695 8.562093
53.700 8.476727
53.705 8.23071
53.710 8.199992
53.715 7.993545
53.720 8.062978
53.725 8.656199
53.730 9.088236
53.735 9.303477
53.740 9.372708
53.745 9.131959
53.750 9.187904
53.755 9.264791
53.760 8.67801
53.765 8.754191
53.770 9.036939
53.775 9.24999
53.780 9.283741
53.785 8.798737
53.790 8.398047
53.795 8.701376
53.800 8.406918
53.805 8.001065
53.810 7.611097
53.815 7.603273
53.820 7.638099
53.825 7.603412
53.830 7.527267
53.835 7.248861
53.840 7.729426
53.845 7.915119
53.850 7.938894
53.855 8.278702
53.860 8.255896
53.865 7.822932
53.870 7.786745
53.875 7.760449
53.880 7.615323
53.885 7.352481
53.890 6.968753
53.895 7.25155
53.900 7.539924
53.905 7.133226
53.910 6.883334
53.915 7.19299
53.920 7.56712
53.925 7.483254
53.930 7.131353
53.935 7.427436
53.940 7.494293
53.945 7.290622
53.950 7.102026
53.955 6.714968
53.960 6.513622
53.965 6.484144
53.970 6.592983
53.975 7.103302
53.980 7.07056
53.985 7.425826
53.990 8.239796
53.995 8.670355
54.000 8.807956
54.005 8.517727
54.010 8.55803
54.015 9.045245
54.020 8.788102
54.025 8.710808
54.030 8.893041
54.035 8.741462
54.040 8.295156
54.045 7.918711
54.050 7.329362
54.055 6.911746
54.060 6.545672
54.065 6.309223
54.070 6.925809
54.075 7.819983
54.080 8.163195
54.085 8.532034
54.090 8.880183
54.095 8.84686
54.100 8.773115
54.105 8.522985
54.110 7.897738
54.115 7.819967
54.120 7.721929
54.125 7.723738
54.130 7.596524
54.135 7.569983
54.140 7.347493
54.145 7.565638
54.150 7.86681
54.155 8.012586
54.160 8.071026
54.165 7.974972
54.170 8.162209
54.175 8.563275
54.180 8.474469
54.185 8.518025
54.190 8.659414
54.195 8.853676
54.200 9.241489
54.205 9.262298
54.210 9.340487
54.215 9.026844
54.220 8.611444
54.225 8.307737
54.230 7.832462
54.235 7.212045
54.240 7.143833
54.245 7.413048
54.250 7.767264
54.255 8.061484
54.260 8.277021
54.265 8.591812
54.270 9.178694
54.275 9.012591
54.280 8.879231
54.285 8.628094
54.290 8.570951
54.295 8.513394
54.300 8.740096
54.305 8.867014
54.310 8.672935
54.315 8.382875
54.320 8.31679
54.325 8.305321
54.330 8.375586
54.335 8.223345
54.340 7.942807
54.345 8.252586
54.350 8.635781
54.355 8.797149
54.360 9.063842
54.365 8.849616
54.370 8.865856
54.375 9.081057
54.380 8.907844
54.385 8.622459
54.390 8.225312
54.395 8.055028
54.400 8.254814
54.405 8.293394
54.410 8.417101
54.415 8.709237
54.420 8.975844
54.425 9.160526
54.430 9.486293
54.435 9.527032
54.440 9.405729
54.445 8.976777
54.450 8.648759
54.455 8.762861
54.460 8.634779
54.465 8.389936
54.470 8.772414
54.475 9.13622
54.480 9.108027
54.485 9.223601
54.490 9.195598
54.495 8.99688
54.500 8.532152
54.505 8.190268
54.510 7.981023
54.515 8.416824
54.520 8.074088
54.525 7.783779
54.530 7.849231
54.535 7.878292
54.540 7.699396
54.545 7.845318
54.550 7.916666
54.555 8.672016
54.560 9.034278
54.565 9.361039
54.570 9.535051
54.575 9.597497
54.580 9.388092
54.585 9.369108
54.590 8.932889
54.595 8.96509
54.600 8.886571
54.605 8.77638
54.610 8.631569
54.615 8.362773
54.620 8.461602
54.625 8.503059
54.630 8.237591
54.635 8.023834
54.640 8.02317
54.645 8.334721
54.650 8.302719
54.655 8.256503
54.660 8.596195
54.665 8.918697
54.670 8.977879
54.675 8.829846
54.680 9.252135
54.685 9.177043
54.690 8.765922
54.695 8.669542
54.700 8.437941
54.705 8.670679
54.710 8.337244
54.715 7.743636
54.720 7.568201
54.725 7.704391
54.730 7.678696
54.735 7.812671
54.740 7.734571
54.745 8.075065
54.750 8.512584
54.755 8.785769
54.760 8.48676
54.765 8.415571
54.770 8.750311
54.775 8.596718
54.780 8.272125
54.785 8.247991
54.790 8.679894
54.795 9.309579
54.800 9.214007
54.805 8.757206
54.810 9.164855
54.815 9.437553
54.820 9.424789
54.825 9.454453
54.830 8.789293
54.835 9.099645
54.840 9.213142
54.845 8.742011
54.850 8.861017
54.855 8.639108
54.860 8.211393
54.865 8.321606
54.870 8.212995
54.875 8.529882
54.880 8.749731
54.885 8.955684
54.890 9.225903
54.895 9.44747
54.900 9.549132
54.905 9.444699
54.910 9.367977
54.915 9.146253
54.920 8.663292
54.925 8.423053
54.930 8.60541
54.935 8.461615
54.940 8.515303
54.945 8.668639
54.950 9.082993
54.955 9.868928
54.960 10.318563
54.965 10.098113
54.970 10.454524
54.975 10.571699
54.980 10.679969
54.985 10.708918
54.990 10.444518
54.995 10.37851
55.000 10.392882
55.005 10.166481
55.010 10.020338
55.015 9.856198
55.020 9.632787
55.025 9.410413
55.030 9.334778
55.035 9.604261
55.040 9.687167
55.045 9.587501
55.050 9.286739
55.055 9.228406
55.060 9.207647
55.065 8.90315
55.070 8.515657
55.075 8.237903
55.080 8.635851
55.085 9.00358
55.090 8.901812
55.095 9.286998
55.100 9.854654
55.105 9.980077
55.110 9.99507
55.115 9.342308
55.120 9.205938
55.125 8.860633
55.130 8.335432
55.135 8.039086
55.140 7.865571
55.145 7.884827
55.150 7.903906
55.155 7.854786
55.160 8.213201
55.165 7.826527
55.170 7.8199
55.175 8.077739
55.180 8.246361
55.185 8.665249
55.190 8.77826
55.195 9.058022
55.200 9.589361
55.205 9.836111
55.210 9.86101
55.215 10.262487
55.220 10.106134
55.225 9.984785
55.230 10.040978
55.235 10.190978
55.240 10.257112
55.245 10.273669
55.250 10.137807
55.255 10.4286
55.260 10.354518
55.265 10.010491
55.270 9.744388
55.275 9.60774
55.280 9.561395
55.285 9.415191
55.290 9.304624
55.295 9.508109
55.300 9.936674
55.305 9.810915
55.310 9.704336
55.315 9.48994
55.320 9.47344
55.325 9.633455
55.330 9.599708
55.335 9.503772
55.340 9.952678
55.345 10.322392
55.350 10.753428
55.355 11.212524
55.360 11.349082
55.365 11.267799
55.370 11.385673
55.375 10.987354
55.380 10.351475
55.385 10.202419
55.390 10.123507
55.395 10.159114
55.400 10.324664
55.405 10.06391
55.410 10.27579
55.415 10.60046
55.420 10.445246
55.425 10.369217
55.430 10.230849
55.435 10.218947
55.440 10.279943
55.445 10.696989
55.450 10.767338
55.455 11.008265
55.460 10.901834
55.465 10.68265
55.470 10.604181
55.475 10.932409
55.480 10.575381
55.485 10.260102
55.490 10.161563
55.495 10.59346
55.500 10.570445
55.505 10.962167
55.510 10.630969
55.515 10.480922
55.520 10.475797
55.525 9.994175
55.530 9.181679
55.535 9.399928
55.540 8.886112
55.545 8.848607
55.550 9.266808
55.555 8.875441
55.560 8.908603
55.565 9.781715
55.570 9.729078
55.575 9.912811
55.580 9.854624
55.585 9.676598
55.590 10.113264
55.595 10.2107
55.600 9.815964
55.605 9.669345
55.610 9.771805
55.615 10.188922
55.620 10.266582
55.625 10.359224
55.630 10.384118
55.635 9.931725
55.640 9.868593
55.645 9.720568
55.650 9.658634
55.655 9.722058
55.660 9.803014
55.665 10.189751
55.670 10.556365
55.675 10.504388
55.680 10.164224
55.685 10.104579
55.690 10.228578
55.695 9.966135
55.700 9.543842
55.705 9.471588
55.710 9.731837
55.715 9.809868
55.720 9.616391
55.725 9.532278
55.730 9.708113
55.735 9.659245
55.740 9.95764
55.745 10.127912
55.750 10.16069
55.755 10.14071
55.760 10.346315
55.765 10.178952
55.770 10.254046
55.775 9.975119
55.780 9.999212
55.785 10.317785
55.790 10.07982
55.795 9.740817
55.800 9.976148
55.805 10.301331
55.810 10.648289
55.815 10.214037
55.820 10.135368
55.825 10.216076
55.830 10.245384
55.835 10.020849
55.840 9.678612
55.845 9.200378
55.850 9.344419
55.855 9.508353
55.860 9.50995
55.865 9.47237
55.870 9.042393
55.875 9.26234
55.880 9.599522
55.885 9.716553
55.890 9.450253
55.895 9.831389
55.900 10.084403
55.905 10.194892
55.910 10.082448
55.915 10.00643
55.920 10.018101
55.925 10.353903
55.930 10.204245
55.935 10.36554
55.940 10.655148
55.945 11.055793
55.950 10.788437
55.955 10.610171
55.960 9.972
55.965 9.787621
55.970 9.822262
55.975 9.669636
55.980 9.515258
55.985 9.758216
55.990 9.8908
55.995 10.69534
56.000 10.832358
56.005 10.60504
56.010 10.295583
56.015 10.1932
56.020 9.943621
56.025 10.062143
56.030 9.718237
56.035 9.629296
56.040 9.53859
56.045 9.421271
56.050 8.969168
56.055 9.280993
56.060 8.904555
56.065 8.843801
56.070 9.117072
56.075 9.75562
56.080 10.211434
56.085 10.45228
56.090 10.43099
56.095 10.497526
56.100 10.310254
56.105 10.428028
56.110 10.467628
56.115 11.314771
56.120 11.527549
56.125 11.499629
56.130 11.977502
56.135 12.033748
56.140 12.126375
56.145 12.037535
56.150 11.608425
56.155 11.909719
56.160 11.907166
56.165 11.761989
56.170 12.196196
56.175 12.268148
56.180 12.047088
56.185 11.652016
56.190 12.002569
56.195 12.274085
56.200 12.524018
56.205 12.615011
56.210 12.296923
56.215 12.056034
56.220 12.379047
56.225 11.96767
56.230 12.165021
56.235 11.982961
56.240 11.565426
56.245 11.607583
56.250 11.465381
56.255 11.19764
56.260 11.187396
56.265 10.769183
56.270 10.17679
56.275 9.963156
56.280 9.932032
56.285 10.258247
56.290 10.344241
56.295 10.589828
56.300 10.864679
56.305 11.279346
56.310 11.645588
56.315 11.768658
56.320 11.889721
56.325 11.251441
56.330 10.821173
56.335 10.844122
56.340 10.776629
56.345 10.452085
56.350 10.354131
56.355 10.286659
56.360 10.473435
56.365 10.3012
56.370 10.124345
56.375 10.007488
56.380 9.977608
56.385 9.675257
56.390 9.966997
56.395 10.075443
56.400 9.944745
56.405 9.938418
56.410 10.21855
56.415 10.756108
56.420 11.314322
56.425 11.290164
56.430 11.247684
56.435 11.543241
56.440 11.645571
56.445 11.485212
56.450 11.287218
56.455 11.189651
56.460 11.639235
56.465 11.537169
56.470 11.455528
56.475 11.839981
56.480 11.906821
56.485 11.698278
56.490 11.837182
56.495 11.913364
56.500 12.303913
56.505 12.560322
56.510 12.362764
56.515 12.690122
56.520 12.95989
56.525 12.552376
56.530 12.250059
56.535 12.114695
56.540 12.101262
56.545 12.017569
56.550 11.683929
56.555 11.41338
56.560 11.154958
56.565 10.74497
56.570 10.179163
56.575 9.715041
56.580 9.630836
56.585 9.604091
56.590 9.851256
56.595 10.235172
56.600 10.543637
56.605 11.007777
56.610 11.129538
56.615 10.893954
56.620 10.546617
56.625 10.3776
56.630 10.55819
56.635 10.668498
56.640 10.474208
56.645 10.46686
56.650 10.950994
56.655 11.074425
56.660 10.857303
56.665 10.713508
56.670 10.732728
56.675 11.214375
56.680 11.465796
56.685 11.434219
56.690 11.903164
56.695 12.042971
56.700 11.732707
56.705 11.622766
56.710 11.280215
56.715 11.528351
56.720 11.50863
56.725 11.222291
56.730 11.515781
56.735 11.786197
56.740 11.876051
56.745 12.025416
56.750 11.508523
56.755 11.251849
56.760 11.349507
56.765 11.69702
56.770 12.253743
56.775 12.541482
56.780 12.392314
56.785 12.507122
56.790 12.436262
56.795 12.303942
56.800 11.95996
56.805 11.131352
56.810 10.92879
56.815 11.065284
56.820 11.154427
56.825 11.308807
56.830 10.84626
56.835 10.545812
56.840 10.751729
56.845 10.561205
56.850 10.120621
56.855 9.780516
56.860 9.731266
56.865 9.911865
56.870 10.272158
56.875 10.140582
56.880 10.098994
56.885 10.262101
56.890 10.532633
56.895 10.923289
56.900 11.357569
56.905 11.370431
56.910 11.454459
56.915 11.468931
56.920 11.82271
56.925 12.148445
56.930 11.948907
56.935 12.186022
56.940 12.387588
56.945 12.6897
56.950 12.833622
56.955 12.73809
56.960 12.358533
56.965 12.309919
56.970 11.835629
56.975 11.8261
56.980 11.629352
56.985 11.48978
56.990 11.464383
56.995 11.411762
57.000 11.526907
57.005 11.741636
57.010 11.447757
57.015 11.382825
57.020 11.418421
57.025 11.664557
57.030 11.920698
57.035 11.664729
57.040 11.422105
57.045 11.586493
57.050 11.899716
57.055 12.133734
57.060 12.210529
57.065 12.495955
57.070 12.518546
57.075 12.346571
57.080 12.087783
57.085 12.355466
57.090 12.084703
57.095 11.608891
57.100 10.901826
57.105 10.998476
57.110 11.583112
57.115 11.975469
57.120 11.885355
57.125 12.142302
57.130 12.6331
57.135 12.726997
57.140 12.825079
57.145 12.249265
57.150 11.89233
57.155 12.339619
57.160 12.142757
57.165 12.023602
57.170 12.207397
57.175 12.476413
57.180 12.911991
57.185 13.179537
57.190 12.98193
57.195 13.312101
57.200 13.288832
57.205 12.905718
57.210 12.116261
57.215 11.566312
57.220 11.391283
57.225 11.198546
57.230 10.997484
57.235 10.864167
57.240 11.14631
57.245 11.882951
57.250 11.61521
57.255 11.194382
57.260 11.02351
57.265 11.17361
57.270 11.43664
57.275 11.369244
57.280 11.102304
57.285 11.585438
57.290 11.695942
57.295 11.736583
57.300 11.654482
57.305 11.7198
57.310 11.898395
57.315 11.881742
57.320 12.189184
57.325 12.268025
57.330 12.517122
57.335 12.629588
57.340 12.708246
57.345 12.608379
57.350 12.565418
57.355 12.628911
57.360 12.530275
57.365 12.399164
57.370 12.187813
57.375 12.091979
57.380 12.392221
57.385 13.257483
57.390 13.360098
57.395 13.522944
57.400 13.395512
57.405 13.415566
57.410 13.122999
57.415 12.577208
57.420 11.63525
57.425 11.397898
57.430 11.44992
57.435 11.847554
57.440 11.906248
57.445 12.049375
57.450 11.969195
57.455 11.696698
57.460 11.507566
57.465 11.935793
57.470 11.515175
57.475 11.145586
57.480 11.086998
57.485 11.307785
57.490 11.681636
57.495 11.409863
57.500 10.70998
57.505 10.93444
57.510 10.800156
57.515 10.659774
57.520 10.346491
57.525 10.325177
57.530 10.741544
57.535 10.81009
57.540 10.883906
57.545 11.654206
57.550 11.821755
57.555 12.567237
57.560 12.959702
57.565 12.935426
57.570 12.920003
57.575 12.602474
57.580 12.22086
57.585 12.012863
57.590 11.636072
57.595 11.323471
57.600 11.539124
57.605 11.760092
57.610 12.021317
57.615 12.163735
57.620 12.525386
57.625 12.645427
57.630 12.967022
57.635 12.868946
57.640 13.132211
57.645 13.284162
57.650 13.298995
57.655 13.348171
57.660 13.412601
57.665 13.521202
57.670 13.60325
57.675 13.351758
57.680 12.91457
57.685 12.424767
57.690 12.356717
57.695 12.465333
57.700 12.243581
57.705 11.800893
57.710 11.805058
57.715 11.900213
57.720 12.104369
57.725 11.909325
57.730 11.894774
57.735 11.804478
57.740 12.230866
57.745 12.480589
57.750 12.613627
57.755 12.407347
57.760 12.317807
57.765 12.34129
57.770 11.941343
57.775 11.77569
57.780 11.231616
57.785 11.165963
57.790 11.159424
57.795 11.077924
57.800 10.880758
57.805 11.373625
57.810 11.760547
57.815 12.474192
57.820 12.718142
57.825 13.071299
57.830 12.996597
57.835 13.042136
57.840 12.782326
57.845 12.517324
57.850 11.923393
57.855 11.987734
57.860 11.78107
57.865 11.993652
57.870 12.00057
57.875 12.188013
57.880 12.283042
57.885 12.326784
57.890 12.223415
57.895 12.064617
57.900 12.293252
57.905 12.677795
57.910 12.603654
57.915 12.811835
57.920 13.156521
57.925 13.198478
57.930 13.676055
57.935 13.198228
57.940 12.957235
57.945 12.980898
57.950 12.837647
57.955 12.931015
57.960 13.266632
57.965 13.095504
57.970 13.426128
57.975 13.275842
57.980 13.397355
57.985 13.589334
57.990 13.143061
57.995 13.042932
58.000 13.264671
58.005 13.563928
58.010 14.233339
58.015 14.274329
58.020 13.710214
58.025 13.702026
58.030 13.975183
58.035 13.937214
58.040 13.761026
58.045 13.48284
58.050 13.734282
58.055 14.347473
58.060 14.319316
58.065 13.917851
58.070 14.036371
58.075 13.677866
58.080 13.17683
58.085 13.187302
58.090 12.780933
58.095 12.753828
58.100 12.972613
58.105 12.636543
58.110 13.155048
58.115 13.107638
58.120 12.852319
58.125 13.083771
58.130 13.773948
58.135 14.054355
58.140 13.691899
58.145 13.224643
58.150 13.185295
58.155 13.503939
58.160 13.087018
58.165 12.211052
58.170 11.865883
58.175 11.933758
58.180 12.00394
58.185 12.432087
58.190 12.356847
58.195 12.362968
58.200 13.012573
58.205 13.200342
58.210 13.492489
58.215 13.752511
58.220 13.297621
58.225 13.490145
58.230 13.543923
58.235 12.440838
58.240 12.593182
58.245 12.573422
58.250 12.543181
58.255 13.062189
58.260 12.997309
58.265 13.529826
58.270 14.238502
58.275 14.333702
58.280 14.694583
58.285 14.647303
58.290 14.578444
58.295 14.530184
58.300 14.244429
58.305 14.188267
58.310 13.995079
58.315 13.952599
58.320 14.090482
58.325 14.207156
58.330 14.137586
58.335 14.098473
58.340 14.113846
58.345 14.596434
58.350 14.804846
58.355 15.061846
58.360 14.845985
58.365 15.078098
58.370 15.182886
58.375 14.826256
58.380 13.900928
58.385 13.373817
58.390 13.097036
58.395 13.272523
58.400 12.945429
58.405 12.848922
58.410 13.196606
58.415 13.325663
58.420 13.100781
58.425 12.69535
58.430 12.515605
58.435 12.672489
58.440 12.569442
58.445 12.558387
58.450 12.993445
58.455 13.90183
58.460 14.466027
58.465 14.845007
58.470 14.87812
58.475 14.927308
58.480 14.97997
58.485 14.844109
58.490 14.521637
58.495 15.34398
58.500 15.997983
58.505 15.8772
58.510 15.724388
58.515 15.69488
58.520 15.618535
58.525 15.962961
58.530 15.263075
58.535 14.575258
58.540 14.61874
58.545 14.908657
58.550 15.524917
58.555 15.964088
58.560 15.32649
58.565 14.902591
58.570 15.243167
58.575 15.74344
58.580 15.921344
58.585 15.589903
58.590 15.655142
58.595 16.100727
58.600 16.305342
58.605 16.359501
58.610 16.713734
58.615 16.765326
58.620 16.657219
58.625 16.592665
58.630 16.468061
58.635 16.721174
58.640 16.906067
58.645 16.236757
58.650 15.971066
58.655 15.682278
58.660 15.602965
58.665 15.515779
58.670 15.187963
58.675 14.835907
58.680 14.814931
58.685 14.912598
58.690 15.226762
58.695 16.004728
58.700 15.625828
58.705 15.318809
58.710 15.685701
58.715 16.202679
58.720 16.56041
58.725 16.626593
58.730 16.085579
58.735 16.66337
58.740 17.240452
58.745 17.155085
58.750 16.818411
58.755 16.809525
58.760 16.521696
58.765 16.236223
58.770 16.260889
58.775 16.564098
58.780 16.281467
58.785 16.516241
58.790 16.433332
58.795 16.58378
58.800 16.904541
58.805 16.535124
58.810 15.996153
58.815 16.324932
58.820 15.988529
58.825 16.181246
58.830 16.083204
58.835 15.841527
58.840 15.854736
58.845 16.002213
58.850 15.80921
58.855 16.139803
58.860 16.303965
58.865 16.507647
58.870 17.10718
58.875 17.445824
58.880 17.572407
58.885 17.50523
58.890 17.525877
58.895 17.527805
58.900 16.951038
58.905 16.85005
58.910 17.076813
58.915 16.947702
58.920 17.101385
58.925 16.820148
58.930 16.591038
58.935 16.761641
58.940 16.742531
58.945 16.761183
58.950 17.072124
58.955 16.676624
58.960 16.847178
58.965 17.762783
58.970 17.948587
58.975 17.729782
58.980 17.659729
58.985 17.203861
58.990 17.32546
58.995 17.874195
59.000 17.909243
59.005 17.676918
59.010 17.929411
59.015 18.315842
59.020 19.054358
59.025 19.316408
59.030 18.780285
59.035 18.592079
59.040 19.164755
59.045 19.222399
59.050 18.682365
59.055 18.443148
59.060 18.151926
59.065 17.847761
59.070 17.866032
59.075 18.035913
59.080 18.068762
59.085 18.69202
59.090 18.608641
59.095 18.851423
59.100 19.041906
59.105 18.719839
59.110 18.41783
59.115 18.422979
59.120 18.09601
59.125 17.899204
59.130 17.479799
59.135 17.32704
59.140 17.561995
59.145 16.924349
59.150 16.839817
59.155 17.205004
59.160 18.043932
59.165 18.167995
59.170 18.104919
59.175 17.743839
59.180 18.178755
59.185 17.789743
59.190 16.894737
59.195 15.82779
59.200 15.871601
59.205 15.933001
59.210 16.254631
59.215 16.035229
59.220 16.46106
59.225 16.656057
59.230 16.768305
59.235 16.51618
59.240 16.517004
59.245 16.329178
59.250 16.173658
59.255 15.892936
59.260 16.418941
59.265 16.667053
59.270 16.922615
59.275 16.252497
59.280 16.02005
59.285 16.031857
59.290 15.988349
59.295 16.030745
59.300 16.496244
59.305 16.550562
59.310 16.853703
59.315 16.605602
59.320 16.141359
59.325 15.865069
59.330 15.561318
59.335 15.281509
59.340 15.742351
59.345 15.961536
59.350 16.207924
59.355 16.55584
59.360 16.672415
59.365 16.640875
59.370 16.650162
59.375 16.71781
59.380 17.267719
59.385 17.949104
59.390 18.958351
59.395 19.715925
59.400 20.074694
59.405 20.131828
59.410 19.659628
59.415 19.369398
59.420 19.178097
59.425 18.506931
59.430 17.712719
59.435 17.693256
59.440 17.368002
59.445 17.295492
59.450 17.129011
59.455 17.365349
59.460 17.869984
59.465 17.912903
59.470 17.460295
59.475 17.497776
59.480 17.461599
59.485 17.491692
59.490 17.623131
59.495 17.614061
59.500 17.612862
59.505 18.034941
59.510 18.438213
59.515 18.381857
59.520 17.602905
59.525 16.436378
59.530 15.698922
59.535 15.695715
59.540 15.064857
59.545 14.98997
59.550 15.393316
59.555 16.359835
59.560 17.100433
59.565 17.590387
59.570 17.397884
59.575 17.25692
59.580 16.699375
59.585 16.509869
59.590 16.300701
59.595 16.283846
59.600 15.878876
59.605 15.885717
59.610 16.644766
59.615 17.780201
59.620 17.978231
59.625 18.272253
59.630 18.488586
59.635 18.815252
59.640 19.097479
59.645 18.447216
59.650 18.034483
59.655 17.392485
59.660 17.168377
59.665 17.639809
59.670 17.455603
59.675 17.682665
59.680 18.344574
59.685 18.325092
59.690 18.446665
59.695 18.42845
59.700 18.636124
59.705 18.976343
59.710 18.858694
59.715 18.310661
59.720 18.262508
59.725 18.205887
59.730 17.919821
59.735 17.277567
59.740 17.21031
59.745 17.23694
59.750 17.189756
59.755 17.295069
59.760 17.499928
59.765 17.530186
59.770 17.400097
59.775 17.98834
59.780 17.930792
59.785 18.249681
59.790 18.742496
59.795 19.143131
59.800 19.51149
59.805 20.180922
59.810 19.462593
59.815 19.656275
59.820 19.656666
59.825 19.093472
59.830 18.568779
59.835 17.821659
59.840 17.647821
59.845 18.121552
59.850 17.913935
59.855 18.129108
59.860 17.921875
59.865 18.027891
59.870 18.810102
59.875 18.992317
59.880 18.685266
59.885 18.351656
59.890 18.016121
59.895 18.194691
59.900 18.077797
59.905 17.765518
59.910 17.802584
59.915 17.995205
59.920 18.102709
59.925 18.263678
59.930 18.254171
59.935 18.645737
59.940 18.386038
59.945 18.111441
59.950 18.62295
59.955 19.179476
59.960 19.516491
59.965 20.218334
59.970 20.009487
59.975 19.923449
59.980 19.230379
59.985 18.692076
59.990 18.97117
59.995 19.263296
60.000 19.243671
60.005 19.749577
60.010 20.152344
60.015 20.568201
60.020 20.792065
60.025 20.309593
60.030 20.014854
60.035 19.929045
60.040 19.3745
60.045 19.43825
60.050 19.355734
60.055 18.884964
60.060 18.666033
60.065 18.174316
60.070 17.79982
60.075 17.963726
60.080 17.608311
60.085 17.773621
60.090 18.069523
60.095 17.863817
60.100 17.907179
60.105 18.056732
60.110 18.099577
60.115 18.371359
60.120 18.206652
60.125 18.028008
60.130 18.325033
60.135 18.735723
60.140 18.713961
60.145 18.504658
60.150 18.09412
60.155 17.773701
60.160 17.400644
60.165 17.590668
60.170 17.418039
60.175 17.563776
60.180 17.690784
60.185 18.25028
60.190 18.628017
60.195 19.109835
60.200 18.995399
60.205 19.065062
60.210 19.281906
60.215 19.284414
60.220 19.073917
60.225 19.000181
60.230 19.185123
60.235 19.134563
60.240 19.055876
60.245 18.578108
60.250 18.560316
60.255 17.853403
60.260 17.583845
60.265 17.346548
60.270 16.936094
60.275 16.952997
60.280 16.911753
60.285 16.948002
60.290 17.224382
60.295 16.905495
60.300 16.286102
60.305 15.880306
60.310 15.85026
60.315 16.131271
60.320 16.133099
60.325 16.312471
60.330 17.071119
60.335 18.008783
60.340 18.851698
60.345 19.118786
60.350 18.659939
60.355 18.397791
60.360 17.805738
60.365 16.984604
60.370 16.924316
60.375 16.768526
60.380 16.518692
60.385 17.025658
60.390 17.247669
60.395 18.689163
60.400 19.025398
60.405 18.559689
60.410 18.314741
60.415 18.27133
60.420 18.123682
60.425 18.105972
60.430 17.127804
60.435 17.159584
60.440 17.192459
60.445 16.903471
60.450 16.344582
60.455 16.33275
60.460 15.994101
60.465 15.612088
60.470 15.66811
60.475 15.94958
60.480 16.687777
60.485 17.34273
60.490 17.748022
60.495 18.009804
60.500 18.540445
60.505 18.505816
60.510 18.500696
60.515 18.042366
60.520 17.922054
60.525 17.418718
60.530 17.507313
60.535 17.570801
60.540 17.731415
60.545 17.372934
60.550 17.109833
60.555 17.112171
60.560 16.771074
60.565 16.72797
60.570 16.178707
60.575 15.710684
60.580 15.485085
60.585 15.208166
60.590 14.733466
60.595 14.819757
60.600 15.150997
60.605 15.27627
60.610 15.343972
60.615 16.033684
60.620 16.884428
60.625 17.626125
60.630 17.815012
60.635 17.55797
60.640 17.324501
60.645 17.705544
60.650 17.043453
60.655 16.911158
60.660 16.764807
60.665 17.005903
60.670 17.235725
60.675 17.077497
60.680 16.677307
60.685 16.786266
60.690 16.711325
60.695 16.151897
60.700 15.279239
60.705 14.892941
60.710 14.437913
60.715 14.269126
60.720 14.403739
60.725 14.241271
60.730 14.462263
60.735 15.051709
60.740 15.029123
60.745 15.823248
60.750 16.050735
60.755 16.239866
60.760 16.669708
60.765 16.754173
60.770 16.311701
60.775 16.924213
60.780 16.888857
60.785 16.827112
60.790 16.441296
60.795 15.960486
60.800 15.439712
60.805 15.370214
60.810 15.429031
60.815 15.479323
60.820 15.488504
60.825 15.495067
60.830 15.813625
60.835 16.559334
60.840 16.820887
60.845 16.91633
60.850 17.052095
60.855 17.114529
60.860 16.845074
60.865 16.480524
60.870 15.854814
60.875 15.553422
60.880 14.402034
60.885 13.734603
60.890 13.712861
60.895 13.981631
60.900 14.566789
60.905 15.222087
60.910 15.652942
60.915 16.278063
60.920 16.713774
60.925 16.876812
60.930 16.720356
60.935 15.877254
60.940 15.068096
60.945 14.986612
60.950 15.013202
60.955 14.983113
60.960 15.323426
60.965 16.004482
60.970 16.915709
60.975 17.293581
60.980 17.504896
60.985 17.986876
60.990 18.017769
60.995 17.485498
61.000 17.201805
61.005 16.945694
61.010 16.58198
61.015 15.901846
61.020 15.808149
61.025 15.439879
61.030 15.156374
61.035 14.837449
61.040 14.797729
61.045 15.194163
61.050 15.68906
61.055 15.300238
61.060 15.146903
61.065 15.29713
61.070 15.355656
61.075 15.256627
61.080 15.358974
61.085 14.858318
61.090 15.032734
61.095 15.268372
61.100 15.349801
61.105 15.342993
61.110 14.948462
61.115 14.778211
61.120 15.008935
61.125 14.941366
61.130 14.660239
61.135 14.21308
61.140 14.383254
61.145 14.858985
61.150 14.75018
61.155 14.361499
61.160 13.852922
61.165 14.038906
61.170 14.395211
61.175 14.232551
61.180 14.215325
61.185 14.374253
61.190 14.749523
61.195 15.932941
61.200 16.456898
61.205 17.078072
61.210 16.881983
61.215 16.696224
61.220 17.228422
61.225 17.707651
61.230 17.51446
61.235 17.283066
61.240 16.959791
61.245 17.283262
61.250 17.064251
61.255 16.298752
61.260 16.159838
61.265 16.473772
61.270 16.361246
61.275 15.762802
61.280 15.601481
61.285 15.874558
61.290 16.000904
61.295 15.644032
61.300 14.730582
61.305 14.414363
61.310 14.641948
61.315 14.540539
61.320 14.735021
61.325 15.146723
61.330 15.674067
61.335 15.936349
61.340 16.686501
61.345 16.821625
61.350 17.156097
61.355 17.056875
61.360 17.165627
61.365 17.243294
61.370 17.346836
61.375 17.274523
61.380 16.996407
61.385 16.838795
61.390 17.00914
61.395 16.266405
61.400 15.352941
61.405 15.30594
61.410 15.251894
61.415 15.339196
61.420 14.973532
61.425 14.870315
61.430 15.46232
61.435 15.479808
61.440 15.376521
61.445 15.203778
61.450 15.266583
61.455 15.334097
61.460 14.942462
61.465 14.470402
61.470 14.54465
61.475 14.792784
61.480 14.958262
61.485 15.690963
61.490 16.062378
61.495 16.267187
61.500 16.779165
61.505 17.392317
61.510 17.182528
61.515 16.896805
61.520 16.360533
61.525 16.669205
61.530 16.744175
61.535 16.507532
61.540 16.094563
61.545 16.333757
61.550 17.184341
61.555 17.072975
61.560 16.90049
61.565 17.017675
61.570 16.426922
61.575 16.855104
61.580 16.844038
61.585 16.492048
61.590 16.516571
61.595 16.271042
61.600 15.93222
61.605 16.155506
61.610 15.866502
61.615 15.394516
61.620 14.936093
61.625 14.554533
61.630 14.278802
61.635 14.315637
61.640 14.292916
61.645 13.975346
61.650 13.992626
61.655 14.180914
61.660 14.494472
61.665 14.858149
61.670 15.220589
61.675 15.079286
61.680 15.330395
61.685 15.495518
61.690 15.495605
61.695 16.050041
61.700 15.941711
61.705 15.928041
61.710 15.929661
61.715 16.046068
61.720 16.118633
61.725 15.961516
61.730 15.210968
61.735 14.959818
61.740 14.718068
61.745 15.12021
61.750 14.852201
61.755 15.054123
61.760 15.198739
61.765 15.503778
61.770 15.805603
61.775 15.952872
61.780 15.858195
61.785 15.918296
61.790 15.574401
61.795 15.507257
61.800 15.47452
61.805 15.760274
61.810 15.80739
61.815 15.533594
61.820 15.797665
61.825 15.834867
61.830 15.774432
61.835 15.959579
61.840 16.135862
61.845 16.205574
61.850 16.574188
61.855 17.24881
61.860 17.145708
61.865 17.42211
61.870 17.2586
61.875 17.034872
61.880 17.462955
61.885 17.300417
61.890 16.76404
61.895 16.842871
61.900 16.33238
61.905 16.291441
61.910 16.61842
61.915 16.450497
61.920 16.952105
61.925 17.250595
61.930 17.567007
61.935 17.835682
61.940 17.364782
61.945 16.927076
61.950 17.008753
61.955 16.202772
61.960 15.433155
61.965 14.885768
61.970 15.071607
61.975 15.175984
61.980 14.829893
61.985 14.297021
61.990 14.256137
61.995 14.253784
62.000 14.421492
62.005 14.290533
62.010 14.544907
62.015 14.793416
62.020 15.421961
62.025 15.908257
62.030 16.579226
62.035 17.3479
62.040 17.559629
62.045 17.323862
62.050 16.892382
62.055 16.297306
62.060 15.968287
62.065 15.469041
62.070 15.115118
62.075 15.292299
62.080 15.52089
62.085 15.616665
62.090 16.212416
62.095 16.328634
62.100 16.655552
62.105 16.157534
62.110 15.983459
62.115 15.987739
62.120 16.116037
62.125 15.543657
62.130 15.54221
62.135 15.636817
62.140 15.904769
62.145 15.803031
62.150 16.20709
62.155 16.425591
62.160 16.613214
62.165 16.861399
62.170 16.808146
62.175 17.362028
62.180 17.414265
62.185 17.297735
62.190 17.089897
62.195 17.070757
62.200 16.652037
62.205 16.167376
62.210 15.278071
62.215 15.002004
62.220 14.864074
62.225 14.684143
62.230 14.412168
62.235 14.234667
62.240 14.519527
62.245 15.321324
62.250 15.192682
62.255 15.172234
62.260 15.515614
62.265 15.928568
62.270 16.395233
62.275 16.47822
62.280 16.167671
62.285 16.345419
62.290 15.977537
62.295 15.806643
62.300 15.558718
62.305 15.058685
62.310 15.157032
62.315 14.549684
62.320 14.622506
62.325 14.951167
62.330 15.215331
62.335 15.417433
62.340 15.467631
62.345 14.977322
62.350 15.320887
62.355 14.953724
62.360 14.868164
62.365 15.079647
62.370 15.10867
62.375 15.675902
62.380 16.053431
62.385 16.045252
62.390 16.401936
62.395 16.355679
62.400 15.934435
62.405 15.814309
62.410 15.383098
62.415 15.173727
62.420 15.376411
62.425 15.654126
62.430 15.689733
62.435 15.971609
62.440 16.412693
62.445 16.798159
62.450 17.371351
62.455 17.48274
62.460 17.692623
62.465 17.711111
62.470 17.485214
62.475 17.38504
62.480 17.254333
62.485 17.006344
62.490 16.727652
62.495 16.227821
62.500 16.853333
62.505 17.296267
62.510 17.126202
62.515 16.537369
62.520 16.272964
62.525 16.626726
62.530 16.898136
62.535 16.380766
62.540 15.453589
62.545 15.47364
62.550 16.012716
62.555 16.141832
62.560 15.575116
62.565 15.217867
62.570 14.950753
62.575 15.611785
62.580 15.975273
62.585 15.141573
62.590 14.819464
62.595 14.754816
62.600 14.593249
62.605 14.503027
62.610 14.433972
62.615 14.929783
62.620 15.596405
62.625 15.640426
62.630 16.318754
62.635 17.241856
62.640 17.6136
62.645 17.31892
62.650 16.697184
62.655 16.365545
62.660 16.277565
62.665 15.747392
62.670 15.506392
62.675 15.4516
62.680 15.571917
62.685 15.636575
62.690 15.98803
62.695 16.928366
62.700 17.306717
62.705 17.18384
62.710 17.334723
62.715 16.962553
62.720 17.037785
62.725 16.848093
62.730 16.429483
62.735 16.155373
62.740 15.523833
62.745 15.501187
62.750 15.926514
62.755 15.807841
62.760 16.012243
62.765 16.121469
62.770 16.157869
62.775 16.858427
62.780 16.59536
62.785 16.40189
62.790 16.541061
62.795 16.783739
62.800 17.046413
62.805 17.782747
62.810 17.898954
62.815 18.55768
62.820 18.91753
62.825 19.188616
62.830 19.299152
62.835 19.184547
62.840 18.810471
62.845 18.946907
62.850 18.953882
62.855 18.621241
62.860 18.510448
62.865 18.065985
62.870 18.340994
62.875 17.819534
62.880 17.41844
62.885 17.249775
62.890 17.228741
62.895 16.701071
62.900 16.560671
62.905 15.736994
62.910 16.057974
62.915 16.186682
62.920 16.231373
62.925 16.619452
62.930 16.616905
62.935 16.559273
62.940 16.603573
62.945 16.537151
62.950 16.359716
62.955 15.954697
62.960 15.580794
62.965 16.053278
62.970 16.355762
62.975 16.463964
62.980 16.660366
62.985 16.809721
62.990 16.598524
62.995 16.448191
63.000 16.045038
63.005 16.000555
63.010 16.351282
63.015 16.238688
63.020 16.158508
63.025 16.611103
63.030 16.742086
63.035 17.330189
63.040 17.356403
63.045 17.47184
63.050 17.469217
63.055 17.378475
63.060 17.357605
63.065 17.115324
63.070 17.204805
63.075 17.726627
63.080 17.504112
63.085 17.601831
63.090 17.627417
63.095 17.509304
63.100 17.405857
63.105 17.154932
63.110 16.463398
63.115 15.881824
63.120 15.699061
63.125 15.590652
63.130 15.550269
63.135 15.863645
63.140 15.901408
63.145 15.903987
63.150 16.269697
63.155 16.654654
63.160 16.498838
63.165 16.830511
63.170 16.787256
63.175 16.894724
63.180 17.629295
63.185 17.382105
63.190 17.045631
63.195 17.555038
63.200 17.735077
63.205 17.832613
63.210 18.053448
63.215 17.434383
63.220 17.112898
63.225 17.696646
63.230 18.161572
63.235 18.042395
63.240 17.992838
63.245 17.342302
63.250 17.499561
63.255 17.738033
63.260 16.804819
63.265 15.875287
63.270 15.569274
63.275 15.10645
63.280 15.23439
63.285 15.464097
63.290 15.370625
63.295 15.607045
63.300 15.889033
63.305 15.949644
63.310 16.340815
63.315 16.315706
63.320 16.232058
63.325 16.276337
63.330 16.357231
63.335 16.137554
63.340 15.953993
63.345 15.806679
63.350 15.480535
63.355 14.998687
63.360 15.091647
63.365 14.805672
63.370 14.5241
63.375 14.327805
63.380 14.261338
63.385 14.793839
63.390 15.588577
63.395 15.650423
63.400 16.180338
63.405 16.397421
63.410 16.776651
63.415 17.009016
63.420 16.600704
63.425 16.631481
63.430 16.765856
63.435 16.752968
63.440 17.406712
63.445 17.527975
63.450 17.286659
63.455 17.189529
63.460 16.911543
63.465 16.594198
63.470 16.496609
63.475 16.408541
63.480 16.405392
63.485 17.135864
63.490 17.435337
63.495 17.358807
63.500 17.448612
63.505 17.536678
63.510 16.820444
63.515 16.667683
63.520 16.493114
63.525 17.238155
63.530 17.532209
63.535 17.507311
63.540 17.304037
63.545 17.985435
63.550 18.100985
63.555 18.270582
63.560 18.0599
63.565 18.070921
63.570 18.202806
63.575 18.956142
63.580 18.557648
63.585 18.101316
63.590 17.469545
63.595 17.081198
63.600 16.707006
63.605 16.214939
63.610 16.018206
63.615 16.425341
63.620 16.602751
63.625 16.40114
63.630 16.072468
63.635 16.153597
63.640 16.374794
63.645 15.888152
63.650 16.13872
63.655 16.109306
63.660 16.465782
63.665 16.853363
63.670 17.449476
63.675 17.524454
63.680 17.932526
63.685 17.525612
63.690 17.720318
63.695 17.741701
63.700 17.157709
63.705 16.846859
63.710 16.954102
63.715 16.655909
63.720 17.165115
63.725 16.71797
63.730 16.277916
63.735 16.712301
63.740 17.160828
63.745 17.11587
63.750 17.237701
63.755 16.803513
63.760 17.31127
63.765 17.717291
63.770 17.783669
63.775 16.974993
63.780 17.034851
63.785 16.658012
63.790 16.681028
63.795 16.904846
63.800 17.219387
63.805 17.381292
63.810 17.597219
63.815 17.478741
63.820 18.018011
63.825 17.638224
63.830 17.470762
63.835 17.450941
63.840 17.092791
63.845 17.257967
63.850 17.346325
63.855 17.044893
63.860 17.247818
63.865 16.866392
63.870 16.897589
63.875 17.343706
63.880 17.821939
63.885 18.318455
63.890 18.385822
63.895 18.522753
63.900 18.842283
63.905 18.668932
63.910 18.762625
63.915 18.606771
63.920 18.550196
63.925 18.662643
63.930 18.832676
63.935 18.634407
63.940 18.288239
63.945 17.913071
63.950 17.494598
63.955 17.402073
63.960 17.775997
63.965 17.465305
63.970 17.568544
63.975 17.678915
63.980 17.893526
63.985 17.591049
63.990 17.352919
63.995 17.321627
64.000 17.615837
64.005 17.772047
64.010 17.594479
64.015 17.722691
64.020 18.551838
64.025 18.723688
64.030 17.827101
64.035 18.179348
64.040 18.203135
64.045 18.637608
64.050 18.359331
64.055 18.218607
64.060 17.918316
64.065 18.487818
64.070 18.950897
64.075 19.217638
64.080 18.992302
64.085 19.019939
64.090 18.668688
64.095 18.879683
64.100 19.063364
64.105 18.753061
64.110 18.098877
64.115 18.602179
64.120 18.63694
64.125 18.918392
64.130 19.516357
64.135 19.18005
64.140 18.940071
64.145 19.866499
64.150 19.499418
64.155 19.501417
64.160 19.328703
64.165 19.029768
64.170 18.954473
64.175 18.628428
64.180 18.006056
64.185 18.101831
64.190 18.436152
64.195 18.016159
64.200 17.630697
64.205 17.781363
64.210 17.987127
64.215 18.198223
64.220 18.209339
64.225 18.225552
64.230 18.459677
64.235 18.651182
64.240 18.399939
64.245 17.981951
64.250 17.950348
64.255 18.108484
64.260 18.725983
64.265 19.135717
64.270 19.247395
64.275 19.447544
64.280 19.873783
64.285 20.109959
64.290 19.616722
64.295 19.073774
64.300 18.610138
64.305 18.656857
64.310 18.0839
64.315 17.592163
64.320 17.221767
64.325 17.197929
64.330 17.607521
64.335 18.452042
64.340 18.545679
64.345 19.468277
64.350 20.211128
64.355 20.649826
64.360 21.700752
64.365 21.930971
64.370 21.859425
64.375 21.894659
64.380 22.046864
64.385 21.840376
64.390 21.203434
64.395 20.645657
64.400 20.812099
64.405 20.633709
64.410 20.634312
64.415 20.503691
64.420 20.315325
64.425 20.986635
64.430 21.014303
64.435 20.904591
64.440 21.396049
64.445 22.048525
64.450 22.019804
64.455 22.384975
64.460 21.991611
64.465 21.908596
64.470 21.574419
64.475 21.163155
64.480 20.12291
64.485 20.491213
64.490 20.366644
64.495 20.939022
64.500 20.495052
64.505 20.345757
64.510 19.982752
64.515 20.583023
64.520 20.577374
64.525 20.564356
64.530 21.064808
64.535 21.217054
64.540 21.227638
64.545 21.613632
64.550 20.783907
64.555 20.350542
64.560 19.774738
64.565 19.045866
64.570 19.48509
64.575 19.283979
64.580 19.65152
64.585 20.241468
64.590 20.675957
64.595 21.613737
64.600 21.391998
64.605 21.133404
64.610 21.575809
64.615 21.233889
64.620 21.131327
64.625 20.887745
64.630 20.121475
64.635 20.582542
64.640 21.006897
64.645 20.887402
64.650 20.749708
64.655 20.493958
64.660 20.723639
64.665 21.100725
64.670 20.761463
64.675 20.080074
64.680 20.066212
64.685 20.504858
64.690 20.761892
64.695 20.527153
64.700 20.381704
64.705 20.235285
64.710 20.801147
64.715 20.964066
64.720 20.560863
64.725 20.420061
64.730 19.69261
64.735 19.601509
64.740 20.3636
64.745 20.331837
64.750 20.490993
64.755 20.267935
64.760 20.056324
64.765 20.699554
64.770 20.838646
64.775 19.800877
64.780 19.278269
64.785 18.998766
64.790 19.502592
64.795 20.164051
64.800 20.079771
64.805 20.122431
64.810 20.637184
64.815 20.753399
64.820 20.698103
64.825 20.937353
64.830 20.614841
64.835 20.7626
64.840 20.855091
64.845 21.145058
64.850 21.312193
64.855 21.352909
64.860 21.255066
64.865 21.373058
64.870 20.852091
64.875 20.668474
64.880 20.343639
64.885 20.549942
64.890 20.099876
64.895 19.602888
64.900 19.594532
64.905 19.700891
64.910 19.870998
64.915 20.252459
64.920 19.653345
64.925 19.895918
64.930 20.225782
64.935 20.303919
64.940 20.613285
64.945 20.727255
64.950 21.04669
64.955 22.419241
64.960 22.351818
64.965 22.082533
64.970 22.138294
64.975 22.580177
64.980 22.552292
64.985 22.754074
64.990 22.441582
64.995 22.703136
65.000 23.196978
65.005 23.751841
65.010 23.745489
65.015 23.605797
65.020 23.472445
65.025 22.899111
65.030 22.683458
65.035 22.315462
65.040 22.025316
65.045 21.603443
65.050 21.618633
65.055 21.977005
65.060 22.552826
65.065 22.602592
65.070 23.146046
65.075 22.864384
65.080 23.127565
65.085 23.26663
65.090 23.234608
65.095 23.579872
65.100 23.547743
65.105 23.200869
65.110 22.984219
65.115 23.05579
65.120 22.988749
65.125 22.189465
65.130 22.386158
65.135 21.965147
65.140 21.805149
65.145 22.163494
65.150 22.373596
65.155 21.967722
65.160 22.456856
65.165 22.328802
65.170 22.836164
65.175 23.117609
65.180 23.14119
65.185 23.080126
65.190 23.466164
65.195 22.860453
65.200 22.846453
65.205 23.239555
65.210 23.25687
65.215 23.091398
65.220 23.071159
65.225 23.375248
65.230 23.886145
65.235 24.036354
65.240 23.64065
65.245 23.513462
65.250 22.993244
65.255 22.455053
65.260 21.990704
65.265 22.514057
65.270 22.548967
65.275 22.556976
65.280 22.494329
65.285 22.466509
65.290 22.795534
65.295 22.881308
65.300 22.160397
65.305 22.42835
65.310 22.298653
65.315 22.562799
65.320 23.015396
65.325 23.142666
65.330 23.023785
65.335 22.831312
65.340 22.295631
65.345 21.7348
65.350 21.191936
65.355 21.327385
65.360 21.10265
65.365 21.341764
65.370 21.741507
65.375 21.582016
65.380 22.124271
65.385 22.342257
65.390 22.342884
65.395 22.669926
65.400 22.189201
65.405 21.887516
65.410 22.300186
65.415 22.648211
65.420 22.956924
65.425 23.244778
65.430 23.316652
65.435 23.934063
65.440 24.550894
65.445 24.888718
65.450 24.946085
65.455 24.312845
65.460 24.511293
65.465 24.397795
65.470 24.026529
65.475 23.8111
65.480 23.488369
65.485 23.593378
65.490 23.9424
65.495 23.822309
65.500 23.833391
65.505 23.918409
65.510 23.850641
65.515 23.931831
65.520 24.255308
65.525 24.200628
65.530 24.30756
65.535 24.654703
65.540 25.439289
65.545 25.614906
65.550 25.713171
65.555 25.556126
65.560 25.320448
65.565 25.506077
65.570 25.162386
65.575 25.370184
65.580 26.36153
65.585 26.443674
65.590 27.021202
65.595 27.570568
65.600 27.417154
65.605 27.736217
65.610 27.193432
65.615 26.459606
65.620 26.575544
65.625 26.793224
65.630 26.698332
65.635 26.417076
65.640 26.509451
65.645 26.32461
65.650 26.536947
65.655 26.517557
65.660 26.094578
65.665 27.07803
65.670 27.554594
65.675 27.628048
65.680 28.203959
65.685 28.866467
65.690 28.885921
65.695 29.134827
65.700 28.437571
65.705 28.276424
65.710 28.697901
65.715 29.123758
65.720 29.076672
65.725 29.577959
65.730 30.084383
65.735 30.434908
65.740 30.782169
65.745 30.492767
65.750 30.506447
65.755 31.384964
65.760 30.97732
65.765 31.362728
65.770 32.061386
65.775 32.361156
65.780 32.992855
65.785 32.17028
65.790 31.680693
65.795 31.444166
65.800 31.817163
65.805 32.030579
65.810 31.904362
65.815 30.805342
65.820 31.517433
65.825 31.429361
65.830 32.035469
65.835 31.730862
65.840 31.606829
65.845 32.148933
65.850 32.67907
65.855 33.345516
65.860 33.543411
65.865 33.735619
65.870 33.796539
65.875 33.836941
65.880 33.595356
65.885 34.481724
65.890 34.119534
65.895 34.918987
65.900 34.97834
65.905 34.533424
65.910 34.239029
65.915 34.301895
65.920 34.436256
65.925 35.205593
65.930 35.113853
65.935 35.890011
65.940 36.68325
65.945 37.230785
65.950 38.451393
65.955 38.948822
65.960 38.589867
65.965 38.543037
65.970 38.13525
65.975 38.142769
65.980 37.908279
65.985 36.809711
65.990 37.031116
65.995 36.791489
66.000 37.348545
66.005 36.842678
66.010 35.926495
66.015 35.014633
66.020 35.38282
66.025 34.53878
66.030 33.938183
66.035 33.6283
66.040 34.097813
66.045 35.157986
66.050 36.137131
66.055 36.515095
66.060 36.460495
66.065 36.950722
66.070 37.068275
66.075 37.006062
66.080 36.840672
66.085 36.206814
66.090 34.974728
66.095 35.429829
66.100 35.819477
66.105 34.945023
66.110 34.636658
66.115 34.976578
66.120 35.398029
66.125 36.202126
66.130 35.633698
66.135 35.665146
66.140 37.552555
66.145 37.973648
66.150 37.700661
66.155 38.031521
66.160 38.074532
66.165 38.854095
66.170 38.836422
66.175 37.462494
66.180 37.530357
66.185 37.461136
66.190 36.683701
66.195 36.618423
66.200 36.268238
66.205 36.127304
66.210 36.970188
66.215 36.828178
66.220 36.87397
66.225 36.812386
66.230 36.81509
66.235 36.488667
66.240 36.064663
66.245 35.860123
66.250 35.604969
66.255 36.03878
66.260 36.183704
66.265 36.452953
66.270 36.335461
66.275 36.27763
66.280 35.831974
66.285 35.321194
66.290 34.834713
66.295 35.330254
66.300 35.264416
66.305 35.733959
66.310 35.460804
66.315 36.036076
66.320 36.87545
66.325 37.181488
66.330 36.274239
66.335 36.002678
66.340 35.714809
66.345 35.597301
66.350 34.877651
66.355 34.207035
66.360 33.853184
66.365 33.982533
66.370 34.255936
66.375 34.192402
66.380 34.210972
66.385 34.697346
66.390 34.828411
66.395 35.674927
66.400 35.370224
66.405 34.441147
66.410 34.571716
66.415 34.363014
66.420 33.411385
66.425 32.640678
66.430 31.525076
66.435 31.289524
66.440 31.213188
66.445 30.23992
66.450 29.705872
66.455 29.573967
66.460 29.599756
66.465 28.568087
66.470 28.076227
66.475 27.85718
66.480 27.876236
66.485 27.646233
66.490 27.907423
66.495 27.84474
66.500 28.526602
66.505 28.445549
66.510 28.366613
66.515 27.154978
66.520 27.152153
66.525 26.833017
66.530 26.58041
66.535 26.442242
66.540 26.14773
66.545 26.08042
66.550 26.882446
66.555 26.74193
66.560 26.158169
66.565 25.362139
66.570 25.458088
66.575 25.501144
66.580 24.733511
66.585 24.439825
66.590 24.566412
66.595 25.396891
66.600 25.970629
66.605 25.726665
66.610 25.97781
66.615 26.318283
66.620 26.015455
66.625 25.832987
66.630 25.626268
66.635 25.261097
66.640 25.167509
66.645 25.154512
66.650 24.634888
66.655 24.117775
66.660 23.089071
66.665 22.406532
66.670 21.653191
66.675 21.121523
66.680 20.527306
66.685 20.802954
66.690 20.947742
66.695 21.748587
66.700 21.801025
66.705 22.674826
66.710 22.933655
66.715 22.719973
66.720 22.878407
66.725 22.800488
66.730 22.184263
66.735 22.474751
66.740 22.707815
66.745 22.36323
66.750 22.551327
66.755 22.175291
66.760 22.328562
66.765 22.427216
66.770 21.925064
66.775 21.67569
66.780 22.184681
66.785 22.396811
66.790 22.394594
66.795 21.843424
66.800 22.241884
66.805 22.410429
66.810 21.546387
66.815 20.892281
66.820 21.05797
66.825 21.182131
66.830 21.493073
66.835 21.22076
66.840 21.576479
66.845 22.822849
66.850 22.993124
66.855 22.387341
66.860 22.394272
66.865 22.386633
66.870 22.326042
66.875 21.505304
66.880 20.862516
66.885 20.455359
66.890 20.506618
66.895 20.375408
66.900 20.115881
66.905 19.923325
66.910 20.102758
66.915 20.116005
66.920 20.220869
66.925 20.25828
66.930 20.503036
66.935 20.7847
66.940 20.837378
66.945 20.531584
66.950 20.78101
66.955 20.788397
66.960 20.722782
66.965 20.861862
66.970 20.433308
66.975 20.862282
66.980 21.196659
66.985 21.176033
66.990 21.158461
66.995 20.964523
67.000 20.429934
67.005 21.070089
67.010 21.043982
67.015 21.286755
67.020 20.98608
67.025 21.1511
67.030 21.217447
67.035 20.904898
67.040 20.378727
67.045 19.989992
67.050 19.934538
67.055 20.117788
67.060 20.089233
67.065 19.967222
67.070 20.007725
67.075 20.048862
67.080 20.285452
67.085 20.240223
67.090 20.262918
67.095 20.011677
67.100 19.829082
67.105 19.946039
67.110 20.515179
67.115 20.453974
67.120 20.474529
67.125 20.344023
67.130 20.532848
67.135 21.227081
67.140 21.468172
67.145 20.465229
67.150 20.160873
67.155 20.398605
67.160 20.116972
67.165 19.871458
67.170 19.301424
67.175 18.843296
67.180 19.024731
67.185 18.909273
67.190 18.957655
67.195 18.728357
67.200 18.590563
67.205 18.298929
67.210 18.580772
67.215 18.776676
67.220 19.105745
67.225 19.435678
67.230 19.901012
67.235 19.914072
67.240 19.575747
67.245 19.659937
67.250 19.745237
67.255 19.696688
67.260 19.409771
67.265 19.506258
67.270 19.800508
67.275 20.555086
67.280 20.084097
67.285 19.291065
67.290 19.290361
67.295 19.42601
67.300 19.339825
67.305 19.458248
67.310 19.092016
67.315 19.33028
67.320 19.171425
67.325 18.366978
67.330 18.355909
67.335 18.46769
67.340 18.984179
67.345 18.747654
67.350 18.593939
67.355 18.980938
67.360 19.519598
67.365 19.477268
67.370 19.148083
67.375 18.658419
67.380 19.424763
67.385 19.792696
67.390 19.335171
67.395 19.15729
67.400 19.401657
67.405 19.76305
67.410 20.505459
67.415 20.266544
67.420 20.294353
67.425 21.001789
67.430 21.073765
67.435 20.688143
67.440 20.239296
67.445 19.417572
67.450 19.66588
67.455 19.690035
67.460 19.90576
67.465 20.061262
67.470 20.007622
67.475 19.99646
67.480 20.535923
67.485 20.684435
67.490 20.881462
67.495 21.058277
67.500 21.156797
67.505 21.579151
67.510 22.501751
67.515 22.376835
67.520 22.187988
67.525 22.028725
67.530 21.555485
67.535 21.414165
67.540 20.890842
67.545 19.921461
67.550 19.907398
67.555 19.892355
67.560 19.343111
67.565 19.640926
67.570 20.239614
67.575 20.104494
67.580 20.088966
67.585 19.819366
67.590 19.417635
67.595 19.656717
67.600 19.341753
67.605 19.013489
67.610 19.168732
67.615 19.740921
67.620 19.992935
67.625 20.406408
67.630 20.509632
67.635 20.084946
67.640 20.401493
67.645 20.459139
67.650 20.4788
67.655 20.502163
67.660 20.476097
67.665 20.916698
67.670 21.003546
67.675 20.765018
67.680 20.286924
67.685 19.993507
67.690 20.04986
67.695 19.302208
67.700 18.829851
67.705 18.900433
67.710 19.006676
67.715 18.976883
67.720 19.02862
67.725 19.388329
67.730 19.726746
67.735 19.34935
67.740 19.45437
67.745 19.374796
67.750 19.459049
67.755 19.195419
67.760 19.31852
67.765 19.54517
67.770 19.960987
67.775 20.181751
67.780 20.302349
67.785 20.130106
67.790 19.715715
67.795 19.591093
67.800 19.599073
67.805 19.769766
67.810 19.121277
67.815 19.168066
67.820 19.720463
67.825 19.953634
67.830 19.972498
67.835 20.004946
67.840 19.344898
67.845 19.545439
67.850 19.472672
67.855 18.911409
67.860 18.419394
67.865 17.998165
67.870 17.855742
67.875 18.168186
67.880 18.158266
67.885 18.835478
67.890 19.59654
67.895 20.290234
67.900 19.994047
67.905 20.285593
67.910 20.319933
67.915 20.120415
67.920 19.670103
67.925 19.233854
67.930 19.372341
67.935 19.991348
67.940 20.609999
67.945 20.85618
67.950 20.349283
67.955 19.858896
67.960 19.858719
67.965 19.921537
67.970 19.331545
67.975 18.438341
67.980 18.161205
67.985 18.717403
67.990 19.023602
67.995 19.391718
68.000 19.062794
68.005 19.602293
68.010 19.91466
68.015 19.761459
68.020 20.026703
68.025 20.009333
68.030 19.849524
68.035 20.045418
68.040 19.449989
68.045 19.170471
68.050 19.700052
68.055 20.104141
68.060 19.780676
68.065 19.61813
68.070 19.773611
68.075 19.511547
68.080 20.106447
68.085 20.326115
68.090 19.535269
68.095 19.278759
68.100 18.921906
68.105 18.701077
68.110 18.620419
68.115 17.857777
68.120 17.375244
68.125 17.803669
68.130 18.398699
68.135 18.382919
68.140 19.114742
68.145 19.808561
68.150 20.117569
68.155 19.700642
68.160 19.904621
68.165 19.53367
68.170 19.405127
68.175 19.230927
68.180 18.79204
68.185 18.804913
68.190 19.475641
68.195 18.824812
68.200 18.700083
68.205 18.84594
68.210 19.295933
68.215 19.251543
68.220 18.696171
68.225 18.592356
68.230 19.028431
68.235 19.285007
68.240 19.246933
68.245 19.094696
68.250 19.34478
68.255 19.742807
68.260 20.072523
68.265 20.30414
68.270 20.153042
68.275 19.494032
68.280 18.980074
68.285 19.186062
68.290 19.780163
68.295 19.187452
68.300 18.416054
68.305 18.582987
68.310 19.164755
68.315 19.665182
68.320 19.965855
68.325 19.534966
68.330 19.275616
68.335 19.676733
68.340 20.333881
68.345 20.186251
68.350 19.92631
68.355 19.453951
68.360 19.668898
68.365 20.34314
68.370 20.329979
68.375 19.741737
68.380 20.242825
68.385 20.681353
68.390 20.404745
68.395 19.838915
68.400 19.438852
68.405 19.256269
68.410 19.023321
68.415 18.731709
68.420 18.621443
68.425 19.319269
68.430 19.955303
68.435 20.041807
68.440 20.768158
68.445 21.507837
68.450 21.218575
68.455 21.562597
68.460 21.314453
68.465 21.284344
68.470 21.666811
68.475 21.066153
68.480 21.324619
68.485 21.765871
68.490 21.543312
68.495 21.610798
68.500 22.022263
68.505 22.381914
68.510 22.802937
68.515 22.906143
68.520 22.567764
68.525 22.482403
68.530 21.749128
68.535 21.047352
68.540 19.984556
68.545 19.924562
68.550 19.546936
68.555 19.514612
68.560 20.164703
68.565 20.462887
68.570 20.657831
68.575 20.865921
68.580 20.30331
68.585 20.280008
68.590 20.74173
68.595 20.494371
68.600 21.001762
68.605 21.422089
68.610 21.477171
68.615 21.544649
68.620 20.77792
68.625 19.664139
68.630 19.161385
68.635 18.980396
68.640 18.663206
68.645 18.568382
68.650 18.541447
68.655 19.075781
68.660 19.534109
68.665 19.872318
68.670 20.006023
68.675 20.297306
68.680 20.702787
68.685 20.839153
68.690 21.249365
68.695 21.994061
68.700 21.78857
68.705 21.37237
68.710 21.297012
68.715 20.6376
68.720 20.322577
68.725 19.731989
68.730 18.881659
68.735 19.318796
68.740 19.246416
68.745 19.175007
68.750 19.470936
68.755 20.025013
68.760 19.899935
68.765 20.600458
68.770 20.366884
68.775 20.424494
68.780 20.77302
68.785 20.529974
68.790 20.166853
68.795 20.18737
68.800 20.023846
68.805 20.203949
68.810 19.821074
68.815 19.421446
68.820 19.90259
68.825 20.195545
68.830 19.951649
68.835 19.786114
68.840 19.687346
68.845 19.719439
68.850 20.170149
68.855 20.143196
68.860 20.170315
68.865 20.365473
68.870 20.349934
68.875 20.223885
68.880 19.909037
68.885 19.800543
68.890 20.071016
68.895 20.61721
68.900 21.219639
68.905 21.458492
68.910 21.616076
68.915 21.795319
68.920 21.864218
68.925 21.457476
68.930 21.17815
68.935 20.479914
68.940 20.171713
68.945 20.578976
68.950 20.37966
68.955 20.292128
68.960 20.148935
68.965 20.207989
68.970 20.061132
68.975 20.034504
68.980 19.992249
68.985 20.109861
68.990 20.781309
68.995 20.688913
69.000 20.522726
69.005 21.435587
69.010 22.158176
69.015 22.03651
69.020 22.296162
69.025 22.153414
69.030 22.73831
69.035 23.44525
69.040 23.507288
69.045 23.572206
69.050 23.989706
69.055 24.067513
69.060 23.668953
69.065 23.480661
69.070 23.092928
69.075 23.09433
69.080 23.864645
69.085 24.084473
69.090 23.91794
69.095 24.687958
69.100 25.105923
69.105 24.523939
69.110 24.171547
69.115 23.522381
69.120 23.788591
69.125 24.613779
69.130 23.950483
69.135 23.607641
69.140 24.3641
69.145 24.230076
69.150 23.580153
69.155 23.391378
69.160 23.247705
69.165 23.740122
69.170 23.675631
69.175 23.686668
69.180 24.785732
69.185 25.867041
69.190 26.485394
69.195 26.761171
69.200 26.772261
69.205 26.349995
69.210 25.498566
69.215 25.013117
69.220 25.05805
69.225 24.681316
69.230 24.133688
69.235 23.895462
69.240 25.41136
69.245 26.596788
69.250 26.283451
69.255 26.273624
69.260 25.888914
69.265 26.610958
69.270 27.186119
69.275 26.508196
69.280 26.172958
69.285 26.195076
69.290 26.024132
69.295 26.338873
69.300 26.445051
69.305 26.525618
69.310 27.335537
69.315 27.93108
69.320 27.829468
69.325 28.108875
69.330 28.167498
69.335 28.235653
69.340 27.828506
69.345 28.410576
69.350 28.964088
69.355 28.853359
69.360 28.69828
69.365 28.996464
69.370 29.512142
69.375 29.47423
69.380 28.560482
69.385 28.56793
69.390 29.309132
69.395 29.553802
69.400 29.621864
69.405 30.195135
69.410 30.616262
69.415 31.530945
69.420 31.376917
69.425 31.528505
69.430 31.565048
69.435 31.313944
69.440 30.734426
69.445 30.525209
69.450 31.170465
69.455 31.400496
69.460 30.813391
69.465 30.855459
69.470 30.610544
69.475 30.826551
69.480 31.34864
69.485 30.843706
69.490 31.405811
69.495 31.776957
69.500 31.385395
69.505 32.002407
69.510 32.028988
69.515 31.735579
69.520 31.921305
69.525 31.760197
69.530 31.837305
69.535 32.599243
69.540 32.698551
69.545 33.214703
69.550 33.05542
69.555 32.157261
69.560 31.690786
69.565 31.721449
69.570 31.555712
69.575 30.939653
69.580 30.500338
69.585 31.158571
69.590 32.528687
69.595 33.373005
69.600 32.840622
69.605 32.293316
69.610 32.20129
69.615 31.965935
69.620 31.449339
69.625 30.151733
69.630 29.481911
69.635 29.732372
69.640 30.169037
69.645 30.301262
69.650 30.048567
69.655 29.816343
69.660 30.069988
69.665 30.553442
69.670 31.026833
69.675 30.631565
69.680 30.512709
69.685 30.467089
69.690 31.173109
69.695 31.135849
69.700 31.237583
69.705 30.634029
69.710 30.424932
69.715 30.243492
69.720 29.849524
69.725 29.136969
69.730 28.923927
69.735 28.913597
69.740 29.288986
69.745 28.91428
69.750 28.928564
69.755 28.492243
69.760 28.171055
69.765 28.124722
69.770 28.000898
69.775 27.689459
69.780 27.902161
69.785 28.257992
69.790 28.426651
69.795 27.753679
69.800 27.442158
69.805 27.097216
69.810 27.043779
69.815 26.873335
69.820 26.976057
69.825 27.363708
69.830 27.337322
69.835 27.370934
69.840 26.714972
69.845 25.993418
69.850 25.961531
69.855 25.383087
69.860 24.868433
69.865 24.763489
69.870 24.285612
69.875 24.318026
69.880 24.877951
69.885 24.824705
69.890 24.176855
69.895 23.680214
69.900 23.256683
69.905 23.01544
69.910 22.868931
69.915 21.881699
69.920 21.327955
69.925 21.718596
69.930 21.718845
69.935 21.686094
69.940 21.437756
69.945 21.678705
69.950 22.081852
69.955 21.43642
69.960 20.552019
69.965 20.674326
69.970 20.961294
69.975 21.230864
69.980 21.231306
69.985 22.059162
69.990 22.33923
69.995 22.774399
70.000 22.615677
70.005 22.481873
70.010 22.243738
70.015 22.157909
70.020 21.873993
70.025 22.044523
70.030 22.359676
70.035 22.607046
70.040 22.663584
70.045 22.680357
70.050 22.031868
70.055 21.800631
70.060 22.032429
70.065 21.395107
70.070 20.659704
70.075 20.503378
70.080 20.767756
70.085 20.47855
70.090 20.675936
70.095 21.02491
70.100 20.67494
70.105 20.071451
70.110 19.453756
70.115 19.176357
70.120 19.45447
70.125 18.661125
70.130 18.291145
70.135 18.291447
70.140 18.353292
70.145 18.809006
70.150 18.853197
70.155 18.979111
70.160 19.468693
70.165 18.8757
70.170 18.896816
70.175 19.312756
70.180 19.414167
70.185 19.490526
70.190 19.237818
70.195 19.016954
70.200 19.521969
70.205 19.874714
70.210 19.599264
70.215 19.431208
70.220 19.131487
70.225 19.380968
70.230 19.59734
70.235 19.142567
70.240 19.360945
70.245 19.570717
70.250 19.892729
70.255 20.432669
70.260 20.442646
70.265 20.415369
70.270 20.34325
70.275 20.166651
70.280 19.759327
70.285 19.781359
70.290 19.430277
70.295 19.555717
70.300 19.851835
70.305 19.976284
70.310 19.543289
70.315 19.408152
70.320 19.369452
70.325 19.385441
70.330 19.012737
70.335 19.014078
70.340 18.668652
70.345 19.019222
70.350 19.274082
70.355 19.426434
70.360 19.108885
70.365 19.423393
70.370 19.154003
70.375 19.888498
70.380 20.162716
70.385 19.838232
70.390 19.476665
70.395 19.316902
70.400 19.551521
70.405 19.805191
70.410 18.756695
70.415 18.362318
70.420 17.694788
70.425 17.513781
70.430 17.926155
70.435 17.992489
70.440 18.123747
70.445 18.474798
70.450 18.984243
70.455 19.452536
70.460 19.588758
70.465 19.356468
70.470 19.375217
70.475 19.286306
70.480 19.266712
70.485 19.091427
70.490 18.81988
70.495 18.889549
70.500 18.889908
70.505 18.853842
70.510 18.783606
70.515 18.611422
70.520 18.571127
70.525 18.710592
70.530 18.639187
70.535 17.96661
70.540 17.786209
70.545 18.01268
70.550 18.349869
70.555 18.348497
70.560 18.340574
70.565 18.415409
70.570 18.833416
70.575 18.115433
70.580 17.929802
70.585 18.069107
70.590 18.557644
70.595 18.863581
70.600 18.859602
70.605 18.873232
70.610 19.481628
70.615 18.925087
70.620 18.63866
70.625 18.324884
70.630 17.513435
70.635 17.004086
70.640 17.258919
70.645 17.581039
70.650 17.921745
70.655 17.983204
70.660 18.196175
70.665 18.495733
70.670 18.575344
70.675 17.799173
70.680 17.800104
70.685 18.24902
70.690 18.564623
70.695 18.828426
70.700 18.852739
70.705 19.42351
70.710 20.152943
70.715 20.137379
70.720 19.529552
70.725 19.729574
70.730 19.694027
70.735 20.102814
70.740 19.91894
70.745 19.560484
70.750 19.741133
70.755 19.087753
70.760 18.811827
70.765 18.539253
70.770 18.034464
70.775 18.069944
70.780 17.884464
70.785 16.867556
70.790 16.721935
70.795 16.470726
70.800 17.004494
70.805 18.041494
70.810 18.49976
70.815 18.752695
70.820 19.488876
70.825 19.700531
70.830 19.870003
70.835 19.310892
70.840 18.880144
70.845 18.869753
70.850 18.418926
70.855 18.015175
70.860 17.828196
70.865 18.05632
70.870 17.821938
70.875 17.076038
70.880 17.261517
70.885 17.807486
70.890 18.259821
70.895 18.447647
70.900 18.523386
70.905 18.941608
70.910 18.867477
70.915 18.302605
70.920 18.024391
70.925 18.121675
70.930 17.817949
70.935 17.715504
70.940 17.513483
70.945 17.497084
70.950 17.532034
70.955 17.394722
70.960 17.887537
70.965 17.851345
70.970 17.806633
70.975 18.589548
70.980 18.884205
70.985 19.250452
70.990 19.801571
70.995 19.597126
71.000 19.8927
71.005 19.69166
71.010 18.845581
71.015 19.119474
71.020 19.557213
71.025 19.5807
71.030 19.526033
71.035 19.475016
71.040 19.739073
71.045 20.080189
71.050 20.21406
71.055 19.9793
71.060 19.658735
71.065 19.384417
71.070 18.886904
71.075 18.588118
71.080 18.513714
71.085 18.020884
71.090 18.362402
71.095 18.784342
71.100 18.856417
71.105 19.283073
71.110 19.427893
71.115 19.423664
71.120 19.608845
71.125 19.335884
71.130 19.22402
71.135 19.809793
71.140 19.630667
71.145 19.003284
71.150 18.663116
71.155 18.065676
71.160 17.693031
71.165 17.203455
71.170 16.634384
71.175 16.790846
71.180 17.129599
71.185 16.968937
71.190 17.14369
71.195 17.126778
71.200 17.391796
71.205 17.366026
71.210 17.761984
71.215 18.017178
71.220 18.1064
71.225 18.38397
71.230 19.175343
71.235 19.116959
71.240 19.180223
71.245 18.910728
71.250 18.921951
71.255 18.722452
71.260 18.240568
71.265 17.911079
71.270 17.802046
71.275 17.381273
71.280 17.400892
71.285 17.416994
71.290 17.483732
71.295 17.78809
71.300 17.320471
71.305 17.148806
71.310 16.830435
71.315 17.241394
71.320 17.711811
71.325 17.720413
71.330 18.044584
71.335 18.499418
71.340 18.950918
71.345 19.096556
71.350 18.995127
71.355 18.902695
71.360 18.627354
71.365 18.136848
71.370 18.388773
71.375 19.433401
71.380 19.932032
71.385 19.557589
71.390 19.497931
71.395 19.445227
71.400 19.59808
71.405 19.302437
71.410 18.59041
71.415 18.019617
71.420 17.948742
71.425 17.989933
71.430 17.724026
71.435 17.469118
71.440 17.520826
71.445 17.549334
71.450 17.705091
71.455 17.755653
71.460 18.086227
71.465 18.175459
71.470 17.942774
71.475 17.361568
71.480 17.095695
71.485 16.804047
71.490 16.617836
71.495 16.495914
71.500 16.453072
71.505 16.169079
71.510 16.651304
71.515 16.859077
71.520 17.219975
71.525 17.114246
71.530 17.874067
71.535 18.928537
71.540 19.028717
71.545 18.327864
71.550 18.42729
71.555 18.154049
71.560 18.026089
71.565 16.917267
71.570 16.246834
71.575 16.392162
71.580 17.492014
71.585 17.305593
71.590 17.567921
71.595 17.711578
71.600 18.12771
71.605 18.938457
71.610 18.919132
71.615 18.148596
71.620 18.663773
71.625 18.431791
71.630 18.329163
71.635 18.23041
71.640 18.231279
71.645 18.536295
71.650 18.857588
71.655 18.936338
71.660 18.95916
71.665 18.811495
71.670 18.69182
71.675 18.598183
71.680 17.948652
71.685 17.933529
71.690 17.529852
71.695 17.664532
71.700 17.958527
71.705 17.82736
71.710 17.717787
71.715 17.88693
71.720 17.830132
71.725 18.102478
71.730 18.043514
71.735 18.010324
71.740 18.168142
71.745 17.898495
71.750 17.934252
71.755 18.277239
71.760 18.596474
71.765 18.636889
71.770 18.257906
71.775 17.975964
71.780 18.350695
71.785 18.17993
71.790 17.37195
71.795 16.802055
71.800 16.827389
71.805 17.061598
71.810 17.743549
71.815 17.582998
71.820 17.691444
71.825 17.911318
71.830 18.527229
71.835 18.446873
71.840 18.295418
71.845 17.889498
71.850 18.197952
71.855 18.527975
71.860 18.308792
71.865 18.024517
71.870 17.806065
71.875 17.931278
71.880 17.724422
71.885 17.761324
71.890 16.927828
71.895 16.699697
71.900 16.509886
71.905 16.751431
71.910 17.279657
71.915 17.437883
71.920 17.030115
71.925 17.312832
71.930 17.753855
71.935 17.72163
71.940 17.416666
71.945 16.898684
71.950 17.028419
71.955 17.220406
71.960 17.703672
71.965 17.982637
71.970 18.386885
71.975 18.829557
71.980 19.338428
71.985 19.398418
71.990 19.396215
71.995 18.724424
72.000 18.868042
72.005 19.049314
72.010 18.226431
72.015 17.135969
72.020 17.539719
72.025 17.637999
72.030 17.565939
72.035 16.516512
72.040 16.853497
72.045 17.400801
72.050 17.46789
72.055 17.515142
72.060 17.991455
72.065 18.108101
72.070 17.886375
72.075 17.108269
72.080 16.724676
72.085 17.145828
72.090 17.233353
72.095 17.350925
72.100 17.977358
72.105 18.529575
72.110 18.975321
72.115 18.832371
72.120 18.706669
72.125 18.551332
72.130 18.402359
72.135 18.247066
72.140 17.915739
72.145 17.785477
72.150 17.686914
72.155 16.915909
72.160 16.503595
72.165 16.771206
72.170 17.117962
72.175 17.150841
72.180 17.277317
72.185 17.269152
72.190 17.445272
72.195 17.504299
72.200 16.923691
72.205 16.959307
72.210 16.736923
72.215 16.593016
72.220 16.947372
72.225 17.266756
72.230 17.613976
72.235 17.969004
72.240 17.937294
72.245 18.380852
72.250 18.845749
72.255 18.853678
72.260 18.390902
72.265 18.165844
72.270 18.258211
72.275 18.917635
72.280 18.817558
72.285 18.277531
72.290 18.437208
72.295 18.72975
72.300 18.679228
72.305 18.813774
72.310 18.545712
72.315 18.997782
72.320 19.771933
72.325 20.044168
72.330 19.793169
72.335 19.723892
72.340 19.260256
72.345 18.97966
72.350 18.207609
72.355 17.803406
72.360 17.575228
72.365 17.531084
72.370 17.392609
72.375 17.380726
72.380 17.896288
72.385 18.299034
72.390 18.048012
72.395 17.817648
72.400 17.628738
72.405 17.659842
72.410 17.356489
72.415 17.349627
72.420 17.820389
72.425 17.796452
72.430 18.081209
72.435 18.193554
72.440 18.633823
72.445 18.963976
72.450 19.028271
72.455 18.645124
72.460 18.788948
72.465 18.597858
72.470 18.312038
72.475 17.809324
72.480 17.352922
72.485 17.048841
72.490 17.148588
72.495 17.684494
72.500 17.74962
72.505 18.338243
72.510 18.384411
72.515 18.637201
72.520 18.51132
72.525 18.081367
72.530 17.175709
72.535 16.727083
72.540 16.592466
72.545 16.784594
72.550 16.639357
72.555 16.589018
72.560 16.682772
72.565 17.28266
72.570 17.518248
72.575 17.312559
72.580 17.414387
72.585 17.237192
72.590 17.397511
72.595 16.679827
72.600 16.7591
72.605 16.473196
72.610 16.30291
72.615 16.081587
72.620 16.357449
72.625 16.558517
72.630 17.349882
72.635 17.069696
72.640 17.36647
72.645 17.170734
72.650 17.415691
72.655 16.976563
72.660 16.372007
72.665 16.516899
72.670 16.556477
72.675 16.218596
72.680 15.293096
72.685 14.681129
72.690 15.527144
72.695 15.747169
72.700 15.624542
72.705 15.824
72.710 16.145891
72.715 16.929663
72.720 16.910686
72.725 16.815285
72.730 16.730141
72.735 16.627211
72.740 17.097969
72.745 17.517382
72.750 17.519989
72.755 18.195862
72.760 18.27874
72.765 19.112253
72.770 19.026075
72.775 18.965538
72.780 19.293934
72.785 19.317293
72.790 18.844662
72.795 18.551521
72.800 18.473637
72.805 18.776533
72.810 18.223223
72.815 17.630177
72.820 17.282467
72.825 16.898148
72.830 17.053165
72.835 16.811171
72.840 16.879818
72.845 17.213392
72.850 17.626875
72.855 17.698742
72.860 17.770388
72.865 18.05043
72.870 17.900791
72.875 17.506763
72.880 17.348669
72.885 17.335972
72.890 17.777693
72.895 17.885878
72.900 17.364176
72.905 17.490456
72.910 17.876417
72.915 17.419542
72.920 17.503418
72.925 16.568342
72.930 15.984245
72.935 15.460095
72.940 14.492972
72.945 14.439945
72.950 14.255754
72.955 14.217919
72.960 15.076698
72.965 15.816819
72.970 16.633266
72.975 17.013687
72.980 17.74563
72.985 18.131292
72.990 18.096352
72.995 17.280754
73.000 16.824814
