!@!!GADDS PLOTSO FILE: Chi integration type
!@!!Title/SampleName: map-6e
!@!!Comment: ?
!@!!User: Bruker Instrument Administrator
!@!!Site: University of Illinois Chicago
!@!!Frame: map-6e_01_000.gfrm
!@!!Wavelengths    1.54184   1.54056   1.54439
!@!!Frame angles: 2Theta: 63.000 Omega: 50.000 Phi: 0.000 Chi: 90.000
!@!!Integration range: 2Theta: 53.000 to 73.000  Gamma: -105.000 to -75.000
!@!!Integration method: bin normalized
!@!N
!@!SS
!@!M
!@!L 0.0 0.0 0.0 0.0
!@!XDegrees
!@!YCounts
53.000 8.778495
53.005 9.043207
53.010 9.544155
53.015 9.556885
53.020 9.811795
53.025 9.954475
53.030 10.530937
53.035 10.97511
53.040 11.084922
53.045 11.177773
53.050 11.199389
53.055 11.235247
53.060 11.020262
53.065 10.167941
53.070 9.741082
53.075 10.091409
53.080 10.46809
53.085 10.516341
53.090 10.357304
53.095 10.767865
53.100 11.362325
53.105 11.404238
53.110 10.917712
53.115 10.781481
53.120 10.90713
53.125 10.576566
53.130 10.218509
53.135 9.950856
53.140 9.664563
53.145 9.565473
53.150 9.667696
53.155 10.117526
53.160 10.772844
53.165 10.789711
53.170 10.327616
53.175 10.499278
53.180 10.63195
53.185 10.418805
53.190 10.198498
53.195 9.640203
53.200 10.192021
53.205 10.535183
53.210 10.752121
53.215 10.950663
53.220 10.864008
53.225 10.541276
53.230 10.360405
53.235 9.860611
53.240 9.656214
53.245 9.242472
53.250 8.438069
53.255 8.596348
53.260 8.595831
53.265 9.163789
53.270 9.390569
53.275 9.177196
53.280 9.471521
53.285 9.520708
53.290 9.401336
53.295 9.55113
53.300 9.441268
53.305 9.292151
53.310 9.490289
53.315 9.340755
53.320 9.362332
53.325 9.374701
53.330 9.64535
53.335 9.953213
53.340 10.343982
53.345 10.520319
53.350 10.77893
53.355 10.868135
53.360 11.37901
53.365 11.228927
53.370 10.957268
53.375 10.9369
53.380 10.71729
53.385 11.112364
53.390 10.945841
53.395 10.677725
53.400 10.697456
53.405 10.718177
53.410 10.460347
53.415 10.498155
53.420 10.027299
53.425 9.892095
53.430 9.462808
53.435 9.062696
53.440 8.817146
53.445 8.865759
53.450 9.018619
53.455 9.724077
53.460 10.444753
53.465 10.825298
53.470 11.233682
53.475 11.354893
53.480 11.105137
53.485 10.918009
53.490 10.354754
53.495 9.620036
53.500 9.313226
53.505 9.462477
53.510 9.952812
53.515 10.476712
53.520 10.500179
53.525 11.347951
53.530 11.74972
53.535 11.770708
53.540 11.450977
53.545 10.877621
53.550 10.509876
53.555 10.610616
53.560 10.604945
53.565 10.54764
53.570 10.583261
53.575 11.108548
53.580 11.182757
53.585 10.957559
53.590 10.751249
53.595 10.113014
53.600 10.585426
53.605 10.288911
53.610 10.275743
53.615 10.262283
53.620 10.371778
53.625 10.427866
53.630 10.445391
53.635 10.765879
53.640 10.334733
53.645 10.237713
53.650 10.332495
53.655 10.082033
53.660 10.589574
53.665 10.493361
53.670 10.481218
53.675 11.058591
53.680 11.608399
53.685 12.0138
53.690 11.980234
53.695 11.867985
53.700 12.491559
53.705 12.230199
53.710 11.870875
53.715 12.07368
53.720 12.066648
53.725 12.409303
53.730 11.920332
53.735 11.030051
53.740 10.887914
53.745 10.473231
53.750 9.555364
53.755 9.184717
53.760 9.040156
53.765 9.23636
53.770 9.735865
53.775 10.067088
53.780 10.322647
53.785 10.543259
53.790 10.660895
53.795 11.293333
53.800 11.392142
53.805 11.344725
53.810 11.332517
53.815 11.336241
53.820 11.420403
53.825 11.373875
53.830 10.943308
53.835 11.073318
53.840 11.255095
53.845 11.340239
53.850 11.284173
53.855 10.900367
53.860 10.778698
53.865 10.461147
53.870 10.45984
53.875 10.438829
53.880 10.577784
53.885 10.87156
53.890 10.843658
53.895 10.465573
53.900 10.359664
53.905 10.038071
53.910 9.84027
53.915 9.785574
53.920 9.804164
53.925 10.417108
53.930 10.916758
53.935 11.222511
53.940 11.124549
53.945 10.829086
53.950 10.744858
53.955 10.341154
53.960 9.71217
53.965 9.615025
53.970 9.391064
53.975 9.643003
53.980 9.814585
53.985 10.147399
53.990 10.595417
53.995 10.817018
54.000 10.893768
54.005 11.063399
54.010 10.904918
54.015 11.125905
54.020 11.331538
54.025 11.483429
54.030 11.603112
54.035 11.965622
54.040 12.136819
54.045 12.204874
54.050 11.473563
54.055 11.028713
54.060 11.149469
54.065 11.092364
54.070 10.726572
54.075 10.707826
54.080 10.901084
54.085 11.421027
54.090 11.34007
54.095 11.55417
54.100 11.615226
54.105 11.948901
54.110 12.037456
54.115 12.293539
54.120 12.375598
54.125 12.311933
54.130 11.837279
54.135 12.213318
54.140 11.813017
54.145 11.985213
54.150 11.900433
54.155 11.52063
54.160 11.454245
54.165 11.549682
54.170 11.597225
54.175 12.156204
54.180 11.705566
54.185 11.684978
54.190 12.131006
54.195 11.77536
54.200 11.648067
54.205 11.643289
54.210 11.702134
54.215 11.515124
54.220 11.467126
54.225 11.471537
54.230 11.872931
54.235 11.934495
54.240 11.51782
54.245 11.22101
54.250 11.672189
54.255 11.93368
54.260 11.809235
54.265 11.718203
54.270 10.9807
54.275 10.921968
54.280 10.913869
54.285 11.034241
54.290 10.988698
54.295 11.433053
54.300 12.295796
54.305 12.891719
54.310 12.891968
54.315 12.955049
54.320 12.633872
54.325 12.671517
54.330 12.035074
54.335 11.607287
54.340 11.620934
54.345 11.749339
54.350 11.734858
54.355 11.969404
54.360 12.156756
54.365 12.560998
54.370 12.297981
54.375 12.131755
54.380 11.695266
54.385 11.455291
54.390 11.216352
54.395 11.244412
54.400 10.918124
54.405 11.069805
54.410 11.42016
54.415 11.598211
54.420 11.522513
54.425 11.006557
54.430 10.555695
54.435 10.224047
54.440 9.808462
54.445 9.247967
54.450 9.184799
54.455 9.366709
54.460 9.65211
54.465 10.378257
54.470 10.545094
54.475 10.697235
54.480 10.811481
54.485 10.996281
54.490 11.187689
54.495 11.356556
54.500 11.444136
54.505 11.343795
54.510 11.391647
54.515 11.48497
54.520 11.555913
54.525 11.422282
54.530 10.710875
54.535 10.484762
54.540 10.865216
54.545 10.670222
54.550 10.556601
54.555 10.132305
54.560 10.272098
54.565 10.665232
54.570 10.463852
54.575 10.578868
54.580 10.652676
54.585 11.030553
54.590 11.384549
54.595 11.369509
54.600 11.796695
54.605 11.738567
54.610 11.827936
54.615 12.315479
54.620 12.223226
54.625 12.214128
54.630 12.299802
54.635 12.049581
54.640 12.324911
54.645 11.94567
54.650 12.17905
54.655 12.620625
54.660 12.545354
54.665 12.402159
54.670 12.654873
54.675 12.618143
54.680 12.879471
54.685 12.449528
54.690 12.175496
54.695 12.264261
54.700 12.01431
54.705 12.152717
54.710 12.220023
54.715 11.750325
54.720 11.824166
54.725 11.825739
54.730 12.307602
54.735 12.325321
54.740 11.978374
54.745 11.949703
54.750 12.194247
54.755 12.027112
54.760 11.871353
54.765 11.731152
54.770 11.708583
54.775 11.468114
54.780 11.42979
54.785 11.288876
54.790 11.824548
54.795 11.741835
54.800 11.630874
54.805 11.764728
54.810 12.11915
54.815 12.332443
54.820 12.403873
54.825 12.254037
54.830 12.28201
54.835 12.310942
54.840 12.223968
54.845 12.155747
54.850 12.196618
54.855 11.750175
54.860 11.608886
54.865 11.776833
54.870 12.131884
54.875 12.31391
54.880 12.002106
54.885 11.856976
54.890 12.113827
54.895 11.999612
54.900 11.700704
54.905 11.259317
54.910 11.347989
54.915 11.698745
54.920 12.014775
54.925 12.510308
54.930 12.908651
54.935 12.916061
54.940 12.774858
54.945 12.615762
54.950 12.078112
54.955 11.736284
54.960 11.064649
54.965 11.150653
54.970 11.594586
54.975 11.69133
54.980 12.257474
54.985 12.90887
54.990 12.973114
54.995 12.907247
55.000 12.576024
55.005 12.170138
55.010 12.215622
55.015 11.667419
55.020 11.728822
55.025 11.72069
55.030 12.200213
55.035 12.599066
55.040 12.514147
55.045 12.270487
55.050 12.376703
55.055 11.773716
55.060 11.655545
55.065 11.404391
55.070 11.257701
55.075 11.244009
55.080 11.128535
55.085 11.40504
55.090 11.934952
55.095 11.997018
55.100 11.728234
55.105 12.179817
55.110 12.321992
55.115 12.247384
55.120 12.358499
55.125 12.223441
55.130 12.282699
55.135 12.021513
55.140 11.768867
55.145 11.457648
55.150 11.523726
55.155 11.103108
55.160 11.635613
55.165 11.804849
55.170 12.292906
55.175 12.524249
55.180 12.799149
55.185 12.800204
55.190 12.775051
55.195 12.199431
55.200 12.618828
55.205 12.729154
55.210 12.706382
55.215 13.009198
55.220 13.370058
55.225 13.220445
55.230 12.832162
55.235 12.031999
55.240 11.767258
55.245 11.644552
55.250 11.685774
55.255 11.56768
55.260 11.521874
55.265 11.702117
55.270 12.016116
55.275 12.056203
55.280 11.967906
55.285 11.84222
55.290 11.933944
55.295 11.88533
55.300 11.91918
55.305 12.00436
55.310 12.254892
55.315 12.387954
55.320 12.171893
55.325 11.665537
55.330 11.829315
55.335 11.874086
55.340 11.639721
55.345 11.399919
55.350 11.57926
55.355 12.16171
55.360 13.063421
55.365 13.253632
55.370 13.66616
55.375 13.762457
55.380 13.744867
55.385 13.474791
55.390 13.360621
55.395 13.473746
55.400 13.71913
55.405 13.725838
55.410 13.773686
55.415 13.706118
55.420 13.646862
55.425 12.950256
55.430 12.694731
55.435 12.383319
55.440 12.339784
55.445 12.748423
55.450 12.748755
55.455 12.419094
55.460 12.757622
55.465 12.50864
55.470 12.208402
55.475 11.988216
55.480 11.432637
55.485 11.423938
55.490 12.044565
55.495 12.41955
55.500 12.259912
55.505 12.246235
55.510 12.129371
55.515 12.09812
55.520 11.840479
55.525 11.424438
55.530 11.088675
55.535 11.597082
55.540 12.025054
55.545 12.247261
55.550 13.080735
55.555 13.565012
55.560 14.116077
55.565 14.41433
55.570 14.175431
55.575 13.915559
55.580 13.813514
55.585 13.501567
55.590 13.142832
55.595 13.058378
55.600 13.06085
55.605 12.948102
55.610 12.948116
55.615 12.731568
55.620 12.54452
55.625 12.235824
55.630 11.663592
55.635 11.595822
55.640 11.766777
55.645 11.720029
55.650 12.011241
55.655 12.319965
55.660 12.469109
55.665 12.795267
55.670 12.409644
55.675 12.163442
55.680 12.081141
55.685 12.494261
55.690 12.86727
55.695 12.778317
55.700 12.733387
55.705 12.840119
55.710 12.927927
55.715 12.793929
55.720 12.137769
55.725 12.011686
55.730 11.986876
55.735 11.79279
55.740 11.868011
55.745 12.10034
55.750 11.890118
55.755 11.865909
55.760 11.576325
55.765 11.538157
55.770 11.85857
55.775 11.719802
55.780 11.579832
55.785 11.589581
55.790 11.609952
55.795 11.976126
55.800 11.878458
55.805 12.111382
55.810 12.226331
55.815 11.949887
55.820 12.25868
55.825 12.353959
55.830 12.744329
55.835 13.214986
55.840 13.074565
55.845 13.621807
55.850 13.799094
55.855 14.267905
55.860 14.189819
55.865 13.650466
55.870 13.129412
55.875 12.645351
55.880 13.123126
55.885 13.466987
55.890 13.268072
55.895 13.371798
55.900 13.919446
55.905 13.791468
55.910 13.447976
55.915 12.950112
55.920 12.554028
55.925 11.863697
55.930 11.643441
55.935 11.650899
55.940 11.990221
55.945 12.224051
55.950 12.146362
55.955 12.461907
55.960 12.976956
55.965 13.290149
55.970 13.295505
55.975 13.84742
55.980 13.698409
55.985 13.636085
55.990 13.177232
55.995 12.819963
56.000 12.576234
56.005 12.268543
56.010 12.188378
56.015 12.220726
56.020 12.042902
56.025 12.520336
56.030 12.745584
56.035 12.716807
56.040 12.559857
56.045 12.611277
56.050 12.747477
56.055 12.967809
56.060 12.720708
56.065 13.105784
56.070 13.269897
56.075 13.28968
56.080 13.525268
56.085 13.733048
56.090 13.864449
56.095 13.630803
56.100 13.127871
56.105 13.537889
56.110 13.137591
56.115 12.588141
56.120 12.344851
56.125 12.453047
56.130 12.721005
56.135 12.580381
56.140 13.278984
56.145 13.966237
56.150 13.851154
56.155 13.866293
56.160 13.625022
56.165 13.99794
56.170 14.281758
56.175 13.545047
56.180 13.476333
56.185 13.854777
56.190 13.693409
56.195 13.850116
56.200 13.673625
56.205 13.500037
56.210 13.465058
56.215 13.177311
56.220 13.508566
56.225 14.020908
56.230 14.26015
56.235 14.35694
56.240 14.228103
56.245 14.649402
56.250 14.823997
56.255 14.724257
56.260 14.555366
56.265 14.130473
56.270 13.912693
56.275 13.78525
56.280 13.836091
56.285 14.506733
56.290 14.130011
56.295 14.212801
56.300 14.081846
56.305 14.045497
56.310 14.202297
56.315 13.401152
56.320 12.602516
56.325 12.361979
56.330 12.540893
56.335 13.025111
56.340 13.258984
56.345 13.43751
56.350 13.690645
56.355 14.555007
56.360 14.974937
56.365 15.233144
56.370 14.82598
56.375 14.361606
56.380 13.800535
56.385 13.5815
56.390 13.110225
56.395 12.790766
56.400 12.798399
56.405 12.909709
56.410 13.263775
56.415 13.526403
56.420 13.163318
56.425 12.845233
56.430 12.821327
56.435 12.306321
56.440 12.283444
56.445 12.415796
56.450 12.666926
56.455 12.8884
56.460 13.382726
56.465 13.676168
56.470 14.507939
56.475 14.703651
56.480 14.738159
56.485 14.750008
56.490 15.208199
56.495 15.250124
56.500 14.75484
56.505 13.849029
56.510 13.375822
56.515 13.163569
56.520 13.410453
56.525 13.558345
56.530 13.636056
56.535 13.861725
56.540 14.001356
56.545 14.330874
56.550 14.414472
56.555 13.949466
56.560 13.682931
56.565 13.553629
56.570 13.577889
56.575 13.878694
56.580 13.705567
56.585 13.475942
56.590 13.363229
56.595 13.511364
56.600 13.914875
56.605 14.163857
56.610 13.700866
56.615 13.495509
56.620 13.520674
56.625 13.853146
56.630 13.628325
56.635 12.954356
56.640 12.577308
56.645 13.023201
56.650 13.219377
56.655 13.320517
56.660 13.35716
56.665 13.521109
56.670 13.597215
56.675 13.670779
56.680 14.084082
56.685 14.345133
56.690 14.360049
56.695 14.487303
56.700 14.313512
56.705 14.572344
56.710 15.216978
56.715 15.183706
56.720 15.266235
56.725 14.931626
56.730 14.553429
56.735 15.188771
56.740 15.080067
56.745 15.045538
56.750 14.717402
56.755 15.202272
56.760 15.309178
56.765 15.114655
56.770 14.394184
56.775 14.111116
56.780 13.470181
56.785 13.569942
56.790 13.173572
56.795 13.35575
56.800 13.456493
56.805 13.730182
56.810 13.536257
56.815 13.377734
56.820 13.179092
56.825 13.095914
56.830 13.218603
56.835 13.186434
56.840 12.951203
56.845 13.66408
56.850 13.911399
56.855 13.396179
56.860 13.319598
56.865 13.23462
56.870 13.117587
56.875 13.648811
56.880 12.980518
56.885 12.983217
56.890 13.584778
56.895 13.939257
56.900 14.13435
56.905 14.858113
56.910 14.632674
56.915 14.729788
56.920 14.222855
56.925 13.754425
56.930 13.810718
56.935 13.763777
56.940 13.31213
56.945 13.294847
56.950 13.959512
56.955 14.633217
56.960 14.871159
56.965 14.455648
56.970 14.137218
56.975 13.736017
56.980 13.805058
56.985 13.929052
56.990 14.190646
56.995 13.977633
57.000 14.023879
57.005 14.784177
57.010 14.886052
57.015 14.382494
57.020 13.676325
57.025 13.60128
57.030 13.913003
57.035 13.884568
57.040 13.416694
57.045 13.368423
57.050 13.529731
57.055 13.717999
57.060 13.632114
57.065 13.557087
57.070 13.304959
57.075 13.436255
57.080 13.358728
57.085 13.538074
57.090 13.301823
57.095 13.227218
57.100 13.693749
57.105 13.72304
57.110 13.772214
57.115 13.76464
57.120 13.570036
57.125 14.003264
57.130 14.042764
57.135 13.709173
57.140 14.487712
57.145 14.946472
57.150 15.250977
57.155 15.266663
57.160 15.25068
57.165 15.297004
57.170 15.321321
57.175 15.213813
57.180 15.079768
57.185 14.791451
57.190 14.753955
57.195 14.279707
57.200 13.982971
57.205 14.081896
57.210 14.04777
57.215 13.670643
57.220 13.778953
57.225 13.717198
57.230 13.943559
57.235 14.472964
57.240 14.549205
57.245 14.667127
57.250 14.787445
57.255 15.341904
57.260 15.975028
57.265 16.037716
57.270 15.593246
57.275 15.487835
57.280 14.523166
57.285 14.162022
57.290 13.297158
57.295 12.946227
57.300 12.879949
57.305 12.537765
57.310 12.363279
57.315 13.562119
57.320 14.667612
57.325 15.248528
57.330 15.901651
57.335 16.184645
57.340 16.435747
57.345 16.544769
57.350 16.45269
57.355 15.984885
57.360 15.462305
57.365 14.445129
57.370 14.579051
57.375 14.495658
57.380 14.685898
57.385 14.286849
57.390 14.943681
57.395 15.514498
57.400 15.76219
57.405 15.45457
57.410 15.352736
57.415 14.780355
57.420 15.208026
57.425 14.574321
57.430 14.102539
57.435 14.256749
57.440 14.23738
57.445 14.518531
57.450 14.58849
57.455 14.652553
57.460 15.009416
57.465 15.453572
57.470 15.462064
57.475 15.442316
57.480 15.667138
57.485 15.875057
57.490 15.028746
57.495 14.692353
57.500 14.55937
57.505 14.511634
57.510 14.697402
57.515 14.76459
57.520 14.754506
57.525 14.942693
57.530 15.153132
57.535 15.37205
57.540 15.843407
57.545 15.54265
57.550 15.462654
57.555 16.057127
57.560 16.554712
57.565 17.207636
57.570 17.210409
57.575 17.126442
57.580 17.083046
57.585 17.074554
57.590 16.526466
57.595 16.296368
57.600 16.199463
57.605 15.878108
57.610 16.034748
57.615 16.403406
57.620 16.31514
57.625 16.431992
57.630 15.94862
57.635 15.621724
57.640 16.108988
57.645 15.865973
57.650 15.841959
57.655 16.017582
57.660 16.35787
57.665 16.152678
57.670 15.817206
57.675 15.562608
57.680 15.778399
57.685 15.569137
57.690 15.8672
57.695 15.979095
57.700 16.184422
57.705 16.238918
57.710 16.130337
57.715 16.067173
57.720 16.225082
57.725 15.817441
57.730 15.914833
57.735 16.116713
57.740 16.113159
57.745 16.255871
57.750 16.259062
57.755 15.999258
57.760 15.70376
57.765 15.451808
57.770 15.301912
57.775 15.696761
57.780 15.385072
57.785 15.136842
57.790 15.445304
57.795 15.775902
57.800 15.950233
57.805 16.079674
57.810 15.974542
57.815 16.854725
57.820 16.990349
57.825 16.992931
57.830 16.880671
57.835 16.994514
57.840 17.412828
57.845 17.667019
57.850 17.927586
57.855 18.144243
57.860 18.181709
57.865 18.059755
57.870 18.231621
57.875 17.505415
57.880 16.868885
57.885 15.977448
57.890 15.754772
57.895 15.322346
57.900 14.765217
57.905 14.992898
57.910 15.125688
57.915 15.060798
57.920 15.232695
57.925 14.653392
57.930 14.997378
57.935 15.639936
57.940 15.488179
57.945 15.686728
57.950 16.658817
57.955 17.331856
57.960 17.86154
57.965 17.761284
57.970 17.443998
57.975 17.785707
57.980 17.649792
57.985 17.301571
57.990 17.217478
57.995 17.472923
58.000 18.02397
58.005 17.849102
58.010 17.566494
58.015 17.454033
58.020 17.280245
58.025 16.875902
58.030 17.018143
58.035 17.075598
58.040 17.577957
58.045 18.188509
58.050 18.203407
58.055 18.759216
58.060 18.889679
58.065 18.851501
58.070 18.550049
58.075 17.936218
58.080 16.984621
58.085 16.70369
58.090 16.562586
58.095 17.045851
58.100 17.926195
58.105 18.389532
58.110 18.505157
58.115 18.89896
58.120 19.189499
58.125 19.484591
58.130 19.232061
58.135 18.733225
58.140 18.487326
58.145 18.721132
58.150 18.756502
58.155 18.579075
58.160 18.099096
58.165 17.46096
58.170 17.176188
58.175 17.225407
58.180 17.255373
58.185 17.642715
58.190 17.840118
58.195 17.899145
58.200 18.154861
58.205 17.919924
58.210 17.978745
58.215 18.212564
58.220 18.17515
58.225 17.86887
58.230 17.9673
58.235 18.611536
58.240 18.966928
58.245 18.464302
58.250 17.959084
58.255 17.820665
58.260 18.117468
58.265 17.995829
58.270 17.693365
58.275 17.865713
58.280 18.302553
58.285 18.631392
58.290 18.530834
58.295 17.911064
58.300 18.304974
58.305 19.095993
58.310 19.558008
58.315 19.596659
58.320 19.567631
58.325 20.682135
58.330 21.141079
58.335 20.789276
58.340 20.069437
58.345 19.849981
58.350 20.321333
58.355 20.778795
58.360 20.982407
58.365 21.580177
58.370 21.668751
58.375 22.207712
58.380 22.484194
58.385 22.745083
58.390 22.575842
58.395 22.501221
58.400 22.409552
58.405 22.329172
58.410 22.481703
58.415 22.28771
58.420 22.252653
58.425 22.299486
58.430 22.6462
58.435 23.281908
58.440 23.463209
58.445 23.449192
58.450 23.657972
58.455 24.225132
58.460 24.835747
58.465 25.085205
58.470 25.200808
58.475 25.889845
58.480 26.636024
58.485 27.461231
58.490 27.94202
58.495 28.3297
58.500 28.393518
58.505 28.881794
58.510 29.707127
58.515 30.155254
58.520 31.36087
58.525 32.682869
58.530 33.081394
58.535 33.935787
58.540 34.344555
58.545 34.395172
58.550 35.107372
58.555 35.639095
58.560 35.604584
58.565 35.955227
58.570 36.214149
58.575 37.338768
58.580 37.751007
58.585 37.501572
58.590 37.347866
58.595 37.037529
58.600 37.769753
58.605 37.786667
58.610 37.118946
58.615 37.231174
58.620 37.28054
58.625 37.490303
58.630 38.193005
58.635 38.471764
58.640 38.392006
58.645 38.46257
58.650 38.659325
58.655 39.390221
58.660 39.428387
58.665 39.00386
58.670 37.675354
58.675 37.663452
58.680 37.662743
58.685 37.437263
58.690 36.526176
58.695 36.468044
58.700 36.615215
58.705 36.622292
58.710 36.065041
58.715 36.606777
58.720 36.7281
58.725 36.675587
58.730 36.356083
58.735 36.110355
58.740 36.208424
58.745 37.052902
58.750 36.690155
58.755 36.127392
58.760 36.138393
58.765 35.648354
58.770 35.944996
58.775 35.377087
58.780 34.384903
58.785 33.209736
58.790 32.349842
58.795 32.036701
58.800 31.243893
58.805 30.118513
58.810 30.037653
58.815 29.639475
58.820 29.739948
58.825 30.119225
58.830 29.826406
58.835 29.291372
58.840 29.5079
58.845 29.315327
58.850 28.943304
58.855 28.726337
58.860 27.994724
58.865 27.374393
58.870 27.152092
58.875 26.831903
58.880 27.426132
58.885 27.053467
58.890 26.871077
58.895 26.507963
58.900 26.841526
58.905 26.655237
58.910 26.108665
58.915 24.900803
58.920 23.898891
58.925 22.979874
58.930 22.335806
58.935 22.131371
58.940 21.581177
58.945 21.281292
58.950 21.181704
58.955 21.535854
58.960 21.81357
58.965 21.992432
58.970 21.650558
58.975 21.579044
58.980 21.054625
58.985 21.071598
58.990 20.717081
58.995 20.345839
59.000 19.741014
59.005 19.587856
59.010 19.643232
59.015 20.162745
59.020 20.245872
59.025 20.31831
59.030 20.397522
59.035 20.29933
59.040 20.062393
59.045 19.78614
59.050 18.992699
59.055 18.368114
59.060 18.225315
59.065 18.138088
59.070 18.473471
59.075 18.451115
59.080 18.498396
59.085 18.082314
59.090 18.344191
59.095 18.844803
59.100 18.583275
59.105 18.101616
59.110 17.124556
59.115 16.586153
59.120 16.310261
59.125 16.328232
59.130 16.308584
59.135 16.92049
59.140 17.249311
59.145 17.754147
59.150 18.254171
59.155 18.907345
59.160 18.614277
59.165 18.254639
59.170 17.998091
59.175 18.072401
59.180 17.836096
59.185 17.660496
59.190 17.32373
59.195 17.380625
59.200 17.519588
59.205 17.308857
59.210 17.514597
59.215 17.252357
59.220 17.180964
59.225 17.019045
59.230 16.947123
59.235 16.737503
59.240 16.346802
59.245 15.975356
59.250 15.835093
59.255 15.191477
59.260 15.108571
59.265 15.357504
59.270 15.554399
59.275 16.01263
59.280 16.208443
59.285 16.710861
59.290 17.419434
59.295 17.305544
59.300 17.031776
59.305 16.284224
59.310 15.882231
59.315 15.685516
59.320 15.44185
59.325 15.699622
59.330 15.527987
59.335 15.755099
59.340 16.053864
59.345 16.125221
59.350 16.217003
59.355 16.378872
59.360 16.656652
59.365 16.993246
59.370 16.830889
59.375 16.402559
59.380 16.230921
59.385 16.136389
59.390 16.257977
59.395 15.36217
59.400 15.557635
59.405 15.766968
59.410 16.088558
59.415 16.365318
59.420 16.435005
59.425 15.876509
59.430 15.9864
59.435 15.459013
59.440 15.659908
59.445 15.849081
59.450 15.816526
59.455 15.681649
59.460 15.828305
59.465 15.926102
59.470 16.101284
59.475 15.987327
59.480 16.19602
59.485 15.891507
59.490 15.981072
59.495 16.22327
59.500 15.909013
59.505 15.457482
59.510 15.300085
59.515 14.958307
59.520 15.042266
59.525 14.916284
59.530 14.853827
59.535 15.110795
59.540 15.465899
59.545 15.383894
59.550 15.613603
59.555 15.773714
59.560 16.030954
59.565 16.30551
59.570 16.164402
59.575 16.346598
59.580 16.825983
59.585 17.117424
59.590 17.30168
59.595 17.031765
59.600 16.432796
59.605 16.574989
59.610 16.41581
59.615 15.864461
59.620 15.712193
59.625 16.145384
59.630 16.441761
59.635 16.397678
59.640 16.204809
59.645 16.290905
59.650 16.641954
59.655 16.195509
59.660 15.488684
59.665 15.106127
59.670 15.350064
59.675 15.738492
59.680 15.537718
59.685 15.895221
59.690 16.24299
59.695 16.098265
59.700 16.654493
59.705 16.683958
59.710 16.289711
59.715 16.119604
59.720 15.644663
59.725 15.686255
59.730 15.778212
59.735 15.178463
59.740 15.182992
59.745 15.632983
59.750 16.194908
59.755 16.330666
59.760 16.268206
59.765 16.463352
59.770 16.514755
59.775 16.189907
59.780 15.901855
59.785 15.260548
59.790 14.790629
59.795 14.607286
59.800 14.6202
59.805 14.525379
59.810 14.496086
59.815 14.662676
59.820 15.02705
59.825 15.599037
59.830 15.211265
59.835 14.908205
59.840 14.960163
59.845 15.396979
59.850 15.239229
59.855 15.025379
59.860 14.807625
59.865 14.933071
59.870 14.764317
59.875 14.664669
59.880 14.040714
59.885 14.170535
59.890 14.234468
59.895 14.578619
59.900 15.600448
59.905 16.100367
59.910 17.031841
59.915 16.923491
59.920 17.168976
59.925 17.00835
59.930 16.675747
59.935 15.866046
59.940 15.691731
59.945 15.160891
59.950 15.406487
59.955 15.042529
59.960 15.246728
59.965 14.995407
59.970 15.148585
59.975 14.908635
59.980 15.146154
59.985 15.16293
59.990 15.280563
59.995 15.192682
60.000 15.45962
60.005 15.880936
60.010 16.116852
60.015 15.710407
60.020 15.645909
60.025 15.531263
60.030 15.365151
60.035 15.353967
60.040 15.351421
60.045 15.353535
60.050 16.169552
60.055 16.531223
60.060 16.573444
60.065 16.792425
60.070 16.776253
60.075 17.075529
60.080 17.132214
60.085 17.521292
60.090 17.388889
60.095 17.226212
60.100 17.256256
60.105 17.12888
60.110 16.76512
60.115 16.813684
60.120 16.58046
60.125 16.778025
60.130 16.659258
60.135 16.690493
60.140 16.760174
60.145 17.08848
60.150 16.532671
60.155 15.566236
60.160 15.409973
60.165 15.379288
60.170 14.563512
60.175 13.933392
60.180 13.857082
60.185 14.938135
60.190 15.615615
60.195 15.518011
60.200 16.131573
60.205 16.751589
60.210 16.928053
60.215 16.819099
60.220 16.176697
60.225 16.225317
60.230 16.631447
60.235 16.281544
60.240 16.104548
60.245 16.232897
60.250 15.998442
60.255 15.396831
60.260 14.662717
60.265 14.356049
60.270 14.379126
60.275 14.503543
60.280 14.636869
60.285 14.4962
60.290 14.963252
60.295 15.479166
60.300 15.920878
60.305 16.288857
60.310 16.478939
60.315 16.517973
60.320 16.696318
60.325 17.118271
60.330 17.443399
60.335 17.381725
60.340 17.200722
60.345 17.282169
60.350 16.758118
60.355 16.646471
60.360 16.395512
60.365 16.066916
60.370 15.690171
60.375 15.521421
60.380 15.320309
60.385 15.282579
60.390 15.765454
60.395 15.572742
60.400 16.243767
60.405 16.74872
60.410 16.879639
60.415 17.239616
60.420 18.136011
60.425 17.726645
60.430 17.566456
60.435 16.755737
60.440 16.404472
60.445 16.453695
60.450 16.719099
60.455 15.920331
60.460 15.831579
60.465 15.732512
60.470 15.513486
60.475 15.515662
60.480 15.380404
60.485 14.697922
60.490 15.093085
60.495 15.285192
60.500 15.373012
60.505 15.971469
60.510 16.066309
60.515 15.885188
60.520 16.240934
60.525 15.882209
60.530 16.312912
60.535 16.203627
60.540 16.375685
60.545 16.408964
60.550 16.81484
60.555 16.8596
60.560 16.803921
60.565 16.717787
60.570 16.669519
60.575 16.745066
60.580 16.786291
60.585 16.850517
60.590 17.418228
60.595 18.187939
60.600 17.911316
60.605 18.146942
60.610 17.877726
60.615 17.814547
60.620 18.035116
60.625 17.673529
60.630 17.003944
60.635 16.771427
60.640 16.406294
60.645 16.44273
60.650 16.093422
60.655 15.59578
60.660 15.772067
60.665 15.997907
60.670 16.238869
60.675 16.764893
60.680 17.071432
60.685 17.307274
60.690 17.356667
60.695 17.329971
60.700 17.812132
60.705 18.513357
60.710 18.395884
60.715 18.460928
60.720 18.758169
60.725 18.688568
60.730 18.478676
60.735 18.253466
60.740 17.849541
60.745 18.147961
60.750 17.528893
60.755 17.523241
60.760 17.8354
60.765 18.084656
60.770 17.929401
60.775 17.74964
60.780 17.385305
60.785 17.569252
60.790 17.014236
60.795 17.138044
60.800 17.195112
60.805 17.417343
60.810 17.278625
60.815 17.541033
60.820 17.891575
60.825 18.27713
60.830 17.653271
60.835 17.298296
60.840 16.87224
60.845 16.65542
60.850 16.363747
60.855 16.030807
60.860 15.97133
60.865 16.037716
60.870 16.104643
60.875 16.286886
60.880 16.385248
60.885 16.142694
60.890 16.185844
60.895 16.149282
60.900 15.989654
60.905 16.405798
60.910 16.694517
60.915 16.48777
60.920 16.377972
60.925 16.37541
60.930 16.330336
60.935 16.209841
60.940 16.16741
60.945 15.826325
60.950 16.552595
60.955 16.497049
60.960 15.977953
60.965 15.53383
60.970 15.520362
60.975 15.547573
60.980 15.544178
60.985 16.039516
60.990 16.611866
60.995 16.600695
61.000 17.034864
61.005 16.883873
61.010 16.639925
61.015 16.566833
61.020 16.104033
61.025 15.767194
61.030 15.941266
61.035 15.690416
61.040 16.137007
61.045 16.489613
61.050 16.728458
61.055 16.818411
61.060 17.104605
61.065 17.552023
61.070 17.221918
61.075 16.612812
61.080 16.2239
61.085 15.801538
61.090 15.349749
61.095 15.219461
61.100 15.320414
61.105 15.442637
61.110 15.629376
61.115 15.744426
61.120 16.064497
61.125 15.875813
61.130 15.796481
61.135 15.648255
61.140 15.780088
61.145 16.064295
61.150 16.033039
61.155 15.70049
61.160 15.762692
61.165 15.803249
61.170 15.981094
61.175 16.087952
61.180 16.349195
61.185 16.387585
61.190 16.322485
61.195 16.634293
61.200 16.699598
61.205 16.584053
61.210 16.302641
61.215 16.04146
61.220 16.436972
61.225 16.680693
61.230 16.892662
61.235 16.85486
61.240 17.069872
61.245 17.410128
61.250 17.314795
61.255 17.182533
61.260 17.502716
61.265 17.385963
61.270 17.667709
61.275 17.587391
61.280 17.91737
61.285 17.894865
61.290 17.870499
61.295 18.137087
61.300 17.917732
61.305 17.275751
61.310 17.406046
61.315 17.291817
61.320 17.572651
61.325 17.515022
61.330 16.799236
61.335 16.588274
61.340 17.085333
61.345 17.073868
61.350 17.017321
61.355 16.676188
61.360 16.692631
61.365 16.95573
61.370 17.196583
61.375 17.089397
61.380 16.704084
61.385 15.998949
61.390 15.998129
61.395 15.91448
61.400 15.932502
61.405 16.024143
61.410 16.192095
61.415 16.599745
61.420 16.874086
61.425 16.736322
61.430 16.2721
61.435 15.76339
61.440 15.474634
61.445 15.683959
61.450 15.698441
61.455 15.944102
61.460 16.104939
61.465 16.569237
61.470 17.221584
61.475 17.310112
61.480 16.384983
61.485 16.176767
61.490 16.278387
61.495 16.233532
61.500 16.05229
61.505 15.519043
61.510 15.510834
61.515 16.068653
61.520 15.990315
61.525 15.650984
61.530 15.218247
61.535 14.937097
61.540 14.931585
61.545 14.873001
61.550 14.319593
61.555 14.431883
61.560 14.904988
61.565 15.632538
61.570 15.870534
61.575 16.143703
61.580 16.24794
61.585 16.523949
61.590 16.301668
61.595 15.764925
61.600 15.399125
61.605 15.389009
61.610 15.506779
61.615 15.986839
61.620 16.594116
61.625 17.018263
61.630 16.842539
61.635 16.621201
61.640 16.917337
61.645 16.481224
61.650 15.832541
61.655 15.227673
61.660 15.091063
61.665 15.159796
61.670 15.448611
61.675 15.774682
61.680 16.173153
61.685 16.233122
61.690 16.173466
61.695 16.552576
61.700 17.474176
61.705 17.160305
61.710 16.624928
61.715 16.181253
61.720 16.470861
61.725 16.834127
61.730 16.468906
61.735 16.008417
61.740 16.461681
61.745 17.055803
61.750 17.397022
61.755 17.259775
61.760 17.192762
61.765 17.378956
61.770 17.50148
61.775 17.707376
61.780 17.563963
61.785 17.19006
61.790 17.575674
61.795 17.829899
61.800 17.331669
61.805 17.008345
61.810 16.838264
61.815 16.550022
61.820 17.088024
61.825 16.915052
61.830 17.005215
61.835 17.504711
61.840 17.528643
61.845 17.456659
61.850 17.487324
61.855 17.479921
61.860 18.05381
61.865 18.219604
61.870 18.299871
61.875 18.833124
61.880 19.090923
61.885 19.731901
61.890 20.121504
61.895 19.119576
61.900 18.294573
61.905 17.861506
61.910 17.647572
61.915 17.041054
61.920 16.086113
61.925 14.996131
61.930 15.081662
61.935 15.670677
61.940 16.479065
61.945 16.074062
61.950 16.043262
61.955 16.036018
61.960 16.040155
61.965 15.591663
61.970 14.9849
61.975 14.552115
61.980 14.745262
61.985 15.194629
61.990 15.340399
61.995 15.843287
62.000 16.775841
62.005 16.935097
62.010 16.9471
62.015 17.199303
62.020 17.525928
62.025 17.799959
62.030 16.91729
62.035 16.393068
62.040 16.595686
62.045 16.554722
62.050 16.241911
62.055 16.211805
62.060 16.844198
62.065 17.7369
62.070 17.619795
62.075 17.669044
62.080 17.77206
62.085 17.940243
62.090 17.610741
62.095 16.931952
62.100 16.431704
62.105 16.070744
62.110 15.35054
62.115 15.574614
62.120 15.487418
62.125 15.272018
62.130 15.535612
62.135 16.156334
62.140 16.750988
62.145 16.961502
62.150 16.751732
62.155 16.577168
62.160 16.989901
62.165 17.758787
62.170 17.745108
62.175 17.795734
62.180 18.058361
62.185 18.371523
62.190 18.235697
62.195 17.283768
62.200 16.609608
62.205 16.211252
62.210 16.181177
62.215 15.882118
62.220 15.977467
62.225 16.478706
62.230 17.581955
62.235 17.706758
62.240 17.947136
62.245 17.961809
62.250 17.703686
62.255 17.01462
62.260 16.800455
62.265 16.384329
62.270 15.878639
62.275 15.05471
62.280 14.363922
62.285 15.255858
62.290 15.520064
62.295 15.95487
62.300 15.298625
62.305 15.155454
62.310 15.769796
62.315 16.168814
62.320 15.867166
62.325 15.819778
62.330 16.07884
62.335 16.827038
62.340 17.576969
62.345 18.183109
62.350 18.248215
62.355 17.830183
62.360 18.502495
62.365 18.213299
62.370 18.043697
62.375 17.561361
62.380 16.774017
62.385 17.085835
62.390 17.337553
62.395 16.74996
62.400 16.651775
62.405 16.545343
62.410 16.860073
62.415 17.568121
62.420 17.125111
62.425 17.309515
62.430 17.171255
62.435 16.674461
62.440 16.578495
62.445 16.514332
62.450 16.356356
62.455 16.833195
62.460 16.956129
62.465 17.437748
62.470 17.950474
62.475 17.811665
62.480 18.105919
62.485 17.603422
62.490 17.475128
62.495 17.690113
62.500 17.405428
62.505 17.156403
62.510 17.57057
62.515 17.424982
62.520 18.219114
62.525 18.063974
62.530 17.411304
62.535 17.749865
62.540 18.223225
62.545 18.416758
62.550 18.687506
62.555 18.532467
62.560 18.952629
62.565 19.097441
62.570 18.483025
62.575 18.087648
62.580 17.918753
62.585 17.309675
62.590 17.241993
62.595 17.027277
62.600 16.745911
62.605 16.935595
62.610 17.042986
62.615 16.611956
62.620 16.832733
62.625 16.416622
62.630 15.966695
62.635 16.494263
62.640 16.693445
62.645 16.736052
62.650 16.912142
62.655 17.293325
62.660 17.973446
62.665 18.066404
62.670 18.297279
62.675 18.694359
62.680 18.504633
62.685 18.380323
62.690 18.382465
62.695 18.091141
62.700 18.18339
62.705 17.916069
62.710 17.650352
62.715 17.628475
62.720 17.870337
62.725 17.784096
62.730 17.952242
62.735 18.273989
62.740 18.018917
62.745 17.658474
62.750 17.734531
62.755 18.004723
62.760 18.03484
62.765 18.084164
62.770 17.529339
62.775 17.787615
62.780 17.748529
62.785 17.806787
62.790 17.666197
62.795 17.364653
62.800 17.4785
62.805 17.740976
62.810 17.72724
62.815 17.868168
62.820 17.633514
62.825 17.435537
62.830 17.57214
62.835 17.474939
62.840 17.32542
62.845 16.965405
62.850 16.765778
62.855 17.336802
62.860 17.567232
62.865 17.127962
62.870 16.569256
62.875 16.297325
62.880 16.213112
62.885 16.646492
62.890 16.458164
62.895 16.108313
62.900 16.125166
62.905 16.675043
62.910 16.84396
62.915 17.111605
62.920 16.885637
62.925 16.739449
62.930 16.991589
62.935 17.480951
62.940 18.037466
62.945 18.811939
62.950 18.742891
62.955 18.802279
62.960 18.868576
62.965 19.391838
62.970 19.321514
62.975 19.161676
62.980 18.428102
62.985 18.595343
62.990 18.754671
62.995 18.574976
63.000 18.053324
63.005 17.535923
63.010 18.33532
63.015 18.140713
63.020 17.873726
63.025 17.220112
63.030 16.885042
63.035 17.107704
63.040 17.203501
63.045 15.929674
63.050 16.693598
63.055 16.979218
63.060 17.331118
63.065 18.147621
63.070 17.895838
63.075 18.243652
63.080 18.584272
63.085 18.058636
63.090 17.758789
63.095 17.675085
63.100 17.03072
63.105 16.422916
63.110 15.976107
63.115 15.997253
63.120 15.90569
63.125 16.291079
63.130 16.79048
63.135 17.224142
63.140 17.850229
63.145 18.033966
63.150 17.896511
63.155 17.982599
63.160 17.885977
63.165 17.608925
63.170 17.244495
63.175 17.860229
63.180 17.656782
63.185 17.64023
63.190 17.701101
63.195 17.132153
63.200 17.091133
63.205 17.167608
63.210 17.065319
63.215 17.041702
63.220 17.228903
63.225 17.674534
63.230 18.325493
63.235 18.836327
63.240 19.162409
63.245 18.797403
63.250 19.235762
63.255 18.845991
63.260 18.221958
63.265 17.501013
63.270 16.488302
63.275 16.383623
63.280 16.517424
63.285 16.599808
63.290 16.648136
63.295 17.382729
63.300 18.143595
63.305 18.69311
63.310 18.916695
63.315 18.952883
63.320 18.908718
63.325 19.040886
63.330 18.798201
63.335 18.653976
63.340 18.589771
63.345 18.082773
63.350 17.954807
63.355 18.281816
63.360 19.07041
63.365 19.111773
63.370 19.464857
63.375 19.562918
63.380 19.475311
63.385 19.517447
63.390 19.062
63.395 18.650152
63.400 18.776951
63.405 18.635134
63.410 18.585081
63.415 18.394157
63.420 17.836985
63.425 17.594629
63.430 16.934862
63.435 16.794058
63.440 16.506819
63.445 16.604013
63.450 16.64765
63.455 16.698177
63.460 16.83168
63.465 17.005552
63.470 16.17256
63.475 15.961361
63.480 16.061121
63.485 16.740501
63.490 17.337959
63.495 17.691422
63.500 17.752171
63.505 18.686306
63.510 18.992098
63.515 19.195232
63.520 18.926317
63.525 18.869637
63.530 19.097042
63.535 19.596796
63.540 19.578259
63.545 19.480125
63.550 18.827795
63.555 18.370802
63.560 18.441832
63.565 17.902552
63.570 17.766882
63.575 17.49469
63.580 17.752655
63.585 18.129782
63.590 18.532381
63.595 18.313168
63.600 18.329262
63.605 18.015003
63.610 17.768265
63.615 17.487785
63.620 17.903904
63.625 17.711365
63.630 17.779821
63.635 18.176559
63.640 18.794243
63.645 19.473412
63.650 19.852749
63.655 20.25149
63.660 20.907978
63.665 21.964272
63.670 22.04619
63.675 21.921507
63.680 22.066933
63.685 22.261482
63.690 21.566702
63.695 20.661983
63.700 19.535585
63.705 19.52659
63.710 19.451704
63.715 18.914263
63.720 18.535637
63.725 18.753323
63.730 18.686302
63.735 18.607605
63.740 18.656128
63.745 18.411213
63.750 18.431135
63.755 18.084141
63.760 18.00519
63.765 18.549509
63.770 18.371367
63.775 18.169443
63.780 18.351652
63.785 17.912399
63.790 17.984264
63.795 18.260195
63.800 17.953695
63.805 18.610054
63.810 18.494425
63.815 18.588196
63.820 18.84024
63.825 18.496244
63.830 18.235069
63.835 18.417213
63.840 18.091911
63.845 18.632261
63.850 18.64171
63.855 18.944723
63.860 19.399092
63.865 19.756102
63.870 20.487919
63.875 20.673456
63.880 20.678215
63.885 21.215664
63.890 21.240677
63.895 20.771534
63.900 20.460804
63.905 20.369843
63.910 20.708939
63.915 20.437576
63.920 20.007479
63.925 19.987349
63.930 20.262999
63.935 19.821594
63.940 19.19179
63.945 18.93646
63.950 18.860638
63.955 18.845276
63.960 18.997711
63.965 19.323778
63.970 19.93648
63.975 19.825254
63.980 19.69986
63.985 19.297962
63.990 19.314749
63.995 19.681866
64.000 20.228086
64.005 20.84506
64.010 21.241102
64.015 21.761198
64.020 22.246132
64.025 22.858944
64.030 23.037989
64.035 23.127258
64.040 22.995302
64.045 23.301706
64.050 23.851227
64.055 24.738699
64.060 25.055796
64.065 25.239853
64.070 25.003803
64.075 25.021847
64.080 25.623919
64.085 26.176464
64.090 26.747871
64.095 26.101681
64.100 25.38423
64.105 25.58539
64.110 25.706223
64.115 25.684536
64.120 25.849268
64.125 24.902353
64.130 24.973892
64.135 25.925495
64.140 25.791807
64.145 25.934324
64.150 25.660666
64.155 25.985495
64.160 26.897066
64.165 27.425558
64.170 28.211044
64.175 28.478989
64.180 28.561502
64.185 29.122782
64.190 29.180124
64.195 30.168468
64.200 30.871048
64.205 31.268555
64.210 32.716148
64.215 34.02869
64.220 34.408649
64.225 35.103527
64.230 35.151714
64.235 35.311695
64.240 35.336334
64.245 35.719357
64.250 36.52953
64.255 37.98135
64.260 39.082695
64.265 39.763477
64.270 40.608528
64.275 41.016228
64.280 40.713963
64.285 40.147945
64.290 40.786255
64.295 40.769314
64.300 41.850506
64.305 42.430183
64.310 43.10791
64.315 43.600185
64.320 44.465111
64.325 44.7314
64.330 45.093914
64.335 44.502495
64.340 43.934238
64.345 44.67057
64.350 44.916615
64.355 45.19669
64.360 45.712132
64.365 46.551479
64.370 48.0387
64.375 48.902367
64.380 49.527977
64.385 49.972923
64.390 49.980053
64.395 50.133549
64.400 50.561752
64.405 50.927284
64.410 51.95314
64.415 51.961262
64.420 52.079483
64.425 52.024963
64.430 51.439739
64.435 50.715282
64.440 51.199684
64.445 51.11824
64.450 51.333202
64.455 51.319904
64.460 51.473331
64.465 52.037872
64.470 52.328362
64.475 50.935032
64.480 50.043034
64.485 49.005665
64.490 49.111904
64.495 49.480648
64.500 48.517559
64.505 47.727489
64.510 47.906342
64.515 47.609924
64.520 47.556118
64.525 47.001408
64.530 45.944111
64.535 45.756634
64.540 45.649666
64.545 44.758446
64.550 43.895714
64.555 43.200699
64.560 42.43689
64.565 42.444424
64.570 42.471046
64.575 41.500626
64.580 41.32933
64.585 41.345112
64.590 41.166401
64.595 40.85862
64.600 39.391014
64.605 37.72076
64.610 36.698174
64.615 35.973637
64.620 35.705902
64.625 35.381832
64.630 36.009762
64.635 35.527973
64.640 35.305676
64.645 35.654266
64.650 35.387394
64.655 34.766937
64.660 34.099648
64.665 33.363251
64.670 33.169147
64.675 32.795338
64.680 32.411465
64.685 31.800114
64.690 30.815466
64.695 29.874245
64.700 29.557636
64.705 29.387857
64.710 28.907299
64.715 28.65247
64.720 28.109879
64.725 28.347946
64.730 28.209723
64.735 27.072372
64.740 26.933065
64.745 26.434267
64.750 26.534653
64.755 27.032635
64.760 26.622673
64.765 26.731356
64.770 27.479355
64.775 27.633514
64.780 27.146149
64.785 26.668133
64.790 26.654209
64.795 26.689335
64.800 26.446571
64.805 26.109385
64.810 25.813814
64.815 25.964287
64.820 25.299917
64.825 24.599575
64.830 24.553802
64.835 24.840988
64.840 25.200842
64.845 25.087601
64.850 24.565584
64.855 24.573799
64.860 24.705357
64.865 24.895544
64.870 24.161362
64.875 23.40942
64.880 23.040308
64.885 22.92445
64.890 22.870886
64.895 22.921083
64.900 22.897453
64.905 23.242678
64.910 22.984104
64.915 22.915281
64.920 23.520042
64.925 23.383236
64.930 23.225706
64.935 23.272823
64.940 23.44948
64.945 23.968691
64.950 24.181379
64.955 24.047438
64.960 24.528315
64.965 24.245535
64.970 24.422457
64.975 24.893309
64.980 25.9102
64.985 27.124933
64.990 27.503994
64.995 27.87719
65.000 29.071804
65.005 28.639797
65.010 28.094355
65.015 27.658792
65.020 28.5233
65.025 29.273455
65.030 28.936861
65.035 28.538139
65.040 28.923069
65.045 29.027662
65.050 29.130184
65.055 28.117308
65.060 28.706738
65.065 29.605474
65.070 29.825699
65.075 30.667284
65.080 31.283611
65.085 31.950272
65.090 32.461823
65.095 33.050251
65.100 33.375679
65.105 33.710361
65.110 33.617496
65.115 33.708626
65.120 33.521652
65.125 33.013016
65.130 32.673084
65.135 32.86581
65.140 32.960678
65.145 33.691315
65.150 34.094982
65.155 33.909176
65.160 34.599934
65.165 35.322853
65.170 35.670036
65.175 36.857964
65.180 37.021011
65.185 36.856865
65.190 37.096355
65.195 37.227654
65.200 37.710579
65.205 38.088501
65.210 37.570885
65.215 37.391502
65.220 37.375755
65.225 37.818943
65.230 37.373135
65.235 36.7295
65.240 36.365425
65.245 36.461086
65.250 36.967182
65.255 37.219181
65.260 37.293976
65.265 37.706474
65.270 37.777794
65.275 38.46505
65.280 39.044037
65.285 39.339954
65.290 39.429897
65.295 39.616085
65.300 39.940929
65.305 39.561642
65.310 39.159634
65.315 38.007095
65.320 37.104088
65.325 37.256153
65.330 37.220505
65.335 37.291473
65.340 37.718098
65.345 37.824085
65.350 38.744324
65.355 39.219341
65.360 39.248432
65.365 38.590614
65.370 38.679283
65.375 38.638233
65.380 38.458382
65.385 39.161964
65.390 38.940487
65.395 39.244961
65.400 40.032433
65.405 40.216347
65.410 40.338913
65.415 40.615467
65.420 40.535698
65.425 41.219128
65.430 40.66354
65.435 40.118523
65.440 40.423782
65.445 40.255039
65.450 39.201946
65.455 38.226681
65.460 38.107948
65.465 38.836296
65.470 38.597771
65.475 37.804749
65.480 38.631493
65.485 39.406136
65.490 39.996922
65.495 39.397762
65.500 39.321541
65.505 39.939621
65.510 39.82111
65.515 40.05838
65.520 40.667442
65.525 40.49807
65.530 40.90377
65.535 40.807426
65.540 41.099438
65.545 40.896683
65.550 39.718369
65.555 38.91217
65.560 39.359386
65.565 39.021111
65.570 38.619629
65.575 38.701534
65.580 39.042271
65.585 39.640114
65.590 39.958191
65.595 39.332039
65.600 39.672974
65.605 39.931557
65.610 39.835789
65.615 39.436779
65.620 39.476875
65.625 39.351681
65.630 39.659725
65.635 39.316402
65.640 38.682575
65.645 37.982792
65.650 38.308727
65.655 38.162666
65.660 38.578873
65.665 39.440613
65.670 39.300808
65.675 39.046547
65.680 38.878605
65.685 38.670483
65.690 38.999634
65.695 38.128395
65.700 37.29454
65.705 37.725349
65.710 38.089893
65.715 38.234524
65.720 38.308243
65.725 38.146339
65.730 37.579567
65.735 36.463779
65.740 36.306255
65.745 36.703781
65.750 36.349411
65.755 35.46172
65.760 35.219727
65.765 35.233086
65.770 35.585854
65.775 35.105053
65.780 34.59985
65.785 34.154224
65.790 34.420223
65.795 34.013027
65.800 33.904575
65.805 33.310768
65.810 32.930843
65.815 33.069256
65.820 33.847393
65.825 33.591007
65.830 34.046528
65.835 34.324516
65.840 34.62331
65.845 34.309341
65.850 34.056324
65.855 33.134148
65.860 32.407837
65.865 31.988075
65.870 32.180477
65.875 32.696983
65.880 32.62764
65.885 31.656658
65.890 30.810564
65.895 30.647453
65.900 30.039402
65.905 29.260752
65.910 28.230249
65.915 28.279955
65.920 28.524626
65.925 28.87129
65.930 27.706804
65.935 26.893103
65.940 26.25666
65.945 25.862392
65.950 25.235914
65.955 24.465136
65.960 23.292463
65.965 23.430086
65.970 23.790668
65.975 24.327185
65.980 25.026917
65.985 25.291523
65.990 25.477787
65.995 25.610891
66.000 25.769892
66.005 25.678879
66.010 24.874428
66.015 24.009214
66.020 23.31605
66.025 23.26973
66.030 23.333969
66.035 23.401014
66.040 23.439047
66.045 23.688648
66.050 24.454958
66.055 25.06156
66.060 24.682262
66.065 24.191425
66.070 23.667309
66.075 23.426352
66.080 23.558292
66.085 22.876278
66.090 22.630379
66.095 22.329367
66.100 22.666525
66.105 22.354889
66.110 21.551222
66.115 21.501608
66.120 21.57593
66.125 21.200911
66.130 21.329487
66.135 20.641453
66.140 20.419243
66.145 20.161076
66.150 19.198776
66.155 18.842638
66.160 19.604801
66.165 19.518929
66.170 19.235914
66.175 19.328354
66.180 19.73889
66.185 20.260477
66.190 20.280766
66.195 19.79739
66.200 20.11644
66.205 19.843328
66.210 20.095329
66.215 20.166092
66.220 20.372164
66.225 20.658155
66.230 20.450146
66.235 19.870434
66.240 20.150574
66.245 19.465334
66.250 18.90144
66.255 18.608219
66.260 18.774199
66.265 18.791174
66.270 19.008503
66.275 19.012596
66.280 19.42009
66.285 19.339043
66.290 18.704634
66.295 18.132095
66.300 18.196848
66.305 18.225111
66.310 18.493969
66.315 18.490553
66.320 18.50758
66.325 18.962437
66.330 19.375467
66.335 19.43663
66.340 19.526001
66.345 19.637262
66.350 19.37834
66.355 19.876114
66.360 20.546053
66.365 20.740412
66.370 20.845976
66.375 20.801514
66.380 20.818682
66.385 20.858877
66.390 20.455667
66.395 19.529572
66.400 19.653749
66.405 19.676529
66.410 19.600872
66.415 19.322548
66.420 19.073181
66.425 18.89389
66.430 18.221153
66.435 17.517948
66.440 17.119944
66.445 17.021294
66.450 17.299009
66.455 17.763191
66.460 18.186905
66.465 19.009674
66.470 19.833899
66.475 20.12413
66.480 19.919928
66.485 19.583662
66.490 19.333197
66.495 19.118855
66.500 18.660349
66.505 18.031809
66.510 18.687073
66.515 19.171165
66.520 19.279463
66.525 19.113455
66.530 19.242296
66.535 19.618071
66.540 19.555361
66.545 19.010483
66.550 18.802
66.555 19.460953
66.560 19.698217
66.565 19.329027
66.570 18.991318
66.575 18.575912
66.580 18.793365
66.585 18.585228
66.590 17.98267
66.595 17.906593
66.600 18.327534
66.605 18.541384
66.610 18.791492
66.615 18.301321
66.620 19.24651
66.625 19.076551
66.630 18.913799
66.635 18.22184
66.640 17.850344
66.645 17.8752
66.650 17.679644
66.655 16.816158
66.660 17.071472
66.665 17.13101
66.670 17.47703
66.675 17.636633
66.680 17.394497
66.685 17.221495
66.690 17.474968
66.695 16.953821
66.700 16.69775
66.705 16.7854
66.710 17.189009
66.715 17.145468
66.720 17.460703
66.725 17.562706
66.730 18.500731
66.735 18.991524
66.740 19.07461
66.745 19.013554
66.750 19.266552
66.755 19.322586
66.760 19.370121
66.765 18.763914
66.770 18.587753
66.775 18.745264
66.780 18.889997
66.785 18.952328
66.790 19.231173
66.795 19.838985
66.800 20.217449
66.805 20.332504
66.810 19.860552
66.815 19.781019
66.820 20.13122
66.825 19.517687
66.830 18.629938
66.835 18.708765
66.840 18.753408
66.845 18.935738
66.850 18.921457
66.855 18.732967
66.860 19.110086
66.865 19.027216
66.870 18.536661
66.875 18.414721
66.880 17.906639
66.885 17.84403
66.890 17.37343
66.895 17.468519
66.900 18.030695
66.905 18.650669
66.910 18.907236
66.915 19.303879
66.920 19.770098
66.925 19.933498
66.930 20.083525
66.935 20.749599
66.940 20.883867
66.945 20.75058
66.950 20.441462
66.955 19.853363
66.960 19.777071
66.965 19.331577
66.970 18.507271
66.975 17.502567
66.980 17.853003
66.985 18.149017
66.990 18.126219
66.995 18.49579
67.000 18.022249
67.005 18.315233
67.010 18.996552
67.015 18.77914
67.020 18.77977
67.025 18.786057
67.030 18.360554
67.035 18.340954
67.040 17.867191
67.045 18.047855
67.050 18.067024
67.055 18.63978
67.060 18.572044
67.065 19.051809
67.070 19.944279
67.075 19.87919
67.080 19.71113
67.085 19.243423
67.090 18.927771
67.095 19.431543
67.100 19.035147
67.105 18.510624
67.110 18.703157
67.115 19.116554
67.120 19.473652
67.125 19.287151
67.130 19.379551
67.135 19.102619
67.140 19.034771
67.145 19.35911
67.150 19.22567
67.155 19.581881
67.160 19.701986
67.165 19.344078
67.170 19.847092
67.175 19.696692
67.180 19.426069
67.185 18.686346
67.190 18.133827
67.195 18.296843
67.200 18.276569
67.205 18.245064
67.210 18.024202
67.215 17.789822
67.220 18.366936
67.225 18.311773
67.230 18.160393
67.235 18.249758
67.240 18.275846
67.245 18.472118
67.250 18.255831
67.255 18.430862
67.260 18.499168
67.265 18.247532
67.270 18.057343
67.275 18.509443
67.280 18.521885
67.285 18.823275
67.290 18.373047
67.295 18.419422
67.300 18.599691
67.305 18.291882
67.310 17.667099
67.315 17.780567
67.320 17.40321
67.325 17.668497
67.330 17.781601
67.335 18.384268
67.340 18.876768
67.345 19.775229
67.350 20.201385
67.355 21.151299
67.360 21.268301
67.365 20.985672
67.370 20.564981
67.375 20.281824
67.380 19.74328
67.385 20.188969
67.390 19.087034
67.395 18.594431
67.400 18.177565
67.405 18.378292
67.410 18.412405
67.415 17.775213
67.420 17.486908
67.425 18.042952
67.430 18.446407
67.435 18.885948
67.440 18.714548
67.445 18.790501
67.450 19.535898
67.455 18.852074
67.460 18.515026
67.465 18.786648
67.470 18.989149
67.475 18.632336
67.480 18.489384
67.485 18.044096
67.490 18.747253
67.495 19.358362
67.500 19.217798
67.505 18.793545
67.510 18.754936
67.515 18.767746
67.520 18.107658
67.525 17.902288
67.530 17.702871
67.535 17.867847
67.540 18.357025
67.545 18.799452
67.550 19.558844
67.555 20.086073
67.560 19.735847
67.565 18.869789
67.570 18.584272
67.575 18.544958
67.580 18.58433
67.585 18.241673
67.590 18.798439
67.595 19.821552
67.600 20.094662
67.605 20.028
67.610 20.475586
67.615 20.548189
67.620 20.635553
67.625 20.629915
67.630 20.380392
67.635 20.438408
67.640 19.918774
67.645 19.42725
67.650 19.462696
67.655 19.111206
67.660 18.666679
67.665 18.556837
67.670 18.44454
67.675 18.62228
67.680 18.281151
67.685 18.119349
67.690 18.25979
67.695 18.16
67.700 18.114124
67.705 18.311249
67.710 18.671394
67.715 19.199471
67.720 18.523218
67.725 18.00507
67.730 17.993902
67.735 18.398954
67.740 18.454433
67.745 18.314487
67.750 18.443165
67.755 19.335417
67.760 20.127783
67.765 20.007412
67.770 20.121561
67.775 20.001884
67.780 19.659794
67.785 18.597326
67.790 17.811493
67.795 17.513527
67.800 17.428291
67.805 17.126738
67.810 17.095104
67.815 17.051975
67.820 17.426682
67.825 17.64595
67.830 18.133116
67.835 18.657719
67.840 18.24897
67.845 18.324533
67.850 18.50605
67.855 18.941423
67.860 19.215151
67.865 18.760241
67.870 18.369171
67.875 18.390533
67.880 18.494516
67.885 18.561319
67.890 18.316273
67.895 18.139885
67.900 18.337959
67.905 18.753256
67.910 18.919649
67.915 18.631752
67.920 18.583162
67.925 19.133648
67.930 18.788343
67.935 18.779388
67.940 18.522331
67.945 18.485193
67.950 18.597263
67.955 17.934414
67.960 17.825342
67.965 18.189161
67.970 17.643383
67.975 17.765131
67.980 17.85343
67.985 18.239702
67.990 18.897295
67.995 18.62043
68.000 18.3248
68.005 18.306662
68.010 18.127192
68.015 18.155569
68.020 17.817453
68.025 18.138006
68.030 18.437521
68.035 18.35655
68.040 17.9888
68.045 17.50927
68.050 17.627367
68.055 18.024931
68.060 17.905445
68.065 18.152565
68.070 18.628902
68.075 18.973555
68.080 19.68539
68.085 19.875441
68.090 20.155758
68.095 20.235783
68.100 20.00354
68.105 20.479649
68.110 21.100573
68.115 21.069937
68.120 21.786491
68.125 21.601927
68.130 21.862167
68.135 22.422993
68.140 22.357279
68.145 21.988865
68.150 22.339596
68.155 21.428158
68.160 21.065775
68.165 21.05151
68.170 20.792997
68.175 20.631054
68.180 20.464811
68.185 20.293472
68.190 20.740814
68.195 20.969086
68.200 20.571615
68.205 20.851868
68.210 21.17148
68.215 21.690308
68.220 22.058138
68.225 21.93745
68.230 22.158995
68.235 21.877352
68.240 21.969059
68.245 22.590864
68.250 22.392712
68.255 22.949982
68.260 23.525084
68.265 23.518015
68.270 24.570326
68.275 25.028641
68.280 25.302057
68.285 25.544432
68.290 25.194225
68.295 24.717628
68.300 24.72497
68.305 23.92396
68.310 23.257881
68.315 22.589319
68.320 22.104279
68.325 22.066559
68.330 22.610079
68.335 22.376451
68.340 22.645657
68.345 23.381777
68.350 24.733017
68.355 24.899611
68.360 25.111103
68.365 25.44931
68.370 26.116793
68.375 26.681622
68.380 26.74939
68.385 26.655865
68.390 27.620941
68.395 27.048372
68.400 26.284405
68.405 26.803881
68.410 26.514542
68.415 25.630285
68.420 25.165026
68.425 25.084131
68.430 26.233316
68.435 27.150681
68.440 26.913811
68.445 27.176643
68.450 27.743834
68.455 27.635735
68.460 27.331385
68.465 28.056358
68.470 28.88003
68.475 29.879284
68.480 31.0872
68.485 31.41968
68.490 32.382969
68.495 33.099209
68.500 32.467609
68.505 31.908115
68.510 31.264297
68.515 31.037991
68.520 31.79048
68.525 32.090401
68.530 33.032272
68.535 33.98278
68.540 34.032558
68.545 33.829796
68.550 33.684341
68.555 33.449203
68.560 33.091106
68.565 32.344131
68.570 31.88467
68.575 32.126377
68.580 32.904678
68.585 33.603779
68.590 34.237495
68.595 34.094013
68.600 34.367447
68.605 34.931007
68.610 34.938675
68.615 35.184799
68.620 35.837013
68.625 36.672787
68.630 37.392033
68.635 37.343426
68.640 37.176559
68.645 37.11269
68.650 36.449818
68.655 35.410881
68.660 35.099808
68.665 34.906612
68.670 34.885658
68.675 35.663101
68.680 35.866169
68.685 35.58012
68.690 35.707531
68.695 35.535885
68.700 35.56675
68.705 35.798725
68.710 35.409088
68.715 35.918873
68.720 36.428925
68.725 35.762482
68.730 35.982994
68.735 35.652653
68.740 35.362564
68.745 35.665859
68.750 35.598839
68.755 35.642399
68.760 35.940117
68.765 35.346359
68.770 35.70866
68.775 35.010464
68.780 34.433807
68.785 34.765362
68.790 35.592587
68.795 36.721321
68.800 37.512138
68.805 37.424957
68.810 38.315403
68.815 38.233692
68.820 37.75013
68.825 36.595966
68.830 35.577686
68.835 35.056831
68.840 35.222446
68.845 35.012993
68.850 35.196106
68.855 35.470253
68.860 36.633556
68.865 37.063927
68.870 36.724194
68.875 36.4338
68.880 36.220924
68.885 36.14637
68.890 36.379692
68.895 35.959679
68.900 36.071117
68.905 36.386711
68.910 36.279877
68.915 35.683765
68.920 35.351643
68.925 34.342987
68.930 34.094841
68.935 33.762192
68.940 33.917545
68.945 34.964546
68.950 35.083862
68.955 35.566879
68.960 35.443203
68.965 35.766891
68.970 36.207577
68.975 35.715744
68.980 34.935635
68.985 34.386536
68.990 33.491196
68.995 33.030064
69.000 32.212147
69.005 30.876919
69.010 30.301842
69.015 29.968975
69.020 29.577578
69.025 29.862864
69.030 29.858013
69.035 29.794134
69.040 30.183216
69.045 30.206617
69.050 30.052271
69.055 30.054781
69.060 29.756557
69.065 29.555349
69.070 29.268126
69.075 28.630901
69.080 28.893044
69.085 29.522966
69.090 29.300016
69.095 29.087446
69.100 29.547129
69.105 29.272821
69.110 29.429541
69.115 28.704834
69.120 28.091221
69.125 28.483116
69.130 28.390789
69.135 27.672668
69.140 27.450502
69.145 26.821411
69.150 26.685549
69.155 26.740847
69.160 26.074133
69.165 25.849932
69.170 26.036121
69.175 25.484638
69.180 25.048864
69.185 24.216722
69.190 23.692486
69.195 23.668566
69.200 23.16041
69.205 22.1479
69.210 22.522587
69.215 23.338436
69.220 24.238178
69.225 23.967653
69.230 24.141222
69.235 24.046515
69.240 24.106438
69.245 23.856497
69.250 22.963408
69.255 22.45746
69.260 22.949602
69.265 23.378983
69.270 23.744967
69.275 23.78578
69.280 23.17042
69.285 23.190842
69.290 23.107393
69.295 21.771202
69.300 20.886246
69.305 20.481443
69.310 20.70965
69.315 20.899439
69.320 20.820606
69.325 20.446207
69.330 21.05349
69.335 21.51108
69.340 21.64175
69.345 21.611927
69.350 21.080236
69.355 20.850397
69.360 21.368814
69.365 21.117926
69.370 20.318806
69.375 19.88903
69.380 19.840614
69.385 19.751099
69.390 19.692997
69.395 19.255432
69.400 19.698473
69.405 19.661695
69.410 20.194275
69.415 20.512913
69.420 20.911232
69.425 20.836828
69.430 21.263474
69.435 21.167074
69.440 21.355186
69.445 20.902817
69.450 20.625731
69.455 20.204195
69.460 20.180706
69.465 20.362764
69.470 20.376074
69.475 20.563061
69.480 20.516369
69.485 20.834213
69.490 21.025866
69.495 21.02412
69.500 20.230827
69.505 20.226446
69.510 20.00703
69.515 20.261038
69.520 20.140055
69.525 20.708666
69.530 20.666256
69.535 20.906075
69.540 20.851883
69.545 20.582947
69.550 20.530504
69.555 20.22809
69.560 19.809053
69.565 20.529154
69.570 21.296333
69.575 21.656839
69.580 21.159307
69.585 20.700447
69.590 20.152481
69.595 19.435986
69.600 18.258163
69.605 17.170788
69.610 17.112331
69.615 17.643698
69.620 17.547268
69.625 17.660168
69.630 17.91781
69.635 17.971977
69.640 18.566122
69.645 18.507444
69.650 17.853216
69.655 17.339998
69.660 17.342726
69.665 17.46558
69.670 17.730865
69.675 18.190548
69.680 18.443567
69.685 19.153807
69.690 19.939562
69.695 20.44973
69.700 20.612183
69.705 20.46516
69.710 19.589346
69.715 20.028696
69.720 19.80521
69.725 19.036894
69.730 18.933151
69.735 18.420958
69.740 18.170582
69.745 18.186813
69.750 17.625854
69.755 17.572969
69.760 18.572468
69.765 18.384548
69.770 18.672581
69.775 18.885406
69.780 18.808886
69.785 19.385382
69.790 19.045975
69.795 18.500551
69.800 18.367134
69.805 18.136408
69.810 18.764978
69.815 18.812746
69.820 18.743805
69.825 18.890808
69.830 18.961151
69.835 19.324183
69.840 19.44696
69.845 18.732586
69.850 18.695292
69.855 18.017969
69.860 17.903852
69.865 17.86124
69.870 17.748697
69.875 18.129213
69.880 18.2087
69.885 17.955622
69.890 18.441551
69.895 18.938738
69.900 19.027031
69.905 18.879784
69.910 18.340654
69.915 18.333668
69.920 18.563856
69.925 18.170029
69.930 18.241608
69.935 18.521818
69.940 18.456049
69.945 18.102253
69.950 18.018373
69.955 17.923288
69.960 18.2861
69.965 17.759031
69.970 17.370552
69.975 17.528069
69.980 17.887733
69.985 17.907352
69.990 17.930111
69.995 18.288132
70.000 18.588486
70.005 18.673758
70.010 18.43041
70.015 18.434246
70.020 18.418673
70.025 18.007948
70.030 18.089592
70.035 18.373896
70.040 18.172331
70.045 18.073101
70.050 18.258013
70.055 18.268961
70.060 18.359505
70.065 18.43606
70.070 18.547567
70.075 18.880606
70.080 18.810419
70.085 19.013206
70.090 18.775822
70.095 18.349344
70.100 18.199556
70.105 18.433754
70.110 18.431362
70.115 18.367613
70.120 18.184048
70.125 18.84339
70.130 19.352175
70.135 18.815832
70.140 18.32937
70.145 18.999102
70.150 19.126663
70.155 19.618406
70.160 19.275661
70.165 18.620955
70.170 18.263821
70.175 18.531782
70.180 18.289482
70.185 18.052298
70.190 17.547421
70.195 17.895245
70.200 18.821003
70.205 19.367584
70.210 19.074944
70.215 19.089176
70.220 19.192968
70.225 18.922234
70.230 18.507843
70.235 18.259584
70.240 18.481192
70.245 18.653408
70.250 19.089243
70.255 19.549429
70.260 19.834156
70.265 20.16818
70.270 19.540016
70.275 18.961267
70.280 18.300825
70.285 18.205189
70.290 18.340324
70.295 18.851599
70.300 18.955873
70.305 19.35684
70.310 19.665998
70.315 20.316446
70.320 20.561293
70.325 19.535683
70.330 18.719036
70.335 18.726971
70.340 18.427042
70.345 18.554752
70.350 18.249424
70.355 18.218117
70.360 18.84956
70.365 18.760708
70.370 18.800634
70.375 18.987402
70.380 18.924305
70.385 18.764919
70.390 18.536768
70.395 18.355661
70.400 18.76787
70.405 19.137051
70.410 18.733271
70.415 18.146154
70.420 17.962566
70.425 17.471563
70.430 17.602501
70.435 17.494127
70.440 16.947281
70.445 17.615858
70.450 17.93256
70.455 17.501749
70.460 17.218634
70.465 16.821171
70.470 16.897518
70.475 16.950247
70.480 16.81003
70.485 16.706051
70.490 17.252087
70.495 17.720377
70.500 18.508663
70.505 18.298353
70.510 18.082573
70.515 18.094263
70.520 18.572777
70.525 18.650768
70.530 18.916651
70.535 18.479187
70.540 18.629511
70.545 18.778782
70.550 19.151775
70.555 19.063581
70.560 19.434181
70.565 19.414377
70.570 18.854349
70.575 19.035162
70.580 19.26483
70.585 18.933733
70.590 18.683132
70.595 18.013559
70.600 18.377201
70.605 18.552099
70.610 18.182259
70.615 17.720161
70.620 17.622862
70.625 17.234669
70.630 17.013538
70.635 17.241447
70.640 17.513552
70.645 18.073154
70.650 18.645369
70.655 18.642168
70.660 19.040077
70.665 19.305683
70.670 19.305317
70.675 18.92733
70.680 18.250107
70.685 17.585262
70.690 18.438087
70.695 18.686626
70.700 18.176661
70.705 18.05117
70.710 18.223545
70.715 18.339989
70.720 18.255028
70.725 17.755688
70.730 17.6987
70.735 17.786949
70.740 18.309399
70.745 18.369553
70.750 19.203554
70.755 19.5271
70.760 18.85605
70.765 18.521467
70.770 18.009487
70.775 17.484848
70.780 17.066639
70.785 16.112785
70.790 16.177126
70.795 16.728674
70.800 17.192617
70.805 17.588457
70.810 17.829082
70.815 18.062531
70.820 18.341696
70.825 18.088793
70.830 17.835722
70.835 18.055107
70.840 17.982418
70.845 18.399176
70.850 18.845905
70.855 18.740286
70.860 18.797569
70.865 18.565451
70.870 18.706217
70.875 18.497149
70.880 17.319981
70.885 16.959419
70.890 17.148798
70.895 17.287077
70.900 17.270363
70.905 17.025421
70.910 17.396587
70.915 18.177736
70.920 18.614393
70.925 18.782053
70.930 18.414993
70.935 18.580627
70.940 18.270758
70.945 17.893284
70.950 17.689627
70.955 17.377272
70.960 17.956921
70.965 18.247725
70.970 17.950838
70.975 18.448587
70.980 18.535923
70.985 18.619429
70.990 18.121471
70.995 17.418266
71.000 17.10078
71.005 17.042227
71.010 16.72015
71.015 16.62463
71.020 16.885849
71.025 16.91106
71.030 16.994333
71.035 17.15262
71.040 17.260096
71.045 17.24345
71.050 17.407907
71.055 17.33338
71.060 17.002073
71.065 16.542479
71.070 16.023211
71.075 16.12191
71.080 15.816525
71.085 15.780183
71.090 15.809054
71.095 17.045303
71.100 17.030924
71.105 17.032999
71.110 17.196278
71.115 17.401073
71.120 17.672882
71.125 17.512087
71.130 17.803638
71.135 18.822178
71.140 19.070644
71.145 19.327978
71.150 19.726494
71.155 19.644199
71.160 18.971714
71.165 18.743765
71.170 18.470053
71.175 18.375879
71.180 17.846483
71.185 17.478678
71.190 18.279627
71.195 18.45513
71.200 18.006924
71.205 18.151556
71.210 18.091642
71.215 18.931841
71.220 18.56613
71.225 18.16503
71.230 18.436258
71.235 18.293106
71.240 18.231037
71.245 18.01285
71.250 17.653576
71.255 17.872208
71.260 17.832409
71.265 18.240179
71.270 18.542059
71.275 18.471661
71.280 18.725004
71.285 18.708248
71.290 18.229874
71.295 17.854382
71.300 17.288717
71.305 16.912514
71.310 16.554153
71.315 16.573654
71.320 17.016104
71.325 17.128927
71.330 16.57798
71.335 16.740145
71.340 17.657259
71.345 18.697239
71.350 18.324585
71.355 18.338049
71.360 18.777794
71.365 19.809662
71.370 19.753561
71.375 19.17506
71.380 19.484518
71.385 20.011307
71.390 19.647314
71.395 18.904228
71.400 18.58194
71.405 18.649176
71.410 18.767229
71.415 17.797108
71.420 17.258783
71.425 17.562201
71.430 17.731068
71.435 17.689594
71.440 17.814196
71.445 18.235975
71.450 18.898081
71.455 18.711576
71.460 18.518232
71.465 18.805204
71.470 18.822311
71.475 18.242134
71.480 17.717714
71.485 17.808329
71.490 18.217442
71.495 18.654175
71.500 18.550661
71.505 18.367321
71.510 18.184872
71.515 17.713266
71.520 17.945364
71.525 17.261248
71.530 16.785038
71.535 17.014933
71.540 16.824627
71.545 16.746555
71.550 16.621243
71.555 16.390772
71.560 16.605227
71.565 16.623411
71.570 16.954296
71.575 17.193396
71.580 17.494249
71.585 17.856955
71.590 17.775373
71.595 17.84017
71.600 17.56432
71.605 17.023273
71.610 17.129822
71.615 16.988674
71.620 17.085594
71.625 17.316545
71.630 17.211468
71.635 17.151386
71.640 16.920158
71.645 17.465
71.650 17.595886
71.655 17.719805
71.660 17.740368
71.665 17.873442
71.670 18.909899
71.675 19.526268
71.680 19.365833
71.685 19.500093
71.690 18.905853
71.695 18.274731
71.700 18.357077
71.705 18.462744
71.710 18.477917
71.715 18.033443
71.720 18.078051
71.725 18.324587
71.730 18.893801
71.735 18.503199
71.740 17.635889
71.745 17.72788
71.750 17.852022
71.755 18.226202
71.760 18.815563
71.765 18.878141
71.770 19.162823
71.775 19.56534
71.780 19.437277
71.785 18.91914
71.790 18.499208
71.795 18.137247
71.800 18.256985
71.805 18.502041
71.810 18.149719
71.815 18.239477
71.820 18.59531
71.825 18.196825
71.830 17.717386
71.835 17.445885
71.840 17.462673
71.845 17.628723
71.850 17.80344
71.855 17.666681
71.860 17.883093
71.865 17.9653
71.870 17.999258
71.875 17.776211
71.880 17.359653
71.885 17.470562
71.890 17.835915
71.895 17.788521
71.900 17.737617
71.905 17.469677
71.910 18.121704
71.915 18.050865
71.920 18.021706
71.925 17.943897
71.930 18.061222
71.935 18.012917
71.940 17.468946
71.945 17.086628
71.950 17.246677
71.955 17.097851
71.960 16.640625
71.965 16.504044
71.970 16.896423
71.975 17.496689
71.980 17.252792
71.985 17.598242
71.990 18.098526
71.995 18.567905
72.000 18.572811
72.005 18.305069
72.010 18.450645
72.015 19.21113
72.020 18.869946
72.025 18.381718
72.030 18.679483
72.035 18.587717
72.040 18.302198
72.045 17.926645
72.050 17.439487
72.055 17.027109
72.060 17.129854
72.065 17.624189
72.070 17.529436
72.075 17.423487
72.080 17.308306
72.085 17.473873
72.090 17.320177
72.095 17.496859
72.100 17.454529
72.105 18.058092
72.110 18.362288
72.115 17.992449
72.120 18.565708
72.125 18.694921
72.130 18.790962
72.135 18.821125
72.140 18.603472
72.145 18.369862
72.150 18.657562
72.155 18.750027
72.160 18.526558
72.165 17.953714
72.170 18.140411
72.175 18.744944
72.180 18.816589
72.185 19.28414
72.190 19.351629
72.195 19.333483
72.200 18.87879
72.205 18.548855
72.210 18.418894
72.215 18.099356
72.220 17.721321
72.225 17.148947
72.230 17.002243
72.235 17.681305
72.240 17.380541
72.245 16.911415
72.250 16.563623
72.255 16.309183
72.260 16.621004
72.265 17.079533
72.270 16.89607
72.275 17.27969
72.280 17.839628
72.285 17.717035
72.290 17.932411
72.295 18.210749
72.300 17.903952
72.305 17.836031
72.310 17.389275
72.315 18.292543
72.320 19.672878
72.325 19.741035
72.330 19.822216
72.335 19.97233
72.340 20.164751
72.345 20.060501
72.350 19.070482
72.355 18.325611
72.360 18.108458
72.365 18.460426
72.370 18.462774
72.375 18.843451
72.380 19.145866
72.385 19.386511
72.390 19.250751
72.395 18.872753
72.400 18.407574
72.405 17.984394
72.410 17.62096
72.415 17.59409
72.420 17.397581
72.425 17.575489
72.430 17.388081
72.435 17.142473
72.440 17.227745
72.445 16.975788
72.450 16.869463
72.455 17.250332
72.460 17.761711
72.465 18.365454
72.470 18.598829
72.475 18.632174
72.480 18.690493
72.485 18.592722
72.490 18.231377
72.495 18.052847
72.500 18.058411
72.505 17.9398
72.510 17.679638
72.515 17.193457
72.520 17.264868
72.525 17.134689
72.530 16.89123
72.535 16.399937
72.540 16.44202
72.545 16.743458
72.550 17.123106
72.555 16.923279
72.560 17.001011
72.565 17.036894
72.570 17.204308
72.575 17.235189
72.580 17.676781
72.585 18.058716
72.590 17.736843
72.595 17.780104
72.600 17.942081
72.605 17.805094
72.610 17.652887
72.615 17.60404
72.620 17.691776
72.625 18.035028
72.630 17.513769
72.635 17.642427
72.640 17.422588
72.645 17.196325
72.650 16.697218
72.655 16.266844
72.660 16.574501
72.665 17.142782
72.670 17.199488
72.675 17.774508
72.680 17.464207
72.685 17.68771
72.690 17.828468
72.695 17.810375
72.700 17.542416
72.705 17.823679
72.710 17.53245
72.715 17.626266
72.720 17.246578
72.725 17.83902
72.730 18.052504
72.735 17.774101
72.740 18.003292
72.745 17.927034
72.750 17.915386
72.755 18.196032
72.760 18.33128
72.765 18.406773
72.770 18.386204
72.775 18.288202
72.780 18.308191
72.785 18.345255
72.790 17.837488
72.795 16.914732
72.800 16.816002
72.805 16.431944
72.810 16.513296
72.815 16.729664
72.820 16.730892
72.825 16.451984
72.830 16.341516
72.835 16.369116
72.840 17.103336
72.845 17.08522
72.850 16.734976
72.855 17.244432
72.860 17.589882
72.865 17.548006
72.870 17.05168
72.875 16.568329
72.880 16.389994
72.885 15.617289
72.890 14.830304
72.895 14.748888
72.900 14.844637
72.905 15.094912
72.910 15.302398
72.915 16.235559
72.920 16.890335
72.925 16.896572
72.930 17.0037
72.935 17.413235
72.940 17.692961
72.945 17.454086
72.950 17.424549
72.955 17.934612
72.960 18.268419
72.965 18.262228
72.970 18.430758
72.975 18.388199
72.980 18.499706
72.985 17.895937
72.990 16.88007
72.995 16.712097
73.000 16.162498
