!@!!GADDS PLOTSO FILE: Chi integration type
!@!!Title/SampleName: map-a5
!@!!Comment: ?
!@!!User: Bruker Instrument Administrator
!@!!Site: University of Illinois Chicago
!@!!Frame: map-a5_01_000.gfrm
!@!!Wavelengths    1.54184   1.54056   1.54439
!@!!Frame angles: 2Theta: 63.000 Omega: 50.000 Phi: 0.000 Chi: 90.000
!@!!Integration range: 2Theta: 53.000 to 73.000  Gamma: -105.000 to -75.000
!@!!Integration method: bin normalized
!@!N
!@!SS
!@!M
!@!L 0.0 0.0 0.0 0.0
!@!XDegrees
!@!YCounts
53.000 6.476531
53.005 6.50822
53.010 6.464435
53.015 6.391407
53.020 6.235026
53.025 6.304852
53.030 6.620261
53.035 6.594768
53.040 6.410247
53.045 6.666253
53.050 6.837137
53.055 6.901469
53.060 7.028604
53.065 6.977069
53.070 7.15178
53.075 7.599939
53.080 7.583002
53.085 7.704631
53.090 7.927924
53.095 7.958167
53.100 7.701629
53.105 8.099969
53.110 8.061577
53.115 8.05989
53.120 7.816115
53.125 7.64813
53.130 7.770443
53.135 7.300133
53.140 6.888005
53.145 6.876744
53.150 7.263721
53.155 7.458458
53.160 6.868482
53.165 6.648956
53.170 6.810654
53.175 6.543415
53.180 6.117977
53.185 5.713981
53.190 5.73485
53.195 6.057245
53.200 5.955809
53.205 5.925841
53.210 6.216264
53.215 6.101331
53.220 6.182614
53.225 5.977152
53.230 6.359114
53.235 6.764966
53.240 6.832449
53.245 6.704071
53.250 7.400192
53.255 7.818043
53.260 8.06472
53.265 7.834769
53.270 8.034599
53.275 8.504061
53.280 9.078364
53.285 9.049745
53.290 9.072991
53.295 9.226341
53.300 9.293422
53.305 9.247234
53.310 9.128986
53.315 8.996814
53.320 8.913328
53.325 8.829659
53.330 8.561751
53.335 8.359268
53.340 7.464584
53.345 7.082187
53.350 7.267593
53.355 6.88799
53.360 6.978842
53.365 7.006793
53.370 7.148144
53.375 7.761856
53.380 7.644704
53.385 7.302233
53.390 7.656834
53.395 7.582661
53.400 7.537833
53.405 7.621412
53.410 7.292894
53.415 7.407189
53.420 7.22528
53.425 6.984263
53.430 7.361306
53.435 7.324499
53.440 7.125013
53.445 7.268928
53.450 7.56692
53.455 8.072002
53.460 8.003543
53.465 7.818171
53.470 7.928683
53.475 7.796245
53.480 7.695506
53.485 7.616577
53.490 7.317826
53.495 7.862076
53.500 8.027394
53.505 8.352403
53.510 8.276688
53.515 8.035532
53.520 8.206362
53.525 8.529408
53.530 8.078039
53.535 8.147488
53.540 8.159568
53.545 8.703903
53.550 8.755177
53.555 8.81453
53.560 8.587976
53.565 8.250868
53.570 8.422136
53.575 8.499346
53.580 8.697807
53.585 8.696719
53.590 8.346626
53.595 8.367743
53.600 8.567738
53.605 8.263905
53.610 8.085267
53.615 8.250634
53.620 8.133057
53.625 8.139279
53.630 8.005823
53.635 8.129344
53.640 8.336076
53.645 7.796287
53.650 7.379206
53.655 6.802752
53.660 6.54427
53.665 6.65057
53.670 6.254514
53.675 6.391341
53.680 6.564591
53.685 6.895188
53.690 7.316885
53.695 7.197507
53.700 7.284471
53.705 7.344825
53.710 7.117604
53.715 7.483069
53.720 7.707503
53.725 7.752774
53.730 7.947217
53.735 8.035242
53.740 8.363957
53.745 8.241656
53.750 7.983888
53.755 7.68831
53.760 8.29152
53.765 8.016762
53.770 7.800402
53.775 7.531501
53.780 7.566466
53.785 7.400753
53.790 7.33228
53.795 7.218297
53.800 7.459506
53.805 7.309099
53.810 7.149849
53.815 7.309824
53.820 7.429163
53.825 7.174184
53.830 6.898768
53.835 6.931555
53.840 7.065229
53.845 7.448477
53.850 7.314487
53.855 7.344238
53.860 7.4946
53.865 7.527431
53.870 7.177085
53.875 6.894512
53.880 7.077674
53.885 7.242851
53.890 7.534675
53.895 7.626885
53.900 7.730415
53.905 7.988474
53.910 7.667589
53.915 7.623526
53.920 7.669069
53.925 7.449547
53.930 7.134612
53.935 7.2275
53.940 7.251028
53.945 7.598616
53.950 7.665674
53.955 7.529569
53.960 8.067239
53.965 8.432947
53.970 8.332977
53.975 8.500019
53.980 8.279792
53.985 8.096015
53.990 8.261007
53.995 8.238193
54.000 8.340909
54.005 8.425861
54.010 8.793884
54.015 8.919949
54.020 9.214041
54.025 9.288014
54.030 9.343053
54.035 9.89029
54.040 9.817993
54.045 9.813831
54.050 10.066153
54.055 9.478385
54.060 9.128679
54.065 8.705817
54.070 8.023799
54.075 7.692269
54.080 7.061548
54.085 6.590713
54.090 6.836584
54.095 7.037611
54.100 6.962958
54.105 7.053121
54.110 7.398385
54.115 7.743417
54.120 7.887696
54.125 7.798852
54.130 7.724905
54.135 8.044369
54.140 8.327873
54.145 8.262859
54.150 8.131365
54.155 8.026035
54.160 8.116637
54.165 8.273862
54.170 7.857492
54.175 8.089028
54.180 8.260728
54.185 8.802017
54.190 9.043385
54.195 8.716453
54.200 9.220614
54.205 9.494025
54.210 9.455683
54.215 9.226529
54.220 9.05688
54.225 9.369164
54.230 9.776052
54.235 9.557754
54.240 9.546835
54.245 9.423779
54.250 9.483027
54.255 9.455792
54.260 9.116934
54.265 8.986108
54.270 9.033217
54.275 8.775766
54.280 8.827667
54.285 9.108492
54.290 8.801678
54.295 8.464378
54.300 8.304282
54.305 8.408845
54.310 8.602243
54.315 8.621373
54.320 8.815182
54.325 9.243359
54.330 9.715463
54.335 9.786298
54.340 9.426356
54.345 9.535545
54.350 9.364995
54.355 9.44617
54.360 8.960039
54.365 8.861118
54.370 8.835352
54.375 8.998717
54.380 8.824856
54.385 8.129778
54.390 8.156149
54.395 8.173096
54.400 7.954211
54.405 7.932182
54.410 8.172648
54.415 8.611588
54.420 8.632149
54.425 8.606403
54.430 8.588097
54.435 8.571947
54.440 8.537024
54.445 8.03383
54.450 8.093235
54.455 8.477004
54.460 8.398433
54.465 8.607522
54.470 8.942009
54.475 9.191835
54.480 9.257215
54.485 9.376263
54.490 9.207601
54.495 8.99181
54.500 8.691065
54.505 8.03842
54.510 7.685096
54.515 7.610651
54.520 7.081157
54.525 7.098752
54.530 7.26125
54.535 7.407062
54.540 7.734283
54.545 8.256814
54.550 8.591046
54.555 8.862247
54.560 9.042897
54.565 9.131197
54.570 9.082838
54.575 8.905541
54.580 9.02104
54.585 8.872362
54.590 8.655
54.595 8.648826
54.600 8.869356
54.605 9.17316
54.610 9.363186
54.615 9.115352
54.620 9.218785
54.625 9.703915
54.630 9.715074
54.635 9.555963
54.640 9.364412
54.645 8.847521
54.650 8.880707
54.655 8.542521
54.660 7.936792
54.665 7.669611
54.670 7.659489
54.675 7.634921
54.680 7.806241
54.685 8.251768
54.690 8.998933
54.695 9.359285
54.700 9.314185
54.705 9.206849
54.710 9.606348
54.715 9.320526
54.720 8.867899
54.725 8.39298
54.730 8.185996
54.735 8.213414
54.740 8.7205
54.745 9.063595
54.750 9.350007
54.755 9.270094
54.760 9.829357
54.765 9.672651
54.770 9.762032
54.775 9.238157
54.780 8.689947
54.785 8.914371
54.790 8.662226
54.795 8.484024
54.800 8.502314
54.805 8.911812
54.810 8.945593
54.815 8.62168
54.820 8.000742
54.825 7.902832
54.830 7.82988
54.835 8.155768
54.840 8.370244
54.845 8.893435
54.850 9.824123
54.855 10.239635
54.860 10.216973
54.865 10.041266
54.870 9.739652
54.875 9.491132
54.880 8.922384
54.885 8.747392
54.890 8.950223
54.895 9.866065
54.900 10.213401
54.905 10.536151
54.910 10.710751
54.915 10.454218
54.920 10.055101
54.925 10.202602
54.930 9.943764
54.935 9.938646
54.940 9.575868
54.945 9.719436
54.950 10.559463
54.955 11.032401
54.960 10.401014
54.965 9.997777
54.970 9.903241
54.975 9.703039
54.980 9.098745
54.985 8.603486
54.990 8.466298
54.995 8.636212
55.000 8.972462
55.005 9.188939
55.010 9.259682
55.015 9.444571
55.020 9.479922
55.025 9.706053
55.030 9.722627
55.035 9.313309
55.040 9.32303
55.045 9.442
55.050 9.61767
55.055 9.499961
55.060 9.742688
55.065 9.77419
55.070 9.644098
55.075 9.336708
55.080 9.050266
55.085 8.713377
55.090 8.422997
55.095 8.191878
55.100 8.586809
55.105 9.309108
55.110 10.066179
55.115 10.226919
55.120 10.677275
55.125 10.503191
55.130 10.638863
55.135 10.54751
55.140 10.243174
55.145 10.555429
55.150 10.852626
55.155 10.685508
55.160 10.777734
55.165 10.418139
55.170 10.023084
55.175 9.662953
55.180 9.231766
55.185 9.086581
55.190 9.299728
55.195 9.843644
55.200 10.112981
55.205 10.383456
55.210 10.695162
55.215 10.793567
55.220 10.821727
55.225 10.547116
55.230 10.245784
55.235 10.33898
55.240 10.215557
55.245 10.026175
55.250 9.849546
55.255 9.819658
55.260 10.047738
55.265 9.996129
55.270 10.546124
55.275 11.008978
55.280 10.970989
55.285 11.004358
55.290 10.746427
55.295 10.428551
55.300 9.957817
55.305 8.922729
55.310 8.437617
55.315 8.303246
55.320 8.418895
55.325 9.167633
55.330 9.194777
55.335 9.425715
55.340 10.386501
55.345 10.413613
55.350 10.467439
55.355 10.831344
55.360 10.583441
55.365 10.388414
55.370 10.03535
55.375 9.651045
55.380 10.01799
55.385 10.607834
55.390 10.375627
55.395 11.150782
55.400 11.729276
55.405 12.080336
55.410 12.189895
55.415 11.986122
55.420 11.680914
55.425 11.325023
55.430 10.524704
55.435 10.488608
55.440 10.375837
55.445 10.256598
55.450 10.39798
55.455 10.256483
55.460 10.444955
55.465 10.705336
55.470 10.633967
55.475 10.743832
55.480 10.663623
55.485 10.242898
55.490 10.195592
55.495 9.883686
55.500 9.951348
55.505 9.650841
55.510 9.209704
55.515 9.238349
55.520 9.626341
55.525 9.955078
55.530 10.545568
55.535 10.736081
55.540 10.802173
55.545 11.122458
55.550 11.146202
55.555 10.533725
55.560 10.479996
55.565 10.456277
55.570 10.218863
55.575 10.350913
55.580 10.500607
55.585 10.850124
55.590 11.419146
55.595 11.258087
55.600 11.126266
55.605 10.714817
55.610 10.635794
55.615 10.359972
55.620 10.317089
55.625 10.406441
55.630 10.539333
55.635 10.677572
55.640 11.334203
55.645 11.517966
55.650 11.833753
55.655 11.637271
55.660 11.446868
55.665 10.848292
55.670 11.00182
55.675 10.549441
55.680 10.250289
55.685 9.776043
55.690 9.593396
55.695 9.737808
55.700 10.270068
55.705 10.278674
55.710 10.636305
55.715 10.804617
55.720 11.192695
55.725 11.273563
55.730 10.904576
55.735 10.217937
55.740 10.105012
55.745 9.807748
55.750 9.430729
55.755 9.274504
55.760 9.35796
55.765 9.931797
55.770 10.486961
55.775 10.048919
55.780 9.921938
55.785 9.99381
55.790 9.948198
55.795 9.527848
55.800 9.040888
55.805 8.977118
55.810 9.395538
55.815 9.694891
55.820 9.929906
55.825 10.243329
55.830 10.802621
55.835 10.75761
55.840 11.293987
55.845 11.211921
55.850 10.671036
55.855 9.939258
55.860 9.539941
55.865 9.493299
55.870 9.233552
55.875 8.514938
55.880 9.343062
55.885 10.168696
55.890 10.727646
55.895 10.940407
55.900 10.955058
55.905 11.533086
55.910 11.897027
55.915 11.200542
55.920 11.096608
55.925 11.236309
55.930 11.359237
55.935 12.075006
55.940 11.999246
55.945 11.255402
55.950 11.036058
55.955 11.165318
55.960 11.018921
55.965 10.364703
55.970 9.868355
55.975 9.940842
55.980 10.607361
55.985 10.758465
55.990 10.485809
55.995 11.467068
56.000 12.059869
56.005 11.566896
56.010 11.426435
56.015 11.613854
56.020 11.405411
56.025 11.596563
56.030 10.499365
56.035 10.271781
56.040 10.73926
56.045 10.97378
56.050 11.322712
56.055 11.189685
56.060 11.025806
56.065 11.104096
56.070 10.920043
56.075 10.427213
56.080 9.983312
56.085 9.864415
56.090 10.196465
56.095 9.911709
56.100 10.226809
56.105 10.760324
56.110 11.381631
56.115 11.51049
56.120 11.790214
56.125 11.929649
56.130 12.119845
56.135 11.634303
56.140 11.136346
56.145 10.797211
56.150 11.078461
56.155 11.08457
56.160 10.728788
56.165 10.726478
56.170 11.017412
56.175 11.341837
56.180 10.952479
56.185 9.769693
56.190 9.035658
56.195 9.408566
56.200 9.944112
56.205 9.949965
56.210 9.79783
56.215 10.036793
56.220 10.720939
56.225 10.734811
56.230 10.337583
56.235 10.061184
56.240 9.725751
56.245 9.981168
56.250 9.668887
56.255 9.829647
56.260 10.166074
56.265 10.224445
56.270 10.512325
56.275 10.909541
56.280 11.025156
56.285 11.615571
56.290 11.744454
56.295 11.935381
56.300 11.711166
56.305 11.638594
56.310 11.42258
56.315 10.927006
56.320 10.642488
56.325 10.369466
56.330 10.376896
56.335 10.078649
56.340 9.769513
56.345 9.989243
56.350 9.565292
56.355 9.415286
56.360 8.901884
56.365 9.073634
56.370 9.412763
56.375 9.369764
56.380 9.39081
56.385 10.061074
56.390 10.229063
56.395 10.524658
56.400 10.295276
56.405 10.336981
56.410 10.636614
56.415 10.491915
56.420 10.795449
56.425 11.033521
56.430 11.310168
56.435 11.532256
56.440 11.673148
56.445 12.018951
56.450 12.344875
56.455 12.158355
56.460 12.694659
56.465 12.752903
56.470 12.233872
56.475 12.087492
56.480 11.562478
56.485 11.277754
56.490 11.599489
56.495 11.139015
56.500 11.075109
56.505 11.499772
56.510 11.153795
56.515 11.023496
56.520 11.143801
56.525 10.787447
56.530 11.013888
56.535 11.47671
56.540 11.949264
56.545 12.195292
56.550 12.308922
56.555 12.487444
56.560 12.542533
56.565 12.240422
56.570 11.57794
56.575 10.86214
56.580 10.932793
56.585 10.619884
56.590 10.625355
56.595 11.197994
56.600 11.663408
56.605 11.508574
56.610 11.515035
56.615 11.695741
56.620 12.124283
56.625 12.203767
56.630 11.502944
56.635 11.43443
56.640 11.817945
56.645 11.675045
56.650 11.542475
56.655 11.217495
56.660 10.866672
56.665 10.920388
56.670 10.438289
56.675 10.851525
56.680 11.34219
56.685 11.510369
56.690 11.986598
56.695 12.430212
56.700 12.686079
56.705 12.80156
56.710 12.327819
56.715 12.339272
56.720 12.345986
56.725 12.13567
56.730 11.780744
56.735 11.750349
56.740 11.853105
56.745 11.767962
56.750 11.571465
56.755 11.54364
56.760 11.289185
56.765 11.478999
56.770 11.736225
56.775 12.032103
56.780 12.235413
56.785 11.96355
56.790 11.567509
56.795 11.799916
56.800 11.368088
56.805 11.137868
56.810 11.034863
56.815 10.83712
56.820 10.994095
56.825 11.168983
56.830 10.843984
56.835 11.532605
56.840 12.012992
56.845 11.766323
56.850 12.017294
56.855 12.098082
56.860 12.360776
56.865 12.480214
56.870 12.274785
56.875 12.026318
56.880 12.556859
56.885 12.901345
56.890 12.902409
56.895 13.108397
56.900 13.56157
56.905 13.450936
56.910 13.211981
56.915 12.892509
56.920 12.963161
56.925 13.171177
56.930 12.978059
56.935 12.554366
56.940 12.902392
56.945 13.335421
56.950 13.095517
56.955 12.85951
56.960 12.808913
56.965 12.505433
56.970 12.227208
56.975 11.34267
56.980 11.340117
56.985 11.40451
56.990 10.917147
56.995 10.932642
57.000 11.160175
57.005 11.673388
57.010 12.106795
57.015 12.411449
57.020 12.619043
57.025 13.291795
57.030 13.621304
57.035 13.356104
57.040 13.068875
57.045 12.323053
57.050 11.760042
57.055 11.504236
57.060 10.90152
57.065 10.568292
57.070 10.699291
57.075 11.492662
57.080 12.403883
57.085 12.833014
57.090 12.859088
57.095 12.932631
57.100 13.048244
57.105 12.716904
57.110 11.84856
57.115 11.811028
57.120 11.75034
57.125 11.618976
57.130 11.223326
57.135 11.090647
57.140 11.29181
57.145 11.332183
57.150 10.834128
57.155 10.930839
57.160 11.205162
57.165 11.432799
57.170 11.620158
57.175 11.697583
57.180 11.803208
57.185 11.879208
57.190 11.91547
57.195 12.167461
57.200 12.173615
57.205 11.948286
57.210 11.803591
57.215 11.457766
57.220 11.197882
57.225 10.544887
57.230 10.198299
57.235 10.168825
57.240 10.508417
57.245 10.668553
57.250 10.68297
57.255 10.796422
57.260 11.35772
57.265 11.737514
57.270 11.911173
57.275 11.893613
57.280 11.755855
57.285 11.748411
57.290 12.209394
57.295 12.183647
57.300 11.782513
57.305 11.791868
57.310 11.641253
57.315 11.490946
57.320 11.657625
57.325 11.299013
57.330 11.333378
57.335 11.673841
57.340 11.83165
57.345 11.933503
57.350 12.477322
57.355 12.649817
57.360 12.944856
57.365 13.30055
57.370 13.411726
57.375 13.100434
57.380 13.344852
57.385 12.934111
57.390 13.042655
57.395 13.131835
57.400 13.032532
57.405 12.788385
57.410 12.817348
57.415 12.834001
57.420 13.562792
57.425 13.412657
57.430 13.027117
57.435 12.67241
57.440 12.803384
57.445 12.882586
57.450 12.958561
57.455 13.283499
57.460 13.053498
57.465 13.035658
57.470 13.197281
57.475 12.492536
57.480 11.948292
57.485 11.351603
57.490 10.742867
57.495 11.328169
57.500 11.431138
57.505 12.042973
57.510 12.853983
57.515 12.836948
57.520 13.077031
57.525 13.382478
57.530 12.98487
57.535 12.785819
57.540 12.242176
57.545 12.253364
57.550 12.783258
57.555 12.623044
57.560 12.813423
57.565 13.260147
57.570 13.275048
57.575 13.112095
57.580 12.972171
57.585 13.02602
57.590 12.854371
57.595 12.218871
57.600 12.078169
57.605 11.786333
57.610 11.955456
57.615 12.063824
57.620 11.641248
57.625 11.911429
57.630 12.354677
57.635 12.186478
57.640 12.603961
57.645 12.338037
57.650 12.0712
57.655 12.146656
57.660 11.944862
57.665 11.698092
57.670 11.727471
57.675 11.285522
57.680 11.586561
57.685 11.610639
57.690 11.972218
57.695 12.294193
57.700 12.333445
57.705 12.403854
57.710 12.949628
57.715 12.860385
57.720 13.497285
57.725 13.198336
57.730 13.093713
57.735 13.188829
57.740 13.499903
57.745 13.076018
57.750 13.207224
57.755 13.105249
57.760 12.97031
57.765 12.885745
57.770 13.082977
57.775 13.158645
57.780 13.247659
57.785 13.409915
57.790 13.336228
57.795 13.559496
57.800 13.224485
57.805 12.860672
57.810 12.712685
57.815 13.144066
57.820 12.623493
57.825 12.133475
57.830 11.883786
57.835 12.20895
57.840 12.376268
57.845 12.201273
57.850 12.40167
57.855 13.031444
57.860 13.747118
57.865 14.658139
57.870 14.569918
57.875 14.496782
57.880 14.464001
57.885 13.830782
57.890 13.650259
57.895 13.167731
57.900 12.198025
57.905 11.924298
57.910 11.967196
57.915 12.099421
57.920 12.315525
57.925 12.15151
57.930 12.196744
57.935 12.11534
57.940 12.307561
57.945 11.896605
57.950 12.0296
57.955 11.998368
57.960 12.335633
57.965 12.761905
57.970 13.735929
57.975 14.221067
57.980 14.700412
57.985 14.904616
57.990 14.915777
57.995 14.751177
58.000 14.572762
58.005 14.230033
58.010 13.944342
58.015 13.496894
58.020 13.02096
58.025 12.583685
58.030 12.487205
58.035 12.894321
58.040 12.806898
58.045 12.81185
58.050 13.015474
58.055 13.673571
58.060 13.774533
58.065 13.519231
58.070 12.925082
58.075 12.955264
58.080 13.331403
58.085 13.36717
58.090 13.055403
58.095 13.499734
58.100 13.975703
58.105 14.133333
58.110 13.570843
58.115 13.803943
58.120 14.006416
58.125 14.043848
58.130 13.716458
58.135 13.624144
58.140 13.842285
58.145 14.283422
58.150 13.675034
58.155 13.609372
58.160 13.475939
58.165 13.522108
58.170 13.712672
58.175 13.982632
58.180 13.414904
58.185 13.591952
58.190 13.706944
58.195 13.948894
58.200 13.973289
58.205 14.081109
58.210 14.167454
58.215 14.135689
58.220 13.958422
58.225 13.688066
58.230 13.692985
58.235 13.835183
58.240 13.680508
58.245 14.030072
58.250 14.236798
58.255 14.087395
58.260 13.994534
58.265 13.405929
58.270 13.115208
58.275 12.411824
58.280 11.501981
58.285 11.63201
58.290 11.89074
58.295 12.329666
58.300 12.93502
58.305 13.364906
58.310 13.866193
58.315 14.904669
58.320 14.755107
58.325 14.510766
58.330 14.020556
58.335 13.729764
58.340 12.923742
58.345 12.955476
58.350 12.40387
58.355 12.559048
58.360 12.709737
58.365 12.708676
58.370 12.681845
58.375 12.732568
58.380 12.060308
58.385 12.537946
58.390 12.778714
58.395 12.828112
58.400 12.840081
58.405 13.10055
58.410 13.730062
58.415 14.336516
58.420 14.190082
58.425 13.837176
58.430 13.564258
58.435 13.778793
58.440 13.897618
58.445 13.649942
58.450 13.223059
58.455 13.123865
58.460 13.451908
58.465 13.995163
58.470 13.859119
58.475 13.631004
58.480 13.752141
58.485 13.847285
58.490 13.817043
58.495 13.641862
58.500 13.060758
58.505 12.828307
58.510 12.559589
58.515 12.884253
58.520 13.117251
58.525 12.777659
58.530 12.989698
58.535 12.937504
58.540 13.238577
58.545 13.38952
58.550 13.04373
58.555 12.947423
58.560 13.596024
58.565 13.94211
58.570 14.26626
58.575 14.296037
58.580 14.439064
58.585 14.25288
58.590 14.341022
58.595 13.644424
58.600 13.225322
58.605 13.195364
58.610 13.307958
58.615 13.669589
58.620 14.341733
58.625 14.843713
58.630 15.608448
58.635 16.085766
58.640 16.167294
58.645 16.238186
58.650 16.056877
58.655 15.83109
58.660 15.47761
58.665 14.829993
58.670 14.729812
58.675 14.087932
58.680 13.825275
58.685 13.360559
58.690 13.144215
58.695 13.926302
58.700 13.906828
58.705 13.609922
58.710 14.211262
58.715 14.384736
58.720 14.292126
58.725 13.737636
58.730 13.300784
58.735 13.442057
58.740 13.458987
58.745 13.322528
58.750 13.48236
58.755 14.150455
58.760 14.861804
58.765 15.598752
58.770 15.278294
58.775 15.951392
58.780 15.478049
58.785 15.019426
58.790 14.288537
58.795 13.763474
58.800 13.330027
58.805 13.694326
58.810 13.319106
58.815 13.762301
58.820 13.803686
58.825 14.059499
58.830 14.054131
58.835 13.915089
58.840 13.974116
58.845 13.879313
58.850 13.842604
58.855 14.150495
58.860 14.159182
58.865 14.428355
58.870 14.025219
58.875 13.847032
58.880 14.00208
58.885 13.918027
58.890 13.504205
58.895 13.691191
58.900 13.529123
58.905 14.058895
58.910 14.017549
58.915 13.658765
58.920 13.492581
58.925 13.479508
58.930 13.050609
58.935 12.730555
58.940 12.723411
58.945 13.162117
58.950 13.390746
58.955 13.619418
58.960 14.238019
58.965 14.470547
58.970 14.132311
58.975 13.310895
58.980 13.115772
58.985 13.545631
58.990 13.962122
58.995 13.780462
59.000 13.865252
59.005 14.434595
59.010 15.371577
59.015 15.262212
59.020 14.856885
59.025 15.009227
59.030 14.970693
59.035 14.805672
59.040 14.701748
59.045 14.742461
59.050 14.653678
59.055 14.634357
59.060 14.420733
59.065 14.625149
59.070 14.739262
59.075 14.394321
59.080 14.091292
59.085 14.202172
59.090 14.033905
59.095 13.693753
59.100 13.697882
59.105 13.785726
59.110 13.735682
59.115 13.678298
59.120 13.578644
59.125 13.935437
59.130 14.19629
59.135 14.342903
59.140 14.474684
59.145 14.257683
59.150 14.481546
59.155 14.686428
59.160 14.067336
59.165 13.879297
59.170 14.069031
59.175 14.310352
59.180 14.92419
59.185 14.819719
59.190 15.443439
59.195 15.719352
59.200 15.284595
59.205 14.973235
59.210 15.072177
59.215 15.246381
59.220 14.917233
59.225 14.643949
59.230 15.057819
59.235 15.679904
59.240 15.723121
59.245 15.827782
59.250 15.289051
59.255 15.226008
59.260 14.768352
59.265 14.790678
59.270 14.811636
59.275 14.328545
59.280 13.841761
59.285 13.726813
59.290 14.385252
59.295 15.004629
59.300 14.515553
59.305 14.545083
59.310 14.678376
59.315 14.661765
59.320 14.685046
59.325 14.802614
59.330 14.696648
59.335 14.716786
59.340 14.432504
59.345 14.529559
59.350 14.671538
59.355 14.685827
59.360 14.293169
59.365 14.399398
59.370 14.342778
59.375 14.847903
59.380 15.074671
59.385 15.040683
59.390 15.967254
59.395 16.04973
59.400 15.902954
59.405 15.612582
59.410 15.5249
59.415 15.463601
59.420 15.66255
59.425 15.102607
59.430 14.712141
59.435 14.746874
59.440 14.800779
59.445 14.447647
59.450 14.76969
59.455 14.6684
59.460 15.090798
59.465 15.705379
59.470 16.04281
59.475 16.902403
59.480 17.030149
59.485 16.759108
59.490 17.092056
59.495 16.755047
59.500 15.397259
59.505 15.271336
59.510 14.991448
59.515 14.935097
59.520 15.277729
59.525 14.844008
59.530 14.997907
59.535 15.325773
59.540 15.156006
59.545 14.993111
59.550 15.631339
59.555 15.712791
59.560 15.879499
59.565 16.230331
59.570 16.515879
59.575 16.936035
59.580 16.72258
59.585 16.489157
59.590 16.392843
59.595 16.471083
59.600 16.808365
59.605 16.822126
59.610 16.788071
59.615 16.777178
59.620 16.492638
59.625 16.364967
59.630 16.361286
59.635 15.788635
59.640 15.567787
59.645 15.56303
59.650 16.102852
59.655 16.330482
59.660 16.516834
59.665 16.50873
59.670 17.121338
59.675 17.839037
59.680 18.045074
59.685 18.435026
59.690 18.679495
59.695 19.237339
59.700 19.615929
59.705 19.316324
59.710 18.925747
59.715 18.613773
59.720 17.80377
59.725 17.675579
59.730 17.36631
59.735 16.93671
59.740 17.690966
59.745 17.565014
59.750 17.435894
59.755 17.292961
59.760 16.933769
59.765 16.877148
59.770 16.650574
59.775 16.283682
59.780 16.587334
59.785 17.025667
59.790 17.578913
59.795 17.591984
59.800 17.897444
59.805 17.939533
59.810 17.228111
59.815 17.054388
59.820 16.914047
59.825 17.049385
59.830 17.001043
59.835 16.54969
59.840 16.891756
59.845 17.216843
59.850 17.788033
59.855 17.937193
59.860 17.959017
59.865 18.323717
59.870 18.566965
59.875 18.176327
59.880 18.226379
59.885 17.575977
59.890 17.464972
59.895 17.655602
59.900 17.499674
59.905 17.315956
59.910 17.480654
59.915 17.468832
59.920 17.658194
59.925 17.428308
59.930 17.468218
59.935 17.876219
59.940 18.035395
59.945 18.383268
59.950 18.723959
59.955 18.985701
59.960 19.226761
59.965 19.462727
59.970 19.46553
59.975 19.910963
59.980 20.144526
59.985 19.66399
59.990 19.559498
59.995 19.09285
60.000 18.631805
60.005 18.692293
60.010 18.840784
60.015 18.924023
60.020 19.392172
60.025 19.572323
60.030 19.320274
60.035 19.070351
60.040 18.573006
60.045 18.024069
60.050 17.806252
60.055 16.963837
60.060 16.50914
60.065 16.658386
60.070 17.205887
60.075 17.473549
60.080 17.795794
60.085 18.691162
60.090 19.559242
60.095 20.162542
60.100 20.174076
60.105 19.686668
60.110 19.502562
60.115 19.382574
60.120 19.189415
60.125 19.247007
60.130 18.795305
60.135 18.822113
60.140 18.826488
60.145 18.790386
60.150 18.626564
60.155 18.603256
60.160 17.966747
60.165 17.252033
60.170 17.045654
60.175 17.257784
60.180 17.462244
60.185 17.098671
60.190 16.968342
60.195 17.671549
60.200 18.466162
60.205 18.814804
60.210 19.013136
60.215 19.335793
60.220 19.959303
60.225 20.023386
60.230 19.871065
60.235 20.016605
60.240 20.145182
60.245 19.778278
60.250 19.526676
60.255 19.327959
60.260 19.157829
60.265 19.03429
60.270 19.162062
60.275 19.370394
60.280 19.594891
60.285 19.376537
60.290 19.888842
60.295 20.540466
60.300 21.065062
60.305 21.152567
60.310 21.102621
60.315 21.490398
60.320 21.11097
60.325 20.505186
60.330 20.126829
60.335 20.100491
60.340 20.045746
60.345 20.950125
60.350 21.138762
60.355 21.506426
60.360 21.320944
60.365 20.884291
60.370 20.505911
60.375 19.780199
60.380 18.346483
60.385 17.886583
60.390 17.963739
60.395 17.631613
60.400 17.289249
60.405 17.48019
60.410 17.456419
60.415 18.023945
60.420 18.29043
60.425 18.072212
60.430 18.655882
60.435 19.045834
60.440 19.20977
60.445 19.327627
60.450 19.014423
60.455 18.829584
60.460 19.035513
60.465 19.636166
60.470 19.742222
60.475 19.708431
60.480 20.203062
60.485 19.813721
60.490 19.794994
60.495 19.813471
60.500 19.085732
60.505 18.751585
60.510 19.263243
60.515 19.397108
60.520 19.546413
60.525 19.655006
60.530 19.796354
60.535 19.505264
60.540 19.597702
60.545 19.056324
60.550 18.630199
60.555 18.775253
60.560 19.015839
60.565 18.971788
60.570 19.470036
60.575 19.674131
60.580 19.788008
60.585 20.066339
60.590 20.120794
60.595 20.261021
60.600 20.319141
60.605 20.262621
60.610 20.093275
60.615 19.667492
60.620 19.655478
60.625 19.312946
60.630 18.466375
60.635 17.890478
60.640 16.935953
60.645 16.931854
60.650 16.944565
60.655 16.2847
60.660 16.54081
60.665 16.905304
60.670 17.442432
60.675 17.885612
60.680 16.89743
60.685 16.660717
60.690 16.819948
60.695 16.647289
60.700 16.203682
60.705 16.344393
60.710 17.005199
60.715 17.688736
60.720 17.583687
60.725 17.686869
60.730 18.13726
60.735 18.445786
60.740 18.535278
60.745 17.812712
60.750 18.486916
60.755 18.972805
60.760 18.6586
60.765 18.467682
60.770 18.260517
60.775 17.765966
60.780 17.805202
60.785 17.324406
60.790 17.260023
60.795 17.898449
60.800 17.870274
60.805 17.703079
60.810 17.673395
60.815 17.123669
60.820 16.877657
60.825 16.877676
60.830 16.208189
60.835 16.125523
60.840 16.230352
60.845 16.420866
60.850 17.242086
60.855 17.321058
60.860 17.196896
60.865 17.308773
60.870 16.929792
60.875 17.138496
60.880 17.413441
60.885 17.019484
60.890 17.231878
60.895 16.842098
60.900 16.748875
60.905 16.735771
60.910 17.068668
60.915 16.868212
60.920 17.273355
60.925 17.174696
60.930 17.554394
60.935 18.145142
60.940 18.536804
60.945 18.361267
60.950 18.958736
60.955 19.326963
60.960 19.143164
60.965 18.884823
60.970 18.982121
60.975 18.968719
60.980 18.682951
60.985 18.302044
60.990 17.324717
60.995 17.587738
61.000 17.446482
61.005 16.84514
61.010 16.686195
61.015 16.604931
61.020 16.295586
61.025 16.357092
61.030 15.675223
61.035 15.934228
61.040 15.773438
61.045 15.627711
61.050 15.843356
61.055 15.81825
61.060 15.42991
61.065 15.579374
61.070 15.197219
61.075 15.611699
61.080 15.780498
61.085 15.554479
61.090 15.74723
61.095 16.538244
61.100 16.866255
61.105 17.056379
61.110 17.553566
61.115 17.404448
61.120 17.590307
61.125 17.612234
61.130 17.194958
61.135 16.62496
61.140 16.856508
61.145 16.204157
61.150 16.205296
61.155 16.041773
61.160 16.50663
61.165 16.912563
61.170 17.686392
61.175 17.75683
61.180 17.76247
61.185 17.921623
61.190 17.957592
61.195 17.61776
61.200 18.479321
61.205 18.794752
61.210 18.974165
61.215 19.327036
61.220 18.994059
61.225 19.31115
61.230 19.399158
61.235 18.117329
61.240 17.117115
61.245 16.387886
61.250 15.811209
61.255 16.013823
61.260 15.50749
61.265 15.372287
61.270 16.337727
61.275 16.620291
61.280 16.300665
61.285 16.350306
61.290 16.20734
61.295 16.047245
61.300 15.529666
61.305 14.67757
61.310 14.995806
61.315 15.427641
61.320 15.397196
61.325 15.445346
61.330 15.486884
61.335 15.811852
61.340 15.824625
61.345 15.678805
61.350 15.575035
61.355 15.873068
61.360 15.859883
61.365 16.283611
61.370 16.180992
61.375 15.727652
61.380 15.944629
61.385 15.818717
61.390 15.562775
61.395 15.715474
61.400 15.146691
61.405 15.241441
61.410 15.338343
61.415 14.897371
61.420 15.002203
61.425 15.333795
61.430 15.238633
61.435 15.514203
61.440 15.86718
61.445 16.090969
61.450 16.321693
61.455 16.677462
61.460 16.42379
61.465 16.399136
61.470 16.466606
61.475 16.207685
61.480 16.198938
61.485 16.338699
61.490 16.448824
61.495 16.555925
61.500 16.206842
61.505 15.583467
61.510 14.910027
61.515 15.022986
61.520 14.835917
61.525 14.611062
61.530 15.058854
61.535 15.862063
61.540 16.468664
61.545 16.693987
61.550 16.743935
61.555 17.356663
61.560 17.018227
61.565 16.79224
61.570 16.389301
61.575 16.166346
61.580 16.187643
61.585 15.584007
61.590 14.892761
61.595 15.198136
61.600 14.831581
61.605 14.865442
61.610 15.200694
61.615 15.185371
61.620 15.558157
61.625 15.653773
61.630 15.601779
61.635 15.790277
61.640 15.606586
61.645 15.98293
61.650 15.66656
61.655 15.403159
61.660 15.947261
61.665 15.840176
61.670 15.988801
61.675 16.064369
61.680 15.790515
61.685 16.010126
61.690 16.007666
61.695 15.19839
61.700 15.106114
61.705 14.812343
61.710 14.45015
61.715 14.666969
61.720 15.27315
61.725 15.45186
61.730 15.777116
61.735 15.994794
61.740 16.751575
61.745 17.058876
61.750 16.360893
61.755 16.094877
61.760 15.754067
61.765 15.696181
61.770 15.591684
61.775 15.198494
61.780 14.751628
61.785 15.034925
61.790 14.901795
61.795 15.284078
61.800 15.399635
61.805 15.629478
61.810 15.346262
61.815 15.608907
61.820 15.951816
61.825 16.200966
61.830 16.565876
61.835 16.179359
61.840 16.253141
61.845 16.074924
61.850 15.509632
61.855 14.806967
61.860 14.498792
61.865 14.458716
61.870 14.782516
61.875 14.755029
61.880 15.316175
61.885 15.973059
61.890 16.456293
61.895 16.723812
61.900 16.689421
61.905 16.515675
61.910 16.415657
61.915 16.335943
61.920 16.227448
61.925 16.450117
61.930 16.615755
61.935 16.881502
61.940 16.698685
61.945 16.647097
61.950 17.062845
61.955 16.884365
61.960 16.455082
61.965 16.268599
61.970 15.739678
61.975 15.836929
61.980 15.519254
61.985 14.995337
61.990 14.518281
61.995 14.74102
62.000 14.092203
62.005 14.309653
62.010 14.575166
62.015 14.639181
62.020 14.92114
62.025 15.836719
62.030 16.117662
62.035 16.378033
62.040 16.342712
62.045 16.636114
62.050 16.650127
62.055 16.737825
62.060 16.492447
62.065 16.014961
62.070 16.033983
62.075 16.052505
62.080 15.71971
62.085 15.729918
62.090 15.299745
62.095 15.397895
62.100 15.49851
62.105 15.822932
62.110 15.267692
62.115 15.015924
62.120 15.203087
62.125 15.796401
62.130 16.009659
62.135 16.46785
62.140 16.13903
62.145 15.923697
62.150 15.54238
62.155 15.158637
62.160 14.918997
62.165 15.381386
62.170 15.807184
62.175 16.675959
62.180 17.659239
62.185 18.409117
62.190 18.611048
62.195 18.177296
62.200 17.529022
62.205 17.082708
62.210 16.209808
62.215 15.68504
62.220 15.885351
62.225 16.112135
62.230 16.453686
62.235 16.331181
62.240 16.258699
62.245 16.408052
62.250 16.294334
62.255 15.887861
62.260 15.995505
62.265 15.811687
62.270 15.663253
62.275 15.616819
62.280 16.078709
62.285 16.231281
62.290 15.927024
62.295 15.534003
62.300 15.667791
62.305 15.585799
62.310 15.685636
62.315 15.183072
62.320 15.412304
62.325 15.600155
62.330 15.941539
62.335 16.102066
62.340 16.28581
62.345 16.160187
62.350 16.671354
62.355 16.336164
62.360 16.455763
62.365 16.459755
62.370 16.027248
62.375 15.924398
62.380 15.595796
62.385 15.008924
62.390 15.180979
62.395 15.5354
62.400 15.446622
62.405 15.674504
62.410 15.854263
62.415 16.282907
62.420 16.161919
62.425 15.586916
62.430 15.181951
62.435 15.016653
62.440 14.695548
62.445 15.116143
62.450 15.92503
62.455 16.59199
62.460 17.228889
62.465 17.36949
62.470 17.829836
62.475 18.138868
62.480 18.108568
62.485 17.908974
62.490 17.245121
62.495 17.181799
62.500 17.33532
62.505 17.089817
62.510 16.797737
62.515 15.846743
62.520 14.924337
62.525 15.214673
62.530 14.838828
62.535 14.855349
62.540 15.031703
62.545 15.227766
62.550 14.941339
62.555 14.92872
62.560 15.138228
62.565 15.370543
62.570 14.840308
62.575 14.812486
62.580 14.784286
62.585 15.63468
62.590 16.160862
62.595 16.269323
62.600 15.478943
62.605 15.514198
62.610 15.337068
62.615 15.485722
62.620 15.256886
62.625 15.164983
62.630 14.874098
62.635 15.704
62.640 15.98033
62.645 16.143991
62.650 16.840225
62.655 17.168343
62.660 17.041164
62.665 16.786394
62.670 16.016571
62.675 16.003132
62.680 15.145658
62.685 14.466666
62.690 14.47179
62.695 14.699378
62.700 15.133382
62.705 15.087687
62.710 14.763176
62.715 15.184657
62.720 14.982623
62.725 14.586146
62.730 14.698895
62.735 15.173158
62.740 15.867785
62.745 16.441641
62.750 16.846851
62.755 16.750435
62.760 16.706434
62.765 16.349508
62.770 15.886384
62.775 15.600901
62.780 15.397016
62.785 15.244827
62.790 15.205729
62.795 15.190648
62.800 15.261226
62.805 15.630854
62.810 15.47158
62.815 15.176501
62.820 14.706006
62.825 14.884129
62.830 15.148888
62.835 14.740829
62.840 14.153764
62.845 14.945628
62.850 15.362535
62.855 15.911523
62.860 16.107265
62.865 16.107874
62.870 16.853876
62.875 17.113728
62.880 16.429289
62.885 15.842311
62.890 15.736316
62.895 15.134844
62.900 15.196202
62.905 15.06653
62.910 14.976031
62.915 15.141644
62.920 15.261149
62.925 14.918948
62.930 14.928598
62.935 14.702933
62.940 15.043661
62.945 15.51314
62.950 15.909152
62.955 16.451916
62.960 16.763763
62.965 17.175142
62.970 17.427065
62.975 16.863045
62.980 16.369329
62.985 15.959234
62.990 16.097548
62.995 16.445862
63.000 16.943087
63.005 16.916475
63.010 17.263996
63.015 17.912493
63.020 18.401085
63.025 18.700903
63.030 18.696247
63.035 18.504395
63.040 17.692682
63.045 17.751646
63.050 17.402847
63.055 17.227758
63.060 16.997772
63.065 16.594656
63.070 16.280584
63.075 16.931084
63.080 16.682381
63.085 16.179983
63.090 15.6892
63.095 15.445106
63.100 15.203169
63.105 15.335015
63.110 15.291891
63.115 14.993776
63.120 15.123455
63.125 15.352376
63.130 15.568428
63.135 15.657907
63.140 15.192613
63.145 15.200072
63.150 15.49747
63.155 15.331396
63.160 15.275306
63.165 15.57849
63.170 15.811371
63.175 16.578846
63.180 16.801229
63.185 17.135221
63.190 17.511078
63.195 17.47681
63.200 16.907112
63.205 16.755997
63.210 16.060768
63.215 15.531412
63.220 15.525492
63.225 15.634114
63.230 15.471677
63.235 15.404453
63.240 15.373172
63.245 15.461452
63.250 15.547904
63.255 15.252394
63.260 14.921829
63.265 15.258197
63.270 15.311798
63.275 15.313741
63.280 14.952218
63.285 14.863012
63.290 14.701685
63.295 14.543269
63.300 15.132287
63.305 16.014914
63.310 17.031603
63.315 17.32156
63.320 17.569275
63.325 18.139704
63.330 18.711824
63.335 18.308237
63.340 17.685125
63.345 17.133596
63.350 17.376257
63.355 17.518837
63.360 17.341417
63.365 17.02313
63.370 17.202635
63.375 17.303722
63.380 17.676455
63.385 17.957603
63.390 17.946381
63.395 17.692982
63.400 17.786306
63.405 17.692478
63.410 17.340916
63.415 16.808739
63.420 16.871471
63.425 17.195747
63.430 17.765406
63.435 17.738199
63.440 17.865267
63.445 17.945364
63.450 18.019127
63.455 17.6558
63.460 17.078213
63.465 16.483332
63.470 16.048208
63.475 15.752479
63.480 16.005846
63.485 15.708405
63.490 15.632709
63.495 16.287373
63.500 17.062979
63.505 16.995146
63.510 17.053318
63.515 16.990149
63.520 16.914732
63.525 16.384415
63.530 16.443464
63.535 16.518496
63.540 16.645277
63.545 17.297626
63.550 17.416134
63.555 17.733034
63.560 18.488358
63.565 18.456886
63.570 18.469778
63.575 18.418522
63.580 18.021114
63.585 17.905991
63.590 17.669436
63.595 17.550602
63.600 17.113354
63.605 16.762671
63.610 16.397049
63.615 16.261539
63.620 16.276485
63.625 16.349304
63.630 15.858369
63.635 15.690001
63.640 15.81977
63.645 16.397186
63.650 16.701128
63.655 17.226412
63.660 17.527754
63.665 17.972179
63.670 18.630405
63.675 18.802374
63.680 18.565027
63.685 18.027451
63.690 17.820015
63.695 17.682537
63.700 17.501822
63.705 17.035563
63.710 16.996058
63.715 16.881239
63.720 17.015779
63.725 16.423723
63.730 16.247641
63.735 16.689171
63.740 16.883101
63.745 16.575239
63.750 16.390852
63.755 16.760237
63.760 16.932062
63.765 17.105963
63.770 16.237696
63.775 15.984876
63.780 16.44311
63.785 16.531696
63.790 16.762009
63.795 17.086586
63.800 16.77714
63.805 16.527519
63.810 16.791243
63.815 16.831184
63.820 17.062702
63.825 16.555824
63.830 16.550411
63.835 17.132414
63.840 17.713905
63.845 17.565098
63.850 17.848537
63.855 18.246
63.860 18.480421
63.865 18.627155
63.870 18.417326
63.875 17.929243
63.880 17.25552
63.885 16.772209
63.890 15.983808
63.895 15.620063
63.900 15.24296
63.905 14.917231
63.910 15.348017
63.915 15.486341
63.920 15.650903
63.925 15.915897
63.930 16.120052
63.935 17.069914
63.940 17.494408
63.945 17.640764
63.950 17.953409
63.955 17.917507
63.960 18.103642
63.965 18.094864
63.970 17.296598
63.975 17.101728
63.980 16.875782
63.985 16.83309
63.990 17.422653
63.995 17.380302
64.000 17.607227
64.005 17.750774
64.010 18.108221
64.015 18.18351
64.020 18.011816
64.025 17.557045
64.030 17.548079
64.035 17.370304
64.040 17.107601
64.045 16.998791
64.050 17.673834
64.055 18.033873
64.060 17.971956
64.065 18.139614
64.070 18.744961
64.075 18.819122
64.080 18.576994
64.085 17.756121
64.090 17.686934
64.095 17.827383
64.100 17.554935
64.105 17.261488
64.110 17.325392
64.115 17.458654
64.120 17.500841
64.125 16.847019
64.130 16.159039
64.135 16.154724
64.140 15.613354
64.145 15.174367
64.150 15.145282
64.155 15.582784
64.160 15.950328
64.165 16.04158
64.170 16.27964
64.175 16.784359
64.180 17.282057
64.185 17.390736
64.190 17.30788
64.195 17.32353
64.200 17.333975
64.205 17.253588
64.210 17.582571
64.215 17.690157
64.220 17.453651
64.225 17.478313
64.230 17.823883
64.235 17.661547
64.240 17.189625
64.245 16.746132
64.250 16.588322
64.255 16.33157
64.260 16.112436
64.265 16.148306
64.270 16.618616
64.275 16.775726
64.280 16.271368
64.285 16.387335
64.290 16.719866
64.295 16.563183
64.300 16.372673
64.305 16.383677
64.310 16.868752
64.315 17.108501
64.320 16.543205
64.325 16.812708
64.330 16.970665
64.335 16.725536
64.340 16.768026
64.345 16.319414
64.350 17.379152
64.355 18.111055
64.360 18.071104
64.365 17.841925
64.370 17.414421
64.375 17.263908
64.380 17.379213
64.385 17.314068
64.390 16.850723
64.395 16.569357
64.400 17.106686
64.405 17.496441
64.410 17.536327
64.415 17.607796
64.420 17.302826
64.425 17.140484
64.430 17.455679
64.435 17.805031
64.440 18.472757
64.445 18.743032
64.450 18.680573
64.455 18.755466
64.460 18.965343
64.465 18.57933
64.470 18.154369
64.475 17.660488
64.480 17.001259
64.485 17.005817
64.490 16.835684
64.495 17.111391
64.500 17.458883
64.505 17.152058
64.510 17.441845
64.515 18.074886
64.520 18.527193
64.525 18.123772
64.530 18.147007
64.535 18.154587
64.540 18.694181
64.545 18.970083
64.550 18.633606
64.555 18.519825
64.560 19.124868
64.565 19.468943
64.570 19.641031
64.575 19.644341
64.580 19.501617
64.585 20.09199
64.590 19.67757
64.595 19.048737
64.600 18.890432
64.605 18.88302
64.610 18.810535
64.615 18.606544
64.620 18.469389
64.625 19.060917
64.630 19.661232
64.635 19.473997
64.640 19.313852
64.645 18.983522
64.650 18.948778
64.655 18.969837
64.660 18.329273
64.665 18.339489
64.670 18.346235
64.675 17.777205
64.680 17.916903
64.685 17.636402
64.690 17.411287
64.695 17.733007
64.700 17.727285
64.705 17.48653
64.710 18.121555
64.715 18.377871
64.720 18.160704
64.725 18.180433
64.730 18.164404
64.735 17.569681
64.740 17.759188
64.745 17.317614
64.750 17.088728
64.755 17.110985
64.760 17.111843
64.765 16.815592
64.770 17.065142
64.775 17.435837
64.780 17.727013
64.785 18.221647
64.790 18.263166
64.795 18.015112
64.800 18.368057
64.805 18.723711
64.810 19.230381
64.815 19.681908
64.820 19.556364
64.825 20.158981
64.830 20.435043
64.835 20.404619
64.840 20.177769
64.845 19.739313
64.850 19.552755
64.855 19.335564
64.860 19.423717
64.865 19.654121
64.870 19.698267
64.875 19.979334
64.880 20.326736
64.885 19.769232
64.890 20.058407
64.895 19.726776
64.900 20.020924
64.905 20.356571
64.910 20.126881
64.915 19.585966
64.920 20.082811
64.925 19.617477
64.930 19.659472
64.935 19.450903
64.940 19.496695
64.945 19.791313
64.950 19.600273
64.955 19.598938
64.960 19.795818
64.965 19.454723
64.970 19.382639
64.975 19.110052
64.980 18.783781
64.985 19.428587
64.990 19.692198
64.995 19.729868
65.000 19.764221
65.005 19.5156
65.010 19.342644
65.015 19.540249
65.020 20.61985
65.025 20.224733
65.030 19.861149
65.035 19.538416
65.040 19.72361
65.045 19.335548
65.050 18.814669
65.055 17.604658
65.060 17.864624
65.065 17.887451
65.070 18.281088
65.075 18.720301
65.080 19.345758
65.085 19.458488
65.090 19.388809
65.095 18.995663
65.100 19.069952
65.105 19.346766
65.110 19.606398
65.115 19.915081
65.120 20.668457
65.125 20.954016
65.130 21.627579
65.135 22.216146
65.140 21.734924
65.145 20.930429
65.150 20.614262
65.155 20.943394
65.160 20.421654
65.165 19.831871
65.170 19.516958
65.175 19.882742
65.180 20.274553
65.185 20.583269
65.190 20.608976
65.195 21.395788
65.200 21.517406
65.205 21.877066
65.210 21.289019
65.215 20.581709
65.220 20.300226
65.225 20.164661
65.230 19.844315
65.235 20.264017
65.240 20.325563
65.245 20.610355
65.250 21.11805
65.255 20.802977
65.260 20.589586
65.265 20.527863
65.270 20.131184
65.275 19.976213
65.280 20.171988
65.285 20.212025
65.290 20.783562
65.295 20.944555
65.300 21.321379
65.305 21.974785
65.310 22.477043
65.315 22.327726
65.320 22.063408
65.325 21.782751
65.330 21.454367
65.335 21.52376
65.340 21.324821
65.345 21.300732
65.350 22.206564
65.355 22.866434
65.360 22.633892
65.365 23.160975
65.370 22.910013
65.375 22.82622
65.380 23.019709
65.385 22.308815
65.390 22.334454
65.395 22.596302
65.400 23.188133
65.405 24.208057
65.410 24.690014
65.415 24.179888
65.420 24.203663
65.425 23.848173
65.430 23.448597
65.435 22.968855
65.440 22.647335
65.445 21.763977
65.450 21.582594
65.455 21.519964
65.460 22.515366
65.465 22.754519
65.470 22.684685
65.475 22.945555
65.480 24.00145
65.485 24.82774
65.490 25.601536
65.495 25.196692
65.500 25.01346
65.505 25.026131
65.510 25.282162
65.515 26.136595
65.520 25.815048
65.525 25.342115
65.530 25.939688
65.535 26.350241
65.540 26.464447
65.545 26.683105
65.550 26.748102
65.555 27.207563
65.560 27.250044
65.565 27.684443
65.570 28.447554
65.575 28.897346
65.580 29.007938
65.585 28.930138
65.590 29.123329
65.595 29.626047
65.600 29.674685
65.605 29.807756
65.610 29.962231
65.615 30.346403
65.620 30.755653
65.625 30.605581
65.630 30.684391
65.635 30.010782
65.640 30.287094
65.645 30.103415
65.650 29.123764
65.655 28.759724
65.660 29.405069
65.665 30.124907
65.670 30.903059
65.675 30.312063
65.680 31.001041
65.685 32.043598
65.690 32.647472
65.695 32.142487
65.700 30.590723
65.705 30.362673
65.710 30.833487
65.715 30.93368
65.720 30.463799
65.725 30.569113
65.730 31.711002
65.735 32.324806
65.740 32.5998
65.745 32.6614
65.750 33.179874
65.755 33.777981
65.760 34.344746
65.765 34.093193
65.770 34.740555
65.775 34.79015
65.780 34.832699
65.785 34.607033
65.790 33.800163
65.795 33.315315
65.800 33.103024
65.805 33.270622
65.810 33.199738
65.815 33.073475
65.820 33.319218
65.825 33.422886
65.830 33.229191
65.835 33.760929
65.840 34.143898
65.845 34.022839
65.850 34.969597
65.855 36.283993
65.860 37.215054
65.865 37.545803
65.870 37.454372
65.875 37.339085
65.880 38.207233
65.885 37.756733
65.890 37.208313
65.895 36.987671
65.900 36.993965
65.905 36.998215
65.910 37.013592
65.915 36.446327
65.920 36.413673
65.925 35.974728
65.930 35.485245
65.935 35.864223
65.940 35.697815
65.945 36.097233
65.950 35.922981
65.955 35.780472
65.960 35.833961
65.965 35.966816
65.970 35.968868
65.975 36.224522
65.980 35.943089
65.985 35.565716
65.990 35.279297
65.995 36.000477
66.000 36.548092
66.005 36.351685
66.010 35.781559
66.015 35.266552
66.020 35.602386
66.025 36.215279
66.030 35.855698
66.035 35.678261
66.040 35.333916
66.045 35.670502
66.050 35.739475
66.055 35.396664
66.060 34.480446
66.065 33.61697
66.070 33.205395
66.075 32.505081
66.080 32.158257
66.085 32.480736
66.090 32.702518
66.095 33.437199
66.100 33.771008
66.105 34.248985
66.110 34.722626
66.115 34.845943
66.120 35.199413
66.125 35.870743
66.130 35.754021
66.135 35.455463
66.140 35.077972
66.145 34.956062
66.150 34.912247
66.155 34.830051
66.160 34.159695
66.165 33.712803
66.170 33.871181
66.175 33.410744
66.180 33.327816
66.185 32.387669
66.190 31.569817
66.195 31.118023
66.200 30.177729
66.205 29.713312
66.210 29.243126
66.215 28.266151
66.220 28.341408
66.225 27.948214
66.230 28.358303
66.235 28.455572
66.240 28.989159
66.245 29.834282
66.250 30.618513
66.255 30.940485
66.260 31.113909
66.265 31.053036
66.270 31.242537
66.275 30.349169
66.280 30.147259
66.285 30.463892
66.290 30.575109
66.295 30.484686
66.300 30.005329
66.305 29.722937
66.310 29.956867
66.315 30.065777
66.320 29.405228
66.325 28.607779
66.330 28.713411
66.335 29.223688
66.340 28.630014
66.345 28.169102
66.350 27.781189
66.355 27.432428
66.360 27.305666
66.365 27.313816
66.370 27.504221
66.375 28.39352
66.380 28.153738
66.385 28.792992
66.390 29.710697
66.395 30.231579
66.400 30.072126
66.405 29.657471
66.410 30.407803
66.415 30.790636
66.420 30.479345
66.425 29.640333
66.430 29.752903
66.435 30.528994
66.440 30.880766
66.445 30.084332
66.450 29.37112
66.455 28.944723
66.460 28.655249
66.465 27.907818
66.470 26.836374
66.475 26.194006
66.480 26.364141
66.485 27.250494
66.490 27.118916
66.495 27.63455
66.500 27.832554
66.505 27.784216
66.510 28.071989
66.515 27.41118
66.520 27.357622
66.525 27.502769
66.530 27.505939
66.535 26.928076
66.540 26.696201
66.545 26.809944
66.550 27.496071
66.555 27.484285
66.560 27.278023
66.565 27.515003
66.570 27.693306
66.575 27.889278
66.580 27.311769
66.585 26.652073
66.590 26.091486
66.595 25.740297
66.600 24.908606
66.605 25.857925
66.610 26.287289
66.615 26.450865
66.620 26.573805
66.625 26.891653
66.630 26.613892
66.635 26.456589
66.640 25.274347
66.645 24.098255
66.650 23.890474
66.655 23.964159
66.660 23.490816
66.665 24.142757
66.670 24.220062
66.675 24.383978
66.680 24.976383
66.685 24.378975
66.690 23.923122
66.695 23.921541
66.700 23.475971
66.705 23.37335
66.710 23.609003
66.715 23.788469
66.720 23.875643
66.725 23.39105
66.730 23.300503
66.735 23.550852
66.740 23.49682
66.745 23.325771
66.750 23.169415
66.755 22.758257
66.760 22.613153
66.765 22.524778
66.770 22.213362
66.775 22.108381
66.780 21.825352
66.785 21.77084
66.790 22.398031
66.795 23.157564
66.800 22.711874
66.805 23.424841
66.810 23.455399
66.815 23.050449
66.820 22.969603
66.825 23.2752
66.830 23.086914
66.835 22.856264
66.840 22.211208
66.845 22.396456
66.850 22.796383
66.855 22.477192
66.860 21.488846
66.865 21.036386
66.870 21.506037
66.875 21.580271
66.880 21.667803
66.885 21.48855
66.890 21.899504
66.895 22.185852
66.900 22.594608
66.905 21.8839
66.910 21.373791
66.915 21.350178
66.920 21.771006
66.925 22.063774
66.930 21.768097
66.935 21.751137
66.940 22.455292
66.945 22.30991
66.950 22.053686
66.955 21.767988
66.960 21.065495
66.965 21.411304
66.970 21.454338
66.975 20.970655
66.980 21.818634
66.985 22.209949
66.990 22.601645
66.995 22.908875
67.000 23.350309
67.005 23.473814
67.010 23.418016
67.015 22.733149
67.020 22.931393
67.025 22.848555
67.030 23.043032
67.035 22.407951
67.040 22.370157
67.045 23.293243
67.050 23.494534
67.055 24.091932
67.060 24.606247
67.065 24.298763
67.070 24.171444
67.075 24.466358
67.080 24.269361
67.085 23.697777
67.090 22.262783
67.095 21.418528
67.100 21.518177
67.105 21.723309
67.110 21.267569
67.115 21.332785
67.120 22.060501
67.125 22.16032
67.130 22.428034
67.135 22.282259
67.140 22.103327
67.145 21.963654
67.150 21.581196
67.155 21.19121
67.160 21.144657
67.165 20.872509
67.170 20.856319
67.175 20.935915
67.180 21.298347
67.185 21.241327
67.190 21.419674
67.195 21.308561
67.200 21.090899
67.205 20.706118
67.210 20.533422
67.215 20.603966
67.220 20.930317
67.225 20.94775
67.230 21.511896
67.235 21.833841
67.240 21.906551
67.245 21.617628
67.250 21.528999
67.255 21.139481
67.260 20.788412
67.265 20.087198
67.270 20.141916
67.275 20.254185
67.280 19.835485
67.285 19.586193
67.290 19.154663
67.295 19.00082
67.300 19.616266
67.305 19.700111
67.310 19.483025
67.315 20.268192
67.320 20.379969
67.325 21.294546
67.330 21.639517
67.335 21.273933
67.340 21.361937
67.345 21.368103
67.350 21.164566
67.355 20.790873
67.360 20.471809
67.365 20.533812
67.370 20.199993
67.375 20.055761
67.380 20.715771
67.385 21.208939
67.390 21.332798
67.395 21.328638
67.400 21.472979
67.405 21.51399
67.410 21.774784
67.415 21.377228
67.420 21.336998
67.425 21.492235
67.430 21.363121
67.435 21.186827
67.440 21.244343
67.445 21.042221
67.450 21.279858
67.455 21.062634
67.460 20.699335
67.465 20.432713
67.470 20.115166
67.475 19.980032
67.480 20.324921
67.485 20.155928
67.490 20.325005
67.495 20.235775
67.500 20.69799
67.505 20.959362
67.510 20.556553
67.515 20.580593
67.520 20.223118
67.525 19.814289
67.530 19.932467
67.535 19.668047
67.540 19.809086
67.545 20.712566
67.550 20.820509
67.555 21.438578
67.560 21.694263
67.565 21.64476
67.570 21.598528
67.575 21.732044
67.580 21.481855
67.585 20.928846
67.590 20.760059
67.595 21.249409
67.600 21.553417
67.605 21.817678
67.610 22.125404
67.615 22.581049
67.620 22.67161
67.625 23.012272
67.630 23.111488
67.635 22.863913
67.640 22.581856
67.645 22.057974
67.650 21.768587
67.655 21.207014
67.660 21.105335
67.665 20.817333
67.670 20.645609
67.675 20.840746
67.680 20.704525
67.685 20.322779
67.690 20.918024
67.695 21.018307
67.700 21.37203
67.705 21.522884
67.710 21.078157
67.715 20.919683
67.720 21.106733
67.725 21.704384
67.730 21.688963
67.735 21.831264
67.740 21.881336
67.745 22.053867
67.750 21.795029
67.755 21.346308
67.760 21.048439
67.765 20.904657
67.770 20.511038
67.775 20.347429
67.780 20.330404
67.785 20.840567
67.790 20.944338
67.795 20.674452
67.800 20.333246
67.805 19.470404
67.810 19.144377
67.815 19.456114
67.820 19.381798
67.825 19.359798
67.830 18.466175
67.835 18.862072
67.840 19.371145
67.845 19.683996
67.850 19.713869
67.855 20.030041
67.860 19.902233
67.865 19.667786
67.870 19.278702
67.875 19.443996
67.880 19.336172
67.885 19.184591
67.890 18.320904
67.895 18.444777
67.900 18.958521
67.905 19.156052
67.910 19.012135
67.915 19.120808
67.920 19.141109
67.925 19.638044
67.930 19.425175
67.935 19.530418
67.940 19.672916
67.945 19.730064
67.950 19.806299
67.955 20.019823
67.960 20.146154
67.965 20.360479
67.970 20.309973
67.975 20.451445
67.980 20.423342
67.985 20.106949
67.990 20.000587
67.995 19.96652
68.000 19.913792
68.005 19.598188
68.010 19.295734
68.015 19.345425
68.020 19.20302
68.025 18.552942
68.030 18.325327
68.035 18.709318
68.040 18.931023
68.045 18.946012
68.050 19.327185
68.055 20.23295
68.060 20.813696
68.065 21.091007
68.070 20.825575
68.075 21.193941
68.080 21.014002
68.085 20.307232
68.090 19.688251
68.095 19.361416
68.100 18.914162
68.105 18.716129
68.110 18.323687
68.115 18.526241
68.120 18.560953
68.125 18.624756
68.130 19.136627
68.135 19.351763
68.140 19.530087
68.145 19.128139
68.150 18.845551
68.155 19.342417
68.160 19.501205
68.165 19.765005
68.170 19.992018
68.175 20.226517
68.180 20.60634
68.185 20.974846
68.190 21.220364
68.195 21.299023
68.200 21.153856
68.205 21.045254
68.210 21.20009
68.215 20.91287
68.220 20.801336
68.225 20.403875
68.230 20.398285
68.235 20.685335
68.240 20.586792
68.245 20.871315
68.250 21.460617
68.255 21.661623
68.260 21.045765
68.265 21.113188
68.270 21.164307
68.275 21.104197
68.280 20.860794
68.285 20.463131
68.290 20.785477
68.295 20.868135
68.300 20.690786
68.305 21.180574
68.310 20.536383
68.315 19.802166
68.320 19.449104
68.325 19.445202
68.330 20.023849
68.335 19.249891
68.340 19.35681
68.345 19.995829
68.350 20.48638
68.355 20.54353
68.360 20.64839
68.365 20.669386
68.370 20.623569
68.375 20.380043
68.380 20.712103
68.385 20.370388
68.390 20.365953
68.395 19.778181
68.400 19.67193
68.405 19.839617
68.410 19.857615
68.415 20.218027
68.420 20.701736
68.425 21.060478
68.430 21.172852
68.435 21.443764
68.440 21.402439
68.445 21.694895
68.450 21.596651
68.455 21.841095
68.460 21.899288
68.465 21.495211
68.470 21.013924
68.475 20.319292
68.480 19.916746
68.485 19.373848
68.490 19.138838
68.495 19.222178
68.500 20.055624
68.505 20.193569
68.510 20.328131
68.515 20.212934
68.520 20.158278
68.525 20.193262
68.530 20.844725
68.535 20.555901
68.540 20.638489
68.545 20.493526
68.550 20.718586
68.555 20.826624
68.560 21.274225
68.565 20.975121
68.570 20.686548
68.575 20.726046
68.580 21.037245
68.585 20.872179
68.590 20.706459
68.595 20.22193
68.600 20.1388
68.605 20.583088
68.610 20.9172
68.615 20.842039
68.620 20.213146
68.625 19.663435
68.630 19.608177
68.635 19.066084
68.640 19.055206
68.645 19.501945
68.650 19.678457
68.655 20.013487
68.660 19.971188
68.665 20.095778
68.670 20.622488
68.675 20.738838
68.680 20.307541
68.685 20.486784
68.690 20.557106
68.695 20.881929
68.700 20.822561
68.705 20.342161
68.710 20.132421
68.715 20.210367
68.720 19.692442
68.725 19.523405
68.730 19.272694
68.735 18.824131
68.740 19.420609
68.745 19.16502
68.750 19.517694
68.755 20.631426
68.760 21.286755
68.765 21.576847
68.770 21.600714
68.775 21.679102
68.780 21.742914
68.785 21.787535
68.790 21.45878
68.795 21.059969
68.800 20.504238
68.805 20.8207
68.810 21.054632
68.815 21.095078
68.820 20.607214
68.825 21.202686
68.830 21.710947
68.835 22.231058
68.840 21.887825
68.845 22.102514
68.850 22.48612
68.855 22.717739
68.860 22.291529
68.865 21.785425
68.870 21.469658
68.875 21.839518
68.880 21.965454
68.885 21.631969
68.890 21.605804
68.895 21.867577
68.900 22.854153
68.905 23.287735
68.910 23.192543
68.915 22.900503
68.920 23.441418
68.925 23.295464
68.930 22.998768
68.935 23.016685
68.940 22.988884
68.945 22.461269
68.950 22.52581
68.955 22.747433
68.960 22.395191
68.965 23.094179
68.970 23.377798
68.975 23.758858
68.980 23.617987
68.985 23.374336
68.990 23.946157
68.995 24.874744
69.000 24.375816
69.005 24.282448
69.010 24.35549
69.015 25.126106
69.020 25.002556
69.025 24.215683
69.030 23.807926
69.035 23.743252
69.040 23.778584
69.045 23.555483
69.050 23.374304
69.055 23.144386
69.060 23.309572
69.065 23.82847
69.070 23.224754
69.075 22.782269
69.080 22.354567
69.085 22.744389
69.090 23.908167
69.095 24.464962
69.100 24.789156
69.105 25.446426
69.110 26.221449
69.115 26.808216
69.120 26.513102
69.125 25.703777
69.130 25.696415
69.135 25.538549
69.140 25.556398
69.145 24.917828
69.150 24.928101
69.155 25.026369
69.160 24.75864
69.165 23.862955
69.170 23.870268
69.175 23.998402
69.180 23.845098
69.185 23.42296
69.190 23.311159
69.195 23.392843
69.200 23.467785
69.205 23.646603
69.210 23.94529
69.215 25.293652
69.220 25.68593
69.225 25.790119
69.230 26.430807
69.235 26.701061
69.240 26.703272
69.245 26.195227
69.250 25.072197
69.255 24.807592
69.260 24.122156
69.265 24.125013
69.270 24.284492
69.275 24.651947
69.280 24.605963
69.285 25.140533
69.290 25.480665
69.295 25.846651
69.300 25.551586
69.305 25.435566
69.310 25.234198
69.315 24.509281
69.320 23.562094
69.325 23.749519
69.330 23.776594
69.335 24.245447
69.340 24.631456
69.345 25.281748
69.350 26.228413
69.355 27.140898
69.360 26.77467
69.365 27.309443
69.370 26.805098
69.375 26.160702
69.380 26.401358
69.385 26.441872
69.390 26.394506
69.395 26.60441
69.400 26.109362
69.405 26.169632
69.410 26.264858
69.415 25.655525
69.420 26.221029
69.425 27.291973
69.430 27.463066
69.435 27.761742
69.440 27.942593
69.445 28.320917
69.450 29.133507
69.455 28.595106
69.460 27.748621
69.465 27.781889
69.470 27.865028
69.475 28.131567
69.480 27.826912
69.485 27.660954
69.490 27.464365
69.495 27.635233
69.500 27.79579
69.505 28.112318
69.510 28.123262
69.515 28.060259
69.520 27.576628
69.525 27.264914
69.530 27.473989
69.535 27.199442
69.540 26.697269
69.545 26.681353
69.550 27.063091
69.555 27.825045
69.560 27.765116
69.565 27.88899
69.570 28.800465
69.575 29.396706
69.580 28.926785
69.585 28.772007
69.590 28.63501
69.595 28.433535
69.600 27.421854
69.605 26.715393
69.610 26.774387
69.615 26.609867
69.620 26.120773
69.625 26.340536
69.630 26.436745
69.635 27.269472
69.640 27.20262
69.645 27.11565
69.650 28.101067
69.655 28.650475
69.660 29.31032
69.665 29.22068
69.670 28.481211
69.675 28.634127
69.680 28.23073
69.685 28.633408
69.690 28.750362
69.695 27.863403
69.700 27.525778
69.705 26.974928
69.710 26.880114
69.715 27.283337
69.720 26.10206
69.725 25.547752
69.730 25.116106
69.735 24.981411
69.740 25.417246
69.745 25.168486
69.750 25.045265
69.755 25.359976
69.760 25.226646
69.765 25.343616
69.770 25.519571
69.775 25.100843
69.780 24.201679
69.785 24.051994
69.790 23.466255
69.795 23.276327
69.800 22.958818
69.805 22.196739
69.810 22.819052
69.815 23.74316
69.820 23.730999
69.825 23.817665
69.830 24.036322
69.835 25.531004
69.840 26.09166
69.845 25.219694
69.850 24.307886
69.855 23.697521
69.860 23.628485
69.865 23.437197
69.870 22.755161
69.875 22.307146
69.880 22.693148
69.885 23.054514
69.890 23.243446
69.895 23.763824
69.900 23.749203
69.905 23.617498
69.910 24.168249
69.915 23.442936
69.920 23.773371
69.925 23.731552
69.930 23.45188
69.935 23.410994
69.940 22.792669
69.945 22.412859
69.950 23.05216
69.955 22.623495
69.960 22.520779
69.965 22.480539
69.970 22.074039
69.975 22.022978
69.980 21.474819
69.985 20.408979
69.990 20.572769
69.995 20.416359
70.000 20.080635
70.005 20.732773
70.010 21.216476
70.015 21.702623
70.020 21.990746
70.025 22.080547
70.030 21.578876
70.035 20.950003
70.040 20.713284
70.045 20.172445
70.050 19.963024
70.055 19.776814
70.060 19.365646
70.065 19.779556
70.070 20.082577
70.075 19.811609
70.080 20.132555
70.085 20.295124
70.090 20.189909
70.095 20.921696
70.100 21.415003
70.105 21.213364
70.110 21.128771
70.115 21.323816
70.120 21.177963
70.125 21.078556
70.130 20.30698
70.135 19.64757
70.140 19.807491
70.145 19.641432
70.150 19.379982
70.155 19.06925
70.160 18.958363
70.165 19.229486
70.170 19.467072
70.175 19.438145
70.180 19.219818
70.185 19.359737
70.190 19.828922
70.195 20.012976
70.200 20.316799
70.205 20.445362
70.210 20.458925
70.215 20.501146
70.220 20.681185
70.225 20.437651
70.230 20.081238
70.235 19.25633
70.240 19.614042
70.245 19.983585
70.250 20.470003
70.255 20.599957
70.260 20.802963
70.265 21.150717
70.270 21.201715
70.275 20.809801
70.280 20.155722
70.285 19.758818
70.290 19.618977
70.295 19.586782
70.300 18.960194
70.305 18.996801
70.310 19.233601
70.315 19.990875
70.320 20.310434
70.325 20.040873
70.330 20.339174
70.335 20.742535
70.340 20.132742
70.345 20.36986
70.350 20.203388
70.355 20.291571
70.360 20.367455
70.365 20.258379
70.370 19.967821
70.375 20.235453
70.380 19.680054
70.385 19.302675
70.390 19.222492
70.395 18.843155
70.400 18.487314
70.405 19.030245
70.410 18.642179
70.415 18.184305
70.420 17.510717
70.425 17.326414
70.430 17.438169
70.435 16.874834
70.440 16.592936
70.445 17.254684
70.450 17.696619
70.455 18.149532
70.460 18.708166
70.465 19.619457
70.470 20.217487
70.475 20.165167
70.480 19.496685
70.485 19.658503
70.490 19.723473
70.495 18.967403
70.500 18.409431
70.505 18.244278
70.510 18.302166
70.515 18.511343
70.520 18.227236
70.525 17.858349
70.530 18.260885
70.535 18.623421
70.540 18.96855
70.545 19.272173
70.550 19.364527
70.555 19.529722
70.560 19.449429
70.565 19.760025
70.570 19.739365
70.575 19.530266
70.580 19.028547
70.585 19.252184
70.590 19.499462
70.595 19.16218
70.600 18.026728
70.605 17.699652
70.610 17.830788
70.615 18.260263
70.620 17.854078
70.625 17.575621
70.630 17.972248
70.635 18.654081
70.640 18.733921
70.645 18.37039
70.650 18.550621
70.655 19.751263
70.660 20.019562
70.665 20.084829
70.670 20.391581
70.675 20.956633
70.680 20.659899
70.685 19.630247
70.690 18.950592
70.695 18.821865
70.700 18.713976
70.705 18.858595
70.710 18.42432
70.715 18.812319
70.720 18.765839
70.725 18.871544
70.730 18.742271
70.735 18.463211
70.740 17.710712
70.745 17.833065
70.750 17.977465
70.755 18.092836
70.760 17.590176
70.765 16.932447
70.770 17.312222
70.775 17.021683
70.780 16.89065
70.785 17.149561
70.790 17.063658
70.795 17.288172
70.800 17.789682
70.805 18.092661
70.810 18.361069
70.815 18.417233
70.820 19.017895
70.825 19.217299
70.830 19.236752
70.835 19.285305
70.840 19.029104
70.845 19.908594
70.850 19.892965
70.855 19.007965
70.860 18.993172
70.865 19.182892
70.870 19.448269
70.875 19.66391
70.880 19.125854
70.885 18.903503
70.890 19.195723
70.895 19.359499
70.900 19.291864
70.905 19.285719
70.910 18.604448
70.915 18.269379
70.920 18.033459
70.925 17.891781
70.930 17.010616
70.935 16.398315
70.940 16.297728
70.945 16.853731
70.950 17.253216
70.955 16.98785
70.960 17.20178
70.965 17.387257
70.970 17.360579
70.975 17.61297
70.980 17.329636
70.985 17.599148
70.990 18.033363
70.995 18.610651
71.000 19.398809
71.005 19.728111
71.010 19.512384
71.015 19.319477
71.020 19.336102
71.025 19.481361
71.030 19.182331
71.035 18.837584
71.040 18.456921
71.045 18.089197
71.050 17.771736
71.055 17.885214
71.060 18.157457
71.065 18.20145
71.070 18.515783
71.075 18.936863
71.080 19.448614
71.085 20.15329
71.090 19.285351
71.095 18.280052
71.100 18.426523
71.105 18.768677
71.110 18.602428
71.115 18.340343
71.120 18.815611
71.125 19.417274
71.130 19.537008
71.135 19.705412
71.140 19.43288
71.145 19.506786
71.150 18.934639
71.155 18.419838
71.160 18.551281
71.165 18.539839
71.170 17.735849
71.175 17.316507
71.180 17.88381
71.185 18.128227
71.190 18.366838
71.195 18.837698
71.200 18.944929
71.205 19.283318
71.210 19.901941
71.215 19.683374
71.220 19.01288
71.225 18.755693
71.230 17.981808
71.235 18.150183
71.240 18.462671
71.245 18.253736
71.250 18.747953
71.255 19.175562
71.260 19.10474
71.265 20.042297
71.270 19.778091
71.275 19.606976
71.280 19.21829
71.285 19.276825
71.290 19.500961
71.295 19.459311
71.300 19.73151
71.305 19.840044
71.310 19.607304
71.315 19.659643
71.320 19.545017
71.325 19.33881
71.330 19.105175
71.335 18.679794
71.340 18.841051
71.345 18.829435
71.350 18.430475
71.355 18.524923
71.360 18.746058
71.365 18.329456
71.370 18.281906
71.375 18.403212
71.380 18.853958
71.385 18.813614
71.390 18.513693
71.395 18.531137
71.400 17.783308
71.405 17.974133
71.410 18.331844
71.415 18.306454
71.420 18.484472
71.425 18.128145
71.430 18.401667
71.435 19.158228
71.440 18.29199
71.445 17.710222
71.450 17.316832
71.455 17.948812
71.460 18.594721
71.465 19.211275
71.470 19.529449
71.475 20.128759
71.480 20.624935
71.485 20.652409
71.490 20.105139
71.495 19.376158
71.500 18.754414
71.505 18.243635
71.510 17.537968
71.515 17.560499
71.520 17.672041
71.525 17.321772
71.530 17.253439
71.535 17.613535
71.540 18.181
71.545 18.21063
71.550 18.214525
71.555 18.269396
71.560 18.775162
71.565 18.699678
71.570 18.134787
71.575 18.436939
71.580 18.321449
71.585 17.828524
71.590 18.167526
71.595 17.913773
71.600 18.387043
71.605 18.661896
71.610 19.082233
71.615 19.381605
71.620 18.85466
71.625 18.322533
71.630 18.60887
71.635 17.901758
71.640 17.626116
71.645 16.511997
71.650 16.615412
71.655 16.906534
71.660 16.931967
71.665 16.922424
71.670 17.268387
71.675 16.70854
71.680 16.656536
71.685 16.341484
71.690 16.609848
71.695 16.561115
71.700 16.577585
71.705 16.816435
71.710 17.101002
71.715 17.004799
71.720 16.716679
71.725 16.6985
71.730 16.790247
71.735 16.578581
71.740 16.090261
71.745 16.534607
71.750 16.897305
71.755 17.431522
71.760 17.807604
71.765 17.360992
71.770 17.209587
71.775 17.266819
71.780 16.895803
71.785 17.343107
71.790 17.184132
71.795 17.062096
71.800 17.470835
71.805 18.074873
71.810 18.958637
71.815 19.001869
71.820 19.007565
71.825 18.872675
71.830 19.365814
71.835 19.583059
71.840 19.459173
71.845 19.056833
71.850 19.322834
71.855 19.187416
71.860 19.397526
71.865 19.480824
71.870 19.486217
71.875 19.618906
71.880 19.549398
71.885 19.30728
71.890 18.88891
71.895 18.513229
71.900 18.157148
71.905 18.471397
71.910 18.652536
71.915 19.240715
71.920 19.462685
71.925 19.535902
71.930 19.284174
71.935 19.281437
71.940 18.340595
71.945 18.154259
71.950 17.944586
71.955 17.752411
71.960 17.412399
71.965 17.322741
71.970 17.582499
71.975 17.622389
71.980 17.324286
71.985 17.070221
71.990 18.029615
71.995 18.827993
72.000 18.825766
72.005 18.925823
72.010 19.325739
72.015 19.476679
72.020 19.822023
72.025 18.85854
72.030 18.392756
72.035 18.255154
72.040 18.051958
72.045 18.302113
72.050 18.339293
72.055 17.779625
72.060 18.076223
72.065 18.399178
72.070 18.672478
72.075 18.570101
72.080 18.208786
72.085 18.423853
72.090 18.938955
72.095 18.717747
72.100 18.277887
72.105 18.136646
72.110 18.541536
72.115 17.817636
72.120 18.215986
72.125 18.454494
72.130 18.152355
72.135 17.932543
72.140 17.775936
72.145 17.919758
72.150 17.848751
72.155 17.309021
72.160 16.457584
72.165 17.045996
72.170 17.333305
72.175 16.818642
72.180 16.834925
72.185 17.425842
72.190 17.529716
72.195 17.835331
72.200 17.299225
72.205 17.560774
72.210 17.654776
72.215 17.636814
72.220 17.490799
72.225 17.595716
72.230 17.612597
72.235 17.372169
72.240 17.536932
72.245 17.526545
72.250 17.140396
72.255 16.798428
72.260 16.749718
72.265 16.881756
72.270 17.275604
72.275 17.788942
72.280 18.172712
72.285 18.684526
72.290 18.595449
72.295 18.65173
72.300 18.611561
72.305 18.423946
72.310 18.11381
72.315 17.458038
72.320 16.81624
72.325 16.911005
72.330 16.690372
72.335 16.27935
72.340 15.819135
72.345 15.596725
72.350 16.647806
72.355 17.549528
72.360 17.996428
72.365 18.649652
72.370 19.181417
72.375 19.525061
72.380 20.093115
72.385 19.248011
72.390 18.430935
72.395 17.732384
72.400 17.473057
72.405 17.662962
72.410 17.65275
72.415 17.169685
72.420 17.116861
72.425 17.823849
72.430 18.07506
72.435 18.769152
72.440 18.546865
72.445 18.270945
72.450 18.682501
72.455 18.331181
72.460 17.689886
72.465 17.31369
72.470 16.347502
72.475 16.115093
72.480 16.559105
72.485 16.423979
72.490 16.981316
72.495 17.173729
72.500 17.336353
72.505 18.077442
72.510 17.80653
72.515 17.338699
72.520 16.869984
72.525 16.711916
72.530 16.896749
72.535 16.677633
72.540 17.330379
72.545 17.332521
72.550 17.489807
72.555 18.211863
72.560 18.279001
72.565 18.343006
72.570 17.810387
72.575 17.078825
72.580 16.893435
72.585 16.795977
72.590 16.208288
72.595 15.978028
72.600 16.49201
72.605 16.817846
72.610 17.151047
72.615 16.879406
72.620 17.07155
72.625 17.649317
72.630 18.582487
72.635 17.978359
72.640 17.516861
72.645 17.234581
72.650 17.645874
72.655 17.674316
72.660 17.061861
72.665 16.330187
72.670 16.772762
72.675 17.234545
72.680 17.527239
72.685 17.37632
72.690 17.199272
72.695 17.555304
72.700 17.453547
72.705 17.586042
72.710 17.826071
72.715 17.89061
72.720 17.970428
72.725 17.691031
72.730 17.25815
72.735 17.247053
72.740 17.496714
72.745 17.281967
72.750 17.151743
72.755 17.131201
72.760 17.113548
72.765 17.246408
72.770 17.212767
72.775 16.72978
72.780 16.753479
72.785 17.438679
72.790 17.549463
72.795 17.395342
72.800 17.107201
72.805 16.566858
72.810 16.660072
72.815 16.161695
72.820 15.622988
72.825 15.835967
72.830 16.559334
72.835 17.48205
72.840 17.849897
72.845 18.015369
72.850 17.894863
72.855 17.796549
72.860 16.884846
72.865 16.2117
72.870 15.632298
72.875 15.404351
72.880 15.598822
72.885 15.609826
72.890 16.07946
72.895 16.615389
72.900 16.464558
72.905 16.222118
72.910 16.365419
72.915 15.958706
72.920 15.960817
72.925 15.930706
72.930 16.103697
72.935 16.371384
72.940 16.173414
72.945 16.569351
72.950 16.585325
72.955 16.80628
72.960 16.504061
72.965 16.113237
72.970 16.075939
72.975 16.092888
72.980 16.093967
72.985 15.713586
72.990 15.319071
72.995 15.812252
73.000 16.043566
