!@!!GADDS PLOTSO FILE: Chi integration type
!@!!Title/SampleName: map-11b
!@!!Comment: ?
!@!!User: Bruker Instrument Administrator
!@!!Site: University of Illinois Chicago
!@!!Frame: map-11b_01_000.gfrm
!@!!Wavelengths    1.54184   1.54056   1.54439
!@!!Frame angles: 2Theta: 63.000 Omega: 50.000 Phi: 0.000 Chi: 90.000
!@!!Integration range: 2Theta: 53.000 to 73.000  Gamma: -105.000 to -75.000
!@!!Integration method: bin normalized
!@!N
!@!SS
!@!M
!@!L 0.0 0.0 0.0 0.0
!@!XDegrees
!@!YCounts
53.000 6.702382
53.005 6.742311
53.010 6.714852
53.015 6.232293
53.020 6.48343
53.025 6.529744
53.030 6.6495
53.035 6.868092
53.040 6.992546
53.045 7.477145
53.050 7.476401
53.055 7.294818
53.060 7.1009
53.065 6.963592
53.070 6.71023
53.075 6.790955
53.080 6.728832
53.085 6.582106
53.090 6.276376
53.095 6.250089
53.100 6.027961
53.105 6.004781
53.110 5.995421
53.115 6.215713
53.120 6.498375
53.125 6.587739
53.130 6.908836
53.135 7.150571
53.140 7.269583
53.145 7.331053
53.150 7.148515
53.155 7.085021
53.160 7.106962
53.165 6.999891
53.170 7.140543
53.175 7.287217
53.180 6.975222
53.185 6.723637
53.190 6.732206
53.195 6.996684
53.200 7.047714
53.205 6.478929
53.210 6.197403
53.215 6.606691
53.220 7.183329
53.225 7.239466
53.230 7.241308
53.235 7.290332
53.240 7.657313
53.245 7.922641
53.250 8.009146
53.255 8.471759
53.260 8.509887
53.265 8.223676
53.270 8.199258
53.275 8.135233
53.280 7.854981
53.285 7.493457
53.290 6.90704
53.295 6.93504
53.300 6.990344
53.305 6.896303
53.310 7.028162
53.315 7.222724
53.320 7.574641
53.325 7.722991
53.330 7.916595
53.335 8.091908
53.340 8.11576
53.345 8.21839
53.350 7.816657
53.355 7.907715
53.360 7.751261
53.365 7.729574
53.370 7.534976
53.375 7.770096
53.380 7.887156
53.385 7.798779
53.390 7.49423
53.395 7.521
53.400 7.384061
53.405 7.354604
53.410 6.972346
53.415 6.916088
53.420 7.021381
53.425 6.986812
53.430 6.859955
53.435 7.337397
53.440 7.498039
53.445 7.506057
53.450 8.056634
53.455 8.068263
53.460 7.773347
53.465 7.786401
53.470 7.572261
53.475 7.751628
53.480 7.971061
53.485 7.568606
53.490 7.609243
53.495 7.89047
53.500 7.781466
53.505 7.634961
53.510 7.60054
53.515 7.379632
53.520 7.275944
53.525 7.609795
53.530 7.784576
53.535 7.781795
53.540 7.788527
53.545 7.614388
53.550 7.790142
53.555 7.856887
53.560 7.766626
53.565 7.955612
53.570 8.22892
53.575 7.990476
53.580 8.24321
53.585 8.313078
53.590 8.046835
53.595 7.934289
53.600 7.41822
53.605 7.289979
53.610 7.060375
53.615 6.505569
53.620 6.583642
53.625 6.879972
53.630 6.947593
53.635 7.330011
53.640 7.519373
53.645 7.723946
53.650 7.959856
53.655 8.168175
53.660 8.146656
53.665 8.51655
53.670 8.328955
53.675 8.522816
53.680 8.324244
53.685 7.938861
53.690 7.58382
53.695 7.579581
53.700 7.260886
53.705 6.757294
53.710 6.635665
53.715 6.809915
53.720 6.928629
53.725 6.535229
53.730 6.377382
53.735 6.711016
53.740 6.983108
53.745 7.093088
53.750 7.695638
53.755 7.704392
53.760 8.14191
53.765 8.349794
53.770 8.109001
53.775 8.349639
53.780 8.323298
53.785 8.360702
53.790 8.862852
53.795 8.834895
53.800 8.491612
53.805 8.55417
53.810 8.471207
53.815 8.137894
53.820 7.816631
53.825 7.516729
53.830 7.592482
53.835 7.806333
53.840 8.079161
53.845 7.904765
53.850 7.826884
53.855 7.790403
53.860 7.965928
53.865 8.375176
53.870 8.141894
53.875 7.606055
53.880 7.33254
53.885 7.503295
53.890 7.84984
53.895 7.337978
53.900 7.172047
53.905 7.50751
53.910 8.083165
53.915 8.237831
53.920 8.164809
53.925 8.003683
53.930 8.105962
53.935 7.682801
53.940 7.469435
53.945 7.52413
53.950 7.491392
53.955 7.288671
53.960 7.622596
53.965 7.702481
53.970 7.689236
53.975 7.706897
53.980 7.416937
53.985 7.41391
53.990 7.171507
53.995 6.436957
54.000 6.827672
54.005 6.996079
54.010 6.603663
54.015 6.694123
54.020 6.866486
54.025 6.878171
54.030 7.156316
54.035 6.881494
54.040 6.742882
54.045 6.68981
54.050 6.767282
54.055 6.834233
54.060 7.400924
54.065 7.491332
54.070 7.648692
54.075 8.118162
54.080 8.557929
54.085 8.70091
54.090 9.041714
54.095 8.749012
54.100 8.654335
54.105 8.826713
54.110 8.914118
54.115 8.659608
54.120 8.309072
54.125 7.859694
54.130 7.930966
54.135 7.704866
54.140 7.212772
54.145 7.258784
54.150 7.460268
54.155 7.412041
54.160 7.509459
54.165 7.675954
54.170 7.929859
54.175 7.917346
54.180 7.496174
54.185 7.221645
54.190 7.278027
54.195 7.10014
54.200 7.281918
54.205 7.72296
54.210 8.02396
54.215 8.215899
54.220 8.170956
54.225 7.954618
54.230 8.41029
54.235 8.620289
54.240 8.401252
54.245 8.557762
54.250 8.570667
54.255 9.174671
54.260 9.360489
54.265 8.756577
54.270 8.10649
54.275 7.9698
54.280 7.662149
54.285 7.666693
54.290 6.987085
54.295 6.795868
54.300 7.366667
54.305 7.916841
54.310 7.815048
54.315 7.7116
54.320 7.281349
54.325 7.537852
54.330 7.624463
54.335 7.494869
54.340 7.167056
54.345 7.419489
54.350 8.1787
54.355 9.223825
54.360 9.361527
54.365 9.166595
54.370 9.245931
54.375 9.373652
54.380 9.321105
54.385 8.447618
54.390 7.839745
54.395 7.645402
54.400 7.931208
54.405 7.553061
54.410 7.357825
54.415 7.467017
54.420 8.055523
54.425 8.28258
54.430 8.376615
54.435 8.172691
54.440 8.144676
54.445 8.145301
54.450 8.02422
54.455 7.602036
54.460 7.612203
54.465 7.56268
54.470 7.86212
54.475 8.081837
54.480 8.180097
54.485 8.463827
54.490 8.705512
54.495 8.604245
54.500 8.294707
54.505 7.963204
54.510 7.569145
54.515 7.459865
54.520 7.137306
54.525 6.830156
54.530 7.137126
54.535 7.624601
54.540 7.90355
54.545 8.078428
54.550 8.052124
54.555 8.112027
54.560 8.128935
54.565 8.198637
54.570 7.973361
54.575 7.833423
54.580 7.830989
54.585 7.798015
54.590 7.838192
54.595 7.741658
54.600 7.28966
54.605 7.633367
54.610 7.716975
54.615 8.166518
54.620 8.694709
54.625 8.299565
54.630 8.279823
54.635 8.51794
54.640 8.260082
54.645 8.431396
54.650 7.987789
54.655 7.491975
54.660 7.879321
54.665 7.885822
54.670 7.794549
54.675 7.975129
54.680 7.992849
54.685 8.120139
54.690 8.280915
54.695 8.372871
54.700 8.284273
54.705 8.514583
54.710 8.468814
54.715 8.356376
54.720 8.58341
54.725 8.503849
54.730 8.182641
54.735 8.149134
54.740 8.038836
54.745 8.420611
54.750 8.424066
54.755 8.623127
54.760 9.044645
54.765 9.532316
54.770 9.455208
54.775 9.09776
54.780 8.920019
54.785 8.459206
54.790 8.096732
54.795 7.928104
54.800 7.846839
54.805 8.17804
54.810 8.335196
54.815 8.680369
54.820 8.618782
54.825 8.503053
54.830 8.702441
54.835 8.922453
54.840 9.234586
54.845 8.977491
54.850 8.637356
54.855 9.138124
54.860 8.899331
54.865 8.09731
54.870 7.658253
54.875 7.60066
54.880 7.82233
54.885 7.849249
54.890 8.094325
54.895 8.50685
54.900 9.060417
54.905 9.155205
54.910 8.825605
54.915 8.94427
54.920 8.749687
54.925 8.548691
54.930 8.559137
54.935 8.512168
54.940 8.579235
54.945 8.820322
54.950 8.966821
54.955 9.143285
54.960 8.814795
54.965 8.4288
54.970 8.256092
54.975 8.174119
54.980 7.869081
54.985 7.518515
54.990 7.182449
54.995 7.680768
55.000 7.699622
55.005 7.765636
55.010 7.838212
55.015 7.887935
55.020 8.059806
55.025 8.734665
55.030 8.717652
55.035 8.731103
55.040 8.623924
55.045 8.537271
55.050 8.371867
55.055 8.279202
55.060 8.317147
55.065 8.824187
55.070 9.20598
55.075 9.34024
55.080 9.405662
55.085 9.534868
55.090 9.391222
55.095 9.326488
55.100 8.846559
55.105 9.191888
55.110 9.11726
55.115 9.249472
55.120 9.546454
55.125 9.578154
55.130 9.721332
55.135 9.778006
55.140 9.498133
55.145 9.22486
55.150 9.22593
55.155 9.20316
55.160 9.029542
55.165 9.113077
55.170 8.721732
55.175 8.798968
55.180 8.920589
55.185 8.698269
55.190 8.168703
55.195 8.125499
55.200 7.600996
55.205 7.577974
55.210 7.527235
55.215 7.620618
55.220 7.622466
55.225 7.859998
55.230 7.709897
55.235 7.95023
55.240 8.33092
55.245 8.593977
55.250 8.509496
55.255 8.102814
55.260 7.711426
55.265 7.660505
55.270 7.731133
55.275 7.364034
55.280 6.91181
55.285 6.943072
55.290 7.380966
55.295 7.469893
55.300 7.676322
55.305 7.524328
55.310 7.589332
55.315 8.098891
55.320 8.116599
55.325 8.204432
55.330 8.439544
55.335 8.152893
55.340 8.498148
55.345 8.270256
55.350 8.255074
55.355 8.903521
55.360 9.746026
55.365 9.787617
55.370 9.755938
55.375 9.690047
55.380 10.001427
55.385 10.048557
55.390 9.420184
55.395 9.150023
55.400 9.609907
55.405 9.955061
55.410 10.122026
55.415 9.943669
55.420 9.598025
55.425 9.349105
55.430 8.759282
55.435 8.175364
55.440 7.789937
55.445 7.536534
55.450 7.735411
55.455 8.009992
55.460 8.486403
55.465 9.075505
55.470 9.422936
55.475 9.310116
55.480 9.444374
55.485 9.422638
55.490 9.317185
55.495 8.94126
55.500 8.670762
55.505 8.660475
55.510 9.076594
55.515 9.243442
55.520 9.329193
55.525 9.983928
55.530 10.469257
55.535 10.600495
55.540 10.391062
55.545 10.44177
55.550 10.14474
55.555 9.332801
55.560 8.744762
55.565 8.610406
55.570 8.105998
55.575 8.090178
55.580 7.878172
55.585 8.020416
55.590 8.507096
55.595 8.398437
55.600 8.371611
55.605 9.230894
55.610 9.752343
55.615 9.77235
55.620 10.063425
55.625 10.442059
55.630 10.788252
55.635 10.530847
55.640 10.289351
55.645 9.922007
55.650 10.224044
55.655 10.07388
55.660 9.459883
55.665 9.690463
55.670 9.849068
55.675 9.567672
55.680 9.469543
55.685 9.584413
55.690 9.412588
55.695 9.623449
55.700 9.473157
55.705 9.660971
55.710 9.905005
55.715 9.737288
55.720 9.499818
55.725 9.772308
55.730 9.759659
55.735 9.415299
55.740 8.672293
55.745 8.437004
55.750 8.666064
55.755 8.386916
55.760 8.340939
55.765 8.666573
55.770 8.90921
55.775 9.122384
55.780 8.825963
55.785 8.311354
55.790 8.56177
55.795 8.3162
55.800 7.94607
55.805 8.391823
55.810 8.872834
55.815 9.613245
55.820 9.934744
55.825 9.860106
55.830 10.020228
55.835 10.134963
55.840 9.939501
55.845 10.257412
55.850 9.98134
55.855 9.515038
55.860 9.192904
55.865 8.936604
55.870 8.743216
55.875 8.761911
55.880 8.487157
55.885 9.10015
55.890 9.296844
55.895 9.458339
55.900 9.257936
55.905 9.312031
55.910 9.335518
55.915 9.482814
55.920 9.411149
55.925 9.634418
55.930 9.767704
55.935 10.290691
55.940 10.421705
55.945 10.492975
55.950 10.308018
55.955 10.175914
55.960 10.008454
55.965 10.162414
55.970 10.4384
55.975 10.238624
55.980 9.957904
55.985 9.884014
55.990 9.849919
55.995 9.822337
56.000 9.197966
56.005 8.606919
56.010 8.029719
56.015 7.840275
56.020 7.873806
56.025 8.307169
56.030 8.300044
56.035 8.364779
56.040 8.576229
56.045 8.998339
56.050 9.250111
56.055 8.984585
56.060 8.447891
56.065 8.873587
56.070 9.062525
56.075 8.759888
56.080 9.12774
56.085 9.485347
56.090 9.732187
56.095 9.896769
56.100 9.602792
56.105 9.925782
56.110 10.264187
56.115 10.367495
56.120 10.018358
56.125 9.869489
56.130 9.785242
56.135 9.886619
56.140 10.066428
56.145 9.970667
56.150 9.576691
56.155 9.783547
56.160 9.746634
56.165 9.641403
56.170 9.941299
56.175 9.702262
56.180 9.666077
56.185 9.259864
56.190 9.277342
56.195 9.478975
56.200 9.489968
56.205 9.288433
56.210 9.345201
56.215 9.059407
56.220 9.309021
56.225 9.260501
56.230 9.34576
56.235 10.128538
56.240 10.049233
56.245 9.985132
56.250 10.415857
56.255 10.700649
56.260 10.310793
56.265 10.131893
56.270 9.378335
56.275 9.521605
56.280 9.358998
56.285 9.280295
56.290 9.130685
56.295 9.456582
56.300 9.430381
56.305 9.445929
56.310 9.210869
56.315 9.18128
56.320 9.452403
56.325 9.570077
56.330 9.663669
56.335 9.926542
56.340 10.057583
56.345 10.048633
56.350 10.195715
56.355 9.573199
56.360 9.291314
56.365 8.954663
56.370 8.741873
56.375 8.816284
56.380 9.016855
56.385 9.37198
56.390 9.919658
56.395 9.894842
56.400 10.193243
56.405 10.196454
56.410 10.079782
56.415 9.698061
56.420 9.127518
56.425 9.0763
56.430 9.695105
56.435 9.495659
56.440 9.610299
56.445 9.877072
56.450 10.03776
56.455 9.588144
56.460 9.395422
56.465 9.092855
56.470 9.121074
56.475 9.000067
56.480 8.807123
56.485 9.042311
56.490 9.741498
56.495 10.256551
56.500 10.282352
56.505 10.386241
56.510 10.637421
56.515 10.931459
56.520 10.890197
56.525 10.865191
56.530 10.265513
56.535 10.094824
56.540 9.602082
56.545 9.457835
56.550 9.183454
56.555 9.422528
56.560 9.614121
56.565 10.146291
56.570 10.097468
56.575 10.094944
56.580 10.114022
56.585 10.64296
56.590 10.194427
56.595 9.885493
56.600 10.070452
56.605 10.359979
56.610 10.657247
56.615 10.413366
56.620 10.324164
56.625 10.639164
56.630 10.588801
56.635 10.554173
56.640 10.894693
56.645 11.14408
56.650 11.281649
56.655 11.417575
56.660 11.701555
56.665 11.627104
56.670 11.308027
56.675 11.16599
56.680 11.366233
56.685 11.676826
56.690 11.955852
56.695 12.124654
56.700 12.162942
56.705 12.486815
56.710 12.486687
56.715 12.120394
56.720 12.207369
56.725 11.386835
56.730 11.020494
56.735 10.915836
56.740 10.675754
56.745 10.29787
56.750 10.418489
56.755 10.166205
56.760 10.543839
56.765 10.664511
56.770 10.566147
56.775 10.736099
56.780 11.212637
56.785 10.91525
56.790 10.799221
56.795 10.932623
56.800 11.449949
56.805 12.139835
56.810 12.460614
56.815 12.605365
56.820 12.753428
56.825 12.903369
56.830 12.687429
56.835 12.268526
56.840 11.788665
56.845 11.345429
56.850 10.693788
56.855 10.572851
56.860 10.473075
56.865 10.771094
56.870 10.847448
56.875 10.880994
56.880 10.778929
56.885 11.04405
56.890 10.843486
56.895 11.111363
56.900 11.020334
56.905 10.859922
56.910 11.551076
56.915 11.822702
56.920 11.605596
56.925 11.641852
56.930 11.551988
56.935 11.52882
56.940 11.107055
56.945 10.254018
56.950 9.961725
56.955 10.272024
56.960 9.829486
56.965 9.5126
56.970 9.343671
56.975 9.775757
56.980 9.647356
56.985 9.740561
56.990 9.461933
56.995 9.701202
57.000 9.698482
57.005 10.264668
57.010 10.02711
57.015 10.206244
57.020 10.511794
57.025 11.126845
57.030 10.975954
57.035 10.907825
57.040 10.210479
57.045 10.617084
57.050 11.270304
57.055 11.026398
57.060 10.414808
57.065 10.604447
57.070 10.637359
57.075 10.801494
57.080 10.478329
57.085 9.857574
57.090 9.495955
57.095 9.873191
57.100 10.31967
57.105 10.40473
57.110 10.215319
57.115 10.265898
57.120 10.713918
57.125 11.029043
57.130 10.892805
57.135 10.675819
57.140 10.972753
57.145 11.136608
57.150 11.088259
57.155 10.953464
57.160 10.961226
57.165 10.880058
57.170 10.64154
57.175 10.153
57.180 10.346598
57.185 10.421341
57.190 10.390783
57.195 10.243183
57.200 10.518539
57.205 10.544271
57.210 10.711251
57.215 10.33594
57.220 10.174485
57.225 9.984891
57.230 10.355005
57.235 10.063095
57.240 10.100495
57.245 9.937466
57.250 10.209819
57.255 10.421561
57.260 10.475671
57.265 10.201353
57.270 10.208864
57.275 10.093063
57.280 10.174106
57.285 10.292669
57.290 10.45816
57.295 10.480221
57.300 10.424788
57.305 10.430358
57.310 10.51967
57.315 10.070594
57.320 9.63692
57.325 9.629909
57.330 10.045309
57.335 9.960275
57.340 10.092578
57.345 10.413815
57.350 11.122935
57.355 11.552583
57.360 11.894602
57.365 11.911214
57.370 11.775743
57.375 11.36612
57.380 11.48037
57.385 11.800327
57.390 11.491208
57.395 11.140813
57.400 11.1418
57.405 11.37096
57.410 11.485145
57.415 10.88476
57.420 10.106135
57.425 9.92183
57.430 9.728615
57.435 9.732473
57.440 10.177588
57.445 10.574461
57.450 10.768202
57.455 11.059925
57.460 11.241704
57.465 11.461192
57.470 11.295069
57.475 10.859989
57.480 10.990074
57.485 11.100679
57.490 11.249016
57.495 11.204904
57.500 11.005005
57.505 10.820984
57.510 11.435313
57.515 11.234009
57.520 11.021777
57.525 11.082504
57.530 11.036184
57.535 11.188851
57.540 11.095749
57.545 10.83339
57.550 10.709816
57.555 10.512145
57.560 10.305249
57.565 10.342535
57.570 10.391085
57.575 10.567303
57.580 10.060217
57.585 10.224109
57.590 11.083153
57.595 11.300921
57.600 11.979513
57.605 12.363043
57.610 12.33272
57.615 12.264175
57.620 12.153324
57.625 12.474465
57.630 12.578795
57.635 11.687509
57.640 11.448503
57.645 11.425115
57.650 11.623953
57.655 12.12876
57.660 11.571015
57.665 11.331903
57.670 11.631966
57.675 11.662307
57.680 11.40904
57.685 11.335423
57.690 11.176453
57.695 10.971342
57.700 11.521879
57.705 11.8755
57.710 11.646199
57.715 11.754282
57.720 11.537289
57.725 11.295702
57.730 11.544639
57.735 10.887372
57.740 10.686378
57.745 11.143795
57.750 11.629713
57.755 12.115054
57.760 12.182341
57.765 11.909275
57.770 12.234828
57.775 12.50948
57.780 12.420607
57.785 12.117683
57.790 11.841448
57.795 11.584641
57.800 11.370515
57.805 10.89518
57.810 10.47974
57.815 10.993227
57.820 11.30009
57.825 11.122664
57.830 11.395822
57.835 11.699584
57.840 11.998999
57.845 12.028509
57.850 11.693183
57.855 11.333647
57.860 11.484557
57.865 11.314425
57.870 11.62464
57.875 11.775562
57.880 11.895146
57.885 12.116756
57.890 12.292172
57.895 12.217762
57.900 11.836487
57.905 11.451194
57.910 11.711854
57.915 11.537554
57.920 11.401767
57.925 11.818263
57.930 12.033193
57.935 12.862085
57.940 12.865652
57.945 12.539767
57.950 12.677173
57.955 12.596107
57.960 11.871665
57.965 11.673064
57.970 11.491631
57.975 11.725023
57.980 11.777649
57.985 12.369356
57.990 12.639928
57.995 13.242373
58.000 13.818006
58.005 13.390218
58.010 13.312456
58.015 13.301742
58.020 12.067998
58.025 12.138827
58.030 12.348014
58.035 12.001632
58.040 12.335966
58.045 12.428633
58.050 12.41478
58.055 12.779891
58.060 12.696964
58.065 12.38128
58.070 12.132384
58.075 11.779636
58.080 11.386414
58.085 11.370342
58.090 11.387477
58.095 11.306087
58.100 11.39393
58.105 12.207244
58.110 12.560488
58.115 12.849483
58.120 12.952669
58.125 13.00419
58.130 12.845958
58.135 12.861795
58.140 12.527388
58.145 12.674711
58.150 12.381859
58.155 12.464677
58.160 12.802931
58.165 13.336295
58.170 13.874637
58.175 14.098108
58.180 14.616789
58.185 15.22979
58.190 15.319257
58.195 15.043484
58.200 14.732894
58.205 14.359826
58.210 13.736951
58.215 13.162276
58.220 12.69957
58.225 12.728714
58.230 12.925947
58.235 12.481136
58.240 12.413594
58.245 12.748058
58.250 13.081601
58.255 13.342852
58.260 13.303862
58.265 13.726487
58.270 14.171486
58.275 14.065873
58.280 14.056995
58.285 13.905437
58.290 14.384204
58.295 14.761923
58.300 14.361283
58.305 14.026232
58.310 13.938148
58.315 13.646201
58.320 14.229772
58.325 14.346015
58.330 14.702364
58.335 15.540265
58.340 15.990662
58.345 16.999287
58.350 17.318459
58.355 17.088724
58.360 16.818687
58.365 16.421816
58.370 16.036083
58.375 16.272209
58.380 15.786798
58.385 16.192347
58.390 16.91083
58.395 16.676153
58.400 16.697084
58.405 16.500721
58.410 16.517849
58.415 16.430332
58.420 16.401846
58.425 16.346678
58.430 17.029905
58.435 17.709429
58.440 18.320251
58.445 18.581427
58.450 19.199593
58.455 18.877726
58.460 18.958717
58.465 18.69956
58.470 18.568789
58.475 18.571253
58.480 18.277546
58.485 18.332788
58.490 18.702393
58.495 18.326492
58.500 18.016253
58.505 17.743322
58.510 17.858162
58.515 17.673449
58.520 17.791525
58.525 17.704937
58.530 17.745947
58.535 17.759443
58.540 17.793919
58.545 17.799875
58.550 18.104181
58.555 17.817213
58.560 18.200329
58.565 18.565327
58.570 19.479645
58.575 19.577135
58.580 19.071417
58.585 18.640711
58.590 18.827204
58.595 17.823465
58.600 17.05965
58.605 16.374577
58.610 16.061054
58.615 16.39473
58.620 16.539608
58.625 16.634876
58.630 17.099014
58.635 16.90061
58.640 16.496281
58.645 16.352406
58.650 15.992671
58.655 15.972498
58.660 15.868544
58.665 16.110325
58.670 16.470621
58.675 16.632311
58.680 16.866247
58.685 17.273157
58.690 17.068357
58.695 16.668396
58.700 16.472593
58.705 16.418947
58.710 16.571449
58.715 16.10166
58.720 15.528064
58.725 15.642499
58.730 14.926896
58.735 14.676685
58.740 14.691543
58.745 15.414846
58.750 15.919979
58.755 16.181326
58.760 16.035498
58.765 16.328659
58.770 16.671215
58.775 16.343033
58.780 16.166132
58.785 15.411861
58.790 15.246126
58.795 15.192302
58.800 15.065621
58.805 14.774546
58.810 14.619699
58.815 13.759487
58.820 13.797643
58.825 13.533875
58.830 14.09645
58.835 14.16992
58.840 14.600932
58.845 14.857245
58.850 15.022983
58.855 15.464355
58.860 15.542419
58.865 15.207339
58.870 15.363902
58.875 14.214478
58.880 14.272017
58.885 14.487894
58.890 14.602456
58.895 14.248404
58.900 13.973172
58.905 13.615038
58.910 14.045136
58.915 13.884793
58.920 13.542292
58.925 13.598166
58.930 13.882443
58.935 13.840398
58.940 14.063177
58.945 13.754354
58.950 13.28797
58.955 13.019332
58.960 12.781173
58.965 12.454026
58.970 12.753442
58.975 13.104527
58.980 13.122814
58.985 13.369397
58.990 14.322936
58.995 14.24547
59.000 14.517152
59.005 14.18893
59.010 14.029446
59.015 14.084386
59.020 13.407674
59.025 12.987052
59.030 12.941344
59.035 13.151197
59.040 13.116912
59.045 12.978306
59.050 13.406268
59.055 13.436963
59.060 13.1363
59.065 13.4165
59.070 13.001697
59.075 12.814625
59.080 12.432067
59.085 11.495638
59.090 11.705039
59.095 11.643568
59.100 11.645552
59.105 12.182777
59.110 12.586356
59.115 12.787475
59.120 12.991663
59.125 12.710523
59.130 12.917672
59.135 12.576153
59.140 12.024437
59.145 11.93082
59.150 11.650296
59.155 11.827579
59.160 11.903713
59.165 11.672165
59.170 11.861982
59.175 11.994302
59.180 11.223602
59.185 11.142363
59.190 11.296602
59.195 11.481418
59.200 11.186562
59.205 10.953038
59.210 11.308236
59.215 11.794566
59.220 11.923563
59.225 11.602608
59.230 11.484321
59.235 11.782917
59.240 11.67858
59.245 11.308964
59.250 11.17372
59.255 11.084046
59.260 11.312325
59.265 11.454988
59.270 11.340756
59.275 11.110202
59.280 11.265258
59.285 11.282145
59.290 11.161123
59.295 11.087725
59.300 11.102638
59.305 11.182528
59.310 11.415964
59.315 11.260178
59.320 11.517984
59.325 11.850987
59.330 11.83079
59.335 11.882079
59.340 11.77679
59.345 11.779119
59.350 11.530157
59.355 10.955166
59.360 10.87499
59.365 10.586465
59.370 10.238019
59.375 10.3485
59.380 10.374576
59.385 10.753332
59.390 11.133584
59.395 11.15533
59.400 11.508397
59.405 11.811543
59.410 11.729712
59.415 12.117784
59.420 12.168465
59.425 12.168795
59.430 12.398326
59.435 12.24407
59.440 12.354934
59.445 12.216355
59.450 12.045119
59.455 12.057051
59.460 11.83649
59.465 11.622893
59.470 11.531871
59.475 11.077261
59.480 11.454727
59.485 10.962166
59.490 10.76137
59.495 10.986472
59.500 11.425833
59.505 11.470455
59.510 11.192571
59.515 10.571203
59.520 11.038175
59.525 10.71333
59.530 10.196521
59.535 9.362178
59.540 9.476653
59.545 10.120042
59.550 10.939986
59.555 11.114614
59.560 11.54588
59.565 11.606203
59.570 11.89206
59.575 12.241596
59.580 12.522912
59.585 12.471207
59.590 12.226808
59.595 12.659373
59.600 13.008592
59.605 12.757813
59.610 12.122999
59.615 11.249866
59.620 10.429254
59.625 10.399002
59.630 10.251425
59.635 10.392503
59.640 10.841053
59.645 11.085186
59.650 11.441044
59.655 11.641021
59.660 11.581651
59.665 11.100672
59.670 11.097524
59.675 11.193989
59.680 11.547029
59.685 11.906762
59.690 12.386298
59.695 13.189548
59.700 13.882604
59.705 14.121288
59.710 14.027373
59.715 13.945751
59.720 14.00464
59.725 13.473597
59.730 12.74246
59.735 12.065417
59.740 11.821937
59.745 11.413181
59.750 11.321335
59.755 10.889208
59.760 10.796789
59.765 11.224886
59.770 11.373876
59.775 11.759926
59.780 12.058757
59.785 11.817101
59.790 12.485003
59.795 12.791464
59.800 12.724668
59.805 13.15697
59.810 13.181952
59.815 13.784306
59.820 14.262295
59.825 13.906608
59.830 13.451831
59.835 13.354905
59.840 12.766198
59.845 12.610573
59.850 12.424088
59.855 12.248703
59.860 12.443769
59.865 12.809855
59.870 12.512218
59.875 12.588976
59.880 11.827021
59.885 11.024784
59.890 10.887683
59.895 11.003716
59.900 11.661345
59.905 12.247879
59.910 12.357552
59.915 12.805735
59.920 13.263528
59.925 13.600704
59.930 13.43045
59.935 12.940819
59.940 13.313126
59.945 13.47928
59.950 13.67452
59.955 13.746313
59.960 12.933347
59.965 12.875204
59.970 12.471149
59.975 11.724648
59.980 11.494637
59.985 11.081498
59.990 10.842888
59.995 11.168105
60.000 11.241706
60.005 11.399037
60.010 11.830881
60.015 12.091363
60.020 12.41595
60.025 12.653888
60.030 12.581575
60.035 12.367497
60.040 12.326536
60.045 11.926899
60.050 11.969039
60.055 11.785805
60.060 11.440449
60.065 11.228361
60.070 11.25701
60.075 11.319496
60.080 11.402525
60.085 11.700972
60.090 11.990101
60.095 12.411102
60.100 12.540731
60.105 12.462762
60.110 12.147109
60.115 11.808381
60.120 11.689337
60.125 11.291816
60.130 10.965556
60.135 10.945534
60.140 10.820393
60.145 11.13251
60.150 10.999632
60.155 11.081199
60.160 11.251574
60.165 11.128046
60.170 11.678555
60.175 12.055258
60.180 12.005343
60.185 12.290037
60.190 11.957984
60.195 11.586432
60.200 11.934628
60.205 11.578208
60.210 11.103726
60.215 11.013672
60.220 10.88082
60.225 11.077028
60.230 11.734383
60.235 11.875382
60.240 11.925639
60.245 12.058278
60.250 12.163788
60.255 12.281173
60.260 12.553206
60.265 12.624408
60.270 12.499885
60.275 12.51623
60.280 12.825215
60.285 12.930666
60.290 12.99151
60.295 12.224854
60.300 12.031067
60.305 12.232398
60.310 12.127315
60.315 11.620175
60.320 11.422441
60.325 11.246739
60.330 11.637485
60.335 11.761812
60.340 11.41984
60.345 11.638324
60.350 12.160595
60.355 12.304357
60.360 12.760942
60.365 12.816845
60.370 12.808159
60.375 12.870504
60.380 12.91437
60.385 13.235622
60.390 13.014728
60.395 13.048464
60.400 12.923644
60.405 12.785041
60.410 12.789054
60.415 12.373114
60.420 11.540875
60.425 11.282042
60.430 10.839902
60.435 10.436608
60.440 10.686443
60.445 10.922009
60.450 11.214252
60.455 11.942966
60.460 12.405046
60.465 12.82584
60.470 13.320468
60.475 13.34898
60.480 13.3835
60.485 13.517715
60.490 13.598512
60.495 13.605378
60.500 13.012997
60.505 12.775958
60.510 12.779799
60.515 12.859751
60.520 12.667916
60.525 12.259061
60.530 11.830661
60.535 11.732677
60.540 11.194484
60.545 11.110598
60.550 10.901202
60.555 11.020253
60.560 11.406196
60.565 11.995417
60.570 12.19137
60.575 12.445337
60.580 11.959603
60.585 12.092431
60.590 12.065596
60.595 11.942859
60.600 11.885021
60.605 11.739946
60.610 11.884544
60.615 12.089676
60.620 12.064675
60.625 11.853142
60.630 11.461898
60.635 11.55581
60.640 12.061344
60.645 11.91541
60.650 12.033738
60.655 11.971375
60.660 12.356506
60.665 12.786777
60.670 12.765809
60.675 12.548631
60.680 12.440606
60.685 12.575236
60.690 12.366703
60.695 11.939614
60.700 11.525602
60.705 10.921322
60.710 10.719725
60.715 11.443074
60.720 11.115376
60.725 11.200922
60.730 11.734577
60.735 12.008494
60.740 12.507742
60.745 12.859236
60.750 12.340652
60.755 12.56088
60.760 12.115691
60.765 11.85146
60.770 11.994018
60.775 11.903183
60.780 11.818075
60.785 12.170523
60.790 12.509538
60.795 13.23322
60.800 13.294668
60.805 13.155457
60.810 13.202463
60.815 13.438055
60.820 13.37297
60.825 13.072054
60.830 12.794537
60.835 12.864276
60.840 12.962533
60.845 12.791312
60.850 12.691736
60.855 12.894664
60.860 12.740578
60.865 12.562483
60.870 12.113759
60.875 12.158779
60.880 11.615914
60.885 11.536329
60.890 11.01301
60.895 11.132159
60.900 11.815159
60.905 11.585403
60.910 11.503971
60.915 11.614837
60.920 11.536465
60.925 11.815093
60.930 11.547052
60.935 11.203856
60.940 11.602674
60.945 11.65826
60.950 12.212913
60.955 11.716521
60.960 11.504355
60.965 11.47225
60.970 11.466778
60.975 11.082814
60.980 10.935267
60.985 10.654795
60.990 10.886491
60.995 10.899944
61.000 10.576454
61.005 10.364859
61.010 10.996243
61.015 11.369
61.020 11.673726
61.025 11.969571
61.030 12.647759
61.035 13.085162
61.040 13.41993
61.045 13.30626
61.050 13.571506
61.055 13.158925
61.060 12.970306
61.065 12.590658
61.070 12.683268
61.075 12.696488
61.080 12.662377
61.085 12.623544
61.090 13.55036
61.095 13.494903
61.100 13.721004
61.105 13.638328
61.110 13.51515
61.115 13.297361
61.120 12.80213
61.125 12.21763
61.130 12.373116
61.135 12.11986
61.140 11.917434
61.145 11.807589
61.150 11.735125
61.155 11.950176
61.160 12.205817
61.165 12.185922
61.170 11.774596
61.175 11.371307
61.180 12.060236
61.185 12.398351
61.190 12.67289
61.195 12.624494
61.200 12.412303
61.205 12.87365
61.210 13.517534
61.215 12.82535
61.220 12.413345
61.225 12.197087
61.230 12.566226
61.235 13.109023
61.240 13.486238
61.245 13.232327
61.250 13.307089
61.255 13.10889
61.260 13.01985
61.265 12.640419
61.270 12.072481
61.275 11.9075
61.280 11.78121
61.285 12.342298
61.290 12.975684
61.295 12.727912
61.300 12.767796
61.305 13.031076
61.310 12.848516
61.315 13.196898
61.320 12.727127
61.325 12.531468
61.330 12.549714
61.335 12.445473
61.340 12.385669
61.345 12.387733
61.350 12.039097
61.355 12.063576
61.360 12.005201
61.365 11.894448
61.370 12.055366
61.375 11.647267
61.380 11.35292
61.385 11.406487
61.390 11.300447
61.395 10.996552
61.400 10.847698
61.405 10.877486
61.410 11.330196
61.415 11.390651
61.420 11.332617
61.425 11.544775
61.430 11.56307
61.435 12.011524
61.440 11.488029
61.445 11.261137
61.450 11.164289
61.455 11.284237
61.460 11.294667
61.465 11.769759
61.470 11.900065
61.475 12.413566
61.480 12.232069
61.485 12.425689
61.490 12.185782
61.495 11.735069
61.500 11.664748
61.505 11.435003
61.510 11.488193
61.515 12.105763
61.520 12.318679
61.525 12.718229
61.530 13.055016
61.535 13.023863
61.540 12.912438
61.545 13.102938
61.550 13.378938
61.555 13.382893
61.560 13.325119
61.565 13.268102
61.570 12.964965
61.575 13.180451
61.580 13.423681
61.585 12.969013
61.590 12.663677
61.595 12.20905
61.600 11.7766
61.605 11.707386
61.610 11.259666
61.615 10.90546
61.620 10.914578
61.625 11.146065
61.630 11.179346
61.635 11.043966
61.640 11.432727
61.645 11.844864
61.650 11.636639
61.655 11.875357
61.660 12.289926
61.665 12.675317
61.670 13.160687
61.675 13.100788
61.680 12.911191
61.685 13.120866
61.690 12.797227
61.695 12.497108
61.700 12.199172
61.705 11.84249
61.710 12.09648
61.715 12.14218
61.720 11.911247
61.725 11.61456
61.730 11.642937
61.735 11.811983
61.740 12.067636
61.745 11.67902
61.750 11.181457
61.755 11.460436
61.760 12.114311
61.765 12.447367
61.770 12.433578
61.775 12.60896
61.780 13.46979
61.785 14.320102
61.790 14.464318
61.795 14.512831
61.800 14.447865
61.805 14.872959
61.810 14.272809
61.815 13.469745
61.820 13.264659
61.825 13.178735
61.830 13.079391
61.835 12.81304
61.840 12.518244
61.845 12.810179
61.850 12.908861
61.855 12.863294
61.860 12.760351
61.865 12.298961
61.870 12.045603
61.875 12.028043
61.880 12.258281
61.885 12.731161
61.890 12.743286
61.895 12.330731
61.900 12.426013
61.905 12.762383
61.910 13.158414
61.915 12.717952
61.920 12.118501
61.925 12.328003
61.930 12.712767
61.935 12.745437
61.940 12.157983
61.945 11.584976
61.950 11.771595
61.955 11.944125
61.960 11.041545
61.965 10.61806
61.970 10.932285
61.975 11.236753
61.980 11.27576
61.985 11.177674
61.990 11.28538
61.995 11.658789
62.000 11.714143
62.005 11.686931
62.010 11.480729
62.015 11.350553
62.020 11.738043
62.025 11.966268
62.030 12.016772
62.035 12.576231
62.040 12.515736
62.045 12.725445
62.050 12.945515
62.055 12.606071
62.060 12.257895
62.065 12.489992
62.070 11.625648
62.075 12.012302
62.080 12.47495
62.085 12.574501
62.090 12.405287
62.095 12.099298
62.100 12.151505
62.105 12.609082
62.110 12.24433
62.115 11.665125
62.120 11.672693
62.125 12.164264
62.130 12.56389
62.135 12.658339
62.140 13.215241
62.145 13.693303
62.150 14.509221
62.155 14.035035
62.160 13.861455
62.165 13.513588
62.170 13.181982
62.175 12.882967
62.180 12.568993
62.185 12.470062
62.190 12.713245
62.195 12.615627
62.200 12.754043
62.205 12.493767
62.210 12.181615
62.215 12.265646
62.220 11.880385
62.225 11.853909
62.230 11.960727
62.235 11.585608
62.240 11.929172
62.245 11.988688
62.250 11.948716
62.255 12.196422
62.260 12.564655
62.265 13.015903
62.270 13.396192
62.275 13.197442
62.280 12.979661
62.285 12.8252
62.290 12.500597
62.295 12.00542
62.300 11.66655
62.305 11.496575
62.310 10.964677
62.315 10.686359
62.320 10.559587
62.325 10.594671
62.330 10.928421
62.335 10.854031
62.340 11.071838
62.345 11.88092
62.350 12.391545
62.355 12.389949
62.360 12.547234
62.365 12.523654
62.370 12.845544
62.375 13.221945
62.380 13.130662
62.385 13.41445
62.390 13.547969
62.395 13.313209
62.400 13.231304
62.405 13.307543
62.410 13.049742
62.415 13.063914
62.420 12.771147
62.425 13.219817
62.430 13.522275
62.435 13.6248
62.440 13.569427
62.445 13.646955
62.450 13.535766
62.455 14.027287
62.460 13.757818
62.465 13.567446
62.470 13.062826
62.475 12.76132
62.480 12.351017
62.485 12.047726
62.490 11.751408
62.495 11.832726
62.500 11.774133
62.505 12.30095
62.510 12.913682
62.515 13.065852
62.520 13.381741
62.525 12.922999
62.530 12.781096
62.535 13.27568
62.540 13.721177
62.545 13.462995
62.550 13.228632
62.555 12.825814
62.560 13.328735
62.565 13.43041
62.570 13.116215
62.575 12.176988
62.580 11.781508
62.585 12.054092
62.590 12.620389
62.595 12.540371
62.600 12.480579
62.605 12.463495
62.610 12.872421
62.615 13.293349
62.620 12.937173
62.625 12.357011
62.630 12.368705
62.635 12.153686
62.640 11.959999
62.645 11.923979
62.650 11.92894
62.655 12.732112
62.660 12.934801
62.665 12.876217
62.670 13.369403
62.675 13.887146
62.680 14.005216
62.685 14.251546
62.690 13.795226
62.695 13.880083
62.700 13.715672
62.705 13.43416
62.710 13.011013
62.715 12.924163
62.720 12.553868
62.725 12.969453
62.730 13.379784
62.735 13.860703
62.740 13.419575
62.745 13.815777
62.750 13.530618
62.755 13.800159
62.760 13.65024
62.765 13.451396
62.770 13.539734
62.775 13.955464
62.780 13.641206
62.785 13.873355
62.790 14.093831
62.795 14.581876
62.800 14.905293
62.805 15.20775
62.810 15.166817
62.815 14.993206
62.820 14.919526
62.825 14.591352
62.830 14.299453
62.835 14.157828
62.840 13.747616
62.845 13.695448
62.850 13.949412
62.855 13.822706
62.860 13.905495
62.865 13.820645
62.870 12.884805
62.875 12.490396
62.880 12.28994
62.885 12.097302
62.890 11.949456
62.895 11.644489
62.900 11.877009
62.905 12.603346
62.910 12.767498
62.915 12.739969
62.920 12.621229
62.925 12.605821
62.930 12.14595
62.935 11.517339
62.940 10.777955
62.945 10.924389
62.950 11.265115
62.955 11.314825
62.960 11.205153
62.965 11.287477
62.970 11.571396
62.975 12.509944
62.980 12.945496
62.985 12.821534
62.990 12.948918
62.995 13.05584
63.000 13.58603
63.005 13.746412
63.010 13.841866
63.015 13.084015
63.020 13.227325
63.025 13.356372
63.030 13.43768
63.035 13.328497
63.040 13.498034
63.045 13.432731
63.050 13.770699
63.055 13.711398
63.060 13.579778
63.065 13.499848
63.070 13.463771
63.075 13.168235
63.080 12.727636
63.085 12.713705
63.090 12.557149
63.095 12.294833
63.100 12.715975
63.105 12.897306
63.110 13.094459
63.115 13.475285
63.120 13.566566
63.125 14.259119
63.130 14.596878
63.135 13.996382
63.140 13.772365
63.145 13.382321
63.150 13.219083
63.155 12.905061
63.160 12.855867
63.165 13.290888
63.170 13.714207
63.175 13.456462
63.180 13.412516
63.185 13.633204
63.190 14.163789
63.195 14.130201
63.200 13.469477
63.205 13.290837
63.210 13.539008
63.215 13.523389
63.220 13.232477
63.225 12.706438
63.230 12.678333
63.235 12.96115
63.240 13.104033
63.245 13.175274
63.250 13.448118
63.255 13.904716
63.260 14.218138
63.265 13.972877
63.270 13.839644
63.275 13.847744
63.280 14.281382
63.285 14.268575
63.290 13.841907
63.295 13.346898
63.300 13.1044
63.305 13.190049
63.310 13.142344
63.315 12.635428
63.320 12.164598
63.325 12.437116
63.330 12.460831
63.335 12.560177
63.340 12.768349
63.345 12.876106
63.350 12.735392
63.355 12.647868
63.360 12.33185
63.365 12.692446
63.370 13.076915
63.375 13.086523
63.380 12.751615
63.385 13.296805
63.390 13.553996
63.395 13.494772
63.400 13.322051
63.405 13.002595
63.410 13.01526
63.415 13.076452
63.420 13.336533
63.425 13.922052
63.430 14.565268
63.435 14.493109
63.440 14.664069
63.445 14.451929
63.450 14.277097
63.455 14.087245
63.460 14.334641
63.465 14.423724
63.470 14.297429
63.475 13.804765
63.480 14.084524
63.485 14.408504
63.490 13.952056
63.495 13.433634
63.500 13.337861
63.505 13.716528
63.510 14.526006
63.515 14.564677
63.520 13.87932
63.525 13.554223
63.530 13.451485
63.535 13.581587
63.540 13.29091
63.545 12.621978
63.550 12.102595
63.555 12.517123
63.560 12.896026
63.565 12.591227
63.570 12.434001
63.575 12.486784
63.580 12.841615
63.585 13.66696
63.590 13.922321
63.595 13.890541
63.600 14.297518
63.605 15.161816
63.610 15.663157
63.615 15.661519
63.620 15.876523
63.625 16.031054
63.630 16.093536
63.635 15.683599
63.640 14.749949
63.645 14.612259
63.650 14.733206
63.655 14.414169
63.660 14.568675
63.665 15.415439
63.670 15.843742
63.675 15.588477
63.680 15.384936
63.685 15.501279
63.690 15.20794
63.695 14.517674
63.700 13.477864
63.705 13.041665
63.710 13.444591
63.715 13.973367
63.720 13.985695
63.725 14.465975
63.730 15.097736
63.735 15.046428
63.740 15.033061
63.745 15.022275
63.750 14.908589
63.755 14.612199
63.760 14.145933
63.765 14.44602
63.770 15.20137
63.775 15.642353
63.780 15.320512
63.785 14.879702
63.790 15.220204
63.795 15.693295
63.800 15.611581
63.805 15.425726
63.810 15.461739
63.815 15.709449
63.820 16.190393
63.825 16.308876
63.830 16.257154
63.835 15.77206
63.840 15.804708
63.845 16.083023
63.850 16.051365
63.855 15.599849
63.860 15.73256
63.865 16.09219
63.870 16.741755
63.875 17.254139
63.880 16.912985
63.885 16.640833
63.890 17.025921
63.895 16.925861
63.900 16.685118
63.905 16.507633
63.910 16.198418
63.915 16.703428
63.920 17.207067
63.925 17.272385
63.930 17.415382
63.935 17.548374
63.940 17.74461
63.945 18.428881
63.950 18.72687
63.955 19.191818
63.960 19.872522
63.965 20.243219
63.970 20.647549
63.975 20.426439
63.980 20.215794
63.985 20.65946
63.990 20.876177
63.995 20.940641
64.000 20.475412
64.005 20.443487
64.010 21.006523
64.015 21.294094
64.020 21.228701
64.025 21.064419
64.030 21.205471
64.035 21.432356
64.040 21.3832
64.045 21.40008
64.050 21.607838
64.055 21.241436
64.060 20.140007
64.065 19.117674
64.070 19.514521
64.075 19.688105
64.080 19.957125
64.085 19.865707
64.090 20.293402
64.095 20.618673
64.100 21.407272
64.105 20.571205
64.110 21.219309
64.115 21.013582
64.120 20.849421
64.125 21.39797
64.130 21.361809
64.135 21.225565
64.140 21.94161
64.145 21.431387
64.150 21.171543
64.155 21.224598
64.160 21.089884
64.165 21.812572
64.170 21.677742
64.175 21.085342
64.180 21.102814
64.185 21.004534
64.190 20.462345
64.195 20.242729
64.200 19.676054
64.205 19.043558
64.210 19.288418
64.215 18.99235
64.220 19.378984
64.225 19.854219
64.230 20.051435
64.235 20.635223
64.240 21.885448
64.245 22.278128
64.250 22.778517
64.255 22.113789
64.260 21.741262
64.265 21.229553
64.270 21.163294
64.275 21.009304
64.280 20.800037
64.285 20.992096
64.290 21.320721
64.295 20.638245
64.300 20.944141
64.305 20.183229
64.310 19.477716
64.315 18.927505
64.320 18.714273
64.325 18.393888
64.330 18.49288
64.335 18.205168
64.340 18.729582
64.345 18.730825
64.350 18.945427
64.355 19.320368
64.360 20.035069
64.365 20.254791
64.370 20.420345
64.375 20.348749
64.380 19.995411
64.385 20.14571
64.390 19.646126
64.395 19.11025
64.400 18.68486
64.405 18.537056
64.410 18.635342
64.415 18.992325
64.420 18.399326
64.425 18.285095
64.430 17.698345
64.435 17.606552
64.440 17.335094
64.445 17.078695
64.450 17.025244
64.455 16.596622
64.460 16.345505
64.465 16.685036
64.470 16.944462
64.475 16.799112
64.480 16.658216
64.485 16.57588
64.490 17.109791
64.495 17.52676
64.500 16.878319
64.505 16.542959
64.510 16.385599
64.515 16.361235
64.520 16.412468
64.525 16.008959
64.530 16.078083
64.535 16.447197
64.540 16.294069
64.545 16.501492
64.550 16.664915
64.555 16.452759
64.560 16.227755
64.565 16.103533
64.570 16.155811
64.575 15.895671
64.580 15.579819
64.585 15.219934
64.590 15.559978
64.595 15.643165
64.600 15.201489
64.605 15.044384
64.610 15.354994
64.615 15.459291
64.620 15.541954
64.625 15.067427
64.630 15.242552
64.635 15.414858
64.640 15.356856
64.645 15.785655
64.650 15.856217
64.655 15.730094
64.660 15.967597
64.665 15.921277
64.670 16.239614
64.675 16.066322
64.680 15.708895
64.685 15.679893
64.690 16.077646
64.695 16.06415
64.700 15.905695
64.705 15.646995
64.710 16.095781
64.715 16.512514
64.720 16.537222
64.725 15.9684
64.730 16.070696
64.735 16.466583
64.740 16.616066
64.745 16.320587
64.750 15.990103
64.755 15.897014
64.760 16.229136
64.765 16.53145
64.770 16.611591
64.775 16.859789
64.780 17.468061
64.785 17.813351
64.790 18.067207
64.795 18.115049
64.800 17.6334
64.805 17.45821
64.810 17.461487
64.815 17.424225
64.820 16.985809
64.825 16.702135
64.830 16.488461
64.835 16.373947
64.840 16.388523
64.845 16.544039
64.850 16.512262
64.855 16.950016
64.860 17.451092
64.865 17.544495
64.870 17.883297
64.875 18.045246
64.880 18.253578
64.885 18.643946
64.890 18.987392
64.895 18.825695
64.900 18.844032
64.905 19.04023
64.910 18.889767
64.915 18.644791
64.920 18.410284
64.925 17.862988
64.930 17.885147
64.935 18.617924
64.940 18.699165
64.945 18.586412
64.950 19.057705
64.955 19.341488
64.960 19.211143
64.965 19.075979
64.970 18.064199
64.975 18.374741
64.980 18.387499
64.985 18.107094
64.990 18.332767
64.995 19.028496
65.000 19.502201
65.005 20.142635
65.010 19.871452
65.015 19.605244
65.020 20.232306
65.025 20.454279
65.030 19.975136
65.035 19.791731
65.040 19.749149
65.045 20.127384
65.050 20.430387
65.055 19.518942
65.060 19.090996
65.065 19.553802
65.070 19.86643
65.075 19.792498
65.080 19.305058
65.085 19.212933
65.090 19.962954
65.095 20.575037
65.100 20.720789
65.105 19.994373
65.110 20.102797
65.115 20.297878
65.120 20.714872
65.125 20.342587
65.130 19.645405
65.135 19.326183
65.140 19.242191
65.145 19.327978
65.150 18.792967
65.155 18.338438
65.160 17.686378
65.165 17.247898
65.170 17.064537
65.175 16.815826
65.180 16.699184
65.185 17.239431
65.190 16.984097
65.195 16.943657
65.200 17.33569
65.205 17.731064
65.210 18.235899
65.215 18.158726
65.220 18.006247
65.225 17.856976
65.230 17.80147
65.235 17.73246
65.240 17.518473
65.245 17.478069
65.250 17.106564
65.255 17.005411
65.260 17.378899
65.265 16.844242
65.270 16.352905
65.275 15.983201
65.280 15.832105
65.285 15.482556
65.290 15.388107
65.295 15.957317
65.300 16.98844
65.305 16.831442
65.310 16.705935
65.315 16.357441
65.320 15.967832
65.325 15.838443
65.330 15.473521
65.335 15.530848
65.340 16.435919
65.345 16.966003
65.350 17.040352
65.355 18.03089
65.360 17.690844
65.365 16.760059
65.370 16.340977
65.375 15.533995
65.380 15.108419
65.385 14.983975
65.390 14.170115
65.395 13.725324
65.400 13.530277
65.405 13.486149
65.410 13.650617
65.415 14.060745
65.420 14.265616
65.425 14.926091
65.430 15.114471
65.435 15.413565
65.440 15.417801
65.445 15.186054
65.450 15.062984
65.455 14.55871
65.460 14.037123
65.465 13.657426
65.470 13.68345
65.475 13.68483
65.480 13.609356
65.485 13.443026
65.490 13.717399
65.495 14.008599
65.500 14.472034
65.505 14.653247
65.510 14.790113
65.515 14.957211
65.520 15.012096
65.525 15.182801
65.530 15.496922
65.535 15.807437
65.540 15.388942
65.545 14.851655
65.550 15.210957
65.555 15.226545
65.560 15.028237
65.565 14.439489
65.570 13.921951
65.575 14.471976
65.580 14.628313
65.585 14.487683
65.590 14.75246
65.595 14.846539
65.600 15.402231
65.605 15.908313
65.610 15.505808
65.615 15.444943
65.620 15.303676
65.625 15.215185
65.630 15.392014
65.635 15.270631
65.640 15.610612
65.645 16.654425
65.650 17.569469
65.655 17.862928
65.660 17.995642
65.665 17.804646
65.670 18.120529
65.675 18.337193
65.680 17.678135
65.685 17.061047
65.690 17.337528
65.695 17.635468
65.700 18.287416
65.705 18.477581
65.710 18.006916
65.715 18.278343
65.720 17.928381
65.725 17.739023
65.730 17.872309
65.735 17.674646
65.740 17.752499
65.745 17.805954
65.750 17.690033
65.755 17.922602
65.760 17.690104
65.765 17.624279
65.770 17.437613
65.775 17.406082
65.780 17.520399
65.785 18.031973
65.790 18.58589
65.795 19.021912
65.800 19.547441
65.805 19.655405
65.810 19.418022
65.815 19.18693
65.820 19.457035
65.825 19.751926
65.830 19.53104
65.835 18.93117
65.840 19.287045
65.845 20.358492
65.850 20.694885
65.855 21.159573
65.860 21.162485
65.865 21.430584
65.870 21.492058
65.875 20.911556
65.880 20.64406
65.885 21.050171
65.890 21.073378
65.895 21.740765
65.900 22.470465
65.905 23.311127
65.910 24.271284
65.915 24.780355
65.920 24.846519
65.925 24.581896
65.930 23.904062
65.935 24.190535
65.940 24.907345
65.945 24.871464
65.950 24.9091
65.955 24.865496
65.960 25.202869
65.965 25.217409
65.970 24.853506
65.975 24.707539
65.980 25.462261
65.985 25.981878
65.990 26.047039
65.995 26.270573
66.000 26.584444
66.005 26.461622
66.010 26.030296
66.015 25.361776
66.020 24.223547
66.025 24.441505
66.030 25.045647
66.035 25.447306
66.040 25.463699
66.045 25.731068
66.050 25.405512
66.055 26.309597
66.060 26.334684
66.065 26.168179
66.070 26.519773
66.075 26.801561
66.080 26.853127
66.085 27.555809
66.090 27.22131
66.095 27.684944
66.100 28.12417
66.105 28.448364
66.110 28.655912
66.115 28.964399
66.120 29.310593
66.125 29.33919
66.130 28.467018
66.135 27.644854
66.140 27.235073
66.145 27.250763
66.150 27.176071
66.155 27.019867
66.160 27.287418
66.165 27.469709
66.170 27.593052
66.175 27.137785
66.180 26.402079
66.185 25.678762
66.190 25.059301
66.195 24.142918
66.200 24.22493
66.205 23.916489
66.210 23.637798
66.215 23.528461
66.220 23.604826
66.225 23.268059
66.230 23.789001
66.235 23.599691
66.240 23.264906
66.245 23.0452
66.250 22.549889
66.255 22.171919
66.260 22.418112
66.265 22.314417
66.270 21.689497
66.275 21.438446
66.280 21.114889
66.285 20.994871
66.290 21.027485
66.295 20.60939
66.300 20.452263
66.305 20.745148
66.310 20.499365
66.315 20.363142
66.320 20.291285
66.325 20.181236
66.330 19.62557
66.335 19.434952
66.340 19.444538
66.345 19.72893
66.350 19.790758
66.355 19.531181
66.360 19.135456
66.365 19.221231
66.370 19.118013
66.375 18.440042
66.380 18.245497
66.385 18.424358
66.390 18.504137
66.395 18.505577
66.400 18.671741
66.405 18.496346
66.410 18.778751
66.415 18.426123
66.420 17.855553
66.425 17.528658
66.430 17.321625
66.435 17.007538
66.440 16.478691
66.445 15.947149
66.450 15.942201
66.455 15.94584
66.460 15.944546
66.465 15.869767
66.470 15.625217
66.475 15.656796
66.480 15.515276
66.485 15.472884
66.490 15.828287
66.495 15.942646
66.500 16.095989
66.505 16.682409
66.510 16.930582
66.515 17.208382
66.520 17.180557
66.525 16.401342
66.530 16.120525
66.535 16.192999
66.540 15.645427
66.545 15.331158
66.550 15.555529
66.555 15.519076
66.560 15.720408
66.565 16.0823
66.570 16.215334
66.575 16.160492
66.580 15.806659
66.585 15.655865
66.590 15.76903
66.595 15.77087
66.600 15.157269
66.605 14.907833
66.610 14.86096
66.615 14.707429
66.620 14.247786
66.625 13.911668
66.630 13.6377
66.635 13.549085
66.640 13.357535
66.645 13.332554
66.650 13.314926
66.655 12.55376
66.660 12.442331
66.665 12.351807
66.670 12.211478
66.675 12.022998
66.680 12.505065
66.685 13.2459
66.690 14.220158
66.695 14.246523
66.700 14.41436
66.705 14.613286
66.710 14.356473
66.715 13.664924
66.720 13.053504
66.725 13.092309
66.730 13.138096
66.735 12.759301
66.740 12.547113
66.745 12.629974
66.750 12.699057
66.755 12.402979
66.760 11.922037
66.765 11.966614
66.770 12.41769
66.775 12.611445
66.780 12.888941
66.785 13.288645
66.790 13.780547
66.795 13.751449
66.800 13.90657
66.805 14.086865
66.810 13.930265
66.815 13.809346
66.820 13.885101
66.825 13.600918
66.830 13.438713
66.835 13.059628
66.840 12.818087
66.845 12.995552
66.850 12.764129
66.855 11.936594
66.860 12.182697
66.865 12.609072
66.870 12.717063
66.875 12.839101
66.880 12.93934
66.885 13.241095
66.890 14.035383
66.895 14.163424
66.900 14.220721
66.905 14.390587
66.910 14.178374
66.915 14.028451
66.920 13.482224
66.925 12.885699
66.930 12.94489
66.935 12.881008
66.940 13.457257
66.945 13.714982
66.950 13.64979
66.955 14.123921
66.960 14.048368
66.965 13.93285
66.970 13.923296
66.975 13.061723
66.980 12.916709
66.985 13.444721
66.990 13.867272
66.995 14.384597
67.000 14.181034
67.005 14.544378
67.010 14.521223
67.015 14.416905
67.020 13.511837
67.025 13.193661
67.030 12.935997
67.035 12.929619
67.040 12.588764
67.045 12.722253
67.050 13.192882
67.055 13.24768
67.060 13.394006
67.065 13.41353
67.070 13.010263
67.075 13.131741
67.080 13.269424
67.085 12.742846
67.090 12.736223
67.095 12.32254
67.100 12.382483
67.105 12.864882
67.110 12.763267
67.115 12.768045
67.120 13.361377
67.125 13.541441
67.130 13.95064
67.135 13.896745
67.140 13.785185
67.145 13.998815
67.150 13.988484
67.155 14.310968
67.160 14.347781
67.165 14.083049
67.170 13.948824
67.175 13.855706
67.180 13.606258
67.185 13.529558
67.190 12.918519
67.195 12.766629
67.200 13.041185
67.205 13.559589
67.210 13.508274
67.215 13.557037
67.220 13.444162
67.225 13.41779
67.230 13.712203
67.235 13.488975
67.240 13.283363
67.245 13.382471
67.250 13.279089
67.255 13.028668
67.260 13.293786
67.265 13.62683
67.270 13.8952
67.275 14.14304
67.280 14.279479
67.285 14.366392
67.290 14.621978
67.295 14.804729
67.300 14.14222
67.305 14.063674
67.310 13.474684
67.315 13.46448
67.320 13.525764
67.325 13.480178
67.330 13.400344
67.335 13.467959
67.340 13.04125
67.345 13.012954
67.350 12.995797
67.355 13.182487
67.360 13.548388
67.365 13.392763
67.370 13.429866
67.375 13.702753
67.380 13.884012
67.385 13.517488
67.390 13.12766
67.395 13.049495
67.400 13.09899
67.405 13.210266
67.410 13.141355
67.415 12.836316
67.420 12.960546
67.425 12.996293
67.430 12.976544
67.435 12.888882
67.440 13.121968
67.445 13.082954
67.450 13.578397
67.455 13.706566
67.460 14.166745
67.465 14.342911
67.470 14.496037
67.475 14.54526
67.480 14.836559
67.485 15.250265
67.490 15.654279
67.495 14.662479
67.500 14.422428
67.505 14.239707
67.510 14.204676
67.515 13.802675
67.520 12.6556
67.525 12.442727
67.530 12.687182
67.535 12.494137
67.540 12.427104
67.545 12.841481
67.550 12.831794
67.555 12.774541
67.560 13.016613
67.565 13.513187
67.570 14.010654
67.575 13.85598
67.580 13.426573
67.585 13.756925
67.590 14.631739
67.595 14.608829
67.600 14.837093
67.605 15.008331
67.610 15.326957
67.615 15.395288
67.620 15.419202
67.625 15.416389
67.630 15.074564
67.635 14.277036
67.640 13.897992
67.645 13.60607
67.650 13.931374
67.655 13.830911
67.660 13.495914
67.665 13.736748
67.670 14.026313
67.675 14.018655
67.680 14.103921
67.685 14.144059
67.690 13.488132
67.695 13.092957
67.700 12.905302
67.705 13.133146
67.710 13.494298
67.715 13.503219
67.720 13.120666
67.725 13.786496
67.730 14.299837
67.735 14.786655
67.740 14.331465
67.745 13.941053
67.750 14.018337
67.755 14.133582
67.760 14.065859
67.765 13.806782
67.770 13.312439
67.775 13.351467
67.780 13.661003
67.785 13.736932
67.790 13.761123
67.795 13.843545
67.800 13.70068
67.805 13.884866
67.810 14.268385
67.815 14.023972
67.820 14.26256
67.825 14.369926
67.830 13.937643
67.835 14.181164
67.840 13.861677
67.845 13.417506
67.850 13.493861
67.855 13.323984
67.860 13.044503
67.865 13.511108
67.870 14.247851
67.875 14.737399
67.880 15.085477
67.885 14.91932
67.890 14.596939
67.895 14.724107
67.900 14.422087
67.905 14.102035
67.910 13.908405
67.915 13.496714
67.920 13.477725
67.925 14.162093
67.930 14.25753
67.935 13.717266
67.940 13.302253
67.945 13.324234
67.950 13.343651
67.955 13.019029
67.960 12.989513
67.965 13.203333
67.970 13.778549
67.975 14.287741
67.980 14.789298
67.985 14.963468
67.990 14.814349
67.995 14.457948
68.000 14.78176
68.005 14.430573
68.010 13.838565
68.015 13.35539
68.020 13.768332
68.025 14.494947
68.030 14.512121
68.035 14.248688
68.040 14.205265
68.045 14.44605
68.050 14.804482
68.055 14.816763
68.060 14.64218
68.065 15.102508
68.070 15.011285
68.075 14.881551
68.080 14.675788
68.085 14.39012
68.090 14.136703
68.095 14.037804
68.100 13.252681
68.105 13.826325
68.110 14.335052
68.115 14.573482
68.120 14.477672
68.125 14.390532
68.130 14.19178
68.135 14.544779
68.140 14.119316
68.145 14.242224
68.150 13.496618
68.155 13.512397
68.160 13.888311
68.165 13.710924
68.170 13.378378
68.175 13.438347
68.180 13.030178
68.185 13.630614
68.190 13.726767
68.195 13.172574
68.200 13.238087
68.205 12.916857
68.210 12.794814
68.215 13.004614
68.220 12.64056
68.225 12.475343
68.230 12.67183
68.235 12.664603
68.240 12.980254
68.245 12.53261
68.250 12.457591
68.255 13.011775
68.260 13.51672
68.265 13.538513
68.270 13.585954
68.275 13.228024
68.280 13.44313
68.285 13.835648
68.290 13.734145
68.295 13.427575
68.300 14.116177
68.305 14.643296
68.310 15.395869
68.315 16.168646
68.320 15.706743
68.325 15.41704
68.330 15.355325
68.335 15.046624
68.340 14.705192
68.345 14.15388
68.350 14.338013
68.355 14.689948
68.360 14.773826
68.365 14.817598
68.370 14.388093
68.375 14.46023
68.380 14.620806
68.385 14.192206
68.390 14.260987
68.395 14.185367
68.400 14.071806
68.405 14.524778
68.410 14.342443
68.415 13.981762
68.420 14.18436
68.425 13.893365
68.430 13.954136
68.435 14.028356
68.440 13.998343
68.445 14.225893
68.450 14.473791
68.455 14.849451
68.460 15.163229
68.465 15.156609
68.470 15.080275
68.475 15.040652
68.480 14.435235
68.485 13.303054
68.490 12.981417
68.495 12.935834
68.500 13.010344
68.505 12.742907
68.510 12.40755
68.515 12.943752
68.520 13.055279
68.525 12.853008
68.530 12.685415
68.535 12.559149
68.540 12.843963
68.545 13.183066
68.550 13.104431
68.555 13.399746
68.560 13.488728
68.565 13.567502
68.570 13.505704
68.575 13.148043
68.580 13.56954
68.585 13.760649
68.590 14.156098
68.595 14.624372
68.600 14.897569
68.605 15.130803
68.610 15.504069
68.615 15.286456
68.620 15.3457
68.625 15.182923
68.630 14.874606
68.635 14.542884
68.640 14.709579
68.645 14.591458
68.650 14.543564
68.655 14.211408
68.660 13.848434
68.665 14.421489
68.670 15.033404
68.675 15.207156
68.680 15.115912
68.685 15.150605
68.690 15.546148
68.695 15.817764
68.700 15.470733
68.705 14.846779
68.710 14.710622
68.715 14.531803
68.720 14.198833
68.725 14.085224
68.730 13.585538
68.735 13.859193
68.740 14.056726
68.745 14.130408
68.750 14.139368
68.755 14.268907
68.760 14.106566
68.765 14.277318
68.770 14.788037
68.775 14.919929
68.780 14.99766
68.785 15.480272
68.790 15.916181
68.795 16.481489
68.800 16.626595
68.805 16.260397
68.810 16.080772
68.815 16.053453
68.820 16.363579
68.825 16.215816
68.830 16.341391
68.835 16.230843
68.840 16.419022
68.845 16.574459
68.850 16.892384
68.855 17.183855
68.860 17.305227
68.865 17.494087
68.870 17.708937
68.875 17.340103
68.880 17.318754
68.885 17.081013
68.890 16.451675
68.895 16.588552
68.900 16.925024
68.905 16.96965
68.910 17.347212
68.915 17.705132
68.920 18.142477
68.925 18.067848
68.930 17.933857
68.935 17.552107
68.940 17.371092
68.945 17.634331
68.950 17.727404
68.955 17.768024
68.960 17.937168
68.965 18.063301
68.970 19.024282
68.975 19.560163
68.980 19.34215
68.985 18.882294
68.990 18.925251
68.995 19.675726
69.000 19.696533
69.005 19.760708
69.010 19.748503
69.015 19.876608
69.020 20.261822
69.025 20.194193
69.030 19.87178
69.035 19.830812
69.040 19.411001
69.045 19.854591
69.050 20.170803
69.055 20.550318
69.060 20.52791
69.065 21.156496
69.070 21.788607
69.075 22.456078
69.080 22.305176
69.085 22.151798
69.090 22.163279
69.095 22.226233
69.100 22.083673
69.105 21.939445
69.110 21.794655
69.115 22.291079
69.120 22.8694
69.125 23.112396
69.130 23.819752
69.135 24.364704
69.140 24.486219
69.145 24.422367
69.150 24.267529
69.155 24.309172
69.160 24.106024
69.165 23.540094
69.170 23.494148
69.175 23.360716
69.180 23.557051
69.185 24.038902
69.190 24.089685
69.195 23.769934
69.200 23.902979
69.205 23.76442
69.210 23.564135
69.215 24.08753
69.220 23.771875
69.225 23.072248
69.230 23.300638
69.235 23.134558
69.240 23.271599
69.245 23.711086
69.250 23.589592
69.255 23.928984
69.260 24.487133
69.265 24.491722
69.270 24.356541
69.275 24.174204
69.280 23.322306
69.285 22.959274
69.290 23.046427
69.295 23.673161
69.300 23.856083
69.305 24.001783
69.310 24.985176
69.315 25.791361
69.320 25.855707
69.325 25.837076
69.330 25.726048
69.335 25.380459
69.340 25.156752
69.345 24.234276
69.350 23.76008
69.355 23.620655
69.360 23.147724
69.365 22.44433
69.370 22.109833
69.375 22.44808
69.380 22.601797
69.385 22.376341
69.390 22.307341
69.395 22.090872
69.400 23.226866
69.405 23.633265
69.410 23.841305
69.415 23.944641
69.420 23.44343
69.425 22.960274
69.430 22.896214
69.435 22.048306
69.440 21.049679
69.445 20.506756
69.450 20.138176
69.455 20.903187
69.460 20.680475
69.465 20.656927
69.470 20.418896
69.475 20.614283
69.480 20.509735
69.485 19.744499
69.490 19.199919
69.495 19.275242
69.500 18.855158
69.505 18.899776
69.510 18.454094
69.515 18.401276
69.520 19.151619
69.525 18.827026
69.530 18.608252
69.535 18.770325
69.540 18.715631
69.545 18.678974
69.550 18.790699
69.555 18.206177
69.560 17.569897
69.565 17.563656
69.570 17.737347
69.575 18.02729
69.580 18.324089
69.585 18.178679
69.590 17.698887
69.595 17.706226
69.600 17.319393
69.605 16.760328
69.610 16.552904
69.615 16.238871
69.620 15.462512
69.625 16.029631
69.630 15.891716
69.635 16.227901
69.640 16.286888
69.645 15.60704
69.650 15.594726
69.655 16.494627
69.660 16.440676
69.665 16.116959
69.670 15.883279
69.675 15.929379
69.680 16.156876
69.685 16.2363
69.690 15.701705
69.695 15.896503
69.700 16.27964
69.705 15.927335
69.710 15.363867
69.715 14.986121
69.720 14.819891
69.725 14.642047
69.730 14.464798
69.735 14.4133
69.740 14.377285
69.745 14.883874
69.750 14.561666
69.755 14.120898
69.760 13.823697
69.765 13.316736
69.770 13.371828
69.775 13.477437
69.780 13.346804
69.785 13.918921
69.790 14.055047
69.795 14.059923
69.800 14.085601
69.805 13.735095
69.810 13.493855
69.815 13.571506
69.820 13.630007
69.825 13.715089
69.830 13.969922
69.835 14.756335
69.840 15.111793
69.845 15.262738
69.850 15.237824
69.855 15.291449
69.860 15.863612
69.865 16.331381
69.870 16.227118
69.875 16.220303
69.880 16.266464
69.885 16.870842
69.890 16.816599
69.895 16.243021
69.900 15.857315
69.905 15.489388
69.910 15.514025
69.915 15.423004
69.920 14.907554
69.925 15.021658
69.930 15.581308
69.935 15.630769
69.940 15.46094
69.945 15.28256
69.950 14.9388
69.955 15.155421
69.960 14.940698
69.965 14.063819
69.970 13.486759
69.975 13.073311
69.980 13.309579
69.985 13.015132
69.990 12.906039
69.995 13.311934
70.000 14.297073
70.005 14.355331
70.010 14.250432
70.015 14.255577
70.020 13.950377
70.025 13.479591
70.030 12.679148
70.035 11.864212
70.040 12.183793
70.045 12.337532
70.050 12.765186
70.055 12.80604
70.060 12.806242
70.065 12.881568
70.070 13.231269
70.075 13.412512
70.080 13.296235
70.085 12.79123
70.090 12.99577
70.095 13.510318
70.100 13.549915
70.105 13.416735
70.110 12.988596
70.115 13.453779
70.120 13.60021
70.125 13.555688
70.130 12.989452
70.135 12.607838
70.140 12.546966
70.145 13.13122
70.150 13.359245
70.155 13.733849
70.160 14.046986
70.165 14.378028
70.170 14.383727
70.175 13.857641
70.180 13.373778
70.185 13.035505
70.190 12.779524
70.195 12.784034
70.200 12.757368
70.205 13.473702
70.210 13.887407
70.215 13.542495
70.220 13.504973
70.225 13.352108
70.230 13.085736
70.235 13.471499
70.240 13.475793
70.245 13.754331
70.250 14.070271
70.255 14.311238
70.260 14.809896
70.265 15.141356
70.270 14.664907
70.275 14.609379
70.280 14.998485
70.285 15.109336
70.290 15.14964
70.295 14.816442
70.300 14.703017
70.305 15.065432
70.310 15.597776
70.315 15.520803
70.320 15.184464
70.325 15.346489
70.330 15.348732
70.335 15.391545
70.340 15.321997
70.345 14.441176
70.350 14.461938
70.355 14.857491
70.360 14.626494
70.365 14.285265
70.370 14.532588
70.375 14.541932
70.380 14.42815
70.385 14.199938
70.390 13.75672
70.395 13.503125
70.400 13.33052
70.405 13.105824
70.410 12.87425
70.415 13.089229
70.420 12.983808
70.425 12.860512
70.430 13.077679
70.435 13.207487
70.440 13.289748
70.445 13.510048
70.450 12.872958
70.455 12.757174
70.460 13.172957
70.465 13.394506
70.470 13.191542
70.475 13.157448
70.480 13.366204
70.485 13.98034
70.490 14.170651
70.495 13.722645
70.500 13.827192
70.505 14.150777
70.510 13.569599
70.515 13.476519
70.520 13.13619
70.525 13.075964
70.530 13.110185
70.535 13.239081
70.540 12.747781
70.545 13.165298
70.550 13.462678
70.555 13.536684
70.560 13.826373
70.565 14.074456
70.570 14.250708
70.575 14.460024
70.580 14.532887
70.585 14.408291
70.590 14.207841
70.595 13.992743
70.600 13.397566
70.605 13.082994
70.610 13.281342
70.615 13.774629
70.620 14.02667
70.625 14.625138
70.630 14.455337
70.635 14.52744
70.640 14.334484
70.645 13.945508
70.650 13.012857
70.655 12.204573
70.660 12.064762
70.665 12.661979
70.670 12.876239
70.675 13.287701
70.680 13.721117
70.685 13.876579
70.690 14.259951
70.695 14.331494
70.700 14.010853
70.705 14.228296
70.710 13.734152
70.715 13.425708
70.720 14.03049
70.725 14.14
70.730 13.73711
70.735 13.659565
70.740 13.553915
70.745 13.649434
70.750 13.746421
70.755 13.343942
70.760 13.387711
70.765 13.619529
70.770 13.525609
70.775 13.309387
70.780 12.905478
70.785 12.548245
70.790 12.614617
70.795 12.523631
70.800 12.15336
70.805 12.348918
70.810 12.655563
70.815 12.804177
70.820 13.361846
70.825 13.893369
70.830 14.233092
70.835 14.370275
70.840 13.690745
70.845 13.616572
70.850 13.926054
70.855 13.243963
70.860 12.19569
70.865 11.997174
70.870 12.034534
70.875 12.289237
70.880 11.780703
70.885 11.817698
70.890 12.891319
70.895 13.196826
70.900 13.481129
70.905 13.42156
70.910 13.677616
70.915 13.903218
70.920 13.767897
70.925 13.05168
70.930 12.860075
70.935 12.681093
70.940 12.569167
70.945 12.517486
70.950 12.907034
70.955 12.464795
70.960 11.802917
70.965 11.581668
70.970 11.850632
70.975 11.861929
70.980 11.402038
70.985 10.989977
70.990 11.419623
70.995 12.202955
71.000 12.50971
71.005 12.656386
71.010 12.554543
71.015 12.954806
71.020 13.197859
71.025 12.866371
71.030 13.208665
71.035 13.02223
71.040 12.693312
71.045 12.913315
71.050 12.792858
71.055 12.866695
71.060 13.206583
71.065 13.217895
71.070 13.002262
71.075 12.862219
71.080 12.692494
71.085 12.535335
71.090 12.345155
71.095 12.048587
71.100 11.566113
71.105 11.669286
71.110 12.148806
71.115 12.146025
71.120 11.701825
71.125 11.337271
71.130 11.247391
71.135 11.541598
71.140 11.563006
71.145 11.329622
71.150 11.300317
71.155 11.872352
71.160 12.227889
71.165 12.710051
71.170 13.488023
71.175 13.985947
71.180 13.971247
71.185 14.182849
71.190 13.88569
71.195 13.995491
71.200 13.732792
71.205 13.200043
71.210 13.230964
71.215 13.33438
71.220 13.558143
71.225 13.523448
71.230 13.688676
71.235 13.773257
71.240 13.962419
71.245 13.949556
71.250 14.069534
71.255 14.826177
71.260 14.930769
71.265 14.818234
71.270 14.411663
71.275 13.603627
71.280 13.284789
71.285 13.085931
71.290 12.918011
71.295 13.02499
71.300 12.651741
71.305 12.483913
71.310 12.491438
71.315 12.671159
71.320 12.570336
71.325 12.186181
71.330 12.07513
71.335 12.228004
71.340 13.031239
71.345 13.793609
71.350 13.576269
71.355 13.803141
71.360 13.812226
71.365 14.054896
71.370 14.355158
71.375 14.090459
71.380 13.926567
71.385 13.772437
71.390 13.364138
71.395 13.566678
71.400 13.385557
71.405 13.679812
71.410 13.64778
71.415 14.062582
71.420 14.230938
71.425 14.363529
71.430 14.606826
71.435 14.587579
71.440 14.262198
71.445 13.980141
71.450 13.888105
71.455 14.100273
71.460 13.798616
71.465 13.280441
71.470 13.028455
71.475 12.956729
71.480 13.11761
71.485 12.519614
71.490 12.245641
71.495 11.679009
71.500 11.421101
71.505 11.642061
71.510 11.778987
71.515 11.805033
71.520 12.426195
71.525 12.717706
71.530 13.18733
71.535 13.287358
71.540 12.982067
71.545 12.834826
71.550 12.841734
71.555 12.389828
71.560 12.757423
71.565 12.840899
71.570 13.081348
71.575 13.528733
71.580 13.496936
71.585 13.505408
71.590 13.470199
71.595 13.302795
71.600 13.330119
71.605 13.090343
71.610 12.895592
71.615 12.82234
71.620 12.600638
71.625 12.750863
71.630 12.470481
71.635 12.465186
71.640 12.798024
71.645 12.577295
71.650 12.493889
71.655 12.373241
71.660 11.994634
71.665 12.4844
71.670 12.353547
71.675 12.601767
71.680 12.713175
71.685 12.54501
71.690 13.266025
71.695 13.312044
71.700 13.420892
71.705 13.322909
71.710 13.013999
71.715 13.505559
71.720 14.088715
71.725 13.995646
71.730 13.889439
71.735 13.537201
71.740 13.685651
71.745 14.046358
71.750 13.888616
71.755 13.42183
71.760 13.345067
71.765 13.424024
71.770 13.527994
71.775 13.758935
71.780 13.307537
71.785 13.159485
71.790 13.3005
71.795 13.435081
71.800 13.541119
71.805 13.262992
71.810 12.580083
71.815 12.968454
71.820 13.013092
71.825 12.716089
71.830 12.615176
71.835 13.185428
71.840 13.948666
71.845 14.587222
71.850 14.177029
71.855 14.172129
71.860 14.265918
71.865 14.55398
71.870 13.924936
71.875 13.309687
71.880 13.504362
71.885 13.792912
71.890 13.407784
71.895 13.261123
71.900 12.811804
71.905 12.941497
71.910 12.588569
71.915 12.426816
71.920 12.293306
71.925 12.307177
71.930 12.559568
71.935 12.721437
71.940 12.898644
71.945 13.06214
71.950 12.961989
71.955 12.834044
71.960 12.758151
71.965 12.630219
71.970 13.08294
71.975 13.451262
71.980 13.670671
71.985 13.717715
71.990 14.313301
71.995 14.052479
72.000 14.213117
72.005 14.041186
72.010 13.735139
72.015 13.784698
72.020 13.927118
72.025 13.911602
72.030 13.928798
72.035 13.907126
72.040 13.418658
72.045 13.510142
72.050 13.985415
72.055 13.899008
72.060 14.529604
72.065 14.82013
72.070 15.075933
72.075 15.313644
72.080 15.034137
72.085 14.656533
72.090 14.232648
72.095 13.309061
72.100 12.701385
72.105 12.472143
72.110 12.04663
72.115 10.928725
72.120 11.062121
72.125 11.564991
72.130 11.811592
72.135 12.169394
72.140 11.803947
72.145 12.497042
72.150 12.832681
72.155 12.412993
72.160 12.767514
72.165 12.946159
72.170 13.231392
72.175 13.42606
72.180 13.658742
72.185 13.599093
72.190 13.83077
72.195 13.327625
72.200 12.846112
72.205 13.231494
72.210 13.026999
72.215 13.164751
72.220 13.536227
72.225 13.238205
72.230 13.316427
72.235 13.051146
72.240 12.663207
72.245 12.868053
72.250 12.778801
72.255 12.530479
72.260 12.707827
72.265 13.174795
72.270 13.269496
72.275 13.068549
72.280 13.23198
72.285 13.205608
72.290 13.890158
72.295 13.59725
72.300 13.147218
72.305 13.732448
72.310 13.191366
72.315 12.690425
72.320 12.470771
72.325 11.846676
72.330 11.992378
72.335 12.062446
72.340 12.265006
72.345 13.040668
72.350 13.609277
72.355 13.695264
72.360 14.226914
72.365 14.317363
72.370 13.659388
72.375 13.023078
72.380 12.553133
72.385 12.224557
72.390 11.723973
72.395 11.252407
72.400 11.068085
72.405 11.189096
72.410 10.949458
72.415 10.772688
72.420 10.945161
72.425 11.302581
72.430 11.653511
72.435 12.102026
72.440 12.078093
72.445 12.221517
72.450 12.423524
72.455 12.049835
72.460 12.255913
72.465 12.319402
72.470 12.608514
72.475 12.899688
72.480 13.122656
72.485 13.124375
72.490 13.330894
72.495 12.732931
72.500 12.271411
72.505 11.754988
72.510 12.02177
72.515 12.375829
72.520 12.703559
72.525 12.549223
72.530 12.989855
72.535 13.813746
72.540 14.425402
72.545 14.124099
72.550 13.795734
72.555 13.611616
72.560 13.979853
72.565 13.842792
72.570 13.353014
72.575 13.110044
72.580 13.199179
72.585 13.569891
72.590 13.556866
72.595 13.174284
72.600 13.082678
72.605 12.693278
72.610 12.658098
72.615 12.757236
72.620 12.490818
72.625 12.122422
72.630 11.71566
72.635 11.806574
72.640 12.246982
72.645 12.455171
72.650 12.042742
72.655 11.512355
72.660 11.782804
72.665 11.992235
72.670 11.755246
72.675 11.777647
72.680 11.652117
72.685 11.641778
72.690 12.342715
72.695 12.790866
72.700 13.082835
72.705 13.378816
72.710 13.060172
72.715 13.067784
72.720 13.260597
72.725 12.671084
72.730 12.325087
72.735 12.275465
72.740 12.264178
72.745 12.765532
72.750 12.555991
72.755 12.99505
72.760 13.568794
72.765 13.984771
72.770 14.152425
72.775 13.962538
72.780 13.974464
72.785 14.255294
72.790 13.467345
72.795 13.110736
72.800 12.945608
72.805 12.922379
72.810 13.222211
72.815 13.047754
72.820 13.019482
72.825 13.735091
72.830 13.651827
72.835 13.663264
72.840 13.365884
72.845 12.659375
72.850 12.549088
72.855 12.182112
72.860 12.239891
72.865 12.137368
72.870 11.992984
72.875 12.052845
72.880 12.035637
72.885 12.018143
72.890 11.949638
72.895 11.837403
72.900 11.974528
72.905 12.249877
72.910 12.738364
72.915 12.743271
72.920 13.31326
72.925 13.621058
72.930 13.326623
72.935 13.711464
72.940 13.404617
72.945 13.214871
72.950 13.497924
72.955 13.377399
72.960 12.754607
72.965 12.708267
72.970 12.203646
72.975 11.935617
72.980 11.819794
72.985 11.469527
72.990 11.554863
72.995 12.476789
73.000 13.264489
