!@!!GADDS PLOTSO FILE: Chi integration type
!@!!Title/SampleName: map-40
!@!!Comment: ?
!@!!User: Bruker Instrument Administrator
!@!!Site: University of Illinois Chicago
!@!!Frame: map-40_01_000.gfrm
!@!!Wavelengths    1.54184   1.54056   1.54439
!@!!Frame angles: 2Theta: 63.000 Omega: 50.000 Phi: 0.000 Chi: 90.000
!@!!Integration range: 2Theta: 53.000 to 73.000  Gamma: -105.000 to -75.000
!@!!Integration method: bin normalized
!@!N
!@!SS
!@!M
!@!L 0.0 0.0 0.0 0.0
!@!XDegrees
!@!YCounts
53.000 8.449273
53.005 9.402335
53.010 9.79659
53.015 9.847384
53.020 9.250072
53.025 8.915342
53.030 8.462884
53.035 7.786108
53.040 7.363386
53.045 7.489397
53.050 7.758303
53.055 8.33273
53.060 8.304442
53.065 8.42954
53.070 8.483266
53.075 8.365836
53.080 8.413963
53.085 8.01692
53.090 7.558511
53.095 7.796017
53.100 7.981126
53.105 8.113928
53.110 8.055743
53.115 7.884605
53.120 7.825451
53.125 7.858048
53.130 7.750593
53.135 7.575917
53.140 7.934227
53.145 7.953808
53.150 8.023263
53.155 7.882504
53.160 7.512702
53.165 7.315554
53.170 7.266271
53.175 6.756401
53.180 6.499436
53.185 6.181588
53.190 6.227761
53.195 6.408922
53.200 6.485102
53.205 6.496501
53.210 6.75353
53.215 7.165496
53.220 7.61832
53.225 7.712157
53.230 7.829913
53.235 8.151652
53.240 7.894927
53.245 7.965142
53.250 7.926246
53.255 7.908035
53.260 7.930868
53.265 8.133208
53.270 8.4612
53.275 8.796523
53.280 8.504833
53.285 8.504122
53.290 8.634726
53.295 8.757949
53.300 8.480376
53.305 8.40857
53.310 8.750418
53.315 9.034312
53.320 9.033511
53.325 8.862237
53.330 8.594962
53.335 8.444133
53.340 8.440806
53.345 8.118005
53.350 8.023198
53.355 8.013607
53.360 8.102423
53.365 8.330576
53.370 8.21311
53.375 8.172413
53.380 8.280426
53.385 8.489248
53.390 8.452087
53.395 8.482925
53.400 8.639217
53.405 8.692344
53.410 8.782805
53.415 8.585902
53.420 8.731477
53.425 8.595035
53.430 8.219835
53.435 8.381823
53.440 8.624821
53.445 8.400151
53.450 8.446355
53.455 8.457291
53.460 8.826762
53.465 9.050926
53.470 9.091846
53.475 9.001916
53.480 9.2123
53.485 8.901655
53.490 8.485149
53.495 8.431734
53.500 8.397882
53.505 7.489265
53.510 7.463627
53.515 7.985475
53.520 8.395587
53.525 8.700708
53.530 8.536189
53.535 8.514216
53.540 8.982255
53.545 8.952983
53.550 8.563334
53.555 8.458622
53.560 8.43681
53.565 8.709887
53.570 8.714097
53.575 8.221633
53.580 8.027034
53.585 7.957876
53.590 8.221409
53.595 8.297023
53.600 8.41766
53.605 8.831212
53.610 9.022435
53.615 9.273456
53.620 9.376177
53.625 9.370948
53.630 9.587677
53.635 9.399835
53.640 9.167802
53.645 9.1699
53.650 8.996192
53.655 8.699609
53.660 8.356542
53.665 8.395927
53.670 8.670753
53.675 8.705298
53.680 9.010568
53.685 9.110121
53.690 9.164671
53.695 9.044497
53.700 8.744646
53.705 8.415445
53.710 8.181488
53.715 8.101914
53.720 8.432755
53.725 8.863382
53.730 9.105444
53.735 9.15337
53.740 9.5397
53.745 9.555009
53.750 9.433219
53.755 9.37845
53.760 9.090657
53.765 9.060284
53.770 9.093477
53.775 9.192062
53.780 9.468283
53.785 9.559286
53.790 9.83226
53.795 10.164715
53.800 10.13485
53.805 10.377494
53.810 10.065082
53.815 10.062769
53.820 9.960337
53.825 9.036779
53.830 8.557841
53.835 7.915564
53.840 7.467964
53.845 7.355738
53.850 6.737404
53.855 6.764872
53.860 7.201795
53.865 7.493777
53.870 7.853645
53.875 7.911904
53.880 8.266004
53.885 8.307126
53.890 8.031973
53.895 7.940344
53.900 8.187089
53.905 8.711263
53.910 8.959836
53.915 8.760199
53.920 8.727601
53.925 9.077055
53.930 9.305214
53.935 9.222256
53.940 9.169146
53.945 9.168064
53.950 9.70473
53.955 9.524428
53.960 9.334461
53.965 9.619514
53.970 9.727196
53.975 9.879665
53.980 10.148954
53.985 10.543687
53.990 10.805862
53.995 10.530489
54.000 10.176525
54.005 9.972299
54.010 9.801314
54.015 9.234204
54.020 8.895884
54.025 8.77741
54.030 8.639874
54.035 8.754487
54.040 8.555353
54.045 8.347402
54.050 8.268623
54.055 8.507642
54.060 8.789596
54.065 8.811494
54.070 8.354576
54.075 8.602962
54.080 8.698685
54.085 9.060399
54.090 8.953485
54.095 8.588755
54.100 8.562099
54.105 8.593043
54.110 8.284715
54.115 8.482284
54.120 8.394068
54.125 8.204173
54.130 8.570556
54.135 8.888875
54.140 9.457395
54.145 9.802557
54.150 9.565295
54.155 9.661326
54.160 10.263248
54.165 10.715638
54.170 10.642204
54.175 10.439179
54.180 10.502677
54.185 10.376808
54.190 10.329471
54.195 9.964878
54.200 9.817984
54.205 9.942657
54.210 10.122982
54.215 10.037024
54.220 9.747242
54.225 9.40927
54.230 9.326519
54.235 9.391315
54.240 9.303166
54.245 9.034117
54.250 9.254859
54.255 9.450249
54.260 9.738582
54.265 9.806527
54.270 9.896339
54.275 10.152459
54.280 9.942635
54.285 9.6425
54.290 10.012779
54.295 10.259545
54.300 10.213738
54.305 9.941118
54.310 9.796713
54.315 10.276885
54.320 10.765974
54.325 10.254264
54.330 10.336044
54.335 10.444187
54.340 10.695317
54.345 10.822966
54.350 10.614512
54.355 10.500524
54.360 10.667417
54.365 10.301263
54.370 9.799559
54.375 9.643353
54.380 9.368753
54.385 8.873707
54.390 8.813271
54.395 8.73419
54.400 9.088279
54.405 9.115962
54.410 9.0573
54.415 9.01825
54.420 9.162601
54.425 8.915936
54.430 8.448447
54.435 7.907434
54.440 7.914167
54.445 7.573869
54.450 7.716883
54.455 7.691597
54.460 8.149587
54.465 8.612377
54.470 8.754107
54.475 9.109663
54.480 9.499784
54.485 9.382372
54.490 9.189024
54.495 9.134721
54.500 9.215143
54.505 8.99705
54.510 9.360122
54.515 9.984773
54.520 10.26729
54.525 10.27287
54.530 9.966081
54.535 10.00433
54.540 9.94974
54.545 9.386126
54.550 9.018229
54.555 9.279064
54.560 9.25247
54.565 9.535951
54.570 9.440503
54.575 9.378325
54.580 9.267352
54.585 9.771709
54.590 9.669802
54.595 9.588783
54.600 9.540999
54.605 10.016321
54.610 10.224908
54.615 9.825519
54.620 9.367482
54.625 9.370287
54.630 9.396216
54.635 9.385503
54.640 8.9569
54.645 9.249478
54.650 9.290933
54.655 9.207471
54.660 9.282171
54.665 9.021443
54.670 8.915889
54.675 8.789828
54.680 9.036841
54.685 8.790297
54.690 8.659871
54.695 8.533264
54.700 8.897837
54.705 9.353741
54.710 9.287266
54.715 9.42964
54.720 9.641521
54.725 10.246341
54.730 10.425641
54.735 10.148409
54.740 9.636954
54.745 9.249312
54.750 8.884929
54.755 8.715725
54.760 8.775995
54.765 9.156708
54.770 9.693673
54.775 10.143632
54.780 10.680847
54.785 10.863816
54.790 11.094371
54.795 10.726753
54.800 10.733005
54.805 10.664385
54.810 10.706128
54.815 10.801708
54.820 10.53749
54.825 10.589293
54.830 10.800395
54.835 11.010919
54.840 11.089456
54.845 10.86544
54.850 11.161487
54.855 11.164539
54.860 11.086086
54.865 10.862982
54.870 10.783233
54.875 10.721718
54.880 10.830714
54.885 10.774203
54.890 11.069188
54.895 11.037312
54.900 11.147558
54.905 10.944026
54.910 10.910614
54.915 10.811189
54.920 10.50825
54.925 10.625548
54.930 10.717906
54.935 10.607629
54.940 10.739446
54.945 10.594274
54.950 10.101191
54.955 10.294994
54.960 10.306825
54.965 10.336343
54.970 10.327425
54.975 10.094193
54.980 10.816761
54.985 11.89597
54.990 12.2928
54.995 12.50677
55.000 12.595982
55.005 12.725832
55.010 12.918023
55.015 12.665409
55.020 12.106573
55.025 11.52315
55.030 11.060825
55.035 10.793084
55.040 10.516393
55.045 9.972672
55.050 9.303638
55.055 9.266486
55.060 9.362069
55.065 9.654868
55.070 9.674495
55.075 9.957378
55.080 10.535582
55.085 10.667027
55.090 10.764502
55.095 10.780159
55.100 10.549602
55.105 10.681283
55.110 10.781868
55.115 10.681315
55.120 10.66774
55.125 10.347206
55.130 10.555618
55.135 11.006656
55.140 11.26434
55.145 11.254514
55.150 11.675721
55.155 11.825984
55.160 11.949191
55.165 11.701636
55.170 11.450699
55.175 11.003181
55.180 10.961246
55.185 10.943113
55.190 11.241366
55.195 11.484015
55.200 11.586852
55.205 11.367646
55.210 11.358387
55.215 11.146366
55.220 10.723593
55.225 10.147596
55.230 9.714132
55.235 9.683773
55.240 9.649355
55.245 9.378513
55.250 9.553462
55.255 9.560817
55.260 9.782215
55.265 9.740151
55.270 9.725104
55.275 9.965425
55.280 10.092073
55.285 9.825956
55.290 9.819664
55.295 10.105931
55.300 10.227674
55.305 10.160324
55.310 10.221038
55.315 10.310433
55.320 10.498052
55.325 10.468423
55.330 10.448741
55.335 10.550422
55.340 10.549852
55.345 10.453005
55.350 10.757987
55.355 11.133766
55.360 11.579198
55.365 11.331695
55.370 11.354415
55.375 11.103044
55.380 10.915649
55.385 10.587558
55.390 9.999226
55.395 9.634244
55.400 9.975684
55.405 10.581721
55.410 11.218862
55.415 11.53429
55.420 11.886876
55.425 12.031075
55.430 11.893153
55.435 11.915343
55.440 11.713966
55.445 11.836538
55.450 11.641455
55.455 11.976842
55.460 11.669018
55.465 11.756793
55.470 11.669293
55.475 11.310259
55.480 11.067457
55.485 11.036145
55.490 10.736578
55.495 11.128943
55.500 11.850077
55.505 12.088698
55.510 11.896259
55.515 11.727159
55.520 11.601837
55.525 12.063683
55.530 12.0981
55.535 11.424581
55.540 11.37534
55.545 11.750297
55.550 12.085953
55.555 12.434675
55.560 12.056761
55.565 12.278242
55.570 12.149696
55.575 11.778016
55.580 11.776856
55.585 11.053588
55.590 10.694979
55.595 10.728814
55.600 10.101628
55.605 9.939493
55.610 10.127458
55.615 10.532827
55.620 11.084461
55.625 11.457926
55.630 11.75083
55.635 12.157595
55.640 12.730872
55.645 12.167645
55.650 11.973927
55.655 11.534974
55.660 11.111785
55.665 10.498021
55.670 10.403517
55.675 10.012702
55.680 10.269168
55.685 10.187393
55.690 10.32334
55.695 10.434736
55.700 10.629333
55.705 10.862969
55.710 11.225851
55.715 10.929869
55.720 10.831804
55.725 11.060559
55.730 11.26037
55.735 11.04128
55.740 10.569685
55.745 10.482923
55.750 11.10969
55.755 11.30241
55.760 10.904308
55.765 10.702813
55.770 10.755461
55.775 11.186496
55.780 11.539925
55.785 11.344742
55.790 11.584592
55.795 11.970342
55.800 12.274403
55.805 12.252287
55.810 12.04123
55.815 11.976612
55.820 12.144744
55.825 12.041907
55.830 12.247181
55.835 12.456871
55.840 12.811483
55.845 12.732748
55.850 12.504463
55.855 12.183882
55.860 12.1231
55.865 11.83633
55.870 11.848575
55.875 11.131904
55.880 10.58084
55.885 10.874256
55.890 11.134826
55.895 11.119596
55.900 11.438132
55.905 11.683656
55.910 12.015147
55.915 12.219084
55.920 11.848673
55.925 12.092513
55.930 11.668439
55.935 11.501773
55.940 11.398734
55.945 11.621607
55.950 11.837676
55.955 11.691727
55.960 11.12089
55.965 11.0001
55.970 10.340702
55.975 10.183982
55.980 10.321359
55.985 10.604096
55.990 10.847917
55.995 10.777818
56.000 10.929444
56.005 11.239954
56.010 11.007596
56.015 10.269558
56.020 9.670092
56.025 9.870397
56.030 10.647201
56.035 10.625252
56.040 10.331623
56.045 10.286939
56.050 10.540456
56.055 10.650789
56.060 10.630994
56.065 10.514418
56.070 10.562306
56.075 10.912181
56.080 11.102627
56.085 11.57901
56.090 11.700113
56.095 11.820978
56.100 12.206662
56.105 12.307971
56.110 12.638323
56.115 12.592103
56.120 12.465955
56.125 12.378443
56.130 12.090614
56.135 12.139687
56.140 12.611676
56.145 12.165243
56.150 12.322006
56.155 12.537287
56.160 12.548036
56.165 12.174077
56.170 12.141389
56.175 11.871641
56.180 11.694746
56.185 12.089223
56.190 11.908976
56.195 11.674255
56.200 12.071431
56.205 11.811189
56.210 11.796568
56.215 12.469591
56.220 12.164753
56.225 12.445593
56.230 12.62993
56.235 12.496671
56.240 12.494104
56.245 12.574643
56.250 11.791962
56.255 11.411862
56.260 11.324637
56.265 11.492234
56.270 11.785509
56.275 11.773335
56.280 11.170831
56.285 11.138614
56.290 11.631944
56.295 11.50653
56.300 11.125909
56.305 10.650335
56.310 10.657057
56.315 10.79492
56.320 10.727337
56.325 10.298616
56.330 10.653168
56.335 10.644541
56.340 11.055021
56.345 11.411606
56.350 11.951291
56.355 12.555167
56.360 12.947039
56.365 12.754167
56.370 12.794182
56.375 12.748636
56.380 12.736959
56.385 12.460269
56.390 12.269302
56.395 11.830675
56.400 11.992003
56.405 12.299993
56.410 12.057983
56.415 12.026709
56.420 11.893822
56.425 12.043848
56.430 12.700227
56.435 12.934572
56.440 12.356216
56.445 12.319759
56.450 12.492014
56.455 12.973221
56.460 13.077728
56.465 12.81801
56.470 12.261005
56.475 12.76603
56.480 13.036988
56.485 12.811266
56.490 12.519684
56.495 12.675816
56.500 12.266278
56.505 12.569486
56.510 12.34416
56.515 11.985255
56.520 11.890949
56.525 12.050966
56.530 12.078851
56.535 12.08021
56.540 11.679412
56.545 11.313263
56.550 11.446933
56.555 11.648752
56.560 11.21723
56.565 11.081883
56.570 11.526194
56.575 12.083484
56.580 12.180865
56.585 11.828782
56.590 11.185129
56.595 11.387365
56.600 11.309091
56.605 10.896105
56.610 10.318977
56.615 10.40713
56.620 11.105473
56.625 11.351163
56.630 11.582167
56.635 11.487114
56.640 11.953322
56.645 12.891057
56.650 12.403338
56.655 11.921795
56.660 11.958076
56.665 12.103532
56.670 11.950079
56.675 11.394928
56.680 11.027436
56.685 11.402847
56.690 11.91326
56.695 11.903906
56.700 11.879778
56.705 12.03771
56.710 12.413686
56.715 12.701647
56.720 13.201419
56.725 13.320723
56.730 13.373378
56.735 13.690663
56.740 14.076204
56.745 13.951056
56.750 13.566606
56.755 13.256725
56.760 13.306662
56.765 13.303839
56.770 13.02284
56.775 13.073908
56.780 13.392449
56.785 13.281518
56.790 12.698046
56.795 12.375651
56.800 12.578303
56.805 12.514766
56.810 12.276669
56.815 11.851261
56.820 12.171604
56.825 12.259891
56.830 12.351099
56.835 12.197865
56.840 12.091339
56.845 12.334499
56.850 12.671224
56.855 13.238097
56.860 13.528545
56.865 13.352208
56.870 13.02024
56.875 12.743325
56.880 12.685963
56.885 12.151813
56.890 11.495234
56.895 10.894473
56.900 10.883435
56.905 10.959647
56.910 11.078969
56.915 11.271728
56.920 11.286246
56.925 11.518872
56.930 11.721189
56.935 12.307776
56.940 12.778487
56.945 13.085203
56.950 13.203849
56.955 13.495583
56.960 13.483001
56.965 13.696175
56.970 13.293073
56.975 13.131599
56.980 13.683784
56.985 14.111658
56.990 14.504376
56.995 14.664421
57.000 14.412041
57.005 14.219181
57.010 13.712516
57.015 13.446752
57.020 13.078362
57.025 13.070905
57.030 13.216364
57.035 13.472007
57.040 13.595675
57.045 14.087799
57.050 13.982074
57.055 13.862719
57.060 13.586917
57.065 13.187849
57.070 13.141138
57.075 12.71951
57.080 12.584163
57.085 12.879752
57.090 13.09911
57.095 13.097793
57.100 13.308613
57.105 13.430326
57.110 13.629067
57.115 12.886302
57.120 12.373206
57.125 12.217022
57.130 12.431664
57.135 12.6855
57.140 12.556797
57.145 12.543406
57.150 13.035835
57.155 12.929435
57.160 12.65274
57.165 12.332434
57.170 12.068465
57.175 12.155032
57.180 12.10865
57.185 12.091715
57.190 12.227209
57.195 12.247671
57.200 12.067993
57.205 12.119654
57.210 12.789557
57.215 13.034817
57.220 12.935948
57.225 12.905992
57.230 13.029031
57.235 12.935479
57.240 12.947774
57.245 12.205544
57.250 11.838954
57.255 11.545959
57.260 11.872643
57.265 12.170416
57.270 12.464286
57.275 12.340205
57.280 12.724857
57.285 13.274016
57.290 13.487604
57.295 13.875866
57.300 13.971755
57.305 13.924995
57.310 13.79165
57.315 13.849296
57.320 13.971788
57.325 14.036316
57.330 14.085549
57.335 14.798804
57.340 15.281861
57.345 15.710232
57.350 16.079573
57.355 15.852422
57.360 15.327572
57.365 15.135745
57.370 14.652308
57.375 14.535153
57.380 14.487479
57.385 14.142411
57.390 14.317788
57.395 14.248758
57.400 14.07345
57.405 13.812469
57.410 13.821253
57.415 13.382228
57.420 13.402169
57.425 13.67664
57.430 13.508709
57.435 12.783066
57.440 12.335765
57.445 12.421959
57.450 12.275331
57.455 11.780763
57.460 11.412025
57.465 11.821905
57.470 12.362742
57.475 12.695156
57.480 12.673702
57.485 13.347424
57.490 13.374127
57.495 13.24809
57.500 13.336212
57.505 13.408678
57.510 13.184014
57.515 13.071178
57.520 13.071676
57.525 13.314089
57.530 13.554687
57.535 13.473851
57.540 13.230412
57.545 13.478967
57.550 13.456391
57.555 13.361811
57.560 13.491366
57.565 13.173312
57.570 13.300469
57.575 13.542863
57.580 13.372053
57.585 13.57845
57.590 13.694343
57.595 14.035641
57.600 14.459061
57.605 14.629486
57.610 14.427306
57.615 14.240883
57.620 13.878757
57.625 13.480964
57.630 13.096983
57.635 12.890038
57.640 12.765383
57.645 13.149225
57.650 13.395705
57.655 13.473796
57.660 14.093136
57.665 14.126279
57.670 13.88154
57.675 13.889658
57.680 13.194663
57.685 12.912683
57.690 12.740163
57.695 12.396711
57.700 12.083899
57.705 11.866036
57.710 11.736683
57.715 12.102204
57.720 12.616118
57.725 12.90659
57.730 12.974523
57.735 12.614957
57.740 12.873013
57.745 13.030054
57.750 13.059766
57.755 12.79296
57.760 12.453823
57.765 12.374561
57.770 12.870105
57.775 12.803828
57.780 12.655728
57.785 12.541493
57.790 12.548671
57.795 12.455481
57.800 12.450006
57.805 12.426583
57.810 12.745413
57.815 13.115474
57.820 13.409638
57.825 13.137265
57.830 13.206672
57.835 13.622447
57.840 13.744723
57.845 13.063867
57.850 12.803136
57.855 12.75354
57.860 13.857688
57.865 13.997547
57.870 14.289674
57.875 14.76096
57.880 15.211303
57.885 15.588423
57.890 15.050544
57.895 14.389706
57.900 14.456016
57.905 13.97459
57.910 13.596012
57.915 13.411637
57.920 13.510679
57.925 13.977833
57.930 14.12089
57.935 13.856396
57.940 14.001276
57.945 14.050209
57.950 14.166366
57.955 13.476107
57.960 13.023088
57.965 12.630026
57.970 12.737298
57.975 12.556778
57.980 12.677535
57.985 12.646873
57.990 12.915594
57.995 13.214659
58.000 13.320101
58.005 13.166787
58.010 13.059158
58.015 12.910534
58.020 13.016564
58.025 13.178222
58.030 13.666065
58.035 14.133771
58.040 14.338643
58.045 14.247104
58.050 14.286502
58.055 14.554745
58.060 14.332206
58.065 14.085518
58.070 14.075471
58.075 14.110724
58.080 14.414101
58.085 14.218379
58.090 14.299931
58.095 14.585148
58.100 14.061399
58.105 14.149585
58.110 14.412169
58.115 14.56004
58.120 14.506584
58.125 14.394243
58.130 13.997005
58.135 13.856938
58.140 13.479295
58.145 12.810651
58.150 12.762132
58.155 12.560404
58.160 12.286444
58.165 12.754975
58.170 13.044121
58.175 13.168358
58.180 13.219257
58.185 13.038251
58.190 13.261942
58.195 13.432506
58.200 13.048538
58.205 13.066865
58.210 13.389403
58.215 13.845836
58.220 14.091276
58.225 14.058868
58.230 13.958925
58.235 14.424088
58.240 14.742579
58.245 14.587983
58.250 14.970842
58.255 15.318839
58.260 15.38645
58.265 15.507782
58.270 14.977402
58.275 14.674756
58.280 14.692868
58.285 13.824326
58.290 13.822591
58.295 14.038261
58.300 14.272497
58.305 14.640931
58.310 14.709757
58.315 14.357724
58.320 14.179834
58.325 13.975721
58.330 14.508377
58.335 15.051146
58.340 15.401074
58.345 15.207998
58.350 15.202185
58.355 15.375035
58.360 15.145857
58.365 14.105535
58.370 13.546769
58.375 13.479322
58.380 13.595112
58.385 14.236512
58.390 14.372822
58.395 15.416479
58.400 16.085331
58.405 16.131975
58.410 15.936256
58.415 16.144604
58.420 15.598792
58.425 15.406969
58.430 14.493369
58.435 14.293976
58.440 14.62924
58.445 14.213966
58.450 14.078281
58.455 14.109109
58.460 14.554603
58.465 14.538792
58.470 14.153631
58.475 13.850861
58.480 14.160373
58.485 14.210567
58.490 14.406842
58.495 14.072989
58.500 14.275123
58.505 14.166107
58.510 13.756562
58.515 13.572607
58.520 13.388396
58.525 13.744934
58.530 14.251245
58.535 14.436943
58.540 15.262168
58.545 16.016613
58.550 16.217894
58.555 16.485928
58.560 16.759035
58.565 16.403019
58.570 15.950537
58.575 15.542548
58.580 14.991924
58.585 14.938335
58.590 14.584118
58.595 13.962543
58.600 13.719042
58.605 14.090995
58.610 14.31031
58.615 14.486195
58.620 14.392409
58.625 14.827633
58.630 15.329894
58.635 15.390008
58.640 14.794805
58.645 13.962272
58.650 13.874716
58.655 13.891198
58.660 13.680317
58.665 13.345419
58.670 13.300994
58.675 13.919697
58.680 14.595935
58.685 14.607121
58.690 14.648845
58.695 14.73329
58.700 14.506976
58.705 14.198084
58.710 14.416125
58.715 14.28292
58.720 14.510764
58.725 14.95522
58.730 15.229273
58.735 15.679027
58.740 16.523676
58.745 16.305967
58.750 16.618187
58.755 16.275106
58.760 15.786584
58.765 15.640576
58.770 15.375904
58.775 15.25345
58.780 14.92139
58.785 14.551611
58.790 14.424124
58.795 14.623064
58.800 14.77506
58.805 14.35987
58.810 14.39032
58.815 14.515746
58.820 14.295461
58.825 14.449887
58.830 14.278028
58.835 14.667252
58.840 14.823599
58.845 14.352821
58.850 14.476823
58.855 14.723096
58.860 14.437508
58.865 14.341674
58.870 14.012567
58.875 14.224063
58.880 14.158544
58.885 14.296481
58.890 14.56327
58.895 15.411674
58.900 15.215539
58.905 15.19172
58.910 15.448184
58.915 15.764188
58.920 15.646317
58.925 15.400688
58.930 15.110372
58.935 15.107037
58.940 14.63054
58.945 14.524951
58.950 14.756763
58.955 14.418105
58.960 14.647892
58.965 14.380768
58.970 14.372646
58.975 14.695892
58.980 14.694415
58.985 14.243842
58.990 14.465483
58.995 14.409155
59.000 14.475478
59.005 14.890181
59.010 14.957019
59.015 14.782925
59.020 15.015474
59.025 14.787824
59.030 14.459601
59.035 14.516459
59.040 14.645339
59.045 14.835911
59.050 15.090483
59.055 14.519163
59.060 14.719233
59.065 15.25418
59.070 14.894444
59.075 14.752833
59.080 14.805431
59.085 14.696506
59.090 15.306559
59.095 15.377985
59.100 15.235614
59.105 15.297424
59.110 15.044862
59.115 14.137474
59.120 13.934135
59.125 13.610482
59.130 13.787313
59.135 13.880529
59.140 13.994198
59.145 14.751208
59.150 15.781052
59.155 16.05467
59.160 16.404196
59.165 16.2388
59.170 15.897377
59.175 15.438603
59.180 15.091959
59.185 14.940382
59.190 14.455813
59.195 14.231157
59.200 14.884555
59.205 15.073405
59.210 14.98644
59.215 14.449928
59.220 14.71664
59.225 15.374808
59.230 15.166362
59.235 14.558782
59.240 14.792358
59.245 15.361617
59.250 15.939094
59.255 15.705681
59.260 15.549067
59.265 15.517521
59.270 15.820456
59.275 15.586122
59.280 15.449496
59.285 14.692753
59.290 14.49857
59.295 14.243355
59.300 14.371016
59.305 14.271852
59.310 14.278928
59.315 14.25701
59.320 14.133026
59.325 14.735838
59.330 15.400755
59.335 15.532867
59.340 15.115131
59.345 14.894704
59.350 15.537539
59.355 15.975476
59.360 15.581286
59.365 15.229482
59.370 14.926568
59.375 15.710821
59.380 16.505417
59.385 16.076975
59.390 16.509216
59.395 16.490953
59.400 16.52684
59.405 16.438551
59.410 16.437693
59.415 16.275391
59.420 16.207911
59.425 15.369644
59.430 15.494102
59.435 15.702415
59.440 16.112162
59.445 15.720448
59.450 15.504815
59.455 15.811482
59.460 16.865198
59.465 17.184866
59.470 17.170795
59.475 17.073467
59.480 17.682966
59.485 18.135647
59.490 18.126413
59.495 18.083851
59.500 17.537695
59.505 17.247589
59.510 17.31374
59.515 16.804733
59.520 16.307905
59.525 16.07062
59.530 15.065022
59.535 15.277325
59.540 15.444224
59.545 15.29266
59.550 15.361128
59.555 15.357661
59.560 15.343288
59.565 15.924198
59.570 15.689796
59.575 15.729451
59.580 15.939223
59.585 16.036839
59.590 16.336849
59.595 16.559738
59.600 16.844946
59.605 16.960865
59.610 16.912935
59.615 16.94088
59.620 17.22998
59.625 17.070957
59.630 17.019745
59.635 16.26446
59.640 16.310122
59.645 16.723021
59.650 16.833279
59.655 16.723541
59.660 17.009857
59.665 16.982929
59.670 17.329779
59.675 17.132759
59.680 16.437059
59.685 16.266136
59.690 16.017504
59.695 15.740038
59.700 16.547527
59.705 16.672207
59.710 16.476561
59.715 16.641449
59.720 16.750544
59.725 16.955406
59.730 17.187531
59.735 17.018993
59.740 17.397919
59.745 17.97962
59.750 18.217449
59.755 17.852928
59.760 17.836601
59.765 17.947775
59.770 17.382236
59.775 17.043501
59.780 17.266554
59.785 17.09079
59.790 17.271461
59.795 17.632671
59.800 17.513649
59.805 17.853376
59.810 17.993774
59.815 18.297703
59.820 18.637705
59.825 18.859709
59.830 19.03179
59.835 18.717964
59.840 18.643887
59.845 18.793037
59.850 18.43594
59.855 18.857395
59.860 18.664673
59.865 18.427082
59.870 18.476213
59.875 18.263653
59.880 17.838062
59.885 17.539366
59.890 16.952494
59.895 17.18321
59.900 17.755613
59.905 18.463783
59.910 19.132349
59.915 19.181862
59.920 19.139233
59.925 19.52706
59.930 19.0506
59.935 19.121912
59.940 18.673346
59.945 18.364105
59.950 19.092115
59.955 19.238371
59.960 18.874184
59.965 19.31258
59.970 19.245771
59.975 19.638302
59.980 19.943722
59.985 19.773212
59.990 19.656708
59.995 19.921011
60.000 20.054174
60.005 20.212624
60.010 20.435362
60.015 20.88888
60.020 21.193388
60.025 21.634962
60.030 21.240004
60.035 21.471703
60.040 21.672991
60.045 21.928474
60.050 22.149599
60.055 22.343191
60.060 22.416601
60.065 22.648027
60.070 22.426535
60.075 22.034258
60.080 21.92095
60.085 22.400137
60.090 22.121735
60.095 22.609196
60.100 22.701666
60.105 22.331852
60.110 22.469246
60.115 22.215014
60.120 21.565578
60.125 21.592604
60.130 20.998344
60.135 20.913996
60.140 21.306524
60.145 21.292988
60.150 21.042971
60.155 20.820307
60.160 20.540083
60.165 21.203381
60.170 21.515959
60.175 21.452646
60.180 21.386559
60.185 22.195827
60.190 22.09506
60.195 22.093704
60.200 22.386951
60.205 22.258913
60.210 22.117426
60.215 22.202559
60.220 20.959763
60.225 21.006767
60.230 21.502232
60.235 20.75255
60.240 20.379614
60.245 20.536894
60.250 20.217422
60.255 20.224133
60.260 20.49807
60.265 20.072632
60.270 20.033613
60.275 20.443447
60.280 20.81069
60.285 21.238493
60.290 22.008293
60.295 21.73579
60.300 21.647892
60.305 22.128271
60.310 22.402451
60.315 22.062088
60.320 21.921204
60.325 22.57271
60.330 22.936806
60.335 23.707748
60.340 23.314535
60.345 22.488323
60.350 22.623886
60.355 22.797569
60.360 21.963676
60.365 21.91469
60.370 21.720726
60.375 22.181364
60.380 22.423487
60.385 21.84828
60.390 21.671072
60.395 21.303522
60.400 21.398293
60.405 21.721497
60.410 21.226559
60.415 20.577421
60.420 20.964687
60.425 20.417328
60.430 21.475702
60.435 20.545666
60.440 20.104177
60.445 20.02953
60.450 20.187685
60.455 20.527178
60.460 20.561449
60.465 19.816952
60.470 20.769995
60.475 21.162437
60.480 21.582865
60.485 21.347893
60.490 21.132492
60.495 21.618481
60.500 21.279066
60.505 20.347778
60.510 20.470819
60.515 20.70182
60.520 20.383596
60.525 20.401379
60.530 20.785028
60.535 21.059076
60.540 21.42045
60.545 21.041742
60.550 21.141441
60.555 21.690222
60.560 21.365698
60.565 20.68334
60.570 20.328682
60.575 19.787668
60.580 19.012836
60.585 18.951788
60.590 19.479652
60.595 19.910748
60.600 19.68932
60.605 20.174
60.610 20.642017
60.615 20.351311
60.620 19.500435
60.625 18.992136
60.630 18.998461
60.635 19.107645
60.640 19.315453
60.645 19.37858
60.650 19.884134
60.655 20.251259
60.660 20.145632
60.665 19.89975
60.670 19.227407
60.675 18.901234
60.680 18.865383
60.685 18.780704
60.690 18.808134
60.695 18.594618
60.700 18.295645
60.705 19.114861
60.710 19.067081
60.715 19.128958
60.720 18.832239
60.725 18.251505
60.730 17.846714
60.735 17.750483
60.740 17.608068
60.745 17.53112
60.750 17.813948
60.755 18.548664
60.760 19.184044
60.765 20.177382
60.770 20.366852
60.775 19.737625
60.780 19.456646
60.785 18.774124
60.790 18.81872
60.795 18.900993
60.800 18.87117
60.805 19.164812
60.810 19.204121
60.815 19.302691
60.820 18.95685
60.825 18.502865
60.830 18.441666
60.835 17.963152
60.840 17.516338
60.845 18.094442
60.850 18.218952
60.855 18.861479
60.860 18.6814
60.865 18.172306
60.870 18.063169
60.875 18.167736
60.880 17.259222
60.885 16.731222
60.890 16.527742
60.895 17.040131
60.900 17.321297
60.905 16.980841
60.910 17.10216
60.915 17.884199
60.920 18.192669
60.925 17.801546
60.930 17.312656
60.935 17.624233
60.940 17.943371
60.945 18.095215
60.950 17.826763
60.955 18.135754
60.960 18.324955
60.965 18.669294
60.970 18.335697
60.975 18.240904
60.980 18.08647
60.985 17.22728
60.990 16.819433
60.995 16.57995
61.000 16.495352
61.005 16.677637
61.010 16.549629
61.015 16.636736
61.020 17.148848
61.025 17.527664
61.030 17.343248
61.035 16.799488
61.040 17.009792
61.045 17.152945
61.050 17.365866
61.055 17.590862
61.060 17.63229
61.065 17.731724
61.070 17.744173
61.075 17.328978
61.080 17.566067
61.085 17.052326
61.090 16.118229
61.095 16.157122
61.100 16.161556
61.105 16.362104
61.110 16.601011
61.115 16.408245
61.120 16.728346
61.125 17.40658
61.130 17.730587
61.135 18.185965
61.140 17.99313
61.145 17.735641
61.150 17.535133
61.155 17.68486
61.160 17.625645
61.165 17.659519
61.170 17.747517
61.175 17.776558
61.180 17.595608
61.185 17.769999
61.190 17.355576
61.195 17.162025
61.200 16.672972
61.205 15.884931
61.210 15.852918
61.215 16.160152
61.220 16.384157
61.225 16.656219
61.230 16.841639
61.235 16.853546
61.240 17.386164
61.245 17.656069
61.250 17.670177
61.255 17.531628
61.260 17.478594
61.265 17.28039
61.270 17.307272
61.275 17.041737
61.280 16.573404
61.285 16.556463
61.290 16.599016
61.295 16.493179
61.300 16.334841
61.305 16.033421
61.310 16.244228
61.315 16.473263
61.320 16.55522
61.325 16.992739
61.330 16.795605
61.335 16.675829
61.340 17.379171
61.345 17.076082
61.350 16.813721
61.355 16.540051
61.360 15.633458
61.365 15.397453
61.370 15.565858
61.375 14.785868
61.380 15.058294
61.385 15.122343
61.390 14.995708
61.395 15.300372
61.400 15.199033
61.405 15.512208
61.410 15.341632
61.415 15.393879
61.420 15.30904
61.425 15.367976
61.430 15.232964
61.435 15.195683
61.440 15.265013
61.445 15.606939
61.450 15.338421
61.455 14.986912
61.460 14.674759
61.465 15.046325
61.470 15.705452
61.475 15.275834
61.480 15.085797
61.485 14.729928
61.490 14.864031
61.495 15.142429
61.500 14.976208
61.505 14.599933
61.510 14.622414
61.515 15.161256
61.520 16.229267
61.525 17.099585
61.530 17.660686
61.535 17.657173
61.540 17.584248
61.545 18.563086
61.550 18.354954
61.555 17.994772
61.560 17.641867
61.565 17.026201
61.570 17.196684
61.575 17.297985
61.580 17.080729
61.585 17.285719
61.590 17.18648
61.595 17.349489
61.600 17.751177
61.605 17.930136
61.610 17.58349
61.615 17.074629
61.620 17.159733
61.625 17.326523
61.630 17.198252
61.635 17.535604
61.640 17.54748
61.645 17.796141
61.650 17.963806
61.655 17.705816
61.660 17.448454
61.665 17.204565
61.670 16.661524
61.675 16.739595
61.680 16.884247
61.685 16.271511
61.690 16.284422
61.695 16.167368
61.700 15.811803
61.705 15.600282
61.710 15.917913
61.715 15.970066
61.720 16.303347
61.725 17.076323
61.730 17.161703
61.735 17.103827
61.740 17.008381
61.745 17.00988
61.750 17.361847
61.755 17.404129
61.760 16.437225
61.765 16.50646
61.770 16.705988
61.775 16.42235
61.780 16.05401
61.785 15.21842
61.790 14.926831
61.795 15.343848
61.800 15.416061
61.805 15.447701
61.810 15.700454
61.815 15.911345
61.820 16.11919
61.825 16.705347
61.830 16.779865
61.835 16.727045
61.840 17.625355
61.845 18.172009
61.850 17.87858
61.855 18.4818
61.860 18.072693
61.865 17.792902
61.870 17.168901
61.875 16.493946
61.880 16.206411
61.885 16.50598
61.890 16.991365
61.895 17.383106
61.900 17.544392
61.905 17.917418
61.910 18.165787
61.915 18.182903
61.920 18.032654
61.925 17.17137
61.930 17.062046
61.935 17.247351
61.940 17.179312
61.945 17.31695
61.950 17.371977
61.955 17.25812
61.960 17.726826
61.965 17.550465
61.970 17.560747
61.975 17.903395
61.980 17.798967
61.985 17.38438
61.990 17.114418
61.995 16.61838
62.000 16.588753
62.005 16.372318
62.010 15.955011
62.015 15.262403
62.020 15.024774
62.025 15.341688
62.030 15.749874
62.035 15.563399
62.040 15.510382
62.045 15.554899
62.050 15.759459
62.055 15.529608
62.060 15.280729
62.065 14.589165
62.070 15.188457
62.075 15.155498
62.080 15.333396
62.085 15.132898
62.090 15.920958
62.095 16.35042
62.100 16.239443
62.105 15.591311
62.110 15.688281
62.115 15.591705
62.120 15.390935
62.125 15.307458
62.130 15.193744
62.135 15.097519
62.140 14.821288
62.145 15.00796
62.150 15.416079
62.155 16.129665
62.160 15.69055
62.165 16.362272
62.170 17.695999
62.175 18.54635
62.180 18.156975
62.185 18.069294
62.190 17.983299
62.195 18.073875
62.200 17.783421
62.205 17.147369
62.210 16.707296
62.215 16.942005
62.220 16.697306
62.225 16.399006
62.230 15.961162
62.235 15.144054
62.240 15.35901
62.245 15.439768
62.250 15.315738
62.255 14.779273
62.260 14.63265
62.265 14.877331
62.270 14.705466
62.275 15.144169
62.280 15.153367
62.285 15.365601
62.290 16.104628
62.295 16.617315
62.300 17.025549
62.305 17.438515
62.310 16.490591
62.315 16.501844
62.320 16.77006
62.325 16.711067
62.330 17.025343
62.335 17.098637
62.340 16.392714
62.345 16.530632
62.350 16.309404
62.355 16.149899
62.360 16.449516
62.365 16.360128
62.370 16.304447
62.375 16.612173
62.380 16.982199
62.385 16.695362
62.390 16.57025
62.395 16.102781
62.400 15.896815
62.405 15.833247
62.410 16.012939
62.415 16.218264
62.420 17.279118
62.425 18.051899
62.430 18.471214
62.435 19.166735
62.440 19.542959
62.445 19.466879
62.450 19.643476
62.455 19.691637
62.460 18.764046
62.465 18.288603
62.470 17.561024
62.475 17.611935
62.480 18.310413
62.485 17.220697
62.490 16.096163
62.495 15.895864
62.500 15.90403
62.505 15.900871
62.510 16.005531
62.515 16.011967
62.520 16.484621
62.525 17.285503
62.530 18.261288
62.535 18.407696
62.540 18.921152
62.545 18.4384
62.550 17.349213
62.555 17.436636
62.560 16.799435
62.565 16.270287
62.570 16.173525
62.575 15.765452
62.580 15.756652
62.585 16.584597
62.590 17.034258
62.595 17.321945
62.600 17.479939
62.605 17.621855
62.610 17.47646
62.615 17.067898
62.620 16.381439
62.625 15.871751
62.630 15.870335
62.635 15.569255
62.640 15.741607
62.645 16.044106
62.650 16.50613
62.655 16.913849
62.660 17.384108
62.665 17.400366
62.670 17.567982
62.675 17.644495
62.680 17.948467
62.685 17.906696
62.690 18.051451
62.695 17.697088
62.700 16.977186
62.705 16.699177
62.710 16.092363
62.715 15.887194
62.720 16.060957
62.725 16.020212
62.730 16.459738
62.735 16.957043
62.740 17.10899
62.745 17.662994
62.750 17.55002
62.755 18.162407
62.760 18.216326
62.765 17.824526
62.770 18.101027
62.775 17.950691
62.780 17.695303
62.785 17.481388
62.790 17.321743
62.795 17.513155
62.800 17.184891
62.805 16.977385
62.810 16.798372
62.815 16.452223
62.820 16.572474
62.825 16.193104
62.830 16.246767
62.835 16.567701
62.840 16.195362
62.845 16.17976
62.850 16.634657
62.855 16.836853
62.860 16.900688
62.865 16.771999
62.870 17.245253
62.875 17.358934
62.880 17.365578
62.885 16.933857
62.890 16.547785
62.895 16.312986
62.900 15.781112
62.905 15.214934
62.910 15.400068
62.915 15.683375
62.920 16.135612
62.925 15.943967
62.930 16.158525
62.935 15.623843
62.940 15.765247
62.945 15.642161
62.950 15.724236
62.955 15.757556
62.960 15.763659
62.965 15.461505
62.970 16.751001
62.975 17.36875
62.980 17.569042
62.985 18.076626
62.990 18.414455
62.995 18.929153
63.000 18.976303
63.005 18.725643
63.010 18.206858
63.015 17.994062
63.020 17.301506
63.025 17.247831
63.030 16.993441
63.035 17.842588
63.040 17.490679
63.045 17.286337
63.050 17.72307
63.055 17.989162
63.060 17.679499
63.065 17.259869
63.070 16.871557
63.075 17.321239
63.080 17.440273
63.085 17.455153
63.090 17.357847
63.095 17.347191
63.100 17.600035
63.105 17.354095
63.110 17.365068
63.115 17.596434
63.120 17.656107
63.125 17.376818
63.130 17.904999
63.135 17.85512
63.140 18.31181
63.145 18.341108
63.150 18.011452
63.155 17.78624
63.160 18.108128
63.165 18.064445
63.170 18.522903
63.175 18.020763
63.180 17.606731
63.185 18.248177
63.190 18.223801
63.195 17.591524
63.200 17.182951
63.205 16.83354
63.210 16.614538
63.215 16.739147
63.220 16.26556
63.225 16.446451
63.230 16.698296
63.235 16.367067
63.240 16.161394
63.245 16.068455
63.250 15.91144
63.255 16.215923
63.260 16.224377
63.265 15.870044
63.270 15.781545
63.275 16.403038
63.280 17.338491
63.285 18.058311
63.290 17.622406
63.295 17.48774
63.300 17.661276
63.305 17.996607
63.310 17.966967
63.315 17.137815
63.320 16.690012
63.325 16.662128
63.330 16.416357
63.335 16.307575
63.340 15.617325
63.345 15.019776
63.350 15.107972
63.355 15.072538
63.360 15.742381
63.365 16.435223
63.370 16.786375
63.375 17.420485
63.380 17.882196
63.385 17.915953
63.390 17.840006
63.395 17.94286
63.400 17.591734
63.405 17.439592
63.410 17.072058
63.415 16.864744
63.420 17.137804
63.425 17.141035
63.430 16.324173
63.435 16.318197
63.440 16.342079
63.445 16.397854
63.450 16.430895
63.455 16.324463
63.460 16.093105
63.465 16.048489
63.470 15.816701
63.475 16.074718
63.480 16.448248
63.485 16.432364
63.490 16.825441
63.495 17.274517
63.500 17.839624
63.505 18.349913
63.510 18.229065
63.515 18.543062
63.520 18.912701
63.525 18.501953
63.530 18.240896
63.535 18.233582
63.540 18.184206
63.545 18.260254
63.550 17.679714
63.555 17.121775
63.560 17.412924
63.565 17.647482
63.570 17.505251
63.575 17.368614
63.580 17.519533
63.585 18.246376
63.590 18.358065
63.595 17.841881
63.600 17.29377
63.605 16.847826
63.610 16.483578
63.615 16.081987
63.620 15.490575
63.625 15.511753
63.630 15.692674
63.635 16.408802
63.640 16.863667
63.645 17.124334
63.650 16.911238
63.655 16.604595
63.660 16.618946
63.665 16.754078
63.670 16.242136
63.675 15.873546
63.680 15.613975
63.685 15.838246
63.690 16.102345
63.695 16.34749
63.700 16.365059
63.705 16.794825
63.710 17.347107
63.715 17.474487
63.720 17.916914
63.725 18.113876
63.730 17.675079
63.735 17.66943
63.740 17.776243
63.745 18.125824
63.750 18.637842
63.755 18.528645
63.760 18.112276
63.765 17.824724
63.770 17.85681
63.775 17.584351
63.780 17.360971
63.785 17.251886
63.790 17.251366
63.795 17.493549
63.800 17.803125
63.805 17.905926
63.810 17.982054
63.815 17.639471
63.820 17.450155
63.825 17.242266
63.830 17.509474
63.835 18.201818
63.840 18.254398
63.845 18.228628
63.850 18.126591
63.855 18.06296
63.860 18.113701
63.865 18.111483
63.870 17.504015
63.875 17.377474
63.880 17.093399
63.885 17.399786
63.890 17.46174
63.895 17.314877
63.900 16.884741
63.905 16.981232
63.910 17.412817
63.915 17.407698
63.920 17.364389
63.925 17.029682
63.930 16.662716
63.935 17.282774
63.940 17.526722
63.945 17.051405
63.950 17.195902
63.955 17.273491
63.960 17.635981
63.965 17.894985
63.970 17.914381
63.975 17.524708
63.980 17.870445
63.985 17.961922
63.990 18.011662
63.995 18.511742
64.000 18.726513
64.005 18.464148
64.010 19.047873
64.015 19.025785
64.020 19.118717
64.025 18.859854
64.030 18.635229
64.035 18.219961
64.040 18.511803
64.045 18.643263
64.050 18.953823
64.055 19.215309
64.060 19.112068
64.065 18.957634
64.070 19.734991
64.075 19.278883
64.080 18.901638
64.085 18.730242
64.090 18.448633
64.095 18.266102
64.100 17.869848
64.105 17.414597
64.110 17.395786
64.115 17.301563
64.120 17.692186
64.125 17.865467
64.130 18.032955
64.135 18.306993
64.140 18.311644
64.145 18.07999
64.150 18.052427
64.155 17.302813
64.160 16.723579
64.165 16.583527
64.170 16.399607
64.175 16.143892
64.180 16.233221
64.185 16.04389
64.190 16.126661
64.195 16.371983
64.200 17.117817
64.205 17.992161
64.210 18.864063
64.215 19.407972
64.220 19.391718
64.225 19.268835
64.230 20.139578
64.235 19.532904
64.240 18.758369
64.245 18.236219
64.250 18.10309
64.255 18.575909
64.260 19.015057
64.265 18.922073
64.270 18.887886
64.275 18.82065
64.280 18.790073
64.285 18.279173
64.290 17.870962
64.295 17.690628
64.300 16.972445
64.305 16.488947
64.310 16.61348
64.315 16.736065
64.320 16.777884
64.325 17.176668
64.330 16.353886
64.335 16.593027
64.340 17.414148
64.345 17.496552
64.350 17.996975
64.355 18.517771
64.360 18.651461
64.365 19.383381
64.370 19.431828
64.375 19.183853
64.380 19.416861
64.385 18.725012
64.390 18.509148
64.395 17.892036
64.400 17.78586
64.405 17.696543
64.410 17.789726
64.415 17.488148
64.420 17.640089
64.425 17.618477
64.430 17.785528
64.435 17.781139
64.440 18.138912
64.445 18.059547
64.450 18.322439
64.455 18.161228
64.460 18.186728
64.465 18.775696
64.470 19.356335
64.475 19.17415
64.480 19.064896
64.485 19.237417
64.490 19.161196
64.495 19.542786
64.500 19.423964
64.505 18.77099
64.510 18.975918
64.515 19.046701
64.520 18.728851
64.525 18.435394
64.530 18.275
64.535 17.768793
64.540 18.013561
64.545 17.697926
64.550 17.469196
64.555 17.62401
64.560 17.857876
64.565 17.863289
64.570 18.383566
64.575 18.233269
64.580 18.252005
64.585 19.066378
64.590 19.04125
64.595 18.766682
64.600 18.554893
64.605 18.262747
64.610 18.545929
64.615 18.292643
64.620 17.929462
64.625 17.954895
64.630 18.280458
64.635 18.117474
64.640 18.443615
64.645 18.680643
64.650 18.887272
64.655 18.550516
64.660 19.023563
64.665 19.349606
64.670 20.251959
64.675 19.639372
64.680 19.311926
64.685 19.644585
64.690 19.863491
64.695 19.645691
64.700 19.32151
64.705 18.586948
64.710 18.828724
64.715 19.126808
64.720 19.355003
64.725 19.187769
64.730 19.230871
64.735 19.313017
64.740 19.815994
64.745 19.999596
64.750 19.627834
64.755 19.249874
64.760 19.144588
64.765 19.107494
64.770 18.910879
64.775 18.512419
64.780 18.879858
64.785 19.333313
64.790 20.351805
64.795 20.556059
64.800 20.389992
64.805 20.639458
64.810 21.11483
64.815 20.520304
64.820 20.163559
64.825 19.634562
64.830 19.887262
64.835 20.109337
64.840 20.058754
64.845 19.91534
64.850 20.55986
64.855 20.142576
64.860 20.39097
64.865 20.358267
64.870 20.227535
64.875 19.705034
64.880 19.966702
64.885 19.603159
64.890 19.522116
64.895 19.497253
64.900 19.537134
64.905 19.75774
64.910 20.547861
64.915 20.442854
64.920 20.479654
64.925 20.56357
64.930 19.899832
64.935 19.169851
64.940 19.119089
64.945 18.92569
64.950 19.396927
64.955 19.698708
64.960 19.941719
64.965 20.198854
64.970 20.325279
64.975 20.152626
64.980 20.275957
64.985 20.455812
64.990 20.225725
64.995 20.093777
65.000 20.059851
65.005 20.130442
65.010 20.255541
65.015 20.415766
65.020 20.823107
65.025 21.227345
65.030 21.143167
65.035 21.349764
65.040 21.508411
65.045 21.752077
65.050 21.415142
65.055 20.793457
65.060 20.993595
65.065 21.345875
65.070 21.313652
65.075 21.532949
65.080 21.552
65.085 21.586098
65.090 21.904015
65.095 21.322062
65.100 21.408445
65.105 21.862566
65.110 21.911516
65.115 21.453009
65.120 21.300068
65.125 20.4694
65.130 20.807114
65.135 20.293282
65.140 19.919985
65.145 19.715528
65.150 20.512667
65.155 20.73292
65.160 21.473749
65.165 22.065229
65.170 22.435072
65.175 22.412565
65.180 22.176777
65.185 21.963564
65.190 22.309355
65.195 22.593697
65.200 23.186228
65.205 24.035444
65.210 24.679304
65.215 24.666023
65.220 24.013186
65.225 23.722357
65.230 22.895874
65.235 22.069201
65.240 21.526579
65.245 21.414045
65.250 22.098356
65.255 22.462738
65.260 22.366514
65.265 22.284868
65.270 22.565842
65.275 22.402971
65.280 22.093626
65.285 21.968182
65.290 21.862888
65.295 22.876787
65.300 24.016268
65.305 24.217279
65.310 25.334579
65.315 25.642912
65.320 25.24052
65.325 25.537518
65.330 25.219719
65.335 24.396364
65.340 23.966814
65.345 23.410923
65.350 23.682808
65.355 24.186193
65.360 24.216892
65.365 24.364857
65.370 24.30171
65.375 24.299129
65.380 23.850986
65.385 23.466166
65.390 22.862524
65.395 22.693949
65.400 22.798183
65.405 23.052885
65.410 23.532202
65.415 24.023567
65.420 24.102346
65.425 24.621384
65.430 24.154623
65.435 23.482536
65.440 22.466593
65.445 22.029753
65.450 21.691954
65.455 21.9149
65.460 22.131931
65.465 22.719452
65.470 23.285683
65.475 23.636848
65.480 23.877462
65.485 24.090265
65.490 24.597271
65.495 25.116009
65.500 25.657122
65.505 26.42803
65.510 26.883001
65.515 26.541586
65.520 26.56332
65.525 25.737934
65.530 25.379742
65.535 24.624647
65.540 23.964231
65.545 24.039755
65.550 24.841579
65.555 25.351822
65.560 26.156096
65.565 26.251049
65.570 26.596258
65.575 27.299728
65.580 27.860205
65.585 27.762732
65.590 27.805302
65.595 28.03916
65.600 28.422565
65.605 29.485884
65.610 29.709524
65.615 29.951384
65.620 30.414379
65.625 31.2868
65.630 31.239202
65.635 30.996616
65.640 30.722956
65.645 30.646563
65.650 30.70582
65.655 30.146477
65.660 30.487658
65.665 31.245834
65.670 31.031094
65.675 30.957863
65.680 31.828281
65.685 32.76479
65.690 33.160809
65.695 32.601269
65.700 32.639355
65.705 32.660648
65.710 32.349174
65.715 31.92086
65.720 31.706274
65.725 31.304501
65.730 31.461147
65.735 31.31525
65.740 31.655664
65.745 31.459127
65.750 31.67584
65.755 32.127148
65.760 32.984432
65.765 33.653648
65.770 34.332745
65.775 34.879776
65.780 35.784199
65.785 35.342415
65.790 35.446175
65.795 35.089176
65.800 35.530746
65.805 35.450222
65.810 35.082714
65.815 35.229996
65.820 36.453068
65.825 36.776314
65.830 37.009964
65.835 36.367378
65.840 36.244659
65.845 36.087147
65.850 35.767567
65.855 35.961334
65.860 36.386482
65.865 36.37326
65.870 36.744621
65.875 36.970432
65.880 37.912159
65.885 38.37991
65.890 38.36396
65.895 38.673466
65.900 38.808193
65.905 38.656639
65.910 38.659092
65.915 37.931961
65.920 38.133747
65.925 38.510735
65.930 37.605648
65.935 36.88567
65.940 36.680252
65.945 36.712036
65.950 37.246887
65.955 37.025215
65.960 37.185181
65.965 37.445194
65.970 38.071594
65.975 38.637783
65.980 38.957863
65.985 38.98864
65.990 38.973309
65.995 39.08062
66.000 39.645195
66.005 39.928619
66.010 39.296844
66.015 38.408817
66.020 37.886612
66.025 37.02776
66.030 36.63385
66.035 37.106968
66.040 36.915066
66.045 37.162537
66.050 38.365425
66.055 38.483826
66.060 37.989937
66.065 38.475773
66.070 38.586994
66.075 38.767277
66.080 38.770893
66.085 38.209408
66.090 38.674362
66.095 39.227371
66.100 37.800747
66.105 37.12701
66.110 37.091702
66.115 37.438251
66.120 36.971462
66.125 36.740711
66.130 36.555069
66.135 36.449768
66.140 35.98811
66.145 35.50053
66.150 34.845921
66.155 35.161518
66.160 35.075241
66.165 35.751461
66.170 35.753395
66.175 35.829086
66.180 36.208801
66.185 36.39061
66.190 36.201077
66.195 36.633923
66.200 35.860481
66.205 35.742779
66.210 36.232132
66.215 36.417618
66.220 36.257149
66.225 35.842148
66.230 35.41906
66.235 35.453526
66.240 35.253403
66.245 34.979504
66.250 34.161903
66.255 33.358036
66.260 33.815853
66.265 33.338478
66.270 32.885593
66.275 32.767025
66.280 32.186375
66.285 32.288124
66.290 32.513901
66.295 32.321228
66.300 33.055527
66.305 33.413658
66.310 33.524715
66.315 33.041264
66.320 33.16396
66.325 32.987286
66.330 32.598652
66.335 31.558233
66.340 31.486036
66.345 31.300123
66.350 32.14793
66.355 32.247761
66.360 32.974541
66.365 32.592979
66.370 32.547871
66.375 31.991274
66.380 31.932888
66.385 31.281033
66.390 30.299894
66.395 29.793953
66.400 30.244707
66.405 30.476196
66.410 30.359951
66.415 30.300156
66.420 30.271107
66.425 31.179737
66.430 30.958727
66.435 30.79653
66.440 30.770342
66.445 30.859154
66.450 30.336557
66.455 29.801973
66.460 28.991768
66.465 29.30673
66.470 29.25843
66.475 29.084085
66.480 28.550993
66.485 28.317696
66.490 28.125954
66.495 28.685825
66.500 28.040962
66.505 28.345226
66.510 27.847506
66.515 27.487635
66.520 28.055559
66.525 27.982698
66.530 26.955748
66.535 26.468187
66.540 25.847073
66.545 26.270939
66.550 26.491854
66.555 25.920254
66.560 25.892941
66.565 26.188616
66.570 26.176338
66.575 26.54743
66.580 26.430006
66.585 26.538553
66.590 26.610023
66.595 27.168613
66.600 27.436171
66.605 27.235273
66.610 26.671658
66.615 26.44968
66.620 26.475739
66.625 26.685671
66.630 26.378229
66.635 26.637455
66.640 27.117365
66.645 26.764383
66.650 26.450399
66.655 25.975533
66.660 25.793135
66.665 25.964046
66.670 26.160112
66.675 25.851303
66.680 26.379213
66.685 26.600481
66.690 26.280235
66.695 25.679615
66.700 24.284773
66.705 23.672819
66.710 23.701269
66.715 23.468819
66.720 23.12389
66.725 23.534224
66.730 24.164186
66.735 24.910397
66.740 25.144524
66.745 24.867205
66.750 25.066259
66.755 24.828758
66.760 24.425362
66.765 24.120699
66.770 23.863829
66.775 24.114799
66.780 24.425278
66.785 24.370275
66.790 24.041374
66.795 23.785273
66.800 23.778416
66.805 24.29232
66.810 23.530474
66.815 23.47954
66.820 23.568569
66.825 24.434044
66.830 24.276854
66.835 24.076235
66.840 23.155235
66.845 23.319532
66.850 23.011669
66.855 22.60828
66.860 22.193544
66.865 22.584068
66.870 22.92248
66.875 23.115602
66.880 23.024952
66.885 22.67919
66.890 22.13085
66.895 22.048187
66.900 21.187311
66.905 20.641159
66.910 20.519798
66.915 20.9667
66.920 21.216656
66.925 21.345446
66.930 20.976921
66.935 21.254932
66.940 21.455471
66.945 21.437628
66.950 20.509329
66.955 20.232149
66.960 20.372452
66.965 20.696329
66.970 21.312769
66.975 21.358374
66.980 21.938068
66.985 21.924952
66.990 21.594196
66.995 21.290354
67.000 21.124542
67.005 21.352949
67.010 21.465456
67.015 21.242159
67.020 21.952583
67.025 22.929386
67.030 23.306395
67.035 22.768881
67.040 21.899092
67.045 21.831972
67.050 21.957769
67.055 21.80147
67.060 22.268574
67.065 22.77426
67.070 23.208269
67.075 23.411837
67.080 23.798386
67.085 23.379995
67.090 22.973234
67.095 21.557371
67.100 21.44108
67.105 21.041277
67.110 20.924978
67.115 20.319426
67.120 20.835529
67.125 21.183895
67.130 21.675636
67.135 21.807669
67.140 22.293631
67.145 22.456505
67.150 22.257099
67.155 22.345304
67.160 22.13028
67.165 22.227129
67.170 21.872606
67.175 22.01437
67.180 22.295458
67.185 22.246706
67.190 22.166321
67.195 22.734213
67.200 22.409416
67.205 21.528383
67.210 21.091259
67.215 21.139166
67.220 21.64171
67.225 20.89007
67.230 20.598507
67.235 20.727715
67.240 21.49021
67.245 21.229912
67.250 20.491503
67.255 20.340408
67.260 20.736485
67.265 20.421242
67.270 20.673058
67.275 20.936842
67.280 21.318647
67.285 21.530027
67.290 21.870617
67.295 21.995884
67.300 21.739946
67.305 21.818306
67.310 21.450047
67.315 21.088833
67.320 20.556711
67.325 20.349796
67.330 20.288832
67.335 20.360765
67.340 20.531361
67.345 20.482605
67.350 21.023373
67.355 21.792299
67.360 21.993849
67.365 22.157663
67.370 22.268431
67.375 22.315483
67.380 22.222883
67.385 22.248434
67.390 21.76874
67.395 20.628441
67.400 20.11356
67.405 19.863581
67.410 19.308598
67.415 19.479109
67.420 19.18088
67.425 19.089481
67.430 19.142817
67.435 19.116325
67.440 19.405222
67.445 19.878222
67.450 19.845928
67.455 19.735382
67.460 20.48782
67.465 21.16799
67.470 21.244781
67.475 20.801769
67.480 21.032299
67.485 21.535648
67.490 21.902964
67.495 22.119699
67.500 22.479794
67.505 23.02589
67.510 23.75028
67.515 23.712311
67.520 23.530861
67.525 23.209635
67.530 22.918827
67.535 22.459337
67.540 22.28546
67.545 21.675247
67.550 21.528036
67.555 21.241711
67.560 21.154095
67.565 21.325998
67.570 22.07836
67.575 21.871897
67.580 22.347784
67.585 22.01438
67.590 22.357271
67.595 21.730888
67.600 21.092199
67.605 20.007444
67.610 20.147158
67.615 19.91518
67.620 20.058941
67.625 20.252892
67.630 21.045534
67.635 21.620703
67.640 21.765274
67.645 21.767199
67.650 22.066584
67.655 22.4009
67.660 22.048796
67.665 21.846455
67.670 21.564535
67.675 21.815792
67.680 21.491095
67.685 21.490747
67.690 21.520596
67.695 21.102961
67.700 20.742802
67.705 20.781569
67.710 21.018021
67.715 21.444065
67.720 21.429873
67.725 21.88184
67.730 22.045843
67.735 22.399662
67.740 22.444864
67.745 22.526741
67.750 22.197475
67.755 21.848309
67.760 20.886913
67.765 21.313877
67.770 21.553057
67.775 21.31978
67.780 21.402285
67.785 21.632153
67.790 21.850163
67.795 21.908466
67.800 21.299099
67.805 21.218082
67.810 21.575363
67.815 21.267946
67.820 20.575676
67.825 19.890877
67.830 20.165813
67.835 19.983078
67.840 19.391443
67.845 19.044601
67.850 18.987244
67.855 19.844278
67.860 20.215994
67.865 20.418709
67.870 20.689747
67.875 21.183229
67.880 21.508955
67.885 21.192678
67.890 21.054569
67.895 20.900061
67.900 20.655891
67.905 20.657431
67.910 20.914982
67.915 21.238867
67.920 21.461361
67.925 21.405495
67.930 21.332113
67.935 21.877455
67.940 21.416533
67.945 20.78861
67.950 20.198032
67.955 19.957264
67.960 20.05983
67.965 20.297989
67.970 20.188478
67.975 20.440006
67.980 20.636396
67.985 21.001423
67.990 21.176662
67.995 20.866259
68.000 20.517134
68.005 20.491709
68.010 20.178799
68.015 20.391298
68.020 20.641285
68.025 20.526564
68.030 20.344004
68.035 20.419924
68.040 20.378635
68.045 20.599443
68.050 20.294115
68.055 19.907425
68.060 20.61446
68.065 21.252121
68.070 21.411394
68.075 21.842262
68.080 21.931925
68.085 22.417311
68.090 22.475151
68.095 22.325678
68.100 22.854336
68.105 22.969944
68.110 22.803238
68.115 22.622229
68.120 22.355259
68.125 22.751167
68.130 22.427576
68.135 21.879944
68.140 22.050489
68.145 22.072363
68.150 22.523428
68.155 22.415556
68.160 21.922947
68.165 21.894377
68.170 21.757669
68.175 21.549194
68.180 20.891104
68.185 20.786907
68.190 20.752748
68.195 20.913137
68.200 20.864424
68.205 20.160812
68.210 20.083458
68.215 20.303556
68.220 19.75395
68.225 19.241545
68.230 18.402155
68.235 18.317459
68.240 18.584393
68.245 18.452009
68.250 18.189854
68.255 19.125101
68.260 19.743977
68.265 20.758469
68.270 20.884518
68.275 20.836664
68.280 20.93133
68.285 21.013248
68.290 20.192146
68.295 20.098265
68.300 19.502558
68.305 19.867487
68.310 20.655813
68.315 20.741175
68.320 21.489365
68.325 22.032585
68.330 21.9195
68.335 22.032505
68.340 21.670462
68.345 21.162886
68.350 20.698221
68.355 19.899885
68.360 19.828827
68.365 19.859455
68.370 19.719372
68.375 19.751768
68.380 19.674429
68.385 20.394386
68.390 20.19153
68.395 20.204994
68.400 20.750212
68.405 20.710316
68.410 20.505775
68.415 19.87051
68.420 19.683792
68.425 19.934423
68.430 19.758224
68.435 19.824274
68.440 19.925655
68.445 20.6945
68.450 21.645742
68.455 21.548101
68.460 21.722977
68.465 21.620605
68.470 21.031233
68.475 20.90634
68.480 20.341116
68.485 19.667179
68.490 20.249252
68.495 20.860455
68.500 21.321886
68.505 21.739471
68.510 21.750832
68.515 21.843933
68.520 21.941301
68.525 21.180525
68.530 20.744358
68.535 20.240271
68.540 20.037249
68.545 20.307379
68.550 20.496519
68.555 20.769821
68.560 21.022139
68.565 20.686815
68.570 21.145517
68.575 21.537712
68.580 21.309566
68.585 21.242466
68.590 20.921846
68.595 20.368708
68.600 20.463493
68.605 20.010033
68.610 20.016851
68.615 20.279259
68.620 19.976864
68.625 19.985645
68.630 20.600958
68.635 21.546856
68.640 22.015471
68.645 21.979477
68.650 22.041803
68.655 22.53021
68.660 22.243958
68.665 21.839691
68.670 20.772852
68.675 20.624222
68.680 20.355057
68.685 20.359781
68.690 19.847918
68.695 20.243914
68.700 20.355501
68.705 20.197367
68.710 20.050003
68.715 20.093817
68.720 20.370411
68.725 21.772289
68.730 22.711481
68.735 22.907246
68.740 23.109795
68.745 23.459187
68.750 22.912905
68.755 22.281284
68.760 21.334763
68.765 20.936424
68.770 21.234392
68.775 21.288063
68.780 21.309938
68.785 22.200258
68.790 22.785154
68.795 22.42981
68.800 22.210232
68.805 21.961403
68.810 22.117041
68.815 21.730474
68.820 21.191858
68.825 21.397131
68.830 21.610479
68.835 21.930096
68.840 21.88895
68.845 21.545361
68.850 21.701572
68.855 21.591869
68.860 21.601025
68.865 21.897448
68.870 21.950264
68.875 22.20504
68.880 22.993273
68.885 23.410234
68.890 23.594091
68.895 23.715147
68.900 23.983583
68.905 23.738565
68.910 23.483479
68.915 23.035929
68.920 22.936222
68.925 22.914923
68.930 22.162027
68.935 21.921789
68.940 22.183521
68.945 22.138496
68.950 22.005548
68.955 21.967798
68.960 22.381699
68.965 22.494984
68.970 22.252995
68.975 22.417253
68.980 22.969421
68.985 23.597477
68.990 23.748363
68.995 23.450985
69.000 23.755201
69.005 23.872349
69.010 23.446798
69.015 23.236631
69.020 22.367048
69.025 22.085064
69.030 22.14489
69.035 22.268957
69.040 22.323368
69.045 22.492855
69.050 22.827452
69.055 23.758793
69.060 24.024481
69.065 24.058235
69.070 23.987516
69.075 24.566334
69.080 25.533319
69.085 25.886229
69.090 26.0478
69.095 25.85276
69.100 26.109571
69.105 26.29143
69.110 25.850281
69.115 25.625854
69.120 25.635815
69.125 25.595167
69.130 26.058586
69.135 26.207802
69.140 26.956617
69.145 26.440901
69.150 25.98019
69.155 26.249821
69.160 25.810614
69.165 25.525581
69.170 25.608477
69.175 26.196539
69.180 26.102703
69.185 25.908943
69.190 25.768187
69.195 26.031353
69.200 26.263115
69.205 25.815563
69.210 25.526932
69.215 25.981894
69.220 25.445219
69.225 25.093977
69.230 25.368568
69.235 25.78792
69.240 25.549833
69.245 25.167866
69.250 25.74069
69.255 26.220526
69.260 26.667366
69.265 26.675076
69.270 26.357323
69.275 26.297691
69.280 25.97962
69.285 25.910545
69.290 26.02882
69.295 25.779102
69.300 25.980099
69.305 26.22254
69.310 26.528353
69.315 27.868999
69.320 28.094692
69.325 28.674715
69.330 28.882833
69.335 28.42667
69.340 28.121315
69.345 29.081825
69.350 28.39506
69.355 28.628397
69.360 28.972321
69.365 29.668615
69.370 30.233763
69.375 30.224569
69.380 29.740404
69.385 29.637186
69.390 29.670835
69.395 29.587133
69.400 29.701857
69.405 29.582491
69.410 29.90941
69.415 30.536259
69.420 30.338472
69.425 29.301313
69.430 28.566296
69.435 27.761801
69.440 27.717993
69.445 27.250797
69.450 26.388647
69.455 26.713467
69.460 27.04966
69.465 26.546089
69.470 26.451065
69.475 27.069361
69.480 27.921179
69.485 28.634884
69.490 28.218843
69.495 28.433237
69.500 28.706451
69.505 28.720425
69.510 27.848942
69.515 28.136726
69.520 27.931341
69.525 28.62365
69.530 29.161869
69.535 29.401375
69.540 29.785625
69.545 30.028402
69.550 29.359232
69.555 29.523432
69.560 29.472658
69.565 28.940464
69.570 29.047586
69.575 29.361519
69.580 29.714739
69.585 29.348133
69.590 29.107748
69.595 28.634542
69.600 28.335613
69.605 27.838724
69.610 27.940792
69.615 27.835579
69.620 28.196848
69.625 28.72793
69.630 28.846363
69.635 28.994875
69.640 29.819763
69.645 29.912271
69.650 29.676239
69.655 29.507742
69.660 28.860041
69.665 28.813152
69.670 28.687181
69.675 27.339188
69.680 27.237692
69.685 28.008844
69.690 27.628841
69.695 27.787985
69.700 28.361406
69.705 28.832752
69.710 28.923727
69.715 28.155977
69.720 27.436251
69.725 27.550285
69.730 27.77486
69.735 27.695055
69.740 27.858334
69.745 27.998446
69.750 28.089115
69.755 27.737083
69.760 27.540018
69.765 27.036463
69.770 27.172583
69.775 26.995029
69.780 27.061401
69.785 27.35804
69.790 27.229959
69.795 26.783348
69.800 26.876244
69.805 25.392309
69.810 25.120382
69.815 25.058542
69.820 24.951464
69.825 25.036736
69.830 25.23008
69.835 24.966774
69.840 25.097216
69.845 25.358213
69.850 25.136753
69.855 24.659058
69.860 24.206415
69.865 24.293941
69.870 24.587475
69.875 25.051704
69.880 24.44648
69.885 23.909092
69.890 24.182482
69.895 24.41923
69.900 24.435341
69.905 24.60746
69.910 24.308168
69.915 24.460764
69.920 24.331308
69.925 23.978081
69.930 23.420532
69.935 22.625935
69.940 22.219038
69.945 21.907257
69.950 21.669695
69.955 21.819572
69.960 21.989075
69.965 22.152906
69.970 22.005873
69.975 21.97747
69.980 21.730597
69.985 21.953941
69.990 21.779671
69.995 21.703102
70.000 22.356422
70.005 22.757584
70.010 22.295822
70.015 22.0648
70.020 21.949207
70.025 21.965151
70.030 22.35453
70.035 21.813877
70.040 21.271177
70.045 20.843254
70.050 20.885773
70.055 21.286463
70.060 20.799376
70.065 20.452293
70.070 20.662012
70.075 20.914402
70.080 21.989376
70.085 22.004755
70.090 21.524519
70.095 21.278051
70.100 20.527569
70.105 19.835064
70.110 20.106121
70.115 19.60022
70.120 20.247026
70.125 20.965189
70.130 21.227312
70.135 21.541285
70.140 22.047571
70.145 21.603525
70.150 21.52643
70.155 20.571646
70.160 20.165493
70.165 20.346853
70.170 20.435736
70.175 20.047274
70.180 19.835665
70.185 19.444771
70.190 19.676632
70.195 19.426266
70.200 19.536741
70.205 19.542439
70.210 20.096077
70.215 20.540785
70.220 21.257526
70.225 20.750011
70.230 20.600428
70.235 20.167559
70.240 19.788826
70.245 19.349958
70.250 18.944872
70.255 18.688332
70.260 19.198997
70.265 19.611433
70.270 19.587305
70.275 19.281887
70.280 19.042543
70.285 18.990187
70.290 18.932064
70.295 18.80308
70.300 18.814199
70.305 18.830065
70.310 19.615572
70.315 20.449581
70.320 20.347521
70.325 20.356161
70.330 20.713484
70.335 20.514942
70.340 21.132257
70.345 20.609907
70.350 20.160318
70.355 20.381292
70.360 20.189754
70.365 19.835478
70.370 19.597944
70.375 19.462978
70.380 19.256393
70.385 18.728586
70.390 18.316759
70.395 18.681309
70.400 18.885035
70.405 19.019493
70.410 18.892208
70.415 19.321608
70.420 20.266573
70.425 20.415924
70.430 20.420261
70.435 20.709808
70.440 20.443151
70.445 20.68675
70.450 21.319473
70.455 21.377611
70.460 20.991158
70.465 20.721537
70.470 20.692173
70.475 20.762817
70.480 19.765429
70.485 18.859058
70.490 18.890203
70.495 19.092035
70.500 19.346212
70.505 18.819185
70.510 18.903591
70.515 19.056814
70.520 18.465778
70.525 17.762558
70.530 17.028912
70.535 16.502274
70.540 16.34123
70.545 16.23982
70.550 16.348873
70.555 17.183193
70.560 17.534309
70.565 17.54561
70.570 17.390514
70.575 17.291553
70.580 17.864353
70.585 17.727758
70.590 17.193665
70.595 17.676207
70.600 18.113049
70.605 18.298697
70.610 18.828058
70.615 18.776842
70.620 19.298119
70.625 19.370401
70.630 19.45417
70.635 19.806257
70.640 19.482853
70.645 19.233143
70.650 18.703848
70.655 18.377756
70.660 17.988335
70.665 18.163055
70.670 18.176195
70.675 18.33469
70.680 18.079918
70.685 18.221521
70.690 18.568575
70.695 18.916121
70.700 18.189732
70.705 17.904184
70.710 18.295506
70.715 18.44696
70.720 18.502361
70.725 18.689093
70.730 19.353855
70.735 19.254276
70.740 18.822741
70.745 18.809803
70.750 19.213882
70.755 19.108055
70.760 18.417946
70.765 18.200676
70.770 18.769911
70.775 19.251432
70.780 19.017096
70.785 19.016558
70.790 18.958542
70.795 18.777678
70.800 18.689779
70.805 18.783224
70.810 19.360678
70.815 19.307882
70.820 20.544264
70.825 21.19808
70.830 21.085865
70.835 20.713064
70.840 20.571161
70.845 19.921274
70.850 19.76581
70.855 18.354294
70.860 18.278978
70.865 18.510435
70.870 18.83564
70.875 19.290535
70.880 19.483028
70.885 19.885073
70.890 20.639841
70.895 20.433887
70.900 19.869854
70.905 19.316582
70.910 18.625082
70.915 18.635424
70.920 17.952694
70.925 17.857904
70.930 18.617504
70.935 19.189207
70.940 19.217319
70.945 19.326775
70.950 19.589342
70.955 19.870911
70.960 19.108179
70.965 19.055214
70.970 19.366381
70.975 19.836441
70.980 20.154396
70.985 19.861706
70.990 19.471933
70.995 19.10956
71.000 18.607874
71.005 18.07279
71.010 17.372768
71.015 16.848495
71.020 16.887281
71.025 17.576946
71.030 17.973213
71.035 17.799664
71.040 18.525221
71.045 18.601151
71.050 18.913504
71.055 19.2498
71.060 18.884665
71.065 19.725554
71.070 19.951248
71.075 19.275099
71.080 19.339045
71.085 19.008406
71.090 18.442183
71.095 18.048079
71.100 17.752048
71.105 17.774462
71.110 17.585094
71.115 17.477392
71.120 17.943796
71.125 18.288574
71.130 18.340141
71.135 18.135368
71.140 18.378489
71.145 18.786678
71.150 19.654768
71.155 19.938423
71.160 19.834888
71.165 19.840679
71.170 20.077171
71.175 20.304422
71.180 20.352375
71.185 19.782385
71.190 19.584864
71.195 19.931627
71.200 19.945847
71.205 19.89106
71.210 19.948996
71.215 19.751444
71.220 19.774694
71.225 19.392128
71.230 19.820011
71.235 19.792948
71.240 19.814131
71.245 19.232605
71.250 18.994457
71.255 18.738419
71.260 18.890579
71.265 18.794872
71.270 18.712879
71.275 19.005392
71.280 19.832666
71.285 20.004234
71.290 20.476625
71.295 20.570108
71.300 20.128447
71.305 20.248533
71.310 19.871077
71.315 19.19607
71.320 18.942551
71.325 18.320154
71.330 17.765108
71.335 17.985172
71.340 18.042515
71.345 18.274473
71.350 18.540897
71.355 18.40181
71.360 18.289228
71.365 18.716797
71.370 18.872379
71.375 18.428127
71.380 18.485109
71.385 19.387453
71.390 19.847445
71.395 20.104349
71.400 20.322897
71.405 20.048382
71.410 20.374388
71.415 20.278992
71.420 19.831192
71.425 19.547132
71.430 19.135357
71.435 18.433624
71.440 18.825718
71.445 18.888988
71.450 19.147026
71.455 19.614817
71.460 19.675304
71.465 19.981903
71.470 20.549522
71.475 19.737364
71.480 18.855261
71.485 18.813187
71.490 18.443657
71.495 18.161116
71.500 18.407543
71.505 18.019733
71.510 18.446119
71.515 18.476776
71.520 17.781061
71.525 17.964479
71.530 17.836866
71.535 17.796446
71.540 18.477352
71.545 18.639565
71.550 19.068455
71.555 18.742903
71.560 18.716333
71.565 19.308041
71.570 19.220379
71.575 19.12796
71.580 18.934254
71.585 18.499201
71.590 18.813259
71.595 19.350594
71.600 19.137026
71.605 19.084742
71.610 18.919413
71.615 19.056252
71.620 19.481411
71.625 19.24048
71.630 18.796558
71.635 19.089779
71.640 19.268721
71.645 19.283529
71.650 19.200916
71.655 19.678284
71.660 19.826595
71.665 19.352865
71.670 18.324537
71.675 18.377804
71.680 18.241846
71.685 17.964149
71.690 17.699131
71.695 18.356112
71.700 19.079453
71.705 19.000336
71.710 18.289705
71.715 18.15876
71.720 18.115671
71.725 17.399994
71.730 17.053762
71.735 16.750776
71.740 17.056305
71.745 17.668619
71.750 17.939754
71.755 18.16394
71.760 18.554077
71.765 19.077511
71.770 19.580301
71.775 20.058678
71.780 20.291119
71.785 20.196129
71.790 19.620127
71.795 19.258991
71.800 19.075285
71.805 19.341497
71.810 19.190533
71.815 18.750095
71.820 18.696671
71.825 18.766422
71.830 18.522093
71.835 18.320078
71.840 17.661591
71.845 17.728512
71.850 17.437244
71.855 17.721792
71.860 17.829763
71.865 17.870459
71.870 18.116703
71.875 18.572775
71.880 18.22262
71.885 18.615952
71.890 18.58548
71.895 19.190813
71.900 19.257217
71.905 19.219299
71.910 18.710043
71.915 18.92602
71.920 19.180075
71.925 19.237415
71.930 18.91674
71.935 18.425005
71.940 18.210014
71.945 18.581642
71.950 18.53443
71.955 18.085918
71.960 17.870449
71.965 18.113068
71.970 18.80126
71.975 18.712923
71.980 18.583433
71.985 18.526054
71.990 18.835596
71.995 18.709217
72.000 18.294291
72.005 17.971081
72.010 18.25931
72.015 17.952202
72.020 17.556467
72.025 17.676224
72.030 17.86577
72.035 17.898304
72.040 17.949612
72.045 17.515287
72.050 18.026911
72.055 17.98107
72.060 18.343147
72.065 18.875166
72.070 18.926861
72.075 18.608215
72.080 18.456631
72.085 18.206615
72.090 18.229044
72.095 17.743916
72.100 17.451687
72.105 17.610582
72.110 17.999369
72.115 18.795158
72.120 19.523424
72.125 19.386562
72.130 18.747496
72.135 18.394426
72.140 18.488518
72.145 18.470478
72.150 17.860579
72.155 18.195332
72.160 18.463869
72.165 19.365007
72.170 19.75806
72.175 20.162834
72.180 20.392439
72.185 19.968168
72.190 19.715748
72.195 19.847006
72.200 19.292955
72.205 18.578035
72.210 17.858107
72.215 17.823259
72.220 17.934208
72.225 17.465839
72.230 17.142279
72.235 17.833603
72.240 18.530462
72.245 19.179018
72.250 19.07556
72.255 19.632818
72.260 20.080256
72.265 19.9524
72.270 19.497786
72.275 19.171669
72.280 18.876913
72.285 18.769819
72.290 17.641367
72.295 17.308674
72.300 17.67403
72.305 18.182961
72.310 17.902943
72.315 18.413429
72.320 18.473299
72.325 18.901686
72.330 18.765966
72.335 17.968391
72.340 17.694828
72.345 18.171711
72.350 17.396107
72.355 17.620569
72.360 17.359077
72.365 17.852936
72.370 18.49502
72.375 18.250593
72.380 18.329849
72.385 18.229725
72.390 18.163382
72.395 18.632444
72.400 18.532228
72.405 18.423578
72.410 18.545874
72.415 18.398357
72.420 19.317297
72.425 19.226076
72.430 18.908045
72.435 18.850424
72.440 18.749046
72.445 18.476053
72.450 18.087795
72.455 17.441961
72.460 17.229452
72.465 17.091806
72.470 16.344501
72.475 16.211273
72.480 16.225677
72.485 16.242792
72.490 16.585938
72.495 16.908541
72.500 17.418577
72.505 17.872034
72.510 17.508724
72.515 17.352522
72.520 17.511992
72.525 17.050751
72.530 16.66552
72.535 16.161037
72.540 16.407179
72.545 16.836212
72.550 16.716206
72.555 16.336002
72.560 16.426565
72.565 16.91239
72.570 17.316494
72.575 17.829844
72.580 18.593079
72.585 19.378773
72.590 19.867186
72.595 20.224165
72.600 20.429459
72.605 20.172091
72.610 19.419741
72.615 18.498524
72.620 18.359003
72.625 18.326717
72.630 17.740288
72.635 17.693369
72.640 16.911839
72.645 16.623314
72.650 16.768677
72.655 16.888271
72.660 16.980936
72.665 16.896965
72.670 17.568306
72.675 18.625881
72.680 18.76944
72.685 18.691593
72.690 18.982637
72.695 19.137699
72.700 19.076023
72.705 18.74505
72.710 18.23078
72.715 18.138435
72.720 18.054684
72.725 17.654413
72.730 17.304047
72.735 17.377871
72.740 17.319654
72.745 17.84609
72.750 17.816364
72.755 17.336792
72.760 17.649992
72.765 17.601635
72.770 17.105915
72.775 16.842287
72.780 16.431952
72.785 16.508036
72.790 16.424629
72.795 16.335758
72.800 16.808712
72.805 17.818935
72.810 18.365189
72.815 18.825001
72.820 18.954729
72.825 19.204124
72.830 18.647249
72.835 17.837744
72.840 18.071688
72.845 17.499739
72.850 17.435465
72.855 17.144426
72.860 16.831171
72.865 17.562857
72.870 17.416914
72.875 16.643757
72.880 17.332735
72.885 17.289415
72.890 17.228857
72.895 16.970327
72.900 16.288486
72.905 16.244942
72.910 16.669722
72.915 16.398623
72.920 16.518616
72.925 17.040165
72.930 17.690123
72.935 17.683266
72.940 17.795006
72.945 17.543089
72.950 17.239655
72.955 17.532576
72.960 17.710672
72.965 17.888422
72.970 18.089037
72.975 18.05076
72.980 18.047283
72.985 17.684092
72.990 16.686399
72.995 16.214285
73.000 16.293074
