!@!!GADDS PLOTSO FILE: Chi integration type
!@!!Title/SampleName: map-113
!@!!Comment: ?
!@!!User: Bruker Instrument Administrator
!@!!Site: University of Illinois Chicago
!@!!Frame: map-113_01_000.gfrm
!@!!Wavelengths    1.54184   1.54056   1.54439
!@!!Frame angles: 2Theta: 63.000 Omega: 50.000 Phi: 0.000 Chi: 90.000
!@!!Integration range: 2Theta: 53.000 to 73.000  Gamma: -105.000 to -75.000
!@!!Integration method: bin normalized
!@!N
!@!SS
!@!M
!@!L 0.0 0.0 0.0 0.0
!@!XDegrees
!@!YCounts
53.000 10.988855
53.005 10.895457
53.010 11.174685
53.015 10.71707
53.020 10.971207
53.025 11.470364
53.030 11.539428
53.035 11.463794
53.040 11.514581
53.045 11.149643
53.050 10.752626
53.055 9.682014
53.060 9.700038
53.065 9.703839
53.070 9.328408
53.075 9.706032
53.080 9.98385
53.085 10.327153
53.090 10.622699
53.095 10.414486
53.100 10.670697
53.105 10.841973
53.110 10.874926
53.115 11.337254
53.120 11.354589
53.125 11.206669
53.130 11.326591
53.135 11.035952
53.140 11.091659
53.145 11.396129
53.150 11.368752
53.155 11.028554
53.160 11.048226
53.165 10.728371
53.170 10.7084
53.175 10.278728
53.180 9.9044
53.185 9.746281
53.190 9.857682
53.195 9.854149
53.200 10.014426
53.205 10.366325
53.210 10.42147
53.215 10.433032
53.220 10.682837
53.225 10.946479
53.230 10.772796
53.235 10.763535
53.240 10.309619
53.245 9.924576
53.250 10.066947
53.255 9.778104
53.260 9.574749
53.265 9.534061
53.270 9.561842
53.275 9.456475
53.280 9.663774
53.285 9.595833
53.290 9.598722
53.295 9.624701
53.300 9.939073
53.305 10.297395
53.310 10.634251
53.315 10.390727
53.320 10.206711
53.325 10.206868
53.330 10.067409
53.335 9.605851
53.340 9.562928
53.345 9.936153
53.350 9.745329
53.355 9.740353
53.360 9.889367
53.365 10.222453
53.370 9.999667
53.375 9.711565
53.380 9.211119
53.385 9.560091
53.390 9.246215
53.395 9.063945
53.400 9.441731
53.405 9.929507
53.410 9.80482
53.415 9.715573
53.420 10.005618
53.425 10.265697
53.430 10.028231
53.435 9.664034
53.440 9.675151
53.445 10.241381
53.450 10.373868
53.455 10.202451
53.460 10.525039
53.465 10.502804
53.470 10.317941
53.475 10.234316
53.480 10.238186
53.485 10.821796
53.490 11.317183
53.495 11.075723
53.500 11.386048
53.505 11.418712
53.510 11.352108
53.515 11.705042
53.520 11.111944
53.525 10.973752
53.530 11.627015
53.535 11.745951
53.540 11.820465
53.545 11.463293
53.550 10.973362
53.555 10.83724
53.560 10.900187
53.565 11.000596
53.570 11.066576
53.575 11.622243
53.580 12.050039
53.585 12.102946
53.590 12.354697
53.595 11.917809
53.600 11.194366
53.605 10.979685
53.610 10.534849
53.615 10.313654
53.620 10.72549
53.625 11.049398
53.630 11.103632
53.635 11.368489
53.640 11.442162
53.645 11.515594
53.650 11.482987
53.655 11.106955
53.660 10.787807
53.665 10.99535
53.670 10.862678
53.675 10.975297
53.680 11.207729
53.685 11.586353
53.690 11.728455
53.695 11.863134
53.700 12.291117
53.705 12.519793
53.710 12.958517
53.715 12.742555
53.720 12.335345
53.725 12.080193
53.730 12.355843
53.735 12.001369
53.740 11.599529
53.745 11.435105
53.750 11.357494
53.755 11.618239
53.760 11.915687
53.765 11.642925
53.770 12.031277
53.775 11.971297
53.780 12.110877
53.785 12.221368
53.790 12.267731
53.795 12.03041
53.800 11.621427
53.805 11.495088
53.810 11.792173
53.815 11.57876
53.820 11.615325
53.825 11.510318
53.830 11.600253
53.835 11.610574
53.840 11.936442
53.845 11.716677
53.850 11.933974
53.855 12.356628
53.860 12.336745
53.865 12.309509
53.870 12.28781
53.875 11.772938
53.880 12.223705
53.885 12.370204
53.890 12.371812
53.895 12.927471
53.900 12.794578
53.905 13.059638
53.910 12.931838
53.915 12.796481
53.920 12.691804
53.925 11.901218
53.930 11.876789
53.935 11.691555
53.940 10.992436
53.945 10.992532
53.950 11.013029
53.955 11.257834
53.960 11.375495
53.965 11.07881
53.970 11.409472
53.975 12.411448
53.980 12.756186
53.985 12.622994
53.990 12.442966
53.995 12.827546
54.000 12.931659
54.005 12.337039
54.010 11.819642
54.015 11.049184
54.020 10.741988
54.025 10.406512
54.030 10.670431
54.035 11.154629
54.040 12.058629
54.045 12.081272
54.050 12.2835
54.055 12.629812
54.060 12.79119
54.065 12.603338
54.070 12.23794
54.075 11.677472
54.080 12.149608
54.085 12.07627
54.090 11.932309
54.095 11.860149
54.100 11.669135
54.105 11.662004
54.110 12.253635
54.115 11.754484
54.120 11.562766
54.125 11.409495
54.130 11.655812
54.135 11.395893
54.140 11.084332
54.145 10.782504
54.150 11.163881
54.155 11.527943
54.160 11.51248
54.165 12.231966
54.170 12.711511
54.175 13.195534
54.180 13.43956
54.185 13.100602
54.190 12.88995
54.195 12.777815
54.200 12.810878
54.205 12.793061
54.210 12.460729
54.215 12.398026
54.220 12.275865
54.225 11.978296
54.230 11.446779
54.235 10.63081
54.240 10.395493
54.245 10.41875
54.250 10.486737
54.255 10.673981
54.260 10.967789
54.265 11.925247
54.270 12.990431
54.275 13.37552
54.280 13.722493
54.285 13.947745
54.290 13.998144
54.295 13.624244
54.300 12.432773
54.305 11.5835
54.310 11.285586
54.315 10.626031
54.320 10.429933
54.325 10.515195
54.330 10.851496
54.335 11.241459
54.340 11.281112
54.345 10.94057
54.350 11.249855
54.355 11.319654
54.360 11.037739
54.365 10.953227
54.370 11.078985
54.375 11.41716
54.380 11.476805
54.385 11.410682
54.390 11.304851
54.395 11.488347
54.400 11.233689
54.405 10.728086
54.410 10.396674
54.415 10.49902
54.420 10.782145
54.425 11.302271
54.430 11.497528
54.435 11.612979
54.440 11.890287
54.445 11.833231
54.450 11.61326
54.455 11.222326
54.460 11.162419
54.465 11.318301
54.470 11.246226
54.475 11.03734
54.480 11.394593
54.485 11.697865
54.490 12.079433
54.495 11.51006
54.500 11.196237
54.505 11.140376
54.510 11.063546
54.515 10.910687
54.520 10.861588
54.525 10.444722
54.530 10.435384
54.535 10.483181
54.540 11.176861
54.545 11.861208
54.550 12.189852
54.555 12.117616
54.560 12.103015
54.565 12.035443
54.570 12.182359
54.575 11.220777
54.580 10.917134
54.585 11.169732
54.590 11.700775
54.595 11.942821
54.600 11.963933
54.605 11.989861
54.610 12.418415
54.615 11.825587
54.620 11.258276
54.625 10.981249
54.630 11.20628
54.635 11.62967
54.640 11.758952
54.645 11.596228
54.650 12.188483
54.655 12.192543
54.660 12.033276
54.665 11.371776
54.670 10.919929
54.675 11.102175
54.680 11.299287
54.685 11.30334
54.690 11.323938
54.695 11.073679
54.700 11.194198
54.705 11.337792
54.710 10.927734
54.715 10.935674
54.720 10.486555
54.725 10.377624
54.730 10.739005
54.735 11.166801
54.740 11.298244
54.745 11.359107
54.750 11.154845
54.755 11.479071
54.760 11.724772
54.765 11.428948
54.770 10.843594
54.775 10.750814
54.780 11.378414
54.785 11.393997
54.790 11.04231
54.795 10.765729
54.800 10.857892
54.805 11.006128
54.810 10.896987
54.815 10.705584
54.820 10.696162
54.825 11.53021
54.830 11.785183
54.835 12.400597
54.840 12.757446
54.845 12.929527
54.850 12.827759
54.855 12.782557
54.860 12.725529
54.865 12.777272
54.870 12.552804
54.875 11.951069
54.880 11.775172
54.885 11.94942
54.890 12.02891
54.895 12.215853
54.900 12.424571
54.905 12.430884
54.910 12.902631
54.915 13.074089
54.920 12.835037
54.925 12.834109
54.930 12.749526
54.935 12.548166
54.940 12.307183
54.945 12.262718
54.950 12.432487
54.955 12.564969
54.960 12.04754
54.965 12.179705
54.970 12.459778
54.975 12.958182
54.980 12.892551
54.985 12.458684
54.990 12.759923
54.995 12.83434
55.000 12.69229
55.005 12.957256
55.010 12.617393
55.015 13.018595
55.020 13.576118
55.025 13.64227
55.030 13.498136
55.035 13.353463
55.040 13.13675
55.045 13.846731
55.050 13.411904
55.055 12.957832
55.060 13.000785
55.065 12.940079
55.070 12.86449
55.075 12.464813
55.080 11.928538
55.085 11.804888
55.090 11.798383
55.095 11.990073
55.100 12.331581
55.105 12.41466
55.110 12.951438
55.115 12.769801
55.120 12.492363
55.125 12.291459
55.130 12.300328
55.135 12.16887
55.140 11.622705
55.145 11.601089
55.150 11.955308
55.155 12.048384
55.160 12.88588
55.165 13.030297
55.170 13.702643
55.175 13.839205
55.180 13.683705
55.185 13.654989
55.190 14.308351
55.195 13.555383
55.200 13.322934
55.205 12.94244
55.210 13.421186
55.215 13.40061
55.220 13.505125
55.225 13.000637
55.230 12.84694
55.235 12.585335
55.240 12.599236
55.245 12.380169
55.250 12.52633
55.255 12.374026
55.260 12.10681
55.265 12.417718
55.270 12.377583
55.275 12.788534
55.280 12.818088
55.285 12.67194
55.290 12.343276
55.295 12.447131
55.300 12.416258
55.305 12.288443
55.310 11.915728
55.315 11.853662
55.320 12.055094
55.325 12.619681
55.330 12.706837
55.335 12.534255
55.340 12.621859
55.345 12.722111
55.350 12.681127
55.355 12.964368
55.360 12.75003
55.365 12.618699
55.370 12.247411
55.375 12.056271
55.380 11.879901
55.385 12.109245
55.390 11.971795
55.395 12.228487
55.400 12.487805
55.405 13.277425
55.410 13.848303
55.415 13.866252
55.420 13.87817
55.425 13.818587
55.430 13.606125
55.435 13.427743
55.440 12.957286
55.445 12.367398
55.450 12.130712
55.455 12.08697
55.460 12.121828
55.465 12.169791
55.470 12.253089
55.475 12.506554
55.480 12.671912
55.485 12.759899
55.490 13.126162
55.495 13.000877
55.500 12.954352
55.505 13.020017
55.510 12.966714
55.515 13.133182
55.520 13.390352
55.525 13.442314
55.530 13.56529
55.535 13.845664
55.540 14.481151
55.545 14.603754
55.550 14.086292
55.555 13.780209
55.560 13.68109
55.565 13.968161
55.570 13.828791
55.575 13.87475
55.580 14.73227
55.585 15.136911
55.590 14.925549
55.595 14.70478
55.600 14.369889
55.605 14.53008
55.610 13.95755
55.615 13.106076
55.620 13.335814
55.625 12.905538
55.630 12.669558
55.635 12.545138
55.640 12.297397
55.645 12.484906
55.650 12.896478
55.655 12.907654
55.660 13.094319
55.665 13.015396
55.670 12.931225
55.675 12.821646
55.680 12.759213
55.685 12.409927
55.690 12.191257
55.695 11.935453
55.700 12.089015
55.705 11.954611
55.710 12.041762
55.715 12.1011
55.720 12.226941
55.725 12.298379
55.730 12.976377
55.735 12.927543
55.740 12.813961
55.745 12.480224
55.750 12.823469
55.755 12.571626
55.760 12.756532
55.765 12.623365
55.770 12.915539
55.775 13.634672
55.780 13.743726
55.785 13.215855
55.790 13.374545
55.795 13.276834
55.800 13.411196
55.805 13.113694
55.810 12.997599
55.815 13.245919
55.820 13.756715
55.825 13.74784
55.830 13.950599
55.835 14.191546
55.840 14.603852
55.845 14.501568
55.850 14.181326
55.855 14.126814
55.860 14.358967
55.865 14.253238
55.870 13.518358
55.875 13.199668
55.880 13.080231
55.885 13.591153
55.890 13.881995
55.895 13.416942
55.900 13.306825
55.905 13.512812
55.910 13.627819
55.915 13.498805
55.920 13.002145
55.925 12.642747
55.930 12.480189
55.935 12.276276
55.940 12.063132
55.945 12.373964
55.950 12.699453
55.955 12.815612
55.960 13.364816
55.965 13.959495
55.970 14.228532
55.975 14.588764
55.980 14.657952
55.985 14.993191
55.990 14.906746
55.995 14.437122
56.000 14.027153
56.005 13.668982
56.010 13.244134
56.015 12.943731
56.020 12.168838
56.025 12.11258
56.030 12.154496
56.035 12.414774
56.040 13.04644
56.045 13.320747
56.050 13.077581
56.055 13.360989
56.060 13.547462
56.065 13.339536
56.070 13.160395
56.075 13.023361
56.080 12.899543
56.085 12.508112
56.090 12.171416
56.095 12.435566
56.100 12.693654
56.105 12.575765
56.110 12.515017
56.115 12.108813
56.120 12.796806
56.125 13.321274
56.130 13.019112
56.135 13.603621
56.140 14.356361
56.145 14.452676
56.150 15.058772
56.155 15.246491
56.160 14.978562
56.165 14.722044
56.170 14.292756
56.175 14.332477
56.180 14.571783
56.185 14.144978
56.190 13.937252
56.195 13.903738
56.200 13.899715
56.205 13.555803
56.210 13.569351
56.215 13.459592
56.220 13.688854
56.225 13.932978
56.230 14.617332
56.235 14.904146
56.240 14.747418
56.245 14.55434
56.250 14.119509
56.255 13.829218
56.260 13.635206
56.265 13.628445
56.270 13.96933
56.275 14.119297
56.280 13.982002
56.285 14.192698
56.290 14.005252
56.295 13.879381
56.300 13.264448
56.305 12.908694
56.310 12.664978
56.315 12.566505
56.320 12.370009
56.325 12.624601
56.330 12.375924
56.335 12.833319
56.340 13.083379
56.345 13.006853
56.350 13.35884
56.355 13.051375
56.360 13.261307
56.365 13.520654
56.370 13.639642
56.375 14.075513
56.380 14.207592
56.385 14.496913
56.390 14.861701
56.395 14.039181
56.400 14.054855
56.405 13.381885
56.410 13.206782
56.415 13.447147
56.420 13.88742
56.425 14.441742
56.430 15.108206
56.435 15.016818
56.440 15.292229
56.445 15.737995
56.450 15.934237
56.455 15.547988
56.460 15.741176
56.465 15.509639
56.470 15.453005
56.475 15.487469
56.480 15.07833
56.485 14.896661
56.490 15.161585
56.495 15.116169
56.500 15.11503
56.505 15.316319
56.510 15.515494
56.515 15.478768
56.520 15.54844
56.525 15.094084
56.530 14.692641
56.535 14.41589
56.540 14.035124
56.545 13.559224
56.550 13.4852
56.555 13.375945
56.560 13.944487
56.565 14.091517
56.570 14.877548
56.575 15.107618
56.580 15.366652
56.585 15.292449
56.590 15.011089
56.595 15.107396
56.600 15.24432
56.605 14.689187
56.610 14.550287
56.615 14.633961
56.620 14.706678
56.625 14.748384
56.630 14.151018
56.635 13.910979
56.640 13.632022
56.645 13.715721
56.650 13.365263
56.655 13.445817
56.660 13.81889
56.665 14.509151
56.670 14.842308
56.675 15.577668
56.680 15.852527
56.685 16.009985
56.690 15.579242
56.695 15.036024
56.700 14.339853
56.705 14.066394
56.710 14.155917
56.715 13.832278
56.720 13.823596
56.725 14.183835
56.730 14.165816
56.735 14.156944
56.740 14.019834
56.745 13.929781
56.750 14.184669
56.755 14.762287
56.760 15.195305
56.765 15.936074
56.770 16.379154
56.775 16.343914
56.780 16.382341
56.785 16.132849
56.790 15.886525
56.795 15.644843
56.800 15.305594
56.805 15.432186
56.810 15.590238
56.815 15.574863
56.820 15.517562
56.825 15.162729
56.830 15.103089
56.835 15.164649
56.840 15.356556
56.845 15.488988
56.850 15.232175
56.855 15.105614
56.860 14.883679
56.865 14.448392
56.870 14.146346
56.875 14.530496
56.880 14.408728
56.885 14.411021
56.890 13.976942
56.895 13.703603
56.900 13.913896
56.905 14.005306
56.910 13.828891
56.915 14.345064
56.920 14.574985
56.925 15.153444
56.930 15.351692
56.935 15.048851
56.940 14.614565
56.945 14.077909
56.950 13.344495
56.955 13.080079
56.960 12.99739
56.965 13.013664
56.970 12.698389
56.975 12.803659
56.980 12.568906
56.985 12.986513
56.990 13.413734
56.995 13.707034
57.000 14.051015
57.005 14.979498
57.010 15.301884
57.015 15.391975
57.020 15.334831
57.025 15.067533
57.030 14.972779
57.035 15.338352
57.040 14.814264
57.045 14.807061
57.050 15.345231
57.055 15.35663
57.060 15.146435
57.065 14.950593
57.070 14.887518
57.075 15.154257
57.080 15.130166
57.085 14.963783
57.090 14.968668
57.095 15.97972
57.100 16.413078
57.105 15.946483
57.110 16.090675
57.115 16.195681
57.120 16.08379
57.125 15.919381
57.130 14.942488
57.135 14.480078
57.140 14.618304
57.145 14.31937
57.150 14.423625
57.155 14.579977
57.160 14.617031
57.165 14.777128
57.170 14.832659
57.175 14.642682
57.180 14.520453
57.185 14.104268
57.190 13.791002
57.195 13.668266
57.200 13.865492
57.205 14.189855
57.210 14.297475
57.215 14.268491
57.220 13.776002
57.225 13.931312
57.230 14.11937
57.235 14.039396
57.240 13.938948
57.245 14.381669
57.250 14.754052
57.255 15.468855
57.260 15.684286
57.265 15.906098
57.270 16.013655
57.275 15.554699
57.280 14.892982
57.285 14.603035
57.290 14.627027
57.295 14.756838
57.300 14.895402
57.305 15.01578
57.310 15.295822
57.315 15.539371
57.320 15.571715
57.325 15.360329
57.330 15.379566
57.335 15.347667
57.340 15.473587
57.345 15.393647
57.350 16.159597
57.355 16.478714
57.360 16.566097
57.365 16.365559
57.370 16.281311
57.375 16.33374
57.380 16.173553
57.385 15.234388
57.390 14.800986
57.395 14.485153
57.400 14.603821
57.405 14.483151
57.410 14.413837
57.415 14.968283
57.420 15.902542
57.425 16.114756
57.430 16.272984
57.435 16.161448
57.440 15.666251
57.445 15.410795
57.450 14.807883
57.455 14.227738
57.460 14.206695
57.465 13.914125
57.470 14.134882
57.475 14.688332
57.480 15.024665
57.485 15.051088
57.490 14.737306
57.495 14.764742
57.500 14.455218
57.505 14.511992
57.510 14.879073
57.515 14.716167
57.520 14.537652
57.525 14.996116
57.530 14.969095
57.535 15.044151
57.540 14.556072
57.545 14.321699
57.550 14.715237
57.555 15.381329
57.560 15.64619
57.565 15.472089
57.570 15.511982
57.575 15.560369
57.580 15.169569
57.585 14.680325
57.590 14.170447
57.595 13.427225
57.600 13.527078
57.605 13.549887
57.610 14.153677
57.615 14.645712
57.620 15.399487
57.625 15.814089
57.630 15.846284
57.635 16.11898
57.640 16.00704
57.645 15.35461
57.650 14.904575
57.655 14.100393
57.660 13.249249
57.665 12.717584
57.670 12.448587
57.675 12.701298
57.680 12.764144
57.685 12.435426
57.690 12.993894
57.695 14.044544
57.700 14.690859
57.705 15.200119
57.710 15.542926
57.715 16.0779
57.720 16.854311
57.725 16.605865
57.730 16.563894
57.735 16.374659
57.740 16.076019
57.745 15.022749
57.750 14.815688
57.755 14.639399
57.760 14.405931
57.765 14.61437
57.770 14.612013
57.775 14.806422
57.780 15.025623
57.785 15.475506
57.790 15.337144
57.795 14.599297
57.800 14.099002
57.805 14.321707
57.810 14.57426
57.815 14.659357
57.820 14.190476
57.825 14.695436
57.830 15.43209
57.835 15.326356
57.840 14.974519
57.845 14.706473
57.850 15.077246
57.855 15.543098
57.860 15.674721
57.865 15.920732
57.870 16.419186
57.875 16.501026
57.880 16.020554
57.885 15.268707
57.890 15.10076
57.895 15.070936
57.900 15.071805
57.905 15.481474
57.910 15.44713
57.915 16.000296
57.920 16.654165
57.925 16.466866
57.930 16.388895
57.935 16.283556
57.940 15.873805
57.945 16.107367
57.950 15.878513
57.955 15.34412
57.960 15.006703
57.965 14.744565
57.970 14.650153
57.975 15.048723
57.980 14.964407
57.985 14.766856
57.990 14.929273
57.995 15.625189
58.000 15.53462
58.005 15.114735
58.010 15.003693
58.015 14.835792
58.020 14.944691
58.025 15.027039
58.030 14.842747
58.035 15.102224
58.040 15.167704
58.045 15.47638
58.050 15.903728
58.055 16.356339
58.060 16.358099
58.065 16.395086
58.070 16.741524
58.075 16.659864
58.080 16.729729
58.085 17.137426
58.090 16.838137
58.095 16.318285
58.100 16.165985
58.105 16.375322
58.110 16.98881
58.115 16.209063
58.120 15.822576
58.125 15.749562
58.130 15.947921
58.135 15.814373
58.140 15.343686
58.145 14.995928
58.150 15.305965
58.155 15.314755
58.160 15.205499
58.165 15.45428
58.170 15.312159
58.175 15.299448
58.180 15.168689
58.185 15.103429
58.190 14.967114
58.195 15.181531
58.200 15.214099
58.205 15.458754
58.210 14.958777
58.215 14.885662
58.220 14.89627
58.225 15.00871
58.230 15.1085
58.235 15.174515
58.240 15.184127
58.245 15.696705
58.250 16.045961
58.255 16.098719
58.260 16.302137
58.265 16.025414
58.270 16.210403
58.275 15.987645
58.280 16.000593
58.285 15.913459
58.290 15.779888
58.295 15.391641
58.300 15.56629
58.305 15.13159
58.310 15.14253
58.315 15.106185
58.320 15.264218
58.325 16.137121
58.330 16.308649
58.335 15.927791
58.340 16.398535
58.345 16.731722
58.350 16.355993
58.355 15.688611
58.360 14.782146
58.365 14.948768
58.370 15.472423
58.375 14.809006
58.380 14.297001
58.385 14.357858
58.390 14.867531
58.395 14.936437
58.400 15.270661
58.405 15.470284
58.410 16.177956
58.415 16.699991
58.420 17.129108
58.425 16.77965
58.430 16.398993
58.435 15.747927
58.440 14.955235
58.445 14.994453
58.450 14.913285
58.455 14.411097
58.460 14.674964
58.465 15.249877
58.470 15.858097
58.475 16.066364
58.480 15.78315
58.485 15.812021
58.490 16.275017
58.495 17.119623
58.500 17.313425
58.505 17.564798
58.510 17.489882
58.515 17.778524
58.520 17.558702
58.525 17.740612
58.530 16.792515
58.535 16.134296
58.540 16.139273
58.545 16.523993
58.550 16.779039
58.555 16.834723
58.560 16.467705
58.565 16.449348
58.570 16.968836
58.575 16.85515
58.580 17.021526
58.585 17.049139
58.590 17.206678
58.595 17.653324
58.600 18.212328
58.605 18.022228
58.610 17.861107
58.615 17.489532
58.620 16.898865
58.625 16.806997
58.630 16.74917
58.635 16.501202
58.640 16.339436
58.645 16.153667
58.650 16.04715
58.655 16.471729
58.660 16.115118
58.665 16.592417
58.670 17.181129
58.675 17.259037
58.680 17.781096
58.685 18.363062
58.690 18.581139
58.695 18.431051
58.700 17.54347
58.705 17.024246
58.710 17.621376
58.715 17.806545
58.720 17.569162
58.725 17.610521
58.730 17.944181
58.735 17.967316
58.740 18.047775
58.745 17.836393
58.750 17.967173
58.755 18.195156
58.760 18.293449
58.765 18.575094
58.770 18.616381
58.775 18.607941
58.780 18.90621
58.785 18.516924
58.790 18.071054
58.795 17.520792
58.800 17.571257
58.805 17.792048
58.810 17.932327
58.815 17.856598
58.820 17.91345
58.825 18.14905
58.830 18.581486
58.835 18.86974
58.840 18.45509
58.845 17.886158
58.850 17.390184
58.855 17.271898
58.860 17.140259
58.865 16.717751
58.870 15.96182
58.875 15.935778
58.880 15.911873
58.885 16.342485
58.890 16.55311
58.895 16.377714
58.900 16.798962
58.905 17.105011
58.910 17.755386
58.915 18.610743
58.920 18.554188
58.925 18.387274
58.930 18.726248
58.935 18.60887
58.940 18.758984
58.945 18.461027
58.950 17.525036
58.955 17.45694
58.960 17.455753
58.965 17.404911
58.970 17.536798
58.975 17.570427
58.980 17.114088
58.985 16.970484
58.990 17.130278
58.995 17.140287
59.000 17.792055
59.005 18.48761
59.010 18.519133
59.015 18.834175
59.020 19.160822
59.025 19.563034
59.030 19.694395
59.035 18.810835
59.040 18.555788
59.045 18.455271
59.050 18.922678
59.055 18.789236
59.060 18.354746
59.065 18.123686
59.070 17.998259
59.075 17.898865
59.080 18.319441
59.085 17.95451
59.090 17.637657
59.095 17.622292
59.100 17.328125
59.105 17.399538
59.110 17.214821
59.115 16.859999
59.120 16.993263
59.125 17.121681
59.130 17.297176
59.135 17.701426
59.140 18.192186
59.145 19.063095
59.150 19.109274
59.155 18.556099
59.160 18.324823
59.165 18.376028
59.170 18.410128
59.175 17.894142
59.180 16.936586
59.185 16.799372
59.190 17.119398
59.195 17.516819
59.200 17.323952
59.205 17.147245
59.210 17.062626
59.215 16.915306
59.220 16.916552
59.225 16.646141
59.230 15.912316
59.235 16.217939
59.240 16.708807
59.245 17.031437
59.250 17.40436
59.255 18.088274
59.260 18.610111
59.265 19.013668
59.270 19.311634
59.275 19.03441
59.280 19.142126
59.285 19.198204
59.290 18.988787
59.295 19.028896
59.300 19.111469
59.305 18.911528
59.310 18.906301
59.315 18.720236
59.320 18.596296
59.325 19.037344
59.330 19.528734
59.335 19.124336
59.340 18.922125
59.345 18.957005
59.350 18.82913
59.355 18.192919
59.360 17.641399
59.365 17.458899
59.370 17.700008
59.375 17.629719
59.380 17.297005
59.385 17.472214
59.390 18.708965
59.395 19.095963
59.400 19.567461
59.405 19.332357
59.410 19.693632
59.415 20.282244
59.420 20.638247
59.425 19.483925
59.430 19.052759
59.435 18.641973
59.440 19.111454
59.445 18.789211
59.450 18.735405
59.455 18.695623
59.460 19.515884
59.465 19.462029
59.470 19.286011
59.475 19.147152
59.480 19.615553
59.485 20.13604
59.490 19.995302
59.495 19.726387
59.500 20.254992
59.505 20.709356
59.510 20.814259
59.515 19.951818
59.520 19.537628
59.525 19.305916
59.530 18.821331
59.535 18.389959
59.540 17.885839
59.545 18.038578
59.550 17.940651
59.555 17.852293
59.560 18.459175
59.565 19.638491
59.570 19.725956
59.575 19.804817
59.580 19.834206
59.585 19.961697
59.590 19.815372
59.595 19.396418
59.600 18.857891
59.605 19.338461
59.610 19.612659
59.615 19.695538
59.620 20.063843
59.625 20.232937
59.630 20.39407
59.635 21.090374
59.640 20.572502
59.645 20.465014
59.650 21.238871
59.655 21.217876
59.660 21.415419
59.665 21.173059
59.670 20.62636
59.675 21.411287
59.680 21.301386
59.685 20.573433
59.690 20.870415
59.695 21.069582
59.700 21.6952
59.705 21.97489
59.710 21.970106
59.715 22.035967
59.720 21.52388
59.725 20.94733
59.730 21.242775
59.735 20.795862
59.740 20.941877
59.745 20.612438
59.750 21.094091
59.755 21.915991
59.760 22.264788
59.765 22.489708
59.770 22.912298
59.775 22.984915
59.780 22.932062
59.785 22.429501
59.790 21.482162
59.795 21.758406
59.800 22.083796
59.805 22.54734
59.810 21.89595
59.815 22.139774
59.820 22.421343
59.825 22.798767
59.830 22.672939
59.835 22.103878
59.840 21.581501
59.845 22.807981
59.850 22.486181
59.855 22.563471
59.860 22.845018
59.865 22.323395
59.870 22.204155
59.875 22.159876
59.880 21.546244
59.885 21.702894
59.890 21.694405
59.895 22.296139
59.900 23.365007
59.905 23.659904
59.910 24.316542
59.915 25.213638
59.920 25.6394
59.925 25.86273
59.930 25.294964
59.935 24.828081
59.940 24.537796
59.945 24.370546
59.950 23.690172
59.955 23.419243
59.960 23.241373
59.965 22.915104
59.970 22.691765
59.975 22.695021
59.980 21.98624
59.985 21.963869
59.990 22.042849
59.995 22.595692
60.000 22.974272
60.005 23.394403
60.010 23.642134
60.015 24.035942
60.020 24.381592
60.025 24.327734
60.030 23.506273
60.035 23.201826
60.040 23.216858
60.045 23.525736
60.050 23.441813
60.055 22.564718
60.060 22.204638
60.065 22.232738
60.070 21.756418
60.075 21.056839
60.080 20.232763
60.085 20.307093
60.090 21.762594
60.095 22.10124
60.100 22.38633
60.105 22.159439
60.110 22.469393
60.115 22.517057
60.120 21.91613
60.125 21.056152
60.130 21.218065
60.135 21.695131
60.140 22.087406
60.145 21.940281
60.150 22.105181
60.155 22.594452
60.160 22.237316
60.165 21.818583
60.170 21.681273
60.175 21.592215
60.180 21.503458
60.185 21.692556
60.190 21.749954
60.195 21.959028
60.200 21.581282
60.205 21.612276
60.210 21.662279
60.215 20.965143
60.220 20.27639
60.225 19.52807
60.230 19.411945
60.235 19.800865
60.240 19.868383
60.245 20.725592
60.250 21.421234
60.255 21.62392
60.260 21.792154
60.265 21.385147
60.270 21.295858
60.275 20.858231
60.280 19.909565
60.285 19.68128
60.290 19.21101
60.295 19.204439
60.300 19.817284
60.305 19.802197
60.310 19.958864
60.315 20.497896
60.320 20.306469
60.325 21.125895
60.330 20.968376
60.335 20.932119
60.340 20.666241
60.345 20.848032
60.350 21.305616
60.355 21.573919
60.360 21.091278
60.365 21.171888
60.370 21.563725
60.375 21.79191
60.380 21.662327
60.385 20.993792
60.390 21.035975
60.395 21.909151
60.400 22.502048
60.405 22.00771
60.410 21.91703
60.415 22.050367
60.420 22.250883
60.425 22.397461
60.430 22.170652
60.435 21.843145
60.440 21.915705
60.445 20.890247
60.450 20.204903
60.455 19.53651
60.460 19.763645
60.465 19.30905
60.470 19.652338
60.475 20.561663
60.480 20.993895
60.485 20.635582
60.490 20.886522
60.495 20.523197
60.500 20.309114
60.505 20.269094
60.510 19.699539
60.515 19.710859
60.520 19.950283
60.525 20.121752
60.530 20.003481
60.535 20.08935
60.540 19.263626
60.545 18.941174
60.550 19.185246
60.555 19.463247
60.560 19.460846
60.565 19.39534
60.570 18.58835
60.575 18.503963
60.580 18.18857
60.585 18.258326
60.590 18.120686
60.595 18.091721
60.600 18.702362
60.605 19.668779
60.610 20.24538
60.615 20.825476
60.620 20.871881
60.625 20.627989
60.630 20.097431
60.635 19.054617
60.640 18.789537
60.645 18.498735
60.650 18.18618
60.655 18.171112
60.660 18.305769
60.665 18.429157
60.670 18.986141
60.675 18.788891
60.680 18.13246
60.685 17.205248
60.690 17.252275
60.695 17.82126
60.700 17.927143
60.705 17.785885
60.710 18.201122
60.715 18.81485
60.720 19.456007
60.725 18.979195
60.730 18.731659
60.735 18.701916
60.740 18.510136
60.745 17.812931
60.750 18.088982
60.755 18.240536
60.760 18.508787
60.765 18.518229
60.770 18.833387
60.775 19.417179
60.780 19.970648
60.785 20.283169
60.790 19.954121
60.795 20.152138
60.800 19.923697
60.805 19.456816
60.810 18.739584
60.815 18.971502
60.820 18.570065
60.825 19.001329
60.830 19.331013
60.835 19.217394
60.840 19.442429
60.845 19.826107
60.850 19.646788
60.855 19.669876
60.860 19.192598
60.865 19.150187
60.870 19.181601
60.875 18.807892
60.880 18.251131
60.885 18.389267
60.890 18.456709
60.895 19.31506
60.900 19.562904
60.905 20.092545
60.910 20.5662
60.915 20.961197
60.920 21.168604
60.925 21.182859
60.930 20.012709
60.935 19.164913
60.940 18.85569
60.945 18.469244
60.950 18.488056
60.955 17.922585
60.960 17.850004
60.965 17.832462
60.970 18.115715
60.975 17.881187
60.980 18.105892
60.985 18.0091
60.990 17.772465
60.995 17.541796
61.000 17.474091
61.005 17.632458
61.010 17.496531
61.015 17.598324
61.020 17.867268
61.025 18.056982
61.030 18.251534
61.035 18.785664
61.040 18.446859
61.045 18.80809
61.050 18.637121
61.055 17.99378
61.060 18.31374
61.065 17.989893
61.070 17.745731
61.075 17.527992
61.080 17.93395
61.085 18.20401
61.090 18.293575
61.095 18.189236
61.100 18.798748
61.105 19.039978
61.110 18.953091
61.115 18.399734
61.120 18.120485
61.125 18.291641
61.130 18.461781
61.135 18.229008
61.140 18.022217
61.145 17.827581
61.150 17.74663
61.155 17.829332
61.160 17.835794
61.165 17.688269
61.170 17.424162
61.175 17.702484
61.180 17.928654
61.185 17.947136
61.190 17.7773
61.195 17.113552
61.200 17.047264
61.205 17.375435
61.210 17.245438
61.215 17.485397
61.220 17.912085
61.225 17.939264
61.230 18.099455
61.235 17.588219
61.240 16.924957
61.245 17.075085
61.250 16.665144
61.255 16.431522
61.260 16.690773
61.265 16.832047
61.270 16.973246
61.275 17.275867
61.280 17.422737
61.285 18.008333
61.290 17.863363
61.295 17.67881
61.300 17.455666
61.305 17.31395
61.310 17.030308
61.315 16.754059
61.320 16.338572
61.325 16.163448
61.330 16.029383
61.335 15.878741
61.340 16.11834
61.345 16.459574
61.350 16.814514
61.355 16.807173
61.360 16.898935
61.365 16.570959
61.370 16.157188
61.375 16.49514
61.380 16.606462
61.385 16.389503
61.390 16.589277
61.395 16.201643
61.400 16.128727
61.405 16.254402
61.410 15.485881
61.415 14.95048
61.420 14.142929
61.425 13.778339
61.430 13.739727
61.435 14.047007
61.440 14.837375
61.445 15.553921
61.450 15.935518
61.455 16.669649
61.460 17.531698
61.465 17.884529
61.470 17.660135
61.475 16.693008
61.480 16.644316
61.485 16.835447
61.490 16.516369
61.495 16.368547
61.500 16.908964
61.505 16.933317
61.510 18.109388
61.515 18.739847
61.520 18.866524
61.525 19.150322
61.530 19.018555
61.535 19.030107
61.540 19.994875
61.545 19.761436
61.550 18.870716
61.555 18.859093
61.560 18.784657
61.565 18.992821
61.570 19.041948
61.575 19.237022
61.580 19.242857
61.585 19.857931
61.590 19.677284
61.595 19.076504
61.600 18.564619
61.605 18.233513
61.610 17.665556
61.615 16.876097
61.620 16.736101
61.625 16.573034
61.630 16.763783
61.635 17.06057
61.640 16.866611
61.645 16.440405
61.650 15.705346
61.655 15.250707
61.660 15.644376
61.665 16.14749
61.670 16.368008
61.675 16.316841
61.680 16.527044
61.685 17.426514
61.690 17.613863
61.695 17.719416
61.700 17.367682
61.705 17.291973
61.710 17.250782
61.715 17.598083
61.720 17.609007
61.725 17.450771
61.730 17.187994
61.735 17.171543
61.740 16.871033
61.745 17.049871
61.750 16.857306
61.755 17.029818
61.760 17.175274
61.765 17.634195
61.770 17.663649
61.775 18.170525
61.780 18.344635
61.785 18.024519
61.790 18.130739
61.795 17.884605
61.800 17.344351
61.805 17.239796
61.810 17.209641
61.815 17.181053
61.820 17.584352
61.825 17.707861
61.830 18.509295
61.835 18.64887
61.840 18.73012
61.845 18.466085
61.850 18.029703
61.855 17.711657
61.860 17.594398
61.865 16.965725
61.870 17.088928
61.875 17.168291
61.880 16.965172
61.885 17.304516
61.890 17.369976
61.895 17.214518
61.900 16.677462
61.905 16.225658
61.910 16.409048
61.915 16.655293
61.920 16.627335
61.925 16.65163
61.930 16.498079
61.935 17.574202
61.940 17.890036
61.945 17.459259
61.950 16.957516
61.955 16.411749
61.960 16.4561
61.965 16.546507
61.970 16.695028
61.975 16.130613
61.980 16.335888
61.985 17.054937
61.990 17.340446
61.995 17.22184
62.000 17.206163
62.005 16.242943
62.010 16.419249
62.015 16.398365
62.020 16.258619
62.025 16.045038
62.030 16.328161
62.035 16.585897
62.040 16.991533
62.045 16.784
62.050 17.040844
62.055 17.01783
62.060 17.53281
62.065 17.416399
62.070 17.380804
62.075 18.242453
62.080 18.405834
62.085 18.641279
62.090 18.662663
62.095 18.565239
62.100 18.121452
62.105 17.870937
62.110 17.496681
62.115 17.237825
62.120 16.949816
62.125 17.2885
62.130 17.223362
62.135 17.503895
62.140 17.431198
62.145 17.519186
62.150 18.4009
62.155 18.616634
62.160 18.463163
62.165 19.002296
62.170 19.418568
62.175 19.096701
62.180 18.826399
62.185 18.507381
62.190 18.241283
62.195 18.074888
62.200 17.609886
62.205 17.304855
62.210 17.768082
62.215 18.086882
62.220 17.658813
62.225 17.672646
62.230 17.983671
62.235 18.468937
62.240 18.112677
62.245 17.617563
62.250 17.624094
62.255 17.952465
62.260 17.639832
62.265 17.055143
62.270 16.508858
62.275 16.728588
62.280 16.788086
62.285 16.65914
62.290 16.936695
62.295 17.317091
62.300 17.433048
62.305 17.938715
62.310 18.377497
62.315 18.011784
62.320 18.410301
62.325 18.401766
62.330 18.706131
62.335 18.893951
62.340 18.753344
62.345 18.344795
62.350 18.219622
62.355 17.914873
62.360 17.661171
62.365 17.360994
62.370 17.4568
62.375 17.455475
62.380 17.581921
62.385 17.741247
62.390 18.227257
62.395 19.210672
62.400 19.52216
62.405 19.190826
62.410 19.580465
62.415 20.137058
62.420 20.173338
62.425 19.546673
62.430 18.910961
62.435 19.105286
62.440 19.058962
62.445 19.171278
62.450 18.790667
62.455 18.57847
62.460 18.358543
62.465 18.181843
62.470 17.943502
62.475 17.959522
62.480 17.434969
62.485 17.616261
62.490 17.908699
62.495 18.164782
62.500 17.888044
62.505 17.39879
62.510 17.326633
62.515 17.329069
62.520 17.596937
62.525 17.692902
62.530 17.461224
62.535 17.338478
62.540 17.753338
62.545 18.138792
62.550 18.546938
62.555 18.280624
62.560 17.925283
62.565 18.061493
62.570 17.897995
62.575 17.976278
62.580 17.924358
62.585 17.096546
62.590 17.246132
62.595 17.374125
62.600 17.507339
62.605 17.562645
62.610 17.448456
62.615 17.401758
62.620 18.181421
62.625 17.816603
62.630 17.964262
62.635 18.524527
62.640 18.680967
62.645 18.466761
62.650 18.586496
62.655 18.374306
62.660 18.160391
62.665 17.714184
62.670 17.515898
62.675 18.402531
62.680 18.678513
62.685 18.180426
62.690 18.19755
62.695 18.42507
62.700 18.78615
62.705 18.563501
62.710 17.740381
62.715 17.602476
62.720 17.852039
62.725 17.793026
62.730 18.888573
62.735 19.108734
62.740 19.142027
62.745 19.655027
62.750 19.882311
62.755 20.110281
62.760 19.966511
62.765 18.762352
62.770 18.326197
62.775 17.766026
62.780 17.11009
62.785 17.131388
62.790 16.669712
62.795 16.880661
62.800 17.443253
62.805 17.764587
62.810 18.238813
62.815 18.597902
62.820 18.583374
62.825 19.277746
62.830 18.735992
62.835 18.580036
62.840 18.185944
62.845 18.064632
62.850 17.924282
62.855 17.45042
62.860 16.718397
62.865 17.432163
62.870 17.53713
62.875 17.661955
62.880 18.351828
62.885 18.364332
62.890 18.665184
62.895 18.725069
62.900 18.25946
62.905 18.313183
62.910 18.374727
62.915 17.427059
62.920 17.238806
62.925 16.91271
62.930 16.750294
62.935 16.323689
62.940 16.084351
62.945 16.118738
62.950 15.971822
62.955 16.451424
62.960 16.737656
62.965 16.725487
62.970 17.339638
62.975 17.458317
62.980 17.762049
62.985 18.23662
62.990 18.702778
62.995 19.024082
63.000 19.510435
63.005 19.361662
63.010 19.761395
63.015 19.49892
63.020 19.497431
63.025 18.883959
63.030 18.371204
63.035 17.983089
63.040 17.542469
63.045 17.351021
63.050 17.752672
63.055 17.625813
63.060 18.152281
63.065 18.290249
63.070 18.413359
63.075 18.684011
63.080 18.626612
63.085 18.522804
63.090 18.002365
63.095 17.269588
63.100 17.28476
63.105 17.609653
63.110 16.994156
63.115 17.134956
63.120 17.143362
63.125 18.023842
63.130 18.385048
63.135 18.758381
63.140 18.800257
63.145 19.192085
63.150 18.435074
63.155 18.150986
63.160 17.747904
63.165 17.463072
63.170 17.703094
63.175 18.010405
63.180 18.76668
63.185 19.843798
63.190 19.975616
63.195 19.371105
63.200 19.104376
63.205 18.518036
63.210 18.795664
63.215 18.195543
63.220 17.449921
63.225 16.927835
63.230 17.532974
63.235 17.683346
63.240 17.049911
63.245 16.191568
63.250 16.404873
63.255 16.165071
63.260 16.644827
63.265 17.070248
63.270 17.349035
63.275 18.073713
63.280 18.873789
63.285 19.168461
63.290 19.353331
63.295 19.157616
63.300 18.778784
63.305 18.744759
63.310 18.487926
63.315 17.783775
63.320 17.656429
63.325 18.075212
63.330 18.380997
63.335 18.558189
63.340 18.437185
63.345 18.540819
63.350 18.408926
63.355 18.523357
63.360 18.623993
63.365 18.959127
63.370 19.039724
63.375 19.229042
63.380 19.440226
63.385 19.494278
63.390 19.484837
63.395 19.296825
63.400 19.007933
63.405 18.784273
63.410 18.438711
63.415 17.940302
63.420 18.303226
63.425 18.275064
63.430 18.747051
63.435 18.349474
63.440 18.515909
63.445 18.917007
63.450 19.032581
63.455 18.675966
63.460 18.572783
63.465 18.008976
63.470 18.546919
63.475 18.330702
63.480 18.121788
63.485 18.059124
63.490 18.004232
63.495 17.968754
63.500 17.964121
63.505 17.911572
63.510 18.008972
63.515 18.037685
63.520 17.961443
63.525 17.790302
63.530 17.778713
63.535 18.046068
63.540 18.096071
63.545 18.265879
63.550 18.38389
63.555 18.737764
63.560 19.093002
63.565 19.326757
63.570 19.390051
63.575 19.588055
63.580 19.759359
63.585 19.684431
63.590 19.408627
63.595 18.832048
63.600 18.262955
63.605 17.798435
63.610 17.645342
63.615 17.511494
63.620 17.445419
63.625 17.827642
63.630 18.568605
63.635 18.971197
63.640 18.934572
63.645 19.038061
63.650 19.209887
63.655 19.059513
63.660 19.310013
63.665 19.158453
63.670 19.203911
63.675 19.059418
63.680 18.410507
63.685 17.834661
63.690 17.824223
63.695 17.38377
63.700 17.61725
63.705 17.770737
63.710 17.963779
63.715 18.143505
63.720 18.339787
63.725 19.030529
63.730 18.860023
63.735 18.45051
63.740 18.533352
63.745 18.743305
63.750 19.126652
63.755 18.835848
63.760 18.025511
63.765 18.321362
63.770 18.420162
63.775 18.493919
63.780 18.745588
63.785 18.970665
63.790 19.400648
63.795 19.735657
63.800 19.405663
63.805 19.503979
63.810 19.357651
63.815 19.40568
63.820 19.01059
63.825 19.066204
63.830 18.704405
63.835 18.78301
63.840 18.860874
63.845 18.350832
63.850 17.705008
63.855 17.630726
63.860 17.384892
63.865 17.709259
63.870 18.136244
63.875 17.65398
63.880 17.419165
63.885 17.781864
63.890 17.944881
63.895 18.19112
63.900 18.461069
63.905 18.072699
63.910 18.018538
63.915 18.486252
63.920 18.388821
63.925 18.116894
63.930 17.968035
63.935 18.051298
63.940 18.309788
63.945 19.110826
63.950 19.044933
63.955 18.781385
63.960 19.427624
63.965 19.82802
63.970 19.234449
63.975 19.14694
63.980 19.014933
63.985 19.550531
63.990 19.914063
63.995 19.748644
64.000 19.035881
64.005 19.218851
64.010 19.471216
64.015 19.035261
64.020 18.868036
64.025 19.030827
64.030 18.402124
64.035 18.839602
64.040 18.771818
64.045 18.824945
64.050 19.270226
64.055 19.140692
64.060 19.009975
64.065 19.688869
64.070 19.779448
64.075 19.941299
64.080 19.753609
64.085 19.598238
64.090 20.296696
64.095 20.662148
64.100 20.07546
64.105 19.557014
64.110 19.581289
64.115 19.016632
64.120 18.273335
64.125 17.665585
64.130 17.626656
64.135 18.438522
64.140 18.83725
64.145 18.836079
64.150 19.370687
64.155 19.768415
64.160 19.263735
64.165 18.987448
64.170 18.900522
64.175 18.552881
64.180 17.99185
64.185 18.418036
64.190 18.9876
64.195 19.172554
64.200 19.506596
64.205 19.304552
64.210 19.890648
64.215 20.513857
64.220 20.094025
64.225 19.66683
64.230 20.029612
64.235 19.646227
64.240 19.837084
64.245 19.812937
64.250 19.605951
64.255 19.903193
64.260 19.532137
64.265 19.458057
64.270 20.06076
64.275 19.866594
64.280 20.200327
64.285 19.870127
64.290 19.448423
64.295 20.19396
64.300 20.2791
64.305 19.950172
64.310 19.886061
64.315 19.545681
64.320 19.852091
64.325 19.921837
64.330 19.091494
64.335 18.947271
64.340 18.94899
64.345 19.147898
64.350 19.317055
64.355 18.963184
64.360 19.231651
64.365 19.753075
64.370 20.475752
64.375 20.299227
64.380 19.78157
64.385 19.351713
64.390 19.106417
64.395 19.233679
64.400 19.115944
64.405 18.396185
64.410 18.407661
64.415 18.360907
64.420 18.699144
64.425 19.035156
64.430 18.802853
64.435 19.264116
64.440 19.503798
64.445 19.848475
64.450 20.33407
64.455 20.799541
64.460 20.544785
64.465 20.447062
64.470 19.864992
64.475 20.077637
64.480 19.967337
64.485 19.977224
64.490 19.856108
64.495 20.073063
64.500 20.359322
64.505 20.087288
64.510 20.135525
64.515 20.526585
64.520 20.579437
64.525 20.710569
64.530 20.992956
64.535 21.113623
64.540 21.620085
64.545 21.210749
64.550 20.796219
64.555 20.260147
64.560 20.073391
64.565 19.897644
64.570 19.243408
64.575 18.932871
64.580 19.119463
64.585 19.597031
64.590 20.13405
64.595 20.190516
64.600 20.175058
64.605 20.995052
64.610 20.953838
64.615 20.666807
64.620 19.867186
64.625 19.595226
64.630 19.046432
64.635 19.242737
64.640 19.074709
64.645 19.037849
64.650 18.697876
64.655 19.539354
64.660 20.302925
64.665 21.030642
64.670 20.864151
64.675 20.9042
64.680 21.075554
64.685 21.63378
64.690 21.286219
64.695 21.341017
64.700 21.383989
64.705 21.165592
64.710 20.035217
64.715 19.907492
64.720 20.167513
64.725 20.130453
64.730 19.573013
64.735 19.420877
64.740 19.987478
64.745 20.560654
64.750 20.632162
64.755 20.194866
64.760 20.922783
64.765 21.130959
64.770 21.244562
64.775 20.99893
64.780 21.179005
64.785 21.749943
64.790 21.745195
64.795 20.870996
64.800 20.695799
64.805 20.649456
64.810 21.044279
64.815 21.601212
64.820 21.640221
64.825 21.470478
64.830 21.644123
64.835 21.588335
64.840 21.613848
64.845 21.209515
64.850 21.230871
64.855 21.683018
64.860 22.206696
64.865 22.312973
64.870 22.3298
64.875 22.165396
64.880 22.513165
64.885 22.478027
64.890 22.073654
64.895 22.052124
64.900 22.13171
64.905 22.176376
64.910 22.149773
64.915 21.754124
64.920 21.162855
64.925 21.045244
64.930 20.945719
64.935 20.978563
64.940 20.799088
64.945 20.359791
64.950 20.698112
64.955 21.691561
64.960 21.277693
64.965 21.610277
64.970 22.461349
64.975 23.085001
64.980 24.227463
64.985 24.591152
64.990 24.426201
64.995 25.033117
65.000 24.971287
65.005 24.862123
65.010 24.721291
65.015 24.267891
65.020 24.292725
65.025 24.060015
65.030 24.8095
65.035 24.982798
65.040 24.621939
65.045 24.796818
65.050 25.499504
65.055 24.986521
65.060 24.902418
65.065 23.788527
65.070 23.744202
65.075 23.956909
65.080 24.093111
65.085 23.973627
65.090 24.254194
65.095 24.579958
65.100 25.008934
65.105 25.36515
65.110 26.393126
65.115 26.950584
65.120 27.064835
65.125 27.957102
65.130 27.978481
65.135 28.706964
65.140 28.607319
65.145 27.254972
65.150 26.93239
65.155 27.126423
65.160 26.511463
65.165 26.286406
65.170 25.686438
65.175 25.263334
65.180 25.21283
65.185 25.282875
65.190 25.312891
65.195 25.351427
65.200 25.488241
65.205 25.532919
65.210 26.102909
65.215 26.175602
65.220 26.200869
65.225 25.689548
65.230 24.924072
65.235 24.832659
65.240 25.090302
65.245 25.068491
65.250 24.842937
65.255 24.153429
65.260 24.294611
65.265 24.913172
65.270 25.030815
65.275 25.221828
65.280 25.48914
65.285 25.928219
65.290 25.680357
65.295 25.94475
65.300 25.973528
65.305 25.011095
65.310 24.314274
65.315 23.934273
65.320 24.008303
65.325 24.565948
65.330 24.77293
65.335 24.978497
65.340 25.33452
65.345 25.232943
65.350 25.175787
65.355 24.78536
65.360 24.934099
65.365 25.126083
65.370 25.394402
65.375 25.587423
65.380 25.62455
65.385 26.282461
65.390 27.058693
65.395 26.47187
65.400 25.746382
65.405 25.546288
65.410 26.026548
65.415 25.790249
65.420 24.734192
65.425 24.419655
65.430 24.817076
65.435 25.024092
65.440 25.805523
65.445 25.934605
65.450 26.724022
65.455 26.966019
65.460 26.552216
65.465 26.697447
65.470 26.779665
65.475 26.270494
65.480 26.378973
65.485 25.706938
65.490 25.643995
65.495 25.634727
65.500 25.267462
65.505 25.078266
65.510 24.53982
65.515 24.153475
65.520 24.938231
65.525 25.460304
65.530 26.17395
65.535 26.732656
65.540 26.968447
65.545 27.351896
65.550 28.086239
65.555 27.38332
65.560 27.517023
65.565 27.755194
65.570 27.630018
65.575 28.410349
65.580 29.235083
65.585 29.035027
65.590 29.03072
65.595 28.748659
65.600 28.597261
65.605 29.085054
65.610 28.899096
65.615 28.87343
65.620 28.276279
65.625 29.180511
65.630 29.456814
65.635 29.21821
65.640 29.110857
65.645 28.881264
65.650 28.092266
65.655 28.782564
65.660 29.402018
65.665 29.624092
65.670 29.720249
65.675 29.963085
65.680 30.682514
65.685 31.73204
65.690 31.646967
65.695 31.642084
65.700 31.787123
65.705 32.80431
65.710 33.63483
65.715 34.004311
65.720 33.521519
65.725 34.094246
65.730 33.782585
65.735 33.679714
65.740 33.092888
65.745 32.607693
65.750 33.030258
65.755 33.766293
65.760 34.290981
65.765 34.006046
65.770 34.28841
65.775 34.534096
65.780 34.878094
65.785 34.922489
65.790 34.693375
65.795 34.145992
65.800 35.108097
65.805 35.46146
65.810 35.009708
65.815 34.63747
65.820 35.72298
65.825 36.127598
65.830 36.106548
65.835 35.963623
65.840 36.194172
65.845 37.05949
65.850 36.913094
65.855 36.147697
65.860 35.932983
65.865 37.388962
65.870 37.694473
65.875 37.653732
65.880 37.347084
65.885 37.819302
65.890 37.469402
65.895 37.373478
65.900 35.954304
65.905 34.77932
65.910 34.858612
65.915 35.284962
65.920 35.343876
65.925 36.314491
65.930 36.615688
65.935 37.524864
65.940 38.370964
65.945 38.172806
65.950 37.976452
65.955 38.060207
65.960 38.013306
65.965 38.218342
65.970 37.63596
65.975 37.303917
65.980 37.23658
65.985 36.537697
65.990 35.995247
65.995 35.896626
66.000 36.41217
66.005 37.113235
66.010 37.296116
66.015 37.439182
66.020 37.950829
66.025 38.031326
66.030 37.76841
66.035 37.831257
66.040 37.520027
66.045 38.49094
66.050 39.321301
66.055 39.406666
66.060 38.989342
66.065 38.193298
66.070 38.361332
66.075 38.345604
66.080 37.182198
66.085 37.066025
66.090 37.175224
66.095 37.985332
66.100 38.752666
66.105 38.308529
66.110 38.826027
66.115 39.362831
66.120 39.389545
66.125 39.368389
66.130 39.725357
66.135 39.077877
66.140 39.039246
66.145 38.852135
66.150 38.438522
66.155 38.383945
66.160 38.453827
66.165 37.993114
66.170 37.791191
66.175 37.575523
66.180 37.224697
66.185 37.590153
66.190 37.094204
66.195 36.774208
66.200 36.548061
66.205 36.94244
66.210 36.553738
66.215 36.601299
66.220 35.95726
66.225 35.307522
66.230 35.35495
66.235 34.71032
66.240 34.867645
66.245 35.276917
66.250 35.083496
66.255 35.44162
66.260 35.31213
66.265 35.295235
66.270 36.175652
66.275 36.410213
66.280 36.336601
66.285 36.468338
66.290 36.513088
66.295 36.804432
66.300 36.667046
66.305 35.299778
66.310 34.218353
66.315 33.544247
66.320 33.771152
66.325 33.5242
66.330 33.286037
66.335 33.177345
66.340 33.664227
66.345 33.819706
66.350 33.597961
66.355 33.155319
66.360 33.021954
66.365 32.864731
66.370 32.599815
66.375 32.469284
66.380 32.965172
66.385 32.797398
66.390 32.436695
66.395 32.801243
66.400 33.524357
66.405 33.848377
66.410 33.527279
66.415 32.917885
66.420 33.593533
66.425 32.904705
66.430 31.637327
66.435 30.780672
66.440 30.747053
66.445 30.049864
66.450 28.96409
66.455 28.182421
66.460 28.045633
66.465 28.177753
66.470 28.204468
66.475 28.218994
66.480 29.016356
66.485 29.475531
66.490 29.212164
66.495 29.314804
66.500 28.391232
66.505 27.636383
66.510 26.643944
66.515 26.822824
66.520 26.96994
66.525 27.22901
66.530 27.58077
66.535 28.703106
66.540 29.245308
66.545 29.033953
66.550 28.192642
66.555 27.780657
66.560 27.267342
66.565 26.839293
66.570 26.974735
66.575 27.216072
66.580 27.428555
66.585 27.528206
66.590 27.377428
66.595 27.894081
66.600 27.797102
66.605 27.620502
66.610 27.801273
66.615 27.623667
66.620 27.79365
66.625 27.744274
66.630 27.819336
66.635 27.878941
66.640 27.552362
66.645 26.587721
66.650 26.324162
66.655 25.832409
66.660 25.540392
66.665 24.987492
66.670 24.866854
66.675 24.726803
66.680 24.983072
66.685 24.159021
66.690 23.870899
66.695 23.408651
66.700 22.998716
66.705 22.164621
66.710 21.625174
66.715 21.359554
66.720 21.870062
66.725 22.030504
66.730 22.519108
66.735 22.457323
66.740 23.13781
66.745 23.437513
66.750 23.683201
66.755 23.344925
66.760 22.890837
66.765 22.826952
66.770 23.355122
66.775 23.159702
66.780 22.718189
66.785 22.497789
66.790 22.297525
66.795 22.340048
66.800 22.694883
66.805 22.887665
66.810 23.468042
66.815 24.463476
66.820 24.224348
66.825 23.69632
66.830 23.642832
66.835 23.603132
66.840 23.407337
66.845 23.16291
66.850 23.04777
66.855 23.061836
66.860 23.582705
66.865 23.305494
66.870 22.791365
66.875 22.362591
66.880 21.650614
66.885 21.308611
66.890 21.478611
66.895 22.197617
66.900 22.610268
66.905 22.739101
66.910 22.695139
66.915 22.747076
66.920 22.96277
66.925 23.325565
66.930 23.579615
66.935 22.732719
66.940 22.620962
66.945 22.57807
66.950 22.775299
66.955 22.440432
66.960 21.465727
66.965 20.459299
66.970 20.25078
66.975 20.247261
66.980 20.468571
66.985 20.379869
66.990 20.669519
66.995 20.626154
67.000 21.185467
67.005 21.897898
67.010 21.49682
67.015 21.199287
67.020 20.785595
67.025 21.071095
67.030 21.517653
67.035 21.264772
67.040 21.573044
67.045 22.342134
67.050 22.976221
67.055 23.157661
67.060 23.163351
67.065 22.771793
67.070 22.323835
67.075 22.321005
67.080 22.090935
67.085 21.721485
67.090 21.257071
67.095 21.685436
67.100 21.978733
67.105 21.764748
67.110 21.373114
67.115 21.194885
67.120 21.743332
67.125 21.850708
67.130 21.083778
67.135 21.771465
67.140 22.453972
67.145 22.456642
67.150 22.4842
67.155 22.677092
67.160 22.759628
67.165 22.524462
67.170 21.174341
67.175 20.833366
67.180 20.499189
67.185 20.000032
67.190 18.829573
67.195 18.8433
67.200 19.086119
67.205 19.533167
67.210 19.485847
67.215 20.270828
67.220 20.614353
67.225 20.925274
67.230 20.746902
67.235 20.811769
67.240 20.931749
67.245 20.592659
67.250 19.942696
67.255 20.376188
67.260 20.424881
67.265 20.733776
67.270 21.047092
67.275 20.774521
67.280 20.554485
67.285 20.194176
67.290 19.480719
67.295 19.256535
67.300 19.433109
67.305 19.072123
67.310 19.21756
67.315 19.870819
67.320 20.816372
67.325 21.105684
67.330 21.428452
67.335 20.955076
67.340 20.944605
67.345 21.163866
67.350 21.040115
67.355 20.514099
67.360 20.481907
67.365 20.345209
67.370 20.043226
67.375 19.745399
67.380 19.458712
67.385 19.393333
67.390 19.195757
67.395 18.973482
67.400 18.868443
67.405 19.336906
67.410 19.919998
67.415 19.977472
67.420 20.051003
67.425 20.249557
67.430 20.608553
67.435 20.903297
67.440 20.629093
67.445 20.231085
67.450 19.98521
67.455 19.321646
67.460 19.339493
67.465 19.648518
67.470 19.775782
67.475 19.668686
67.480 19.741425
67.485 19.677513
67.490 19.499289
67.495 19.159662
67.500 18.861885
67.505 18.239538
67.510 18.870974
67.515 19.336464
67.520 19.925776
67.525 20.151308
67.530 20.278709
67.535 19.600065
67.540 19.132515
67.545 18.899868
67.550 18.202085
67.555 18.120895
67.560 17.910007
67.565 18.066534
67.570 18.221201
67.575 18.912857
67.580 19.47072
67.585 19.974802
67.590 20.458637
67.595 21.22447
67.600 21.393888
67.605 21.792412
67.610 21.424007
67.615 21.05098
67.620 20.548172
67.625 20.366035
67.630 20.736746
67.635 20.86548
67.640 20.907169
67.645 20.827646
67.650 20.557074
67.655 20.648155
67.660 19.990604
67.665 19.514874
67.670 19.101538
67.675 19.386717
67.680 19.746834
67.685 20.409563
67.690 21.262171
67.695 21.802439
67.700 21.416599
67.705 21.463692
67.710 21.537735
67.715 21.685242
67.720 21.248468
67.725 20.280722
67.730 20.135435
67.735 21.106733
67.740 20.637981
67.745 20.201082
67.750 19.8913
67.755 19.802753
67.760 19.118416
67.765 18.632084
67.770 17.980074
67.775 18.619167
67.780 18.385946
67.785 18.467112
67.790 18.655111
67.795 19.79965
67.800 20.33263
67.805 20.588074
67.810 20.565321
67.815 20.659323
67.820 20.348091
67.825 20.248816
67.830 19.86495
67.835 19.542686
67.840 19.592178
67.845 20.131014
67.850 20.809313
67.855 21.564281
67.860 21.680901
67.865 21.163363
67.870 21.251844
67.875 21.736473
67.880 21.781614
67.885 21.657223
67.890 21.708914
67.895 22.119232
67.900 22.303017
67.905 22.091175
67.910 21.43288
67.915 20.426403
67.920 19.835903
67.925 19.397589
67.930 19.35376
67.935 19.572605
67.940 20.131409
67.945 21.161772
67.950 22.045187
67.955 22.040379
67.960 21.92655
67.965 21.607513
67.970 21.682213
67.975 21.353552
67.980 20.89621
67.985 21.106596
67.990 21.457521
67.995 21.794512
68.000 22.079632
68.005 21.690731
68.010 21.418779
68.015 21.801395
68.020 21.594122
68.025 21.378677
68.030 21.275351
68.035 21.164482
68.040 21.226603
68.045 20.971363
68.050 20.151472
68.055 19.757631
68.060 19.410435
68.065 19.19733
68.070 18.778681
68.075 19.056028
68.080 19.701246
68.085 20.140543
68.090 19.921265
68.095 20.510187
68.100 20.533659
68.105 21.323847
68.110 21.818857
68.115 22.336521
68.120 22.481062
68.125 22.826
68.130 22.825304
68.135 22.846111
68.140 22.210155
68.145 21.506872
68.150 20.325493
68.155 20.354685
68.160 20.569084
68.165 19.980318
68.170 20.017115
68.175 20.176489
68.180 19.933685
68.185 20.572634
68.190 20.636698
68.195 20.536091
68.200 21.558313
68.205 21.679173
68.210 21.02075
68.215 20.868544
68.220 20.119864
68.225 19.814875
68.230 19.986931
68.235 19.408255
68.240 19.460119
68.245 19.988001
68.250 19.856865
68.255 20.502642
68.260 20.014114
68.265 20.286951
68.270 20.719227
68.275 20.524281
68.280 20.456379
68.285 20.893736
68.290 20.59803
68.295 20.585691
68.300 19.98147
68.305 19.784618
68.310 19.84938
68.315 20.088934
68.320 19.771198
68.325 19.790173
68.330 20.283411
68.335 20.403334
68.340 20.668098
68.345 20.545456
68.350 20.588924
68.355 20.87307
68.360 21.142742
68.365 20.6506
68.370 20.629826
68.375 20.495743
68.380 20.611862
68.385 21.033962
68.390 20.84907
68.395 20.456804
68.400 20.534788
68.405 20.452644
68.410 20.199409
68.415 20.582031
68.420 20.598265
68.425 20.802364
68.430 21.26086
68.435 21.285393
68.440 21.639734
68.445 22.085876
68.450 22.063997
68.455 22.107801
68.460 22.075058
68.465 21.599291
68.470 21.119844
68.475 20.939734
68.480 20.477606
68.485 20.125381
68.490 19.558958
68.495 19.127293
68.500 19.470142
68.505 20.028841
68.510 20.269272
68.515 20.760109
68.520 21.218405
68.525 21.189796
68.530 21.081253
68.535 21.004971
68.540 20.767536
68.545 20.636448
68.550 20.703125
68.555 20.832947
68.560 21.207239
68.565 21.532738
68.570 21.929054
68.575 22.380173
68.580 22.50252
68.585 22.269093
68.590 21.645191
68.595 21.374443
68.600 21.255148
68.605 21.324156
68.610 20.854296
68.615 20.169579
68.620 20.31744
68.625 20.658175
68.630 21.158285
68.635 21.160654
68.640 21.437517
68.645 21.470371
68.650 22.087374
68.655 22.557613
68.660 23.338903
68.665 23.514751
68.670 23.122744
68.675 22.868629
68.680 23.4016
68.685 22.920626
68.690 22.678492
68.695 22.318272
68.700 22.205908
68.705 22.467186
68.710 22.268457
68.715 21.969769
68.720 22.02717
68.725 21.908705
68.730 21.792633
68.735 21.187122
68.740 20.649961
68.745 20.69264
68.750 20.123476
68.755 20.03121
68.760 19.219172
68.765 19.922047
68.770 20.911209
68.775 21.799591
68.780 22.302765
68.785 22.548773
68.790 22.490936
68.795 22.48563
68.800 21.647318
68.805 21.309965
68.810 20.945019
68.815 20.509035
68.820 21.010481
68.825 21.28583
68.830 21.892414
68.835 22.556942
68.840 22.716541
68.845 22.74629
68.850 22.947514
68.855 22.419928
68.860 22.842129
68.865 22.785748
68.870 22.790356
68.875 22.866964
68.880 22.494686
68.885 22.609638
68.890 22.837885
68.895 22.140137
68.900 22.190851
68.905 22.062283
68.910 22.243563
68.915 22.229887
68.920 22.042295
68.925 22.084122
68.930 21.724318
68.935 20.97344
68.940 20.514057
68.945 20.609774
68.950 20.692846
68.955 20.582386
68.960 20.120214
68.965 20.283335
68.970 20.302471
68.975 20.17469
68.980 20.254608
68.985 20.34812
68.990 20.071899
68.995 20.324078
69.000 20.68635
69.005 21.378267
69.010 21.532253
69.015 21.600586
69.020 21.854475
69.025 22.493395
69.030 22.974514
69.035 23.554535
69.040 23.574116
69.045 23.742092
69.050 23.919582
69.055 24.04129
69.060 24.2181
69.065 24.023932
69.070 23.185343
69.075 23.724165
69.080 23.864731
69.085 23.826008
69.090 23.591852
69.095 23.463289
69.100 24.426548
69.105 25.255318
69.110 24.845398
69.115 24.347723
69.120 24.27516
69.125 24.289602
69.130 24.289433
69.135 23.840086
69.140 24.192907
69.145 24.023453
69.150 24.185305
69.155 24.623463
69.160 24.998362
69.165 24.986641
69.170 24.892649
69.175 24.929104
69.180 25.179775
69.185 25.470774
69.190 25.434282
69.195 26.241064
69.200 26.147146
69.205 26.205376
69.210 26.60153
69.215 26.973738
69.220 27.300713
69.225 26.869085
69.230 25.989601
69.235 26.211845
69.240 26.531454
69.245 26.949305
69.250 27.154409
69.255 27.227018
69.260 28.184958
69.265 28.574306
69.270 28.858862
69.275 28.54483
69.280 28.394014
69.285 28.482277
69.290 28.578087
69.295 27.802647
69.300 27.515285
69.305 28.00901
69.310 27.824539
69.315 27.036829
69.320 26.61779
69.325 26.239534
69.330 26.31329
69.335 26.259958
69.340 25.658012
69.345 25.962721
69.350 27.033201
69.355 27.250309
69.360 27.924177
69.365 28.54982
69.370 28.692432
69.375 28.996958
69.380 28.665499
69.385 28.535698
69.390 28.684759
69.395 28.418831
69.400 29.108919
69.405 29.394291
69.410 29.472086
69.415 30.239452
69.420 30.461191
69.425 30.700712
69.430 30.454746
69.435 29.976486
69.440 30.241861
69.445 30.650665
69.450 30.156239
69.455 30.229229
69.460 29.817974
69.465 29.735643
69.470 29.224119
69.475 29.05204
69.480 29.1364
69.485 30.375664
69.490 30.304523
69.495 30.015072
69.500 30.193605
69.505 30.682899
69.510 31.214254
69.515 31.058992
69.520 30.606037
69.525 30.723148
69.530 31.308231
69.535 31.5427
69.540 31.840982
69.545 31.944418
69.550 31.779219
69.555 31.947908
69.560 33.094852
69.565 33.629314
69.570 33.908489
69.575 33.376991
69.580 32.395634
69.585 32.033012
69.590 31.739637
69.595 30.889997
69.600 30.548044
69.605 29.746399
69.610 29.539093
69.615 29.958134
69.620 29.106443
69.625 29.224747
69.630 29.184601
69.635 29.322672
69.640 29.953436
69.645 30.604198
69.650 30.822708
69.655 31.08914
69.660 30.805496
69.665 30.238134
69.670 29.870312
69.675 30.312607
69.680 30.00313
69.685 29.858004
69.690 28.988459
69.695 28.241907
69.700 28.910891
69.705 28.872437
69.710 27.803286
69.715 27.945522
69.720 28.816864
69.725 29.286976
69.730 29.38455
69.735 28.827314
69.740 28.870565
69.745 29.692244
69.750 29.199854
69.755 28.468941
69.760 28.974051
69.765 29.090105
69.770 29.483902
69.775 29.582897
69.780 29.1017
69.785 29.010111
69.790 28.745754
69.795 28.862734
69.800 28.685085
69.805 28.28442
69.810 27.129662
69.815 27.018312
69.820 26.947769
69.825 26.949453
69.830 26.493536
69.835 25.956057
69.840 25.946363
69.845 26.11754
69.850 26.31889
69.855 26.620989
69.860 26.508978
69.865 26.7139
69.870 27.375021
69.875 27.780642
69.880 27.809755
69.885 27.212049
69.890 27.264565
69.895 27.502142
69.900 26.546484
69.905 26.275398
69.910 26.055592
69.915 26.087442
69.920 26.25482
69.925 26.125092
69.930 26.824572
69.935 27.724108
69.940 27.596546
69.945 26.903725
69.950 26.279694
69.955 25.561003
69.960 24.986753
69.965 24.638065
69.970 23.945782
69.975 23.105
69.980 22.999069
69.985 23.670677
69.990 23.420372
69.995 23.067753
70.000 22.330591
70.005 22.257704
70.010 22.388769
70.015 21.782768
70.020 21.283796
70.025 21.765017
70.030 21.251198
70.035 20.87365
70.040 21.106607
70.045 21.610308
70.050 22.098787
70.055 22.178267
70.060 22.259281
70.065 22.441416
70.070 22.274424
70.075 21.927938
70.080 20.890835
70.085 20.500349
70.090 20.60281
70.095 19.979469
70.100 19.367104
70.105 19.450417
70.110 19.806711
70.115 20.794331
70.120 20.79443
70.125 21.07769
70.130 21.864004
70.135 22.670286
70.140 22.235559
70.145 21.796255
70.150 21.419071
70.155 21.659365
70.160 21.074829
70.165 20.792013
70.170 20.709801
70.175 21.449528
70.180 21.804165
70.185 21.526716
70.190 21.775654
70.195 22.364567
70.200 22.417013
70.205 22.123915
70.210 21.041729
70.215 21.355928
70.220 20.643879
70.225 19.281075
70.230 18.039549
70.235 17.772047
70.240 18.076611
70.245 18.220884
70.250 18.452198
70.255 19.134888
70.260 19.910892
70.265 20.477495
70.270 20.197006
70.275 19.80673
70.280 19.984489
70.285 19.546125
70.290 19.090378
70.295 19.489977
70.300 19.710543
70.305 19.593327
70.310 19.503925
70.315 19.28557
70.320 19.396046
70.325 19.843256
70.330 19.423126
70.335 19.126146
70.340 19.200792
70.345 19.279852
70.350 19.352249
70.355 19.517588
70.360 19.338375
70.365 19.369177
70.370 20.098135
70.375 20.494186
70.380 19.942934
70.385 20.006907
70.390 19.780008
70.395 20.103163
70.400 20.022301
70.405 19.540777
70.410 19.767582
70.415 20.252699
70.420 20.439264
70.425 20.946636
70.430 21.214127
70.435 21.779032
70.440 21.895697
70.445 21.534111
70.450 21.56613
70.455 21.670456
70.460 21.629866
70.465 21.735516
70.470 21.409241
70.475 21.027525
70.480 20.964508
70.485 21.2376
70.490 20.623762
70.495 19.438023
70.500 19.138973
70.505 19.131342
70.510 19.192198
70.515 19.291857
70.520 18.74305
70.525 19.316664
70.530 20.083197
70.535 20.214685
70.540 20.490416
70.545 21.084953
70.550 21.346439
70.555 21.438171
70.560 20.98671
70.565 20.634172
70.570 20.312555
70.575 19.906437
70.580 19.807898
70.585 19.784922
70.590 19.735308
70.595 20.149572
70.600 20.101204
70.605 19.78248
70.610 20.046566
70.615 20.439178
70.620 20.434307
70.625 19.954945
70.630 19.122198
70.635 18.933708
70.640 19.509275
70.645 19.127882
70.650 18.354239
70.655 18.116688
70.660 17.854174
70.665 18.113844
70.670 17.889589
70.675 17.285034
70.680 16.726606
70.685 17.198597
70.690 17.996256
70.695 18.560158
70.700 18.555548
70.705 18.799562
70.710 19.104374
70.715 19.478081
70.720 19.729107
70.725 19.346241
70.730 19.454411
70.735 19.772541
70.740 19.451412
70.745 18.749662
70.750 18.630152
70.755 18.718515
70.760 18.832659
70.765 18.851467
70.770 19.332003
70.775 19.799343
70.780 20.748331
70.785 20.543629
70.790 19.978073
70.795 19.844172
70.800 19.437231
70.805 19.107815
70.810 19.436817
70.815 19.20541
70.820 19.363234
70.825 19.761524
70.830 19.887466
70.835 19.898012
70.840 20.004452
70.845 19.974052
70.850 20.126585
70.855 19.546396
70.860 19.245522
70.865 18.922504
70.870 18.601963
70.875 18.614906
70.880 17.972664
70.885 18.060287
70.890 18.41997
70.895 18.677015
70.900 18.827219
70.905 19.568218
70.910 19.372572
70.915 19.618057
70.920 19.547817
70.925 19.608311
70.930 19.76663
70.935 19.683155
70.940 19.403269
70.945 19.31872
70.950 19.695036
70.955 19.967463
70.960 20.090878
70.965 19.816397
70.970 19.649374
70.975 19.39381
70.980 20.214174
70.985 19.657726
70.990 19.118021
70.995 18.578079
71.000 18.64826
71.005 19.433006
71.010 18.945955
71.015 18.152235
71.020 18.333742
71.025 18.654612
71.030 18.58564
71.035 18.945236
71.040 19.120441
71.045 19.302004
71.050 19.384758
71.055 19.107889
71.060 19.196888
71.065 19.421812
71.070 18.642279
71.075 18.241697
71.080 17.921005
71.085 18.304468
71.090 18.87915
71.095 18.957762
71.100 19.504776
71.105 19.203081
71.110 19.15024
71.115 19.054436
71.120 19.08383
71.125 18.829329
71.130 18.698221
71.135 18.807144
71.140 19.182146
71.145 19.838062
71.150 20.270353
71.155 20.637835
71.160 20.007727
71.165 19.874054
71.170 19.866106
71.175 19.710112
71.180 19.306402
71.185 18.627256
71.190 18.30962
71.195 18.109602
71.200 18.355659
71.205 18.340628
71.210 18.79442
71.215 18.751862
71.220 18.697529
71.225 18.574509
71.230 19.007433
71.235 19.178757
71.240 19.721863
71.245 19.337458
71.250 20.01277
71.255 20.554953
71.260 20.528681
71.265 20.568537
71.270 20.099915
71.275 19.882296
71.280 20.464617
71.285 20.413052
71.290 20.207144
71.295 20.017031
71.300 19.368795
71.305 18.988543
71.310 18.492289
71.315 17.674238
71.320 17.143814
71.325 17.036015
71.330 16.790243
71.335 16.747295
71.340 16.985138
71.345 16.754349
71.350 16.790079
71.355 16.909042
71.360 17.688339
71.365 17.713747
71.370 17.729382
71.375 17.730103
71.380 17.611298
71.385 17.666634
71.390 17.492134
71.395 17.559418
71.400 18.431305
71.405 19.00622
71.410 19.535189
71.415 19.763937
71.420 19.559059
71.425 19.575659
71.430 19.650211
71.435 19.263758
71.440 18.829466
71.445 18.809069
71.450 19.471546
71.455 19.99921
71.460 19.265898
71.465 19.068602
71.470 19.341188
71.475 19.388481
71.480 18.989559
71.485 18.416481
71.490 18.112522
71.495 18.092632
71.500 18.15324
71.505 17.815302
71.510 17.136751
71.515 17.084604
71.520 17.43709
71.525 18.030886
71.530 18.140907
71.535 17.869719
71.540 18.192009
71.545 18.431429
71.550 18.532589
71.555 18.273075
71.560 18.000856
71.565 17.780407
71.570 18.312958
71.575 18.424114
71.580 18.751669
71.585 18.86092
71.590 19.06514
71.595 19.272675
71.600 19.111191
71.605 18.85236
71.610 18.959267
71.615 18.874012
71.620 18.966154
71.625 18.864458
71.630 19.459057
71.635 19.871513
71.640 19.936234
71.645 20.032248
71.650 20.475773
71.655 20.566257
71.660 20.674335
71.665 20.282112
71.670 20.181919
71.675 20.310022
71.680 19.808329
71.685 19.359776
71.690 19.467064
71.695 19.107035
71.700 19.001904
71.705 18.41897
71.710 18.554684
71.715 18.795671
71.720 18.818903
71.725 18.493099
71.730 18.491924
71.735 18.187889
71.740 18.75441
71.745 19.016832
71.750 19.293814
71.755 19.326691
71.760 19.502785
71.765 19.27113
71.770 19.001255
71.775 18.189587
71.780 17.629747
71.785 17.457909
71.790 17.519197
71.795 17.29689
71.800 17.719788
71.805 18.134417
71.810 18.734951
71.815 19.019545
71.820 18.460337
71.825 18.450197
71.830 18.484287
71.835 18.23193
71.840 17.698753
71.845 17.299046
71.850 17.349577
71.855 17.796871
71.860 17.718994
71.865 17.799694
71.870 18.235828
71.875 18.690355
71.880 18.298615
71.885 18.112648
71.890 17.976383
71.895 18.147425
71.900 18.435526
71.905 18.997725
71.910 19.188023
71.915 19.538149
71.920 19.411652
71.925 19.481081
71.930 19.024565
71.935 18.505184
71.940 18.095554
71.945 18.129307
71.950 18.056589
71.955 18.11104
71.960 17.914732
71.965 18.463997
71.970 18.923178
71.975 19.061945
71.980 19.121443
71.985 19.178007
71.990 19.613157
71.995 19.451315
72.000 19.421347
72.005 18.793972
72.010 18.216661
72.015 18.187279
72.020 18.679081
72.025 18.222155
72.030 18.000664
72.035 17.722773
72.040 18.143864
72.045 18.446159
72.050 18.802807
72.055 18.683281
72.060 18.690443
72.065 19.026087
72.070 19.222267
72.075 19.202728
72.080 18.820038
72.085 18.171358
72.090 18.095699
72.095 17.892225
72.100 17.935215
72.105 17.767864
72.110 17.959497
72.115 17.586584
72.120 17.916426
72.125 17.724003
72.130 17.707331
72.135 17.507751
72.140 17.178288
72.145 17.025114
72.150 16.642729
72.155 16.011013
72.160 15.800613
72.165 16.53974
72.170 17.016426
72.175 17.279406
72.180 16.822664
72.185 17.023346
72.190 16.816475
72.195 16.805969
72.200 16.102749
72.205 15.996449
72.210 16.519585
72.215 17.332386
72.220 17.474211
72.225 18.0935
72.230 18.498005
72.235 18.855705
72.240 18.820004
72.245 18.506023
72.250 18.622911
72.255 18.573341
72.260 17.971334
72.265 18.180807
72.270 18.153563
72.275 18.233376
72.280 18.482927
72.285 18.263496
72.290 18.795118
72.295 18.85812
72.300 18.791286
72.305 19.039572
72.310 19.095943
72.315 19.24542
72.320 19.80863
72.325 19.39049
72.330 18.888273
72.335 18.776836
72.340 18.279888
72.345 18.228516
72.350 17.950716
72.355 17.650494
72.360 17.620625
72.365 18.333849
72.370 17.970478
72.375 18.784618
72.380 19.162672
72.385 19.660727
72.390 19.888206
72.395 20.565184
72.400 20.220785
72.405 19.468447
72.410 18.627295
72.415 18.121613
72.420 17.540615
72.425 17.268749
72.430 17.161335
72.435 17.667292
72.440 18.149706
72.445 18.469791
72.450 18.909664
72.455 18.506344
72.460 18.023745
72.465 17.827675
72.470 18.214365
72.475 18.648979
72.480 18.380795
72.485 18.829115
72.490 19.233486
72.495 19.659918
72.500 19.868765
72.505 19.567772
72.510 18.98033
72.515 18.834755
72.520 18.529863
72.525 19.124903
72.530 19.098864
72.535 18.581322
72.540 18.244738
72.545 18.092821
72.550 17.842035
72.555 17.11412
72.560 16.598946
72.565 16.435942
72.570 16.646544
72.575 16.784618
72.580 16.945097
72.585 17.611437
72.590 17.967474
72.595 18.468952
72.600 18.274639
72.605 18.306154
72.610 18.511492
72.615 18.748182
72.620 18.955723
72.625 18.889986
72.630 18.613144
72.635 18.048134
72.640 17.961124
72.645 18.029774
72.650 17.638948
72.655 17.767338
72.660 17.060669
72.665 17.301043
72.670 18.362698
72.675 18.542889
72.680 18.683481
72.685 18.504787
72.690 19.060843
72.695 19.453796
72.700 19.168375
72.705 18.513359
72.710 17.913872
72.715 18.15572
72.720 18.141218
72.725 17.79764
72.730 17.856518
72.735 18.007353
72.740 18.21315
72.745 18.287659
72.750 17.787966
72.755 17.3825
72.760 17.102228
72.765 17.01405
72.770 16.475019
72.775 16.505415
72.780 16.324116
72.785 16.556664
72.790 16.080385
72.795 16.412342
72.800 16.862446
72.805 16.801147
72.810 17.197399
72.815 17.619267
72.820 17.322926
72.825 17.625265
72.830 17.103628
72.835 17.292038
72.840 16.834822
72.845 16.200211
72.850 15.888365
72.855 16.137012
72.860 16.453602
72.865 16.563181
72.870 17.40316
72.875 17.666323
72.880 17.361544
72.885 17.270033
72.890 17.10046
72.895 16.450029
72.900 15.635772
72.905 15.416789
72.910 15.669589
72.915 16.011105
72.920 15.767575
72.925 15.662081
72.930 16.225492
72.935 16.501833
72.940 16.654547
72.945 17.01145
72.950 17.25209
72.955 17.467833
72.960 17.706047
72.965 17.142506
72.970 17.198696
72.975 17.081934
72.980 17.020557
72.985 17.021099
72.990 17.345762
72.995 17.396297
73.000 17.827869
