!@!!GADDS PLOTSO FILE: Chi integration type
!@!!Title/SampleName: map-51
!@!!Comment: ?
!@!!User: Bruker Instrument Administrator
!@!!Site: University of Illinois Chicago
!@!!Frame: map-51_01_000.gfrm
!@!!Wavelengths    1.54184   1.54056   1.54439
!@!!Frame angles: 2Theta: 63.000 Omega: 50.000 Phi: 0.000 Chi: 90.000
!@!!Integration range: 2Theta: 53.000 to 73.000  Gamma: -105.000 to -75.000
!@!!Integration method: bin normalized
!@!N
!@!SS
!@!M
!@!L 0.0 0.0 0.0 0.0
!@!XDegrees
!@!YCounts
53.000 9.359651
53.005 9.009494
53.010 9.12706
53.015 9.478094
53.020 9.508617
53.025 9.140254
53.030 9.193424
53.035 9.48626
53.040 9.146571
53.045 8.8982
53.050 8.218738
53.055 8.08782
53.060 8.313251
53.065 8.896343
53.070 8.814698
53.075 8.984892
53.080 8.653312
53.085 8.535542
53.090 8.698867
53.095 8.893564
53.100 8.706586
53.105 8.871491
53.110 9.260505
53.115 9.669907
53.120 9.81434
53.125 9.637359
53.130 9.502038
53.135 9.886491
53.140 9.719172
53.145 9.646671
53.150 9.4632
53.155 9.438283
53.160 9.548942
53.165 9.555632
53.170 9.112411
53.175 9.227863
53.180 9.27294
53.185 9.371348
53.190 9.447052
53.195 9.015511
53.200 8.885367
53.205 9.302116
53.210 9.429207
53.215 9.34692
53.220 9.683621
53.225 9.781219
53.230 10.19498
53.235 10.256861
53.240 10.223483
53.245 9.910798
53.250 10.00097
53.255 9.861878
53.260 9.61939
53.265 9.241875
53.270 9.629866
53.275 9.337194
53.280 9.215611
53.285 9.795719
53.290 9.673091
53.295 9.778461
53.300 9.833924
53.305 9.346439
53.310 9.429066
53.315 9.34217
53.320 8.926856
53.325 9.319136
53.330 9.053997
53.335 8.784865
53.340 8.615094
53.345 8.590755
53.350 8.472424
53.355 7.843385
53.360 8.032698
53.365 8.79551
53.370 8.936219
53.375 9.536626
53.380 9.940767
53.385 10.172665
53.390 10.677307
53.395 10.217993
53.400 10.01973
53.405 10.481582
53.410 10.385504
53.415 10.429805
53.420 10.111147
53.425 10.427992
53.430 10.625051
53.435 10.477023
53.440 10.234714
53.445 9.712297
53.450 9.607219
53.455 9.898464
53.460 9.351482
53.465 9.881569
53.470 9.981204
53.475 10.10106
53.480 10.233445
53.485 10.048002
53.490 9.952971
53.495 9.754492
53.500 10.063503
53.505 10.221185
53.510 10.551431
53.515 11.19615
53.520 10.986547
53.525 10.824245
53.530 10.881389
53.535 10.402674
53.540 10.560493
53.545 10.055306
53.550 9.319765
53.555 9.429564
53.560 9.462467
53.565 9.441787
53.570 9.483993
53.575 9.607827
53.580 10.533162
53.585 11.101543
53.590 11.458188
53.595 11.882771
53.600 11.725357
53.605 11.632856
53.610 10.967144
53.615 10.340487
53.620 10.264762
53.625 10.101383
53.630 10.199579
53.635 10.354147
53.640 10.863012
53.645 10.945895
53.650 10.767051
53.655 10.604478
53.660 10.616806
53.665 10.161655
53.670 9.702806
53.675 9.705976
53.680 10.093987
53.685 10.306904
53.690 10.320807
53.695 10.485354
53.700 10.991088
53.705 10.987918
53.710 10.524129
53.715 10.309634
53.720 10.195899
53.725 10.136559
53.730 9.976265
53.735 9.780572
53.740 9.753667
53.745 10.230989
53.750 10.200158
53.755 10.270073
53.760 10.465988
53.765 10.87337
53.770 11.276174
53.775 10.956238
53.780 10.475551
53.785 10.448618
53.790 10.526049
53.795 10.741591
53.800 10.063143
53.805 9.763901
53.810 10.133686
53.815 10.467907
53.820 10.724765
53.825 10.934027
53.830 10.927911
53.835 11.015146
53.840 10.860932
53.845 10.961019
53.850 10.959434
53.855 10.62298
53.860 10.08617
53.865 9.889168
53.870 9.894178
53.875 9.656678
53.880 9.524016
53.885 9.539956
53.890 9.688929
53.895 9.62675
53.900 9.490602
53.905 9.822021
53.910 9.902652
53.915 9.661422
53.920 9.737657
53.925 9.400713
53.930 9.284292
53.935 9.302549
53.940 9.075011
53.945 9.408195
53.950 9.6014
53.955 9.902756
53.960 10.596288
53.965 11.221115
53.970 11.535963
53.975 11.52407
53.980 11.355509
53.985 11.489612
53.990 11.942476
53.995 12.211093
54.000 11.803303
54.005 11.646168
54.010 11.944544
54.015 11.935783
54.020 11.188172
54.025 10.460078
54.030 10.135015
54.035 10.062037
54.040 10.513475
54.045 10.175722
54.050 9.993419
54.055 10.359639
54.060 10.310961
54.065 10.398907
54.070 10.607212
54.075 10.171632
54.080 10.632853
54.085 11.013673
54.090 10.672665
54.095 10.782535
54.100 10.329457
54.105 10.296496
54.110 10.670807
54.115 10.246294
54.120 9.665424
54.125 9.753227
54.130 10.103446
54.135 10.309236
54.140 9.999862
54.145 9.671835
54.150 9.917048
54.155 10.104492
54.160 9.868811
54.165 9.432884
54.170 9.75392
54.175 10.280875
54.180 10.653531
54.185 11.331063
54.190 11.795697
54.195 12.030643
54.200 12.418968
54.205 11.990599
54.210 11.665208
54.215 11.351638
54.220 11.101686
54.225 11.050259
54.230 10.751928
54.235 11.241737
54.240 11.280908
54.245 11.165657
54.250 11.092819
54.255 11.031646
54.260 10.891124
54.265 10.884503
54.270 10.919609
54.275 10.963275
54.280 11.219353
54.285 11.251732
54.290 11.324924
54.295 11.424294
54.300 11.592594
54.305 11.351686
54.310 11.07042
54.315 10.739594
54.320 10.452333
54.325 10.384562
54.330 10.3768
54.335 9.565054
54.340 9.103019
54.345 9.660595
54.350 10.154821
54.355 10.163996
54.360 10.021217
54.365 10.31257
54.370 11.172855
54.375 11.483652
54.380 10.672228
54.385 10.72626
54.390 11.22292
54.395 11.502594
54.400 11.340045
54.405 11.38927
54.410 11.351089
54.415 11.446665
54.420 10.861579
54.425 10.347184
54.430 10.401676
54.435 10.39187
54.440 9.6958
54.445 9.965745
54.450 9.747076
54.455 9.909549
54.460 9.916829
54.465 9.740938
54.470 9.685973
54.475 9.636907
54.480 9.81417
54.485 10.575723
54.490 11.115301
54.495 11.199992
54.500 11.175905
54.505 11.240735
54.510 11.378206
54.515 11.253779
54.520 10.772721
54.525 10.492249
54.530 10.326834
54.535 10.719901
54.540 10.897569
54.545 11.089776
54.550 11.192986
54.555 11.30627
54.560 11.22492
54.565 11.196165
54.570 10.713967
54.575 10.330843
54.580 10.362398
54.585 10.52356
54.590 10.474945
54.595 10.101615
54.600 9.696115
54.605 10.17054
54.610 10.443786
54.615 10.676261
54.620 10.396301
54.625 10.795567
54.630 11.380861
54.635 12.254192
54.640 12.254668
54.645 12.318248
54.650 11.886795
54.655 12.194681
54.660 12.217876
54.665 12.170138
54.670 11.942268
54.675 12.400493
54.680 12.084674
54.685 12.072988
54.690 12.00786
54.695 12.299834
54.700 12.430828
54.705 11.940383
54.710 10.935576
54.715 11.229399
54.720 11.569341
54.725 11.344389
54.730 11.334046
54.735 11.212311
54.740 11.263387
54.745 11.375008
54.750 11.377953
54.755 11.225117
54.760 11.128861
54.765 10.715904
54.770 10.850002
54.775 11.321115
54.780 11.876106
54.785 11.318018
54.790 11.21654
54.795 11.216651
54.800 10.950455
54.805 11.07532
54.810 11.551434
54.815 12.021906
54.820 12.179322
54.825 12.608812
54.830 12.473458
54.835 13.026058
54.840 12.885639
54.845 12.643956
54.850 13.205493
54.855 12.783344
54.860 12.379764
54.865 12.312844
54.870 11.868413
54.875 11.515243
54.880 10.8702
54.885 10.358065
54.890 10.248475
54.895 10.52241
54.900 10.500979
54.905 10.560766
54.910 10.560594
54.915 10.594769
54.920 10.475335
54.925 10.71349
54.930 10.418206
54.935 10.162871
54.940 10.233883
54.945 10.776143
54.950 11.194171
54.955 11.38415
54.960 10.962078
54.965 10.905146
54.970 10.824336
54.975 10.982323
54.980 10.572413
54.985 10.464444
54.990 10.797588
54.995 11.406565
55.000 12.208166
55.005 12.75732
55.010 12.622135
55.015 12.771607
55.020 12.753716
55.025 12.916847
55.030 12.630628
55.035 11.917109
55.040 11.846026
55.045 12.043895
55.050 11.724685
55.055 11.615723
55.060 11.678132
55.065 11.523067
55.070 11.795877
55.075 11.284344
55.080 11.047545
55.085 10.935513
55.090 10.743752
55.095 10.628389
55.100 10.766511
55.105 11.215252
55.110 11.84761
55.115 12.067401
55.120 12.237562
55.125 12.139802
55.130 12.19085
55.135 12.38675
55.140 12.371044
55.145 12.184936
55.150 11.851069
55.155 11.842911
55.160 11.99855
55.165 11.93763
55.170 11.513022
55.175 11.222339
55.180 11.097069
55.185 11.708256
55.190 11.714064
55.195 11.64353
55.200 12.122585
55.205 12.423647
55.210 12.317991
55.215 12.766728
55.220 12.403662
55.225 12.362993
55.230 12.008246
55.235 11.467645
55.240 11.445936
55.245 11.709853
55.250 11.524254
55.255 11.36511
55.260 11.233219
55.265 11.381833
55.270 11.399961
55.275 11.024169
55.280 10.918137
55.285 10.663381
55.290 11.068093
55.295 11.278878
55.300 11.243969
55.305 11.596748
55.310 11.678908
55.315 11.356634
55.320 11.569903
55.325 11.577686
55.330 12.109515
55.335 12.248469
55.340 12.267894
55.345 12.273413
55.350 12.471907
55.355 12.422153
55.360 12.724728
55.365 12.206869
55.370 12.018218
55.375 11.554095
55.380 11.615249
55.385 11.705231
55.390 11.190969
55.395 10.712934
55.400 10.784171
55.405 10.690104
55.410 10.505157
55.415 10.365648
55.420 10.412585
55.425 11.139729
55.430 11.100801
55.435 11.284682
55.440 11.488455
55.445 11.603907
55.450 11.849285
55.455 12.089586
55.460 12.046844
55.465 12.086196
55.470 12.073084
55.475 11.780525
55.480 11.88121
55.485 12.129941
55.490 12.241142
55.495 12.181034
55.500 12.496956
55.505 12.733988
55.510 13.218121
55.515 13.361335
55.520 12.619982
55.525 12.085492
55.530 11.944983
55.535 11.709847
55.540 11.395654
55.545 10.961427
55.550 10.646552
55.555 10.713712
55.560 11.079563
55.565 11.580007
55.570 11.642049
55.575 12.055727
55.580 12.214541
55.585 12.467793
55.590 12.842415
55.595 12.698818
55.600 12.10476
55.605 12.107141
55.610 12.215279
55.615 12.708364
55.620 12.847628
55.625 12.842417
55.630 13.222219
55.635 13.352998
55.640 13.375871
55.645 13.385021
55.650 13.324344
55.655 13.396504
55.660 13.223353
55.665 12.213511
55.670 12.194485
55.675 12.526676
55.680 12.32044
55.685 12.741603
55.690 13.077754
55.695 13.121248
55.700 14.0733
55.705 14.30796
55.710 13.811925
55.715 13.418713
55.720 12.725718
55.725 12.779195
55.730 12.609006
55.735 11.695886
55.740 11.26124
55.745 11.011791
55.750 10.770244
55.755 10.625184
55.760 10.566848
55.765 10.676903
55.770 10.969949
55.775 11.516028
55.780 11.992227
55.785 12.212595
55.790 11.955254
55.795 11.920287
55.800 12.218273
55.805 12.938723
55.810 12.841296
55.815 13.07937
55.820 13.540599
55.825 13.450159
55.830 13.501854
55.835 13.515804
55.840 13.434291
55.845 13.765216
55.850 14.115604
55.855 14.326781
55.860 14.255843
55.865 14.357301
55.870 14.053012
55.875 14.267368
55.880 13.737493
55.885 13.084802
55.890 13.13107
55.895 13.219123
55.900 13.068545
55.905 13.052304
55.910 12.856913
55.915 13.687421
55.920 13.686396
55.925 13.136264
55.930 13.285192
55.935 13.141126
55.940 13.649045
55.945 13.724075
55.950 14.07452
55.955 14.257056
55.960 13.935281
55.965 13.564835
55.970 13.498686
55.975 12.445613
55.980 11.994138
55.985 10.722242
55.990 11.422871
55.995 12.585193
56.000 12.991376
56.005 13.178201
56.010 14.120984
56.015 14.49518
56.020 14.957759
56.025 14.361352
56.030 13.951671
56.035 13.633564
56.040 13.54571
56.045 13.144567
56.050 13.060454
56.055 13.632786
56.060 14.005681
56.065 14.055857
56.070 14.289704
56.075 14.424752
56.080 14.845985
56.085 15.008291
56.090 14.674108
56.095 14.790883
56.100 14.845871
56.105 14.926454
56.110 14.724957
56.115 14.409883
56.120 14.055895
56.125 13.259649
56.130 12.789372
56.135 12.731245
56.140 12.676855
56.145 12.65966
56.150 12.481264
56.155 12.409581
56.160 12.779287
56.165 13.288654
56.170 13.518747
56.175 13.379518
56.180 13.192545
56.185 13.052282
56.190 12.817926
56.195 12.293293
56.200 11.64391
56.205 11.853621
56.210 11.795498
56.215 11.659113
56.220 12.256749
56.225 12.798988
56.230 13.325624
56.235 14.090364
56.240 13.98088
56.245 14.347753
56.250 14.301832
56.255 13.951558
56.260 14.144834
56.265 13.966829
56.270 13.379556
56.275 13.60406
56.280 13.579159
56.285 13.466003
56.290 13.657966
56.295 13.373919
56.300 12.8859
56.305 12.731273
56.310 12.265097
56.315 12.20135
56.320 12.613583
56.325 12.435567
56.330 12.746713
56.335 12.772345
56.340 12.791728
56.345 13.433955
56.350 13.809669
56.355 13.792116
56.360 13.578016
56.365 13.585375
56.370 13.754155
56.375 13.902638
56.380 13.723287
56.385 13.36779
56.390 13.198348
56.395 12.998101
56.400 12.666688
56.405 12.69598
56.410 12.642564
56.415 12.187365
56.420 12.487965
56.425 12.888434
56.430 12.699618
56.435 12.817194
56.440 12.689598
56.445 12.183869
56.450 12.088468
56.455 11.551043
56.460 11.74619
56.465 11.876677
56.470 12.291184
56.475 12.765637
56.480 13.284526
56.485 14.06199
56.490 15.456679
56.495 16.006298
56.500 16.08474
56.505 15.465942
56.510 15.018387
56.515 15.129774
56.520 14.488799
56.525 13.092785
56.530 12.356709
56.535 12.902132
56.540 13.382571
56.545 13.610382
56.550 13.903527
56.555 13.737228
56.560 13.940966
56.565 13.957029
56.570 13.122512
56.575 12.708343
56.580 12.505292
56.585 11.731112
56.590 11.604383
56.595 11.997246
56.600 12.232108
56.605 12.45599
56.610 12.665862
56.615 12.805748
56.620 12.830963
56.625 13.104002
56.630 12.79947
56.635 12.856901
56.640 13.017653
56.645 12.708103
56.650 13.001705
56.655 13.618346
56.660 14.245603
56.665 14.716995
56.670 14.689196
56.675 14.826331
56.680 14.759538
56.685 14.946027
56.690 14.899422
56.695 14.028803
56.700 13.846814
56.705 13.890263
56.710 14.630159
56.715 14.934481
56.720 14.792089
56.725 15.155102
56.730 15.644313
56.735 16.147243
56.740 16.570482
56.745 16.257488
56.750 15.714343
56.755 15.558402
56.760 15.103604
56.765 14.730973
56.770 13.96227
56.775 13.447927
56.780 13.782273
56.785 13.99787
56.790 14.174438
56.795 13.958994
56.800 14.582362
56.805 15.050795
56.810 15.440835
56.815 15.590712
56.820 15.384057
56.825 15.320218
56.830 15.203278
56.835 14.464111
56.840 14.50523
56.845 13.568578
56.850 13.04138
56.855 12.628057
56.860 12.669024
56.865 13.322083
56.870 13.409506
56.875 12.769084
56.880 12.637194
56.885 12.840182
56.890 13.012925
56.895 12.708097
56.900 12.132891
56.905 12.309946
56.910 12.642782
56.915 13.110355
56.920 12.982345
56.925 12.833924
56.930 12.818725
56.935 13.008919
56.940 12.506398
56.945 12.598511
56.950 12.356235
56.955 12.708776
56.960 12.689116
56.965 13.489382
56.970 13.877811
56.975 14.605589
56.980 14.989819
56.985 14.982162
56.990 14.445748
56.995 14.340919
57.000 13.371804
57.005 13.163294
57.010 13.349776
57.015 13.638512
57.020 14.146019
57.025 14.857959
57.030 14.946081
57.035 15.372768
57.040 14.500047
57.045 13.533084
57.050 12.985591
57.055 12.987265
57.060 13.085841
57.065 13.035389
57.070 13.110279
57.075 13.278707
57.080 13.470623
57.085 13.467555
57.090 12.92949
57.095 13.231959
57.100 13.26341
57.105 13.228816
57.110 13.81876
57.115 13.921997
57.120 13.852435
57.125 14.006273
57.130 13.4956
57.135 13.942819
57.140 13.976337
57.145 13.59152
57.150 13.592296
57.155 13.935857
57.160 13.754225
57.165 14.433564
57.170 14.686534
57.175 14.520783
57.180 14.645424
57.185 15.172926
57.190 15.002487
57.195 15.065287
57.200 14.522923
57.205 14.4376
57.210 15.021988
57.215 14.904322
57.220 14.473654
57.225 14.344953
57.230 14.222482
57.235 14.009257
57.240 13.818234
57.245 13.755013
57.250 13.615495
57.255 13.453413
57.260 13.859857
57.265 14.078842
57.270 13.644326
57.275 13.658574
57.280 13.387147
57.285 13.728341
57.290 14.105328
57.295 13.481815
57.300 13.167386
57.305 13.389301
57.310 13.072003
57.315 12.984478
57.320 12.847565
57.325 12.696375
57.330 13.134877
57.335 13.351151
57.340 13.500499
57.345 13.941819
57.350 14.231878
57.355 14.195581
57.360 14.335781
57.365 14.263285
57.370 14.101281
57.375 14.318638
57.380 14.194336
57.385 13.828776
57.390 14.017293
57.395 13.725386
57.400 13.817501
57.405 13.450331
57.410 13.25714
57.415 13.825191
57.420 14.34935
57.425 14.387648
57.430 14.297784
57.435 14.124693
57.440 14.064755
57.445 13.673018
57.450 13.211772
57.455 12.361465
57.460 12.274896
57.465 12.450895
57.470 12.964355
57.475 13.255939
57.480 13.570506
57.485 13.909432
57.490 14.648194
57.495 14.702781
57.500 14.915093
57.505 15.013404
57.510 14.879123
57.515 14.8281
57.520 14.339067
57.525 14.138499
57.530 14.384101
57.535 14.214617
57.540 14.083619
57.545 14.029012
57.550 13.88487
57.555 13.954437
57.560 13.855639
57.565 13.820232
57.570 13.880187
57.575 13.852407
57.580 13.785679
57.585 13.435418
57.590 14.197012
57.595 14.363955
57.600 14.423011
57.605 14.436265
57.610 15.26658
57.615 15.988653
57.620 16.434141
57.625 15.802943
57.630 15.540991
57.635 15.383942
57.640 15.13096
57.645 14.453056
57.650 14.451149
57.655 14.652317
57.660 14.871891
57.665 15.177567
57.670 15.514675
57.675 16.075775
57.680 16.5502
57.685 16.353617
57.690 16.112312
57.695 16.317968
57.700 16.126566
57.705 15.837084
57.710 15.242509
57.715 15.052003
57.720 15.122279
57.725 15.154915
57.730 14.659605
57.735 14.487141
57.740 14.140464
57.745 14.22009
57.750 14.389341
57.755 14.303782
57.760 14.195206
57.765 14.39525
57.770 14.74403
57.775 15.000658
57.780 14.923216
57.785 14.966814
57.790 14.735383
57.795 14.794538
57.800 14.444824
57.805 14.348263
57.810 14.168316
57.815 14.103033
57.820 14.111546
57.825 14.339893
57.830 14.66054
57.835 15.112158
57.840 15.191873
57.845 15.520199
57.850 15.813471
57.855 15.715646
57.860 15.705878
57.865 16.017921
57.870 16.068447
57.875 16.129366
57.880 16.170511
57.885 15.882373
57.890 15.684301
57.895 15.521995
57.900 15.497346
57.905 15.598671
57.910 15.700959
57.915 15.120456
57.920 14.929556
57.925 15.193624
57.930 15.480595
57.935 15.409634
57.940 15.100515
57.945 14.596686
57.950 14.900453
57.955 15.411221
57.960 15.356531
57.965 14.526149
57.970 14.673265
57.975 15.387056
57.980 16.239876
57.985 16.17651
57.990 15.725732
57.995 16.034071
58.000 16.307819
58.005 15.582715
58.010 14.947931
58.015 14.759275
58.020 14.73696
58.025 14.39827
58.030 14.553885
58.035 14.963385
58.040 14.9336
58.045 15.055367
58.050 15.233161
58.055 15.492139
58.060 15.838049
58.065 15.927467
58.070 16.084263
58.075 16.003126
58.080 15.794652
58.085 14.850137
58.090 14.441364
58.095 14.173501
58.100 13.596649
58.105 13.515138
58.110 13.69674
58.115 13.791768
58.120 14.305853
58.125 14.599176
58.130 15.084982
58.135 15.222862
58.140 14.86167
58.145 14.508463
58.150 14.500664
58.155 14.685135
58.160 14.540027
58.165 14.100766
58.170 14.254016
58.175 14.33534
58.180 14.311967
58.185 14.189256
58.190 14.570518
58.195 14.913835
58.200 15.619514
58.205 16.035778
58.210 16.49412
58.215 16.361469
58.220 16.491062
58.225 16.584286
58.230 16.492672
58.235 16.074215
58.240 16.192646
58.245 16.661572
58.250 17.203634
58.255 17.216894
58.260 16.652193
58.265 17.012249
58.270 17.144831
58.275 16.382338
58.280 16.529919
58.285 16.965473
58.290 17.560526
58.295 18.040888
58.300 17.713306
58.305 17.481184
58.310 17.799662
58.315 17.682671
58.320 17.585636
58.325 16.816872
58.330 16.245512
58.335 16.19075
58.340 16.015472
58.345 16.18206
58.350 15.778011
58.355 15.893528
58.360 16.324768
58.365 16.608259
58.370 16.619362
58.375 16.736284
58.380 16.480539
58.385 16.209936
58.390 16.031483
58.395 16.143875
58.400 15.950064
58.405 16.01524
58.410 15.897332
58.415 16.032681
58.420 17.072021
58.425 17.302767
58.430 17.464668
58.435 17.642885
58.440 17.824192
58.445 17.793146
58.450 18.132359
58.455 17.528862
58.460 17.566336
58.465 17.784925
58.470 17.601673
58.475 17.498117
58.480 17.15765
58.485 16.94878
58.490 17.113394
58.495 16.780344
58.500 17.217758
58.505 17.875385
58.510 18.227003
58.515 18.546448
58.520 18.240507
58.525 17.716354
58.530 17.520258
58.535 16.838451
58.540 16.251341
58.545 16.105768
58.550 15.7759
58.555 16.14691
58.560 16.828901
58.565 17.076929
58.570 16.851582
58.575 16.774168
58.580 16.674507
58.585 16.780958
58.590 16.524345
58.595 15.839985
58.600 15.605744
58.605 15.762485
58.610 15.944671
58.615 16.17087
58.620 16.387526
58.625 17.052544
58.630 17.775372
58.635 17.800283
58.640 17.470337
58.645 17.158686
58.650 17.08123
58.655 17.165392
58.660 16.66091
58.665 16.305296
58.670 16.644032
58.675 16.959024
58.680 17.086466
58.685 17.260321
58.690 17.480286
58.695 17.832706
58.700 17.767427
58.705 18.126793
58.710 18.745476
58.715 19.210741
58.720 18.940367
58.725 18.517693
58.730 17.731745
58.735 17.433079
58.740 17.328014
58.745 17.271772
58.750 17.285213
58.755 17.569782
58.760 17.882614
58.765 17.840553
58.770 17.899576
58.775 17.66188
58.780 17.591597
58.785 17.364264
58.790 17.220562
58.795 17.179247
58.800 17.751297
58.805 18.317419
58.810 18.036552
58.815 17.636072
58.820 17.137058
58.825 17.249882
58.830 17.470869
58.835 18.127394
58.840 17.927389
58.845 17.893921
58.850 18.267111
58.855 18.769854
58.860 18.115372
58.865 17.501482
58.870 16.479233
58.875 15.86682
58.880 15.740662
58.885 15.672009
58.890 16.374477
58.895 17.164703
58.900 17.38275
58.905 18.247618
58.910 19.195633
58.915 20.152321
58.920 20.028339
58.925 19.062092
58.930 18.378986
58.935 18.928322
58.940 18.723482
58.945 18.362385
58.950 17.92696
58.955 17.901264
58.960 18.012835
58.965 18.350729
58.970 18.004066
58.975 18.16605
58.980 18.465317
58.985 18.389288
58.990 18.585108
58.995 19.455933
59.000 19.739943
59.005 19.701471
59.010 19.653893
59.015 19.467194
59.020 19.652716
59.025 19.413105
59.030 18.583826
59.035 18.379959
59.040 18.882757
59.045 18.746319
59.050 18.586714
59.055 18.343727
59.060 18.302647
59.065 18.888847
59.070 18.733973
59.075 18.124668
59.080 18.869675
59.085 19.042759
59.090 18.650116
59.095 18.910509
59.100 18.507433
59.105 18.808359
59.110 18.857275
59.115 18.102621
59.120 17.970984
59.125 18.819683
59.130 18.484682
59.135 18.940189
59.140 19.194231
59.145 19.368639
59.150 19.436178
59.155 19.671473
59.160 19.084301
59.165 18.914396
59.170 18.340828
59.175 17.432669
59.180 17.406446
59.185 17.165136
59.190 17.947721
59.195 18.73661
59.200 18.833549
59.205 19.107681
59.210 19.684429
59.215 19.607588
59.220 19.446518
59.225 18.76025
59.230 18.509741
59.235 18.654638
59.240 19.013111
59.245 19.30591
59.250 19.428921
59.255 19.365639
59.260 18.46279
59.265 18.318222
59.270 18.540789
59.275 18.546524
59.280 18.32822
59.285 17.921482
59.290 17.955555
59.295 18.618122
59.300 18.811298
59.305 19.001858
59.310 18.503061
59.315 18.254236
59.320 19.165663
59.325 19.598886
59.330 19.647842
59.335 19.629269
59.340 19.47159
59.345 19.633684
59.350 19.67197
59.355 19.025316
59.360 18.691555
59.365 18.638527
59.370 18.208424
59.375 18.291142
59.380 18.738121
59.385 19.169111
59.390 19.438459
59.395 19.897217
59.400 19.851807
59.405 19.708252
59.410 19.7316
59.415 20.180077
59.420 20.205723
59.425 19.56052
59.430 19.365477
59.435 19.027153
59.440 19.512766
59.445 19.346762
59.450 18.899418
59.455 18.456358
59.460 18.746157
59.465 18.994932
59.470 19.626715
59.475 19.144512
59.480 18.822762
59.485 18.327164
59.490 18.173145
59.495 18.335238
59.500 18.312521
59.505 17.999655
59.510 17.589375
59.515 17.761259
59.520 18.366716
59.525 18.950487
59.530 19.376909
59.535 19.168451
59.540 19.223131
59.545 19.997831
59.550 19.815639
59.555 20.011215
59.560 19.508219
59.565 19.310446
59.570 19.810419
59.575 20.331703
59.580 20.538496
59.585 20.840298
59.590 20.662163
59.595 20.346352
59.600 19.681667
59.605 19.157524
59.610 18.836847
59.615 18.803545
59.620 18.500263
59.625 19.08135
59.630 19.773508
59.635 20.117384
59.640 20.053263
59.645 20.842838
59.650 20.84902
59.655 20.308617
59.660 19.810749
59.665 19.633331
59.670 20.152153
59.675 20.659689
59.680 20.116177
59.685 20.057076
59.690 20.773603
59.695 21.263803
59.700 22.293703
59.705 22.331526
59.710 21.891655
59.715 21.865028
59.720 21.794426
59.725 22.084936
59.730 21.968264
59.735 21.563709
59.740 21.482323
59.745 21.367456
59.750 21.156517
59.755 21.347336
59.760 21.344893
59.765 20.962086
59.770 20.861107
59.775 20.937588
59.780 21.126802
59.785 21.275921
59.790 21.395878
59.795 21.090994
59.800 21.361912
59.805 21.355045
59.810 21.096266
59.815 21.233101
59.820 21.254482
59.825 21.386684
59.830 21.887043
59.835 21.893833
59.840 22.151016
59.845 21.830109
59.850 21.757925
59.855 21.463507
59.860 21.469105
59.865 21.506641
59.870 21.616579
59.875 21.168501
59.880 21.353188
59.885 21.558931
59.890 21.730148
59.895 21.80332
59.900 21.509237
59.905 21.545132
59.910 22.192295
59.915 22.588726
59.920 22.600542
59.925 22.24194
59.930 21.594357
59.935 21.447474
59.940 21.304096
59.945 21.659485
59.950 21.545605
59.955 21.369825
59.960 21.321911
59.965 21.571125
59.970 21.441351
59.975 20.782
59.980 19.826149
59.985 19.738588
59.990 19.935966
59.995 20.029764
60.000 19.798107
60.005 20.540798
60.010 21.205929
60.015 21.849087
60.020 21.46381
60.025 21.553404
60.030 21.836823
60.035 21.984488
60.040 21.498402
60.045 21.446054
60.050 21.093428
60.055 21.289457
60.060 21.244497
60.065 21.45994
60.070 21.322401
60.075 21.387486
60.080 21.229239
60.085 21.526674
60.090 21.964485
60.095 22.181583
60.100 22.153973
60.105 21.995447
60.110 21.747593
60.115 22.095509
60.120 22.331045
60.125 22.351786
60.130 22.097622
60.135 22.209303
60.140 22.370972
60.145 22.629078
60.150 23.044432
60.155 22.801437
60.160 22.139153
60.165 21.910038
60.170 21.79434
60.175 21.791174
60.180 21.324907
60.185 20.494831
60.190 20.889021
60.195 21.556841
60.200 21.616596
60.205 21.542501
60.210 20.953682
60.215 21.102695
60.220 20.559525
60.225 19.813921
60.230 19.764091
60.235 19.672913
60.240 19.466234
60.245 19.623585
60.250 19.354628
60.255 20.479113
60.260 20.431997
60.265 20.376476
60.270 20.46892
60.275 20.470724
60.280 20.574791
60.285 20.50942
60.290 20.151459
60.295 19.967007
60.300 19.661846
60.305 19.461494
60.310 19.926702
60.315 19.925821
60.320 19.447546
60.325 19.518381
60.330 19.997471
60.335 19.90206
60.340 19.702135
60.345 19.426832
60.350 20.183002
60.355 20.821589
60.360 20.636433
60.365 20.742041
60.370 21.221479
60.375 21.473185
60.380 21.428127
60.385 21.090975
60.390 20.992188
60.395 21.014782
60.400 20.248476
60.405 19.729431
60.410 19.867647
60.415 19.989775
60.420 19.836765
60.425 19.50215
60.430 19.143642
60.435 19.484152
60.440 19.670341
60.445 19.423922
60.450 18.592823
60.455 18.362768
60.460 17.940033
60.465 18.066158
60.470 18.279293
60.475 18.589306
60.480 19.222025
60.485 19.671772
60.490 19.987526
60.495 20.304472
60.500 19.896336
60.505 19.641842
60.510 18.806652
60.515 18.11635
60.520 18.080397
60.525 17.809988
60.530 17.8179
60.535 17.409966
60.540 17.44632
60.545 17.721567
60.550 17.748585
60.555 17.152832
60.560 17.507427
60.565 17.902905
60.570 18.191263
60.575 18.687576
60.580 19.440905
60.585 19.736906
60.590 20.124979
60.595 19.736031
60.600 20.026678
60.605 20.000071
60.610 18.909388
60.615 18.392103
60.620 18.336729
60.625 18.367424
60.630 18.325613
60.635 17.788403
60.640 17.481236
60.645 17.825041
60.650 17.799486
60.655 17.908094
60.660 18.197302
60.665 18.529911
60.670 18.702335
60.675 18.67803
60.680 18.511139
60.685 18.197277
60.690 18.039436
60.695 18.269672
60.700 18.056011
60.705 18.203098
60.710 18.513403
60.715 18.629566
60.720 18.870504
60.725 18.62167
60.730 18.190939
60.735 18.481081
60.740 18.139345
60.745 18.002773
60.750 17.978792
60.755 18.36241
60.760 18.539261
60.765 18.466499
60.770 18.100897
60.775 17.897818
60.780 17.989746
60.785 17.8811
60.790 17.184198
60.795 17.307209
60.800 17.40691
60.805 17.764713
60.810 18.294941
60.815 18.158794
60.820 17.774328
60.825 18.327482
60.830 18.103067
60.835 17.778311
60.840 17.703106
60.845 17.987846
60.850 18.902163
60.855 19.504725
60.860 19.37351
60.865 19.402596
60.870 19.822195
60.875 20.211906
60.880 19.717916
60.885 18.432341
60.890 17.96174
60.895 18.225849
60.900 18.448271
60.905 17.788849
60.910 17.54785
60.915 18.057388
60.920 18.304392
60.925 18.313213
60.930 18.165602
60.935 18.204533
60.940 18.063572
60.945 17.697187
60.950 17.400553
60.955 17.638979
60.960 17.526531
60.965 17.133837
60.970 16.788649
60.975 16.392538
60.980 16.122513
60.985 15.373906
60.990 15.499193
60.995 15.223042
61.000 15.351149
61.005 16.138302
61.010 16.17971
61.015 16.434607
61.020 17.30481
61.025 17.329418
61.030 17.717175
61.035 17.887211
61.040 17.698685
61.045 18.283861
61.050 17.84198
61.055 17.570541
61.060 17.526966
61.065 16.918011
61.070 16.454411
61.075 16.259678
61.080 16.63357
61.085 17.409721
61.090 17.21792
61.095 16.903374
61.100 17.606672
61.105 17.846352
61.110 17.890911
61.115 17.488951
61.120 17.476316
61.125 17.456331
61.130 17.629023
61.135 17.041828
61.140 17.13575
61.145 17.319118
61.150 16.970142
61.155 16.954121
61.160 17.030411
61.165 17.214266
61.170 17.464083
61.175 16.777138
61.180 16.962759
61.185 17.263493
61.190 16.619225
61.195 16.44138
61.200 16.059227
61.205 15.881374
61.210 16.454037
61.215 16.288179
61.220 16.655323
61.225 17.572821
61.230 17.682152
61.235 18.66934
61.240 19.38694
61.245 19.441952
61.250 19.484095
61.255 19.36389
61.260 18.673113
61.265 19.036789
61.270 18.755432
61.275 18.148558
61.280 18.229879
61.285 17.773264
61.290 17.53569
61.295 17.697283
61.300 17.4541
61.305 17.0693
61.310 17.43268
61.315 16.988726
61.320 17.184677
61.325 17.066929
61.330 16.655092
61.335 16.891878
61.340 16.934631
61.345 16.852598
61.350 16.689285
61.355 16.78458
61.360 16.907177
61.365 17.259514
61.370 17.077263
61.375 16.997051
61.380 17.261866
61.385 17.8372
61.390 17.784197
61.395 17.986553
61.400 18.14197
61.405 18.160288
61.410 18.224272
61.415 18.345598
61.420 18.135574
61.425 17.869081
61.430 17.42205
61.435 16.546097
61.440 16.527586
61.445 16.731012
61.450 16.539051
61.455 16.351048
61.460 15.890392
61.465 16.051409
61.470 16.526457
61.475 16.436388
61.480 15.893361
61.485 15.279087
61.490 15.618546
61.495 16.282612
61.500 16.74848
61.505 16.610359
61.510 16.772573
61.515 17.21694
61.520 17.636871
61.525 17.886992
61.530 18.166479
61.535 17.937578
61.540 17.947565
61.545 17.804237
61.550 17.745092
61.555 17.815466
61.560 17.84565
61.565 17.209055
61.570 16.577488
61.575 17.241583
61.580 17.810276
61.585 17.60865
61.590 17.435659
61.595 17.102966
61.600 17.279673
61.605 17.939781
61.610 17.605473
61.615 16.894917
61.620 16.377441
61.625 16.314907
61.630 16.500332
61.635 16.23102
61.640 15.945071
61.645 15.998258
61.650 15.859431
61.655 16.571918
61.660 16.710661
61.665 16.53014
61.670 16.775484
61.675 16.551859
61.680 16.352947
61.685 16.79623
61.690 16.843636
61.695 16.951239
61.700 16.862625
61.705 17.360138
61.710 17.590263
61.715 17.535601
61.720 17.125292
61.725 17.271538
61.730 17.489838
61.735 17.884916
61.740 17.157421
61.745 17.260485
61.750 17.592768
61.755 18.109543
61.760 17.770042
61.765 17.797758
61.770 17.843605
61.775 18.545595
61.780 18.787336
61.785 17.84807
61.790 17.012318
61.795 16.341839
61.800 15.964372
61.805 15.801611
61.810 15.704173
61.815 15.497415
61.820 15.894183
61.825 16.70389
61.830 16.942183
61.835 16.473227
61.840 16.126743
61.845 15.84872
61.850 16.242496
61.855 16.320402
61.860 16.238621
61.865 16.289303
61.870 16.939453
61.875 17.835783
61.880 18.037374
61.885 17.762817
61.890 17.908266
61.895 17.915655
61.900 17.748804
61.905 17.429781
61.910 16.549425
61.915 16.423922
61.920 16.630131
61.925 16.57782
61.930 16.461523
61.935 16.711651
61.940 16.528553
61.945 16.425245
61.950 15.75194
61.955 15.092132
61.960 14.715955
61.965 14.602258
61.970 14.884296
61.975 15.360238
61.980 15.052788
61.985 14.721844
61.990 14.938591
61.995 15.470174
62.000 15.879778
62.005 15.991125
62.010 15.876211
62.015 16.626041
62.020 16.976648
62.025 17.313486
62.030 17.283321
62.035 17.554682
62.040 17.415583
62.045 17.490677
62.050 17.377333
62.055 17.655451
62.060 17.576975
62.065 17.945173
62.070 17.579445
62.075 17.284906
62.080 17.144184
62.085 17.175762
62.090 17.159569
62.095 17.088207
62.100 16.959057
62.105 16.612751
62.110 16.848312
62.115 17.253366
62.120 17.069544
62.125 17.397257
62.130 17.678961
62.135 17.859989
62.140 17.867331
62.145 17.591105
62.150 17.266243
62.155 17.894007
62.160 17.79686
62.165 17.825029
62.170 17.939756
62.175 18.060776
62.180 17.980078
62.185 17.987
62.190 17.651739
62.195 17.256664
62.200 16.704826
62.205 15.479762
62.210 15.647605
62.215 15.66604
62.220 15.303528
62.225 15.009121
62.230 14.589015
62.235 14.42786
62.240 15.619158
62.245 16.075544
62.250 17.052244
62.255 17.552582
62.260 17.779051
62.265 18.059748
62.270 18.621502
62.275 18.47452
62.280 17.942326
62.285 17.057558
62.290 16.696167
62.295 16.907873
62.300 17.168989
62.305 16.702473
62.310 15.978306
62.315 16.029449
62.320 15.931677
62.325 15.757174
62.330 15.658374
62.335 15.7452
62.340 15.593251
62.345 15.905944
62.350 15.846478
62.355 15.856502
62.360 15.814334
62.365 15.833925
62.370 15.550705
62.375 16.04707
62.380 15.802711
62.385 16.299458
62.390 16.817833
62.395 17.325317
62.400 17.161896
62.405 17.270372
62.410 17.127272
62.415 17.429972
62.420 17.215916
62.425 17.310617
62.430 17.545176
62.435 18.171154
62.440 18.734737
62.445 18.389938
62.450 18.49909
62.455 18.790424
62.460 18.92351
62.465 18.740576
62.470 18.731924
62.475 18.909536
62.480 19.746061
62.485 19.776325
62.490 19.663296
62.495 19.318085
62.500 18.950607
62.505 18.720387
62.510 18.54928
62.515 18.354536
62.520 17.925076
62.525 17.162403
62.530 16.831055
62.535 16.70936
62.540 16.678434
62.545 16.61175
62.550 16.40081
62.555 16.474646
62.560 16.852388
62.565 17.318161
62.570 17.178175
62.575 16.893826
62.580 16.779299
62.585 16.765915
62.590 16.277687
62.595 16.263536
62.600 16.406698
62.605 16.519938
62.610 16.367208
62.615 16.04183
62.620 16.057833
62.625 16.311396
62.630 16.485949
62.635 16.548365
62.640 16.66518
62.645 16.516766
62.650 16.700171
62.655 16.516594
62.660 16.626434
62.665 15.932142
62.670 15.507794
62.675 15.655949
62.680 15.848616
62.685 15.845152
62.690 16.294872
62.695 16.964123
62.700 17.173115
62.705 17.282761
62.710 17.33865
62.715 17.185684
62.720 17.14135
62.725 16.799406
62.730 16.38736
62.735 16.587496
62.740 16.832987
62.745 16.84523
62.750 17.182516
62.755 17.475416
62.760 18.121817
62.765 18.186539
62.770 18.193829
62.775 18.214386
62.780 18.705994
62.785 19.275377
62.790 19.734684
62.795 19.397631
62.800 19.100073
62.805 18.914413
62.810 18.860243
62.815 18.684607
62.820 18.278316
62.825 18.327738
62.830 18.740965
62.835 19.206642
62.840 19.797617
62.845 19.322414
62.850 18.670452
62.855 18.780355
62.860 18.295788
62.865 18.359072
62.870 18.158051
62.875 17.988373
62.880 17.843884
62.885 17.386303
62.890 16.722105
62.895 16.276144
62.900 15.89336
62.905 15.727366
62.910 15.382825
62.915 16.03159
62.920 16.552048
62.925 16.956158
62.930 16.951086
62.935 16.891495
62.940 16.834028
62.945 16.699924
62.950 16.411417
62.955 17.133045
62.960 17.341702
62.965 18.288334
62.970 18.831945
62.975 19.606884
62.980 19.841791
62.985 19.460033
62.990 18.912659
62.995 18.673607
63.000 17.856895
63.005 17.037294
63.010 15.907092
63.015 16.097828
63.020 16.345707
63.025 16.086597
63.030 16.087521
63.035 16.50391
63.040 16.843403
63.045 17.474096
63.050 17.22423
63.055 17.327255
63.060 17.223267
63.065 17.119093
63.070 17.09536
63.075 17.06163
63.080 16.596317
63.085 16.780081
63.090 17.097916
63.095 17.604626
63.100 16.878004
63.105 16.73357
63.110 17.183907
63.115 17.184736
63.120 16.838825
63.125 16.760994
63.130 16.624571
63.135 17.307777
63.140 17.45018
63.145 17.18511
63.150 17.61565
63.155 17.9524
63.160 17.460182
63.165 17.35821
63.170 17.121576
63.175 16.853586
63.180 17.23904
63.185 17.256868
63.190 17.090834
63.195 17.102238
63.200 16.894222
63.205 16.749432
63.210 16.712635
63.215 16.729313
63.220 16.472548
63.225 16.96423
63.230 17.242226
63.235 17.219704
63.240 17.316757
63.245 17.398016
63.250 17.795233
63.255 18.362064
63.260 18.388426
63.265 18.36467
63.270 18.807743
63.275 19.322227
63.280 19.363266
63.285 18.849577
63.290 18.793085
63.295 19.163979
63.300 19.902094
63.305 20.205822
63.310 20.521646
63.315 20.887421
63.320 20.509275
63.325 19.721899
63.330 19.126633
63.335 18.395437
63.340 18.129402
63.345 17.83573
63.350 17.700871
63.355 17.79495
63.360 18.489477
63.365 18.91898
63.370 19.619926
63.375 19.953007
63.380 19.934542
63.385 19.736006
63.390 20.09017
63.395 19.835268
63.400 19.532825
63.405 18.900169
63.410 18.288155
63.415 17.63636
63.420 17.609072
63.425 17.89924
63.430 18.266781
63.435 18.391449
63.440 18.296848
63.445 18.72715
63.450 18.899782
63.455 18.820896
63.460 18.822144
63.465 19.086906
63.470 19.039223
63.475 19.386248
63.480 19.749462
63.485 20.17697
63.490 20.457167
63.495 20.472471
63.500 20.112627
63.505 20.448551
63.510 20.579796
63.515 20.285875
63.520 19.722435
63.525 19.418726
63.530 19.022451
63.535 18.882807
63.540 18.616302
63.545 18.098824
63.550 17.898252
63.555 17.756948
63.560 18.184956
63.565 18.983641
63.570 18.957087
63.575 18.768173
63.580 18.657322
63.585 18.60745
63.590 18.69243
63.595 18.253855
63.600 17.92721
63.605 18.154804
63.610 18.458229
63.615 18.458952
63.620 18.840992
63.625 18.887224
63.630 19.222679
63.635 19.490396
63.640 19.143057
63.645 18.821609
63.650 19.066061
63.655 18.959734
63.660 19.360048
63.665 19.046703
63.670 18.916698
63.675 18.981094
63.680 18.726694
63.685 18.90864
63.690 18.911032
63.695 18.773523
63.700 19.10041
63.705 19.127504
63.710 19.604286
63.715 19.47888
63.720 19.187952
63.725 19.440075
63.730 19.088285
63.735 18.194218
63.740 17.519627
63.745 17.011002
63.750 17.017851
63.755 17.203493
63.760 16.737858
63.765 16.373623
63.770 16.820271
63.775 16.703758
63.780 17.10512
63.785 17.548807
63.790 17.506861
63.795 17.935272
63.800 18.197479
63.805 17.699343
63.810 17.863169
63.815 18.249027
63.820 18.434942
63.825 18.738335
63.830 18.950123
63.835 19.094936
63.840 19.677553
63.845 20.116379
63.850 19.986795
63.855 19.952383
63.860 19.729605
63.865 19.920467
63.870 20.018032
63.875 19.952658
63.880 20.345097
63.885 19.91502
63.890 19.564463
63.895 19.133713
63.900 18.733137
63.905 18.512938
63.910 18.052094
63.915 16.902927
63.920 16.998091
63.925 17.455193
63.930 17.465956
63.935 17.832762
63.940 18.586851
63.945 19.214895
63.950 20.428041
63.955 20.932085
63.960 20.789467
63.965 20.683493
63.970 20.76178
63.975 20.0002
63.980 18.978807
63.985 18.590424
63.990 17.990814
63.995 18.261362
64.000 18.91687
64.005 18.771194
64.010 19.163498
64.015 20.139643
64.020 19.762798
64.025 20.211428
64.030 20.197851
64.035 19.779224
64.040 19.855183
64.045 20.278988
64.050 20.43424
64.055 20.562447
64.060 20.562569
64.065 20.412113
64.070 19.930077
64.075 19.50765
64.080 19.032238
64.085 18.573057
64.090 18.582005
64.095 18.594213
64.100 18.443857
64.105 18.505802
64.110 18.600273
64.115 18.68014
64.120 18.993294
64.125 18.81255
64.130 17.925018
64.135 17.429686
64.140 17.730265
64.145 17.587166
64.150 17.263374
64.155 16.802498
64.160 16.887218
64.165 17.255159
64.170 17.568388
64.175 17.54966
64.180 17.623001
64.185 18.138166
64.190 18.258776
64.195 17.866653
64.200 18.715292
64.205 19.19096
64.210 19.339212
64.215 19.218914
64.220 18.707787
64.225 18.803337
64.230 19.409649
64.235 19.158268
64.240 19.382832
64.245 19.480871
64.250 19.752781
64.255 20.553692
64.260 20.756344
64.265 20.329441
64.270 20.202335
64.275 19.551291
64.280 19.365829
64.285 19.493568
64.290 19.130072
64.295 18.923403
64.300 18.463335
64.305 18.678215
64.310 19.467197
64.315 20.032791
64.320 19.610575
64.325 19.538713
64.330 19.626501
64.335 19.935101
64.340 19.570248
64.345 19.194723
64.350 18.920748
64.355 19.335869
64.360 20.101452
64.365 20.742155
64.370 21.16716
64.375 21.288542
64.380 21.279957
64.385 21.218918
64.390 20.957426
64.395 19.922607
64.400 19.110563
64.405 19.456682
64.410 19.579292
64.415 19.75075
64.420 19.675179
64.425 20.06064
64.430 20.114475
64.435 20.547922
64.440 20.326183
64.445 20.474161
64.450 20.710638
64.455 20.748848
64.460 20.709604
64.465 21.683033
64.470 21.843529
64.475 21.702461
64.480 21.667618
64.485 21.256065
64.490 21.547491
64.495 21.530943
64.500 21.55291
64.505 21.228462
64.510 21.489147
64.515 21.576223
64.520 21.722664
64.525 21.40226
64.530 21.409479
64.535 20.967264
64.540 21.501961
64.545 21.509935
64.550 21.68602
64.555 22.084152
64.560 22.071573
64.565 21.597111
64.570 21.177446
64.575 21.051878
64.580 20.631048
64.585 20.155085
64.590 20.400606
64.595 20.650768
64.600 21.525116
64.605 21.800024
64.610 21.613771
64.615 21.288353
64.620 21.108606
64.625 20.657198
64.630 20.383303
64.635 19.672249
64.640 20.203819
64.645 20.275639
64.650 20.515141
64.655 20.274101
64.660 20.500198
64.665 20.571352
64.670 20.584702
64.675 20.055666
64.680 20.422649
64.685 20.809063
64.690 21.294895
64.695 21.247829
64.700 21.392118
64.705 21.355686
64.710 21.693491
64.715 22.210794
64.720 22.113937
64.725 21.933592
64.730 21.504301
64.735 21.538734
64.740 21.551601
64.745 21.467884
64.750 21.296158
64.755 21.099455
64.760 20.753428
64.765 21.021492
64.770 21.109211
64.775 21.299063
64.780 21.417376
64.785 20.937538
64.790 21.535063
64.795 22.155863
64.800 22.145609
64.805 22.452717
64.810 22.291014
64.815 22.473715
64.820 22.535032
64.825 22.636877
64.830 22.571878
64.835 22.515467
64.840 22.507889
64.845 22.341125
64.850 21.844145
64.855 21.849215
64.860 21.349569
64.865 21.352491
64.870 20.679699
64.875 20.082848
64.880 20.98835
64.885 21.258963
64.890 21.267349
64.895 21.52956
64.900 22.071798
64.905 23.114244
64.910 23.68034
64.915 23.510498
64.920 23.778481
64.925 23.866062
64.930 23.338333
64.935 22.504427
64.940 22.007513
64.945 21.361584
64.950 21.228434
64.955 21.608509
64.960 22.08884
64.965 22.592541
64.970 22.561365
64.975 23.376343
64.980 23.766521
64.985 23.835346
64.990 23.952663
64.995 23.902464
65.000 24.112429
65.005 23.846945
65.010 23.431999
65.015 23.900457
65.020 24.725288
65.025 24.529585
65.030 23.790606
65.035 23.868954
65.040 24.844837
65.045 24.818291
65.050 24.820625
65.055 23.752604
65.060 23.711603
65.065 24.195217
65.070 23.821627
65.075 23.000696
65.080 22.513474
65.085 22.615721
65.090 23.170057
65.095 23.552294
65.100 23.951303
65.105 24.526751
65.110 24.700563
65.115 25.535566
65.120 25.79929
65.125 25.784161
65.130 25.416246
65.135 25.05937
65.140 25.075708
65.145 25.548901
65.150 25.599728
65.155 25.254152
65.160 24.882782
65.165 24.7705
65.170 25.394886
65.175 25.118856
65.180 24.698051
65.185 24.25762
65.190 24.598042
65.195 25.151239
65.200 25.125378
65.205 24.924749
65.210 25.652411
65.215 26.088549
65.220 26.025024
65.225 25.716459
65.230 25.149883
65.235 25.674749
65.240 25.587286
65.245 25.112658
65.250 24.565794
65.255 24.693817
65.260 25.163412
65.265 25.70368
65.270 25.438713
65.275 25.543631
65.280 26.277779
65.285 27.279661
65.290 27.160934
65.295 26.772907
65.300 26.497192
65.305 26.053329
65.310 25.246084
65.315 24.509417
65.320 23.905796
65.325 23.351742
65.330 23.244648
65.335 23.394499
65.340 23.570406
65.345 23.976919
65.350 24.060261
65.355 25.095678
65.360 25.621181
65.365 25.568466
65.370 25.241451
65.375 25.415771
65.380 25.727468
65.385 25.324993
65.390 24.566694
65.395 24.267689
65.400 24.343327
65.405 24.789787
65.410 24.943396
65.415 25.122135
65.420 25.475573
65.425 25.578659
65.430 25.791037
65.435 26.008402
65.440 26.072464
65.445 25.822336
65.450 25.911026
65.455 25.995865
65.460 25.659077
65.465 25.677662
65.470 25.90321
65.475 25.759302
65.480 25.817375
65.485 25.491854
65.490 25.56801
65.495 26.191467
65.500 26.701344
65.505 26.794544
65.510 27.110889
65.515 26.99964
65.520 27.031958
65.525 27.449274
65.530 28.179293
65.535 28.385002
65.540 28.768612
65.545 29.169971
65.550 29.554428
65.555 29.736712
65.560 30.234144
65.565 30.058369
65.570 30.046141
65.575 29.801374
65.580 30.076084
65.585 30.207794
65.590 30.15292
65.595 29.527525
65.600 29.329773
65.605 29.846382
65.610 29.570196
65.615 29.753553
65.620 29.497276
65.625 29.832678
65.630 29.744234
65.635 29.411594
65.640 28.805761
65.645 28.836887
65.650 29.04068
65.655 29.667101
65.660 29.689564
65.665 30.068016
65.670 30.279903
65.675 30.897202
65.680 31.21316
65.685 31.302097
65.690 31.55051
65.695 31.588326
65.700 31.905775
65.705 32.120243
65.710 31.749598
65.715 32.052296
65.720 31.898832
65.725 31.92045
65.730 32.476555
65.735 32.526649
65.740 33.055969
65.745 33.687958
65.750 34.229198
65.755 34.716587
65.760 35.110741
65.765 34.494579
65.770 34.236542
65.775 33.929127
65.780 33.819164
65.785 34.061306
65.790 33.91832
65.795 34.22097
65.800 34.845032
65.805 35.197571
65.810 34.729382
65.815 34.678806
65.820 34.302826
65.825 34.444126
65.830 34.724873
65.835 34.937672
65.840 35.014782
65.845 35.066971
65.850 35.102612
65.855 35.473633
65.860 35.520283
65.865 35.704899
65.870 36.668934
65.875 36.819744
65.880 37.862572
65.885 38.229614
65.890 39.086079
65.895 39.262428
65.900 38.858128
65.905 38.320591
65.910 38.764839
65.915 39.144245
65.920 39.143349
65.925 38.470406
65.930 38.895912
65.935 39.119659
65.940 39.186623
65.945 38.171207
65.950 37.168278
65.955 36.833775
65.960 37.154095
65.965 37.472378
65.970 37.331432
65.975 36.908512
65.980 37.891624
65.985 37.841
65.990 37.899708
65.995 38.213192
66.000 37.151096
66.005 37.355412
66.010 38.575512
66.015 38.922363
66.020 39.256912
66.025 38.888203
66.030 39.153011
66.035 39.812897
66.040 39.68502
66.045 39.513344
66.050 39.623062
66.055 39.927967
66.060 40.334854
66.065 40.206741
66.070 40.052593
66.075 39.630554
66.080 39.858978
66.085 39.348637
66.090 39.874622
66.095 40.403175
66.100 40.779907
66.105 40.900295
66.110 40.598179
66.115 39.724945
66.120 39.584476
66.125 39.535744
66.130 39.131744
66.135 38.88607
66.140 39.11462
66.145 39.90028
66.150 40.458942
66.155 40.445095
66.160 40.041035
66.165 40.983837
66.170 41.131634
66.175 41.016254
66.180 39.806274
66.185 39.876907
66.190 40.187126
66.195 40.233593
66.200 39.16996
66.205 38.543587
66.210 38.849915
66.215 39.36927
66.220 38.781853
66.225 38.850452
66.230 39.038307
66.235 39.349072
66.240 39.360531
66.245 40.228287
66.250 40.339985
66.255 40.382801
66.260 40.221855
66.265 39.747086
66.270 38.641254
66.275 39.087944
66.280 38.308155
66.285 38.582733
66.290 38.658875
66.295 38.326786
66.300 38.083153
66.305 38.491127
66.310 37.627773
66.315 36.764038
66.320 36.411358
66.325 35.731419
66.330 35.519669
66.335 35.688526
66.340 35.519638
66.345 35.187836
66.350 35.447105
66.355 34.476532
66.360 34.406242
66.365 34.464828
66.370 34.446785
66.375 35.072548
66.380 35.221756
66.385 35.066391
66.390 36.244518
66.395 36.87075
66.400 36.839844
66.405 36.937561
66.410 36.447128
66.415 36.199383
66.420 35.652275
66.425 34.461258
66.430 33.695896
66.435 32.30405
66.440 30.919046
66.445 30.13805
66.450 30.045023
66.455 30.545176
66.460 30.86825
66.465 30.591427
66.470 30.891756
66.475 31.501984
66.480 31.808453
66.485 31.064674
66.490 30.166843
66.495 29.787458
66.500 29.672064
66.505 29.285583
66.510 28.303446
66.515 27.537476
66.520 27.996058
66.525 28.26692
66.530 28.467981
66.535 28.54809
66.540 29.32205
66.545 29.653221
66.550 29.405439
66.555 29.107761
66.560 29.196426
66.565 29.122997
66.570 28.828817
66.575 28.146158
66.580 27.770153
66.585 27.90436
66.590 28.036221
66.595 27.7785
66.600 27.695616
66.605 28.127092
66.610 28.23465
66.615 28.018221
66.620 27.88434
66.625 27.412018
66.630 26.713654
66.635 26.984589
66.640 26.693064
66.645 26.899754
66.650 27.066082
66.655 26.916956
66.660 26.615004
66.665 26.150021
66.670 25.245932
66.675 24.417305
66.680 24.042599
66.685 24.646965
66.690 24.537033
66.695 24.163433
66.700 24.12117
66.705 24.299898
66.710 24.880613
66.715 24.920042
66.720 24.19739
66.725 24.022907
66.730 23.940416
66.735 23.816818
66.740 23.901306
66.745 23.402521
66.750 23.54962
66.755 23.11981
66.760 23.337803
66.765 24.156124
66.770 23.74757
66.775 23.404514
66.780 23.837894
66.785 23.221519
66.790 22.908293
66.795 22.472408
66.800 22.380802
66.805 22.275343
66.810 22.598927
66.815 22.733559
66.820 22.557655
66.825 23.363161
66.830 23.521379
66.835 23.614103
66.840 23.571815
66.845 22.98373
66.850 22.582125
66.855 22.910648
66.860 22.43009
66.865 22.466679
66.870 22.01824
66.875 22.028875
66.880 21.899673
66.885 22.026302
66.890 22.43124
66.895 22.872829
66.900 22.418888
66.905 22.590223
66.910 23.305992
66.915 23.818394
66.920 23.731052
66.925 23.364185
66.930 23.097221
66.935 23.509317
66.940 23.544397
66.945 22.898523
66.950 22.440018
66.955 22.49473
66.960 22.598276
66.965 22.276602
66.970 21.96969
66.975 21.567003
66.980 21.896637
66.985 22.178776
66.990 21.339539
66.995 21.214333
67.000 21.557863
67.005 22.319397
67.010 22.752596
67.015 22.671564
67.020 22.626965
67.025 22.922071
67.030 22.61211
67.035 22.194159
67.040 21.429743
67.045 21.227924
67.050 20.658384
67.055 20.687386
67.060 21.15551
67.065 21.726068
67.070 22.277037
67.075 22.588997
67.080 22.833563
67.085 23.278246
67.090 23.226374
67.095 22.99164
67.100 22.855951
67.105 22.880924
67.110 22.458956
67.115 22.839014
67.120 23.095228
67.125 22.830748
67.130 23.005045
67.135 22.928547
67.140 22.83098
67.145 22.647495
67.150 22.35079
67.155 22.516214
67.160 23.164104
67.165 23.582588
67.170 23.321667
67.175 22.899332
67.180 22.769503
67.185 22.18021
67.190 21.418974
67.195 20.919224
67.200 20.618484
67.205 20.089573
67.210 20.508465
67.215 21.210205
67.220 21.16959
67.225 21.414202
67.230 20.9072
67.235 20.946783
67.240 21.721752
67.245 21.164923
67.250 20.362551
67.255 20.63756
67.260 20.794556
67.265 21.313807
67.270 20.759279
67.275 20.747276
67.280 20.736622
67.285 21.419489
67.290 21.508183
67.295 22.067953
67.300 22.117729
67.305 22.429728
67.310 21.997999
67.315 21.838127
67.320 20.89535
67.325 20.583807
67.330 20.096945
67.335 20.422142
67.340 20.536354
67.345 20.539232
67.350 21.174189
67.355 21.498474
67.360 21.329327
67.365 20.820545
67.370 20.345102
67.375 20.264166
67.380 20.744312
67.385 20.772787
67.390 21.496618
67.395 21.933651
67.400 22.123302
67.405 22.153831
67.410 21.777346
67.415 21.118677
67.420 20.662407
67.425 20.05928
67.430 19.984087
67.435 20.402296
67.440 20.683672
67.445 21.117477
67.450 21.063051
67.455 20.955984
67.460 20.794498
67.465 20.719797
67.470 20.012472
67.475 19.483917
67.480 19.441647
67.485 20.469557
67.490 21.068933
67.495 21.604521
67.500 22.193834
67.505 22.571983
67.510 22.992256
67.515 22.649048
67.520 21.90505
67.525 21.603706
67.530 21.195427
67.535 20.778988
67.540 20.455009
67.545 20.02318
67.550 19.927599
67.555 20.160765
67.560 20.324339
67.565 20.134327
67.570 20.343964
67.575 20.970268
67.580 21.230633
67.585 21.288654
67.590 21.038298
67.595 20.574949
67.600 20.382427
67.605 19.779257
67.610 19.31879
67.615 19.054188
67.620 18.914957
67.625 19.319408
67.630 19.755064
67.635 19.985054
67.640 19.958706
67.645 20.117599
67.650 20.390696
67.655 20.58926
67.660 20.207211
67.665 20.136168
67.670 20.530983
67.675 20.821056
67.680 20.826117
67.685 20.966717
67.690 20.841906
67.695 21.849091
67.700 22.631214
67.705 22.288782
67.710 21.685583
67.715 21.40626
67.720 20.912548
67.725 20.98477
67.730 20.50045
67.735 20.113819
67.740 20.375933
67.745 20.836124
67.750 21.322029
67.755 21.822445
67.760 21.947706
67.765 21.763416
67.770 21.268677
67.775 21.242064
67.780 20.762924
67.785 20.559757
67.790 19.934677
67.795 19.761147
67.800 20.521044
67.805 20.49737
67.810 20.595909
67.815 21.164
67.820 21.221798
67.825 21.328463
67.830 20.648577
67.835 19.556999
67.840 19.862133
67.845 19.580748
67.850 19.014538
67.855 19.390196
67.860 20.10129
67.865 20.989674
67.870 21.551014
67.875 21.3083
67.880 21.8585
67.885 22.145761
67.890 22.197426
67.895 21.707378
67.900 21.134024
67.905 20.729151
67.910 20.682877
67.915 20.792847
67.920 21.025618
67.925 21.045946
67.930 20.998871
67.935 21.528854
67.940 21.646915
67.945 21.781345
67.950 21.547934
67.955 21.563864
67.960 21.973721
67.965 22.008253
67.970 21.795721
67.975 22.437881
67.980 23.082249
67.985 22.604164
67.990 22.068001
67.995 22.074869
68.000 22.110022
68.005 21.311668
68.010 20.586542
68.015 20.631901
68.020 21.707163
68.025 22.257544
68.030 21.82505
68.035 22.315125
68.040 22.780474
68.045 22.904552
68.050 21.926805
68.055 21.009775
68.060 21.164957
68.065 21.319599
68.070 21.06744
68.075 21.206963
68.080 20.878933
68.085 21.843824
68.090 21.877209
68.095 21.050863
68.100 20.28018
68.105 20.016052
68.110 20.264383
68.115 20.063917
68.120 19.357054
68.125 19.541346
68.130 19.895975
68.135 20.365099
68.140 20.178602
68.145 19.76473
68.150 19.310629
68.155 19.015514
68.160 18.716433
68.165 19.022635
68.170 19.167871
68.175 19.168924
68.180 19.430016
68.185 20.635345
68.190 21.203728
68.195 21.615269
68.200 21.880344
68.205 22.188934
68.210 22.447069
68.215 22.615192
68.220 22.220245
68.225 22.048223
68.230 21.642982
68.235 21.032242
68.240 20.916416
68.245 21.132128
68.250 20.704071
68.255 20.794422
68.260 20.92239
68.265 21.456501
68.270 21.527531
68.275 21.502098
68.280 21.070736
68.285 21.13485
68.290 21.254183
68.295 21.049576
68.300 20.218397
68.305 19.943974
68.310 19.993708
68.315 19.894835
68.320 19.720963
68.325 19.131163
68.330 19.464123
68.335 19.53056
68.340 19.571629
68.345 19.939617
68.350 20.617336
68.355 21.14679
68.360 21.073524
68.365 20.469179
68.370 20.918015
68.375 20.918957
68.380 20.539143
68.385 20.252638
68.390 19.602325
68.395 19.888638
68.400 20.191877
68.405 20.036999
68.410 20.231985
68.415 20.322603
68.420 20.191292
68.425 20.318842
68.430 20.444658
68.435 20.602526
68.440 21.108986
68.445 21.4286
68.450 21.579388
68.455 21.903429
68.460 22.366476
68.465 22.307741
68.470 22.520815
68.475 22.441534
68.480 21.647526
68.485 21.12862
68.490 20.854582
68.495 20.569822
68.500 20.666906
68.505 20.929152
68.510 21.248652
68.515 21.820662
68.520 21.49836
68.525 21.523787
68.530 21.925247
68.535 21.757429
68.540 20.871603
68.545 20.734802
68.550 20.506603
68.555 20.674604
68.560 20.91481
68.565 20.004662
68.570 19.981506
68.575 20.136496
68.580 19.90851
68.585 20.192217
68.590 20.733837
68.595 20.231659
68.600 20.304855
68.605 20.474895
68.610 20.581608
68.615 20.663256
68.620 20.088531
68.625 20.148653
68.630 21.065628
68.635 21.254013
68.640 20.751842
68.645 20.234234
68.650 20.520987
68.655 20.540131
68.660 20.273758
68.665 20.64378
68.670 21.588919
68.675 22.619297
68.680 22.948317
68.685 22.666508
68.690 23.208122
68.695 23.573828
68.700 23.813683
68.705 23.258783
68.710 23.068163
68.715 23.198774
68.720 23.289738
68.725 22.726379
68.730 22.55036
68.735 22.428761
68.740 22.163778
68.745 22.634386
68.750 22.84165
68.755 22.77512
68.760 23.144491
68.765 22.62447
68.770 22.478987
68.775 22.499418
68.780 21.627886
68.785 21.161999
68.790 21.240147
68.795 21.097679
68.800 21.072079
68.805 20.408859
68.810 20.243341
68.815 20.738564
68.820 20.912563
68.825 21.504431
68.830 22.110321
68.835 22.146307
68.840 22.287327
68.845 22.309885
68.850 22.11027
68.855 21.762232
68.860 20.818766
68.865 20.846716
68.870 21.371979
68.875 22.099888
68.880 22.472925
68.885 22.543116
68.890 22.699263
68.895 22.893705
68.900 22.995094
68.905 23.20315
68.910 22.500591
68.915 22.226633
68.920 22.039328
68.925 22.023586
68.930 22.19628
68.935 21.321104
68.940 20.927038
68.945 20.977505
68.950 20.943474
68.955 21.168938
68.960 22.010136
68.965 21.80056
68.970 21.765366
68.975 22.191587
68.980 22.83193
68.985 23.859987
68.990 24.423597
68.995 24.223219
69.000 24.68119
69.005 25.160158
69.010 25.46516
69.015 25.042648
69.020 24.269461
69.025 23.966347
69.030 23.849554
69.035 23.549519
69.040 23.860935
69.045 24.29859
69.050 24.397366
69.055 24.510693
69.060 24.822098
69.065 25.374102
69.070 26.255871
69.075 25.965965
69.080 25.590435
69.085 25.987648
69.090 26.864134
69.095 26.659155
69.100 26.52931
69.105 26.68453
69.110 26.466974
69.115 26.407858
69.120 26.665489
69.125 26.37842
69.130 26.070717
69.135 25.709633
69.140 25.952015
69.145 26.918415
69.150 26.928259
69.155 25.766949
69.160 25.791418
69.165 26.311193
69.170 27.048615
69.175 26.752083
69.180 26.179844
69.185 26.218319
69.190 26.785408
69.195 26.999935
69.200 27.011187
69.205 27.008156
69.210 26.606115
69.215 26.886209
69.220 27.211004
69.225 27.315008
69.230 26.903967
69.235 26.81514
69.240 27.034986
69.245 27.635254
69.250 27.228777
69.255 26.982962
69.260 27.014616
69.265 27.116356
69.270 26.63735
69.275 26.842031
69.280 26.398994
69.285 26.889584
69.290 27.255085
69.295 27.519518
69.300 27.990862
69.305 28.005011
69.310 28.735115
69.315 29.416649
69.320 29.302151
69.325 29.148232
69.330 29.057127
69.335 28.795717
69.340 28.720215
69.345 28.097036
69.350 28.188005
69.355 28.604441
69.360 28.688391
69.365 28.855637
69.370 29.148527
69.375 29.036283
69.380 28.643646
69.385 28.479422
69.390 29.145649
69.395 29.590557
69.400 29.851885
69.405 29.724476
69.410 30.183403
69.415 31.17334
69.420 30.871403
69.425 30.495697
69.430 30.725058
69.435 31.108521
69.440 31.676802
69.445 32.16349
69.450 32.082596
69.455 32.354301
69.460 32.264591
69.465 32.173595
69.470 31.743143
69.475 31.36939
69.480 30.983782
69.485 31.203606
69.490 32.053818
69.495 31.795023
69.500 31.130568
69.505 32.100281
69.510 32.620838
69.515 33.479935
69.520 33.600796
69.525 32.848564
69.530 33.123093
69.535 33.700085
69.540 32.85651
69.545 32.629097
69.550 31.719252
69.555 31.074444
69.560 31.000469
69.565 30.616928
69.570 30.490431
69.575 31.123178
69.580 30.743095
69.585 30.204016
69.590 30.917822
69.595 30.815697
69.600 30.869181
69.605 30.717546
69.610 30.304522
69.615 30.565186
69.620 30.877653
69.625 30.166716
69.630 30.716829
69.635 30.768791
69.640 31.610086
69.645 31.905499
69.650 32.085571
69.655 32.346088
69.660 34.053482
69.665 33.578388
69.670 33.481606
69.675 33.097057
69.680 32.611179
69.685 32.908562
69.690 32.596291
69.695 32.231422
69.700 32.208637
69.705 32.093594
69.710 31.722572
69.715 32.533287
69.720 32.515202
69.725 31.927586
69.730 31.424294
69.735 31.189926
69.740 31.580204
69.745 31.194304
69.750 29.762142
69.755 29.657997
69.760 29.273184
69.765 29.486044
69.770 29.282368
69.775 29.129435
69.780 29.582836
69.785 30.392231
69.790 30.095884
69.795 29.778849
69.800 29.526337
69.805 29.286818
69.810 27.828896
69.815 27.368944
69.820 26.959366
69.825 26.224735
69.830 25.375711
69.835 24.829309
69.840 24.786816
69.845 25.625668
69.850 25.275084
69.855 24.627611
69.860 24.724844
69.865 25.043594
69.870 25.065348
69.875 25.37178
69.880 25.664087
69.885 25.791985
69.890 25.701548
69.895 25.892889
69.900 25.607323
69.905 25.763889
69.910 25.050924
69.915 24.292271
69.920 24.40296
69.925 25.100973
69.930 25.031197
69.935 25.436283
69.940 24.795742
69.945 25.142258
69.950 25.626055
69.955 25.421635
69.960 24.464722
69.965 24.147997
69.970 23.492859
69.975 23.257809
69.980 22.383133
69.985 22.243414
69.990 21.981749
69.995 22.347729
70.000 22.468546
70.005 22.838648
70.010 23.173687
70.015 22.927219
70.020 22.744198
70.025 22.556896
70.030 22.219135
70.035 22.223597
70.040 21.447954
70.045 21.04567
70.050 20.746716
70.055 20.555212
70.060 20.27948
70.065 20.328365
70.070 19.839998
70.075 20.600183
70.080 21.051464
70.085 21.518322
70.090 21.571789
70.095 21.628897
70.100 22.112892
70.105 22.244867
70.110 21.712223
70.115 20.955999
70.120 20.678936
70.125 21.150051
70.130 21.04561
70.135 20.963329
70.140 21.09444
70.145 20.961012
70.150 21.877337
70.155 21.832365
70.160 21.560904
70.165 21.208218
70.170 20.599766
70.175 20.478453
70.180 20.445925
70.185 19.428368
70.190 19.338282
70.195 19.078091
70.200 19.518406
70.205 20.024124
70.210 19.925875
70.215 20.885635
70.220 21.723263
70.225 21.699089
70.230 21.74065
70.235 21.528193
70.240 21.387894
70.245 21.219551
70.250 20.485165
70.255 20.260012
70.260 20.701906
70.265 20.90126
70.270 20.780941
70.275 20.617023
70.280 20.722919
70.285 21.240114
70.290 21.105537
70.295 20.765265
70.300 20.480829
70.305 20.477394
70.310 20.492348
70.315 19.957699
70.320 19.614202
70.325 19.478502
70.330 19.559395
70.335 19.636326
70.340 19.167723
70.345 19.441292
70.350 19.507931
70.355 19.327415
70.360 19.292971
70.365 18.938665
70.370 18.998386
70.375 19.480352
70.380 19.561716
70.385 19.829941
70.390 20.130707
70.395 20.434402
70.400 21.118567
70.405 21.1775
70.410 21.147635
70.415 20.810286
70.420 20.518066
70.425 20.166857
70.430 20.137787
70.435 19.640007
70.440 19.514778
70.445 19.054361
70.450 19.503979
70.455 19.619036
70.460 19.622683
70.465 19.407742
70.470 19.187164
70.475 19.137964
70.480 19.347212
70.485 19.304655
70.490 19.247587
70.495 18.855021
70.500 18.352352
70.505 18.361523
70.510 18.510313
70.515 18.429823
70.520 17.694057
70.525 18.190228
70.530 18.674994
70.535 19.06353
70.540 19.523453
70.545 19.55101
70.550 19.391647
70.555 19.684694
70.560 19.254932
70.565 19.558468
70.570 19.38484
70.575 18.164873
70.580 18.584179
70.585 19.11417
70.590 19.053522
70.595 18.855078
70.600 19.127155
70.605 20.011759
70.610 20.806284
70.615 20.67827
70.620 20.778603
70.625 21.088799
70.630 21.419828
70.635 21.458673
70.640 21.406408
70.645 21.859657
70.650 21.236856
70.655 20.680353
70.660 20.830944
70.665 20.866508
70.670 19.885033
70.675 19.089533
70.680 17.986565
70.685 17.603703
70.690 17.476357
70.695 16.74428
70.700 16.56337
70.705 16.852686
70.710 17.356853
70.715 17.700108
70.720 18.354731
70.725 18.983318
70.730 19.318645
70.735 19.331863
70.740 18.972757
70.745 18.360001
70.750 19.173853
70.755 19.220835
70.760 19.539074
70.765 19.972599
70.770 20.024324
70.775 20.456839
70.780 21.376297
70.785 21.05303
70.790 21.085777
70.795 20.878817
70.800 20.595407
70.805 20.552328
70.810 20.850183
70.815 20.068882
70.820 20.57312
70.825 20.484695
70.830 19.859474
70.835 20.040421
70.840 19.99822
70.845 19.609631
70.850 19.75939
70.855 18.782497
70.860 18.872229
70.865 19.370201
70.870 19.599657
70.875 19.884216
70.880 19.538546
70.885 20.215059
70.890 20.874868
70.895 20.891714
70.900 20.340498
70.905 19.806425
70.910 19.780701
70.915 19.437956
70.920 18.358606
70.925 17.920399
70.930 17.834362
70.935 18.09145
70.940 18.552855
70.945 18.347317
70.950 18.789371
70.955 18.981993
70.960 19.096539
70.965 19.35219
70.970 19.656591
70.975 19.779631
70.980 20.374205
70.985 20.177254
70.990 20.309872
70.995 19.539181
71.000 18.983416
71.005 18.599335
71.010 18.353128
71.015 18.228586
71.020 18.129202
71.025 18.002306
71.030 18.701881
71.035 18.72263
71.040 19.06241
71.045 19.084038
71.050 19.276104
71.055 19.445974
71.060 18.796108
71.065 18.587759
71.070 18.524109
71.075 18.506269
71.080 18.155201
71.085 18.03787
71.090 18.453981
71.095 19.220667
71.100 19.28508
71.105 19.213858
71.110 18.959488
71.115 18.835379
71.120 18.81761
71.125 18.487673
71.130 18.459646
71.135 18.788795
71.140 18.867352
71.145 19.830528
71.150 20.015656
71.155 19.933067
71.160 20.364891
71.165 20.675871
71.170 20.502125
71.175 20.441389
71.180 20.213758
71.185 20.265141
71.190 20.361412
71.195 20.118511
71.200 20.210882
71.205 20.064856
71.210 19.515873
71.215 18.851173
71.220 19.204422
71.225 19.277431
71.230 18.689707
71.235 18.222977
71.240 18.434671
71.245 18.845598
71.250 19.719639
71.255 19.62886
71.260 20.059296
71.265 20.671547
71.270 20.618795
71.275 20.665401
71.280 20.377699
71.285 19.974325
71.290 19.777878
71.295 19.353037
71.300 18.716558
71.305 18.868555
71.310 18.705936
71.315 18.904011
71.320 18.642569
71.325 18.262659
71.330 18.385067
71.335 19.069979
71.340 18.938747
71.345 18.653147
71.350 18.326721
71.355 18.23381
71.360 18.760725
71.365 18.874802
71.370 19.073397
71.375 19.247169
71.380 19.050585
71.385 19.045233
71.390 19.037264
71.395 18.880314
71.400 18.877472
71.405 17.970221
71.410 18.049896
71.415 18.493708
71.420 18.857536
71.425 18.565037
71.430 18.178665
71.435 18.264648
71.440 18.565306
71.445 18.269131
71.450 18.470505
71.455 19.243109
71.460 19.540737
71.465 19.5145
71.470 19.498257
71.475 19.594152
71.480 19.878159
71.485 19.159391
71.490 18.459829
71.495 18.496414
71.500 18.456812
71.505 18.894735
71.510 19.539055
71.515 19.865532
71.520 19.939888
71.525 20.059757
71.530 20.260256
71.535 19.647257
71.540 19.046099
71.545 18.770443
71.550 18.742146
71.555 18.881969
71.560 18.55118
71.565 18.562012
71.570 18.629951
71.575 18.556416
71.580 18.475527
71.585 17.996513
71.590 17.980001
71.595 18.096886
71.600 17.908243
71.605 17.475771
71.610 17.698181
71.615 17.980097
71.620 18.280077
71.625 18.951359
71.630 19.914633
71.635 20.578468
71.640 21.130882
71.645 20.450132
71.650 20.724255
71.655 20.661123
71.660 19.886208
71.665 19.458778
71.670 19.70384
71.675 20.045477
71.680 20.209438
71.685 19.205519
71.690 19.628408
71.695 20.072233
71.700 19.876644
71.705 20.425413
71.710 20.543587
71.715 20.768314
71.720 21.524343
71.725 21.060143
71.730 20.853523
71.735 20.759296
71.740 20.304447
71.745 19.794678
71.750 19.661228
71.755 19.544598
71.760 19.624346
71.765 19.711744
71.770 19.240866
71.775 19.248314
71.780 20.07996
71.785 19.92934
71.790 18.912548
71.795 18.534353
71.800 18.398825
71.805 18.365698
71.810 18.083372
71.815 17.749607
71.820 17.800497
71.825 18.242701
71.830 18.437277
71.835 18.470669
71.840 18.391205
71.845 17.882507
71.850 18.043539
71.855 18.553549
71.860 18.545166
71.865 18.542366
71.870 18.668457
71.875 18.447052
71.880 18.38533
71.885 18.346697
71.890 18.962969
71.895 19.132298
71.900 19.35969
71.905 19.736897
71.910 20.454086
71.915 20.986814
71.920 20.357616
71.925 19.841602
71.930 19.498327
71.935 18.957729
71.940 18.96233
71.945 18.574247
71.950 18.404114
71.955 18.440273
71.960 18.363968
71.965 19.051083
71.970 19.563715
71.975 19.978554
71.980 19.968267
71.985 19.817879
71.990 19.645357
71.995 18.999947
72.000 18.467831
72.005 17.929956
72.010 17.774685
72.015 18.062031
72.020 17.763973
72.025 18.189148
72.030 18.761038
72.035 18.356071
72.040 18.235697
72.045 17.785355
72.050 17.694214
72.055 18.409067
72.060 18.336367
72.065 18.375145
72.070 19.349274
72.075 19.699398
72.080 19.993652
72.085 19.749466
72.090 19.325031
72.095 19.002386
72.100 19.207485
72.105 18.557444
72.110 18.662874
72.115 18.830284
72.120 19.502876
72.125 20.140217
72.130 20.5868
72.135 20.586624
72.140 20.312716
72.145 20.081066
72.150 19.462782
72.155 18.724792
72.160 18.694717
72.165 18.280563
72.170 17.870466
72.175 18.03758
72.180 17.823229
72.185 18.036572
72.190 17.897524
72.195 18.33602
72.200 18.322857
72.205 18.953657
72.210 19.352785
72.215 19.109325
72.220 19.033161
72.225 19.560894
72.230 19.332314
72.235 19.464741
72.240 19.440895
72.245 19.392164
72.250 19.37167
72.255 18.754076
72.260 17.856037
72.265 17.653412
72.270 17.844597
72.275 17.950085
72.280 17.940577
72.285 18.120684
72.290 18.812302
72.295 18.901937
72.300 18.486547
72.305 18.238966
72.310 18.126013
72.315 18.595211
72.320 18.657045
72.325 18.623005
72.330 18.805353
72.335 18.906544
72.340 18.783777
72.345 18.646906
72.350 18.805902
72.355 18.856508
72.360 18.347647
72.365 18.466784
72.370 18.479534
72.375 18.053789
72.380 17.784529
72.385 17.182053
72.390 16.901985
72.395 17.533863
72.400 17.958542
72.405 18.578323
72.410 18.906813
72.415 19.031857
72.420 19.253647
72.425 19.504126
72.430 19.45002
72.435 19.325073
72.440 18.766977
72.445 18.340477
72.450 18.05855
72.455 17.869879
72.460 17.668165
72.465 17.255989
72.470 17.290203
72.475 17.826319
72.480 18.569315
72.485 19.148252
72.490 19.470926
72.495 20.088232
72.500 19.78619
72.505 19.279734
72.510 18.385038
72.515 18.189201
72.520 17.898743
72.525 17.263559
72.530 17.13018
72.535 17.241083
72.540 17.697929
72.545 17.675081
72.550 18.340204
72.555 19.189028
72.560 19.12866
72.565 18.680946
72.570 18.952414
72.575 19.169912
72.580 19.59108
72.585 19.011145
72.590 18.774008
72.595 18.849428
72.600 19.022604
72.605 19.13187
72.610 18.822895
72.615 18.671579
72.620 18.509573
72.625 18.445784
72.630 18.409504
72.635 17.714882
72.640 17.076902
72.645 16.933556
72.650 16.476538
72.655 17.027048
72.660 17.441036
72.665 17.255611
72.670 17.501871
72.675 18.008287
72.680 18.115767
72.685 18.09359
72.690 17.33609
72.695 17.927
72.700 17.977486
72.705 17.766573
72.710 17.72287
72.715 17.937027
72.720 17.97934
72.725 17.5492
72.730 16.988565
72.735 17.572342
72.740 17.526617
72.745 17.22607
72.750 16.623001
72.755 16.625841
72.760 17.041397
72.765 17.550253
72.770 17.902411
72.775 18.419651
72.780 18.878992
72.785 19.450262
72.790 18.736963
72.795 18.399397
72.800 17.725832
72.805 17.415562
72.810 17.386736
72.815 17.431896
72.820 17.736296
72.825 18.271893
72.830 18.109404
72.835 18.309448
72.840 18.132637
72.845 18.144415
72.850 17.157265
72.855 16.942867
72.860 16.735435
72.865 16.198772
72.870 15.718825
72.875 15.695586
72.880 15.882771
72.885 16.335804
72.890 16.425568
72.895 16.946798
72.900 17.851677
72.905 17.766584
72.910 17.807957
72.915 18.23299
72.920 18.047251
72.925 18.281212
72.930 17.967787
72.935 17.729769
72.940 17.231529
72.945 16.496637
72.950 16.094513
72.955 16.048023
72.960 15.612679
72.965 15.544989
72.970 16.106531
72.975 16.423878
72.980 16.763506
72.985 16.670969
72.990 17.131039
72.995 17.913372
73.000 18.384499
