!@!!GADDS PLOTSO FILE: Chi integration type
!@!!Title/SampleName: map-166
!@!!Comment: ?
!@!!User: Bruker Instrument Administrator
!@!!Site: University of Illinois Chicago
!@!!Frame: map-166_01_000.gfrm
!@!!Wavelengths    1.54184   1.54056   1.54439
!@!!Frame angles: 2Theta: 63.000 Omega: 50.000 Phi: 0.000 Chi: 90.000
!@!!Integration range: 2Theta: 53.000 to 73.000  Gamma: -105.000 to -75.000
!@!!Integration method: bin normalized
!@!N
!@!SS
!@!M
!@!L 0.0 0.0 0.0 0.0
!@!XDegrees
!@!YCounts
53.000 3.92764
53.005 4.04248
53.010 4.00587
53.015 3.535322
53.020 3.562226
53.025 3.677246
53.030 3.927389
53.035 4.369364
53.040 4.751078
53.045 4.908004
53.050 4.669955
53.055 4.304367
53.060 4.296392
53.065 4.403192
53.070 4.316099
53.075 4.049995
53.080 4.394629
53.085 4.856043
53.090 4.871113
53.095 4.802811
53.100 4.892951
53.105 4.862669
53.110 4.998206
53.115 4.730415
53.120 4.430859
53.125 4.4775
53.130 4.104851
53.135 4.036511
53.140 3.777053
53.145 3.530606
53.150 3.682327
53.155 3.810522
53.160 3.734939
53.165 3.773012
53.170 3.675647
53.175 3.930189
53.180 3.954925
53.185 3.544303
53.190 3.851674
53.195 4.122011
53.200 4.050109
53.205 4.193711
53.210 4.205814
53.215 4.405689
53.220 4.743776
53.225 4.698015
53.230 4.705933
53.235 4.722888
53.240 4.641877
53.245 4.766472
53.250 4.507534
53.255 4.316607
53.260 4.164746
53.265 4.228425
53.270 4.200557
53.275 3.786455
53.280 3.752179
53.285 3.931815
53.290 4.044457
53.295 3.944081
53.300 3.750502
53.305 3.55059
53.310 3.827498
53.315 3.535606
53.320 3.450972
53.325 3.548299
53.330 3.534118
53.335 3.591709
53.340 3.785772
53.345 3.757874
53.350 3.926335
53.355 3.796526
53.360 3.464379
53.365 3.568162
53.370 3.330405
53.375 3.258377
53.380 3.464372
53.385 3.451678
53.390 3.774957
53.395 4.011032
53.400 4.200187
53.405 4.350992
53.410 4.243411
53.415 4.277823
53.420 4.459106
53.425 4.272608
53.430 4.247292
53.435 3.999352
53.440 4.078334
53.445 4.088748
53.450 3.683423
53.455 3.503583
53.460 3.444332
53.465 3.532612
53.470 3.60463
53.475 3.379758
53.480 3.478692
53.485 3.708995
53.490 3.43656
53.495 3.482047
53.500 3.641666
53.505 3.883743
53.510 3.933873
53.515 3.864522
53.520 3.648918
53.525 3.876595
53.530 3.942892
53.535 3.651399
53.540 3.581272
53.545 3.599711
53.550 3.552574
53.555 4.102611
53.560 3.927537
53.565 3.879454
53.570 4.00634
53.575 3.855505
53.580 3.981671
53.585 3.815643
53.590 3.557041
53.595 3.697084
53.600 3.527478
53.605 3.532297
53.610 3.598243
53.615 4.011449
53.620 4.17897
53.625 4.642198
53.630 4.757184
53.635 4.963284
53.640 5.040037
53.645 4.744607
53.650 4.56646
53.655 4.325362
53.660 3.766094
53.665 3.61711
53.670 3.650597
53.675 3.836652
53.680 4.030012
53.685 3.89079
53.690 3.853671
53.695 3.990668
53.700 4.059635
53.705 4.093229
53.710 3.932016
53.715 3.775428
53.720 3.993846
53.725 3.936973
53.730 3.850025
53.735 3.83515
53.740 3.752436
53.745 3.825985
53.750 3.726328
53.755 3.693477
53.760 4.039701
53.765 4.299317
53.770 4.238331
53.775 4.247977
53.780 4.184956
53.785 4.243432
53.790 4.357937
53.795 4.321307
53.800 4.00062
53.805 3.83935
53.810 3.768073
53.815 4.000172
53.820 4.147914
53.825 4.188461
53.830 4.136895
53.835 3.983995
53.840 4.035553
53.845 4.029278
53.850 3.751846
53.855 3.574075
53.860 3.080646
53.865 3.262269
53.870 3.706444
53.875 3.604929
53.880 3.733005
53.885 3.845199
53.890 4.009157
53.895 4.246823
53.900 4.106839
53.905 3.981063
53.910 4.129785
53.915 3.959595
53.920 3.927376
53.925 3.872317
53.930 3.695919
53.935 3.626056
53.940 3.644685
53.945 3.654934
53.950 3.6023
53.955 3.568049
53.960 3.593826
53.965 3.645194
53.970 3.534196
53.975 3.386339
53.980 3.269852
53.985 3.538873
53.990 3.511832
53.995 3.308016
54.000 3.465352
54.005 3.81776
54.010 4.083006
54.015 4.285086
54.020 4.351793
54.025 4.702757
54.030 4.908847
54.035 4.745842
54.040 4.295247
54.045 4.178725
54.050 3.924898
54.055 3.738271
54.060 3.50218
54.065 3.459477
54.070 3.662318
54.075 3.622812
54.080 3.841554
54.085 3.978956
54.090 3.798536
54.095 3.865273
54.100 4.007549
54.105 4.015297
54.110 3.944165
54.115 3.716411
54.120 3.709486
54.125 3.737216
54.130 3.731379
54.135 3.589497
54.140 3.52028
54.145 3.727738
54.150 3.77283
54.155 3.823872
54.160 3.60534
54.165 3.361748
54.170 3.295625
54.175 3.123445
54.180 2.919896
54.185 2.776288
54.190 2.731327
54.195 2.93779
54.200 3.032443
54.205 3.120905
54.210 3.135423
54.215 2.942958
54.220 3.017089
54.225 3.252506
54.230 3.319082
54.235 3.473976
54.240 3.738222
54.245 4.126716
54.250 4.453817
54.255 4.729632
54.260 4.649606
54.265 4.305726
54.270 4.28546
54.275 4.110624
54.280 4.107752
54.285 3.807028
54.290 3.622855
54.295 3.60396
54.300 3.830544
54.305 3.781174
54.310 3.594881
54.315 3.528032
54.320 3.883111
54.325 3.829175
54.330 3.953652
54.335 3.744439
54.340 3.987898
54.345 4.276958
54.350 4.308361
54.355 4.153031
54.360 4.173956
54.365 4.288304
54.370 4.436311
54.375 3.944157
54.380 3.77156
54.385 3.784181
54.390 3.794945
54.395 3.879649
54.400 3.905325
54.405 3.989612
54.410 4.053922
54.415 3.904758
54.420 3.725897
54.425 3.848859
54.430 3.795902
54.435 3.523258
54.440 3.354318
54.445 3.58792
54.450 3.714719
54.455 3.79802
54.460 3.458946
54.465 3.210245
54.470 3.462163
54.475 3.521012
54.480 3.438603
54.485 3.362421
54.490 3.071411
54.495 3.137288
54.500 3.18478
54.505 3.321637
54.510 3.421432
54.515 3.875779
54.520 4.293215
54.525 4.648493
54.530 5.056421
54.535 5.174236
54.540 4.948552
54.545 4.425885
54.550 3.984871
54.555 3.618785
54.560 3.060502
54.565 2.539734
54.570 2.414676
54.575 2.781191
54.580 2.948843
54.585 3.088877
54.590 3.487992
54.595 3.865046
54.600 4.28883
54.605 4.756844
54.610 4.416846
54.615 4.412853
54.620 4.531365
54.625 4.355099
54.630 4.474401
54.635 4.364507
54.640 4.435122
54.645 4.520974
54.650 4.233806
54.655 4.19857
54.660 4.309051
54.665 4.294914
54.670 4.276527
54.675 3.932894
54.680 4.099812
54.685 4.210253
54.690 4.332032
54.695 4.186606
54.700 4.161741
54.705 3.838408
54.710 3.596122
54.715 3.728238
54.720 3.850513
54.725 3.838999
54.730 3.85073
54.735 3.727773
54.740 3.956133
54.745 4.030704
54.750 3.849541
54.755 3.6914
54.760 3.573255
54.765 3.853187
54.770 3.909
54.775 3.809932
54.780 3.624852
54.785 3.472347
54.790 3.468212
54.795 3.618086
54.800 3.448524
54.805 3.422266
54.810 3.691562
54.815 4.047442
54.820 4.372866
54.825 4.562189
54.830 4.482563
54.835 4.371511
54.840 4.396409
54.845 4.296996
54.850 4.291649
54.855 4.150664
54.860 3.952173
54.865 3.979438
54.870 4.455581
54.875 4.49665
54.880 4.739017
54.885 4.424972
54.890 4.674215
54.895 4.81341
54.900 4.579638
54.905 4.255796
54.910 4.101702
54.915 3.957036
54.920 4.093857
54.925 3.914475
54.930 3.91953
54.935 4.029599
54.940 4.130401
54.945 4.406261
54.950 4.619345
54.955 4.461317
54.960 4.372993
54.965 4.647091
54.970 4.778565
54.975 4.495236
54.980 4.289065
54.985 4.386625
54.990 4.597452
54.995 4.577573
55.000 4.127983
55.005 4.014093
55.010 4.118935
55.015 4.100704
55.020 3.979163
55.025 3.903073
55.030 4.00616
55.035 4.337077
55.040 4.474305
55.045 4.565849
55.050 4.731575
55.055 5.185275
55.060 5.206108
55.065 4.885768
55.070 4.68569
55.075 4.706923
55.080 4.897289
55.085 4.744252
55.090 4.638629
55.095 4.447647
55.100 4.553298
55.105 4.552713
55.110 4.566856
55.115 4.415924
55.120 4.352041
55.125 4.010561
55.130 4.062197
55.135 4.219214
55.140 4.188322
55.145 3.766586
55.150 3.558632
55.155 3.556925
55.160 3.603496
55.165 3.764894
55.170 3.621858
55.175 3.882104
55.180 4.141501
55.185 4.400086
55.190 4.229155
55.195 4.193206
55.200 4.127536
55.205 4.272911
55.210 4.316151
55.215 4.224059
55.220 4.28954
55.225 4.408929
55.230 4.644465
55.235 4.715493
55.240 4.401714
55.245 4.363712
55.250 4.159689
55.255 4.147439
55.260 4.201384
55.265 4.312393
55.270 4.128374
55.275 4.346645
55.280 4.327771
55.285 4.555186
55.290 4.659231
55.295 4.461254
55.300 4.195902
55.305 3.982303
55.310 3.901256
55.315 4.019622
55.320 3.866098
55.325 3.503184
55.330 3.771976
55.335 4.052287
55.340 4.245377
55.345 4.376617
55.350 4.140432
55.355 4.189195
55.360 4.329456
55.365 4.181084
55.370 4.276295
55.375 4.364967
55.380 4.358571
55.385 4.505989
55.390 4.795206
55.395 4.984537
55.400 4.738168
55.405 4.762082
55.410 4.630639
55.415 4.646919
55.420 4.644493
55.425 4.501636
55.430 4.346448
55.435 4.745366
55.440 4.949283
55.445 4.867993
55.450 4.690506
55.455 4.664897
55.460 4.546191
55.465 4.466912
55.470 4.225949
55.475 4.223709
55.480 4.487424
55.485 4.463591
55.490 4.561837
55.495 4.722291
55.500 4.691397
55.505 4.368394
55.510 4.123459
55.515 4.046401
55.520 4.032136
55.525 3.792759
55.530 3.731169
55.535 4.069358
55.540 4.372074
55.545 4.34971
55.550 4.399783
55.555 4.540835
55.560 4.79951
55.565 4.838859
55.570 4.450716
55.575 4.4585
55.580 4.501659
55.585 4.569776
55.590 4.526146
55.595 4.1903
55.600 3.965765
55.605 3.947034
55.610 3.890761
55.615 3.73359
55.620 3.46764
55.625 3.345543
55.630 3.518525
55.635 3.81942
55.640 4.316989
55.645 4.363156
55.650 4.359941
55.655 4.759347
55.660 5.176697
55.665 5.136336
55.670 4.957292
55.675 4.682996
55.680 4.567848
55.685 4.394059
55.690 4.097169
55.695 3.964035
55.700 4.035961
55.705 4.147761
55.710 4.293559
55.715 4.340715
55.720 4.622258
55.725 4.68829
55.730 4.743247
55.735 4.748418
55.740 4.480753
55.745 4.405812
55.750 4.652802
55.755 4.360754
55.760 4.073569
55.765 3.871867
55.770 3.816055
55.775 4.28914
55.780 4.483797
55.785 4.682095
55.790 4.750134
55.795 4.912983
55.800 5.144349
55.805 5.001939
55.810 4.342297
55.815 3.98429
55.820 3.76806
55.825 4.143526
55.830 4.427281
55.835 4.535311
55.840 4.853887
55.845 5.054679
55.850 5.290942
55.855 5.332458
55.860 5.053381
55.865 4.830859
55.870 4.392754
55.875 4.354729
55.880 4.378945
55.885 4.589494
55.890 4.655918
55.895 4.522551
55.900 4.576416
55.905 4.761393
55.910 4.500231
55.915 4.335837
55.920 4.066481
55.925 3.918633
55.930 3.860944
55.935 3.918421
55.940 4.015723
55.945 4.354621
55.950 4.592437
55.955 4.505605
55.960 4.379633
55.965 4.314157
55.970 4.27234
55.975 4.315621
55.980 4.179009
55.985 3.881365
55.990 3.889501
55.995 4.232482
56.000 4.18078
56.005 4.105128
56.010 4.218541
56.015 4.503647
56.020 4.791771
56.025 4.593076
56.030 4.732951
56.035 4.697023
56.040 4.558723
56.045 4.124924
56.050 3.603135
56.055 3.557581
56.060 3.670372
56.065 3.352716
56.070 3.342251
56.075 3.14935
56.080 3.214984
56.085 3.512803
56.090 3.192297
56.095 3.27244
56.100 3.610734
56.105 4.029027
56.110 4.884225
56.115 5.084583
56.120 5.092197
56.125 5.285916
56.130 5.225762
56.135 5.242252
56.140 5.014098
56.145 4.577107
56.150 4.801702
56.155 4.615353
56.160 4.900878
56.165 4.894491
56.170 4.702908
56.175 4.589446
56.180 4.445819
56.185 4.399062
56.190 4.619682
56.195 4.369209
56.200 4.475345
56.205 4.531957
56.210 4.703438
56.215 4.69121
56.220 4.98958
56.225 5.054816
56.230 4.96989
56.235 4.969701
56.240 5.151046
56.245 5.168494
56.250 4.883467
56.255 4.479916
56.260 4.784619
56.265 4.939947
56.270 4.633818
56.275 4.338671
56.280 4.234448
56.285 4.213311
56.290 4.17464
56.295 3.793396
56.300 3.852741
56.305 4.112992
56.310 4.139521
56.315 4.305479
56.320 4.583866
56.325 4.514356
56.330 4.626507
56.335 5.050852
56.340 5.067495
56.345 5.182398
56.350 5.333714
56.355 5.472471
56.360 5.458782
56.365 5.269912
56.370 4.734622
56.375 4.620903
56.380 4.546847
56.385 4.485357
56.390 4.440869
56.395 4.429488
56.400 4.438315
56.405 4.594017
56.410 4.824645
56.415 4.808469
56.420 4.984949
56.425 4.909567
56.430 5.065306
56.435 5.129533
56.440 5.110365
56.445 4.745865
56.450 4.592052
56.455 4.550077
56.460 4.678649
56.465 4.783257
56.470 4.890391
56.475 4.843132
56.480 4.938352
56.485 4.961946
56.490 4.759021
56.495 4.868472
56.500 4.818096
56.505 4.842924
56.510 4.867589
56.515 4.888266
56.520 4.966488
56.525 5.060491
56.530 4.885594
56.535 4.617962
56.540 4.835944
56.545 5.06388
56.550 5.464884
56.555 5.624134
56.560 5.340554
56.565 5.138711
56.570 4.971236
56.575 4.62335
56.580 4.314367
56.585 3.897657
56.590 3.53268
56.595 3.574988
56.600 3.633086
56.605 3.789179
56.610 3.915793
56.615 3.839777
56.620 4.04156
56.625 3.994789
56.630 4.075138
56.635 4.273526
56.640 4.171229
56.645 4.307867
56.650 4.541172
56.655 4.702212
56.660 4.686688
56.665 4.573516
56.670 4.678454
56.675 4.698907
56.680 4.774457
56.685 4.673923
56.690 4.8743
56.695 5.53761
56.700 5.693323
56.705 5.791819
56.710 5.922648
56.715 5.539734
56.720 5.505091
56.725 5.411248
56.730 4.772521
56.735 4.415616
56.740 4.455164
56.745 4.748993
56.750 4.918055
56.755 4.701604
56.760 4.525347
56.765 5.085326
56.770 5.208557
56.775 4.699769
56.780 4.389858
56.785 4.387244
56.790 4.476011
56.795 4.332595
56.800 4.370316
56.805 5.025834
56.810 5.473903
56.815 5.588147
56.820 5.628211
56.825 5.597429
56.830 5.600391
56.835 5.28485
56.840 4.518678
56.845 4.352318
56.850 4.169875
56.855 3.862474
56.860 3.802839
56.865 3.684416
56.870 3.557177
56.875 3.90405
56.880 4.061841
56.885 4.228363
56.890 4.42593
56.895 4.694807
56.900 4.869643
56.905 4.8676
56.910 4.610066
56.915 4.567961
56.920 4.490122
56.925 4.349875
56.930 4.158767
56.935 4.088806
56.940 4.206518
56.945 4.270732
56.950 4.01417
56.955 4.227327
56.960 4.673748
56.965 4.54084
56.970 4.199241
56.975 4.196871
56.980 4.227817
56.985 4.250404
56.990 3.90228
56.995 3.812138
57.000 4.116034
57.005 4.493139
57.010 4.653235
57.015 4.767315
57.020 4.843443
57.025 4.933005
57.030 4.877579
57.035 4.697852
57.040 4.666803
57.045 4.426925
57.050 4.568453
57.055 4.752259
57.060 4.876392
57.065 5.162486
57.070 5.415072
57.075 5.552641
57.080 5.419797
57.085 5.183133
57.090 4.90097
57.095 4.806034
57.100 4.47345
57.105 4.557016
57.110 4.564884
57.115 4.912146
57.120 5.174284
57.125 5.3015
57.130 5.445461
57.135 5.467816
57.140 5.020943
57.145 4.834426
57.150 4.58818
57.155 4.524667
57.160 4.541861
57.165 4.505242
57.170 4.439476
57.175 4.572355
57.180 4.558538
57.185 4.636377
57.190 4.78944
57.195 4.623496
57.200 4.144126
57.205 4.097586
57.210 3.905723
57.215 4.206
57.220 4.35835
57.225 4.205585
57.230 4.507108
57.235 4.611333
57.240 4.93693
57.245 5.076134
57.250 4.72198
57.255 4.73219
57.260 4.760017
57.265 4.941078
57.270 5.244702
57.275 5.183017
57.280 5.186273
57.285 5.045177
57.290 4.749219
57.295 4.904349
57.300 4.942418
57.305 4.688491
57.310 4.457211
57.315 4.351556
57.320 4.503371
57.325 5.030676
57.330 4.936743
57.335 4.506701
57.340 4.83883
57.345 5.214855
57.350 5.482898
57.355 5.320265
57.360 4.499895
57.365 4.569539
57.370 4.980541
57.375 4.656854
57.380 4.485618
57.385 4.411692
57.390 4.764678
57.395 5.168689
57.400 5.134398
57.405 4.77729
57.410 4.796609
57.415 4.744576
57.420 4.943207
57.425 4.62794
57.430 4.248258
57.435 4.242955
57.440 4.23954
57.445 4.253004
57.450 4.34592
57.455 4.546419
57.460 4.871365
57.465 5.331549
57.470 5.571394
57.475 5.686955
57.480 5.589783
57.485 5.429809
57.490 5.536286
57.495 5.338964
57.500 4.932168
57.505 4.57309
57.510 4.506274
57.515 4.741629
57.520 4.655654
57.525 4.295194
57.530 4.434985
57.535 5.031221
57.540 5.129159
57.545 5.327859
57.550 5.41003
57.555 5.52513
57.560 5.927628
57.565 5.578923
57.570 5.274562
57.575 5.512097
57.580 5.639135
57.585 5.681464
57.590 5.513928
57.595 5.267004
57.600 5.264332
57.605 5.097195
57.610 5.119348
57.615 5.090245
57.620 5.043304
57.625 5.308827
57.630 5.285693
57.635 5.323956
57.640 5.418599
57.645 5.356718
57.650 5.294802
57.655 5.110737
57.660 4.754683
57.665 5.066295
57.670 5.03372
57.675 5.081226
57.680 5.07762
57.685 5.044913
57.690 5.287561
57.695 5.537791
57.700 5.224198
57.705 5.179976
57.710 5.059152
57.715 4.929713
57.720 4.678773
57.725 4.420735
57.730 4.00024
57.735 3.966586
57.740 4.225142
57.745 4.22745
57.750 4.388213
57.755 4.617026
57.760 4.753376
57.765 4.936306
57.770 5.070667
57.775 5.148661
57.780 5.491995
57.785 5.572927
57.790 5.754087
57.795 5.53846
57.800 5.545342
57.805 5.77352
57.810 5.365654
57.815 5.192657
57.820 4.919877
57.825 4.687756
57.830 4.742516
57.835 4.680428
57.840 4.425686
57.845 4.687958
57.850 4.632638
57.855 4.661352
57.860 4.671478
57.865 4.675113
57.870 4.640559
57.875 4.660009
57.880 4.747657
57.885 4.998669
57.890 5.158415
57.895 5.071787
57.900 5.595075
57.905 5.736294
57.910 5.949462
57.915 5.993027
57.920 6.213602
57.925 6.211155
57.930 6.037248
57.935 5.423791
57.940 5.27302
57.945 5.074492
57.950 4.824709
57.955 4.477861
57.960 4.636735
57.965 4.673462
57.970 4.669896
57.975 4.614764
57.980 4.505877
57.985 4.410993
57.990 4.525654
57.995 4.345993
58.000 4.664226
58.005 4.909191
58.010 5.154726
58.015 5.146761
58.020 5.078357
58.025 5.060034
58.030 5.130106
58.035 5.064199
58.040 4.854873
58.045 5.015257
58.050 5.263463
58.055 5.238952
58.060 5.301929
58.065 5.348541
58.070 5.791885
58.075 6.250717
58.080 6.384864
58.085 6.548813
58.090 6.416364
58.095 6.420333
58.100 6.312344
58.105 5.866365
58.110 5.637172
58.115 5.846055
58.120 5.915699
58.125 6.465335
58.130 6.546976
58.135 6.734464
58.140 6.873977
58.145 6.705569
58.150 6.127085
58.155 5.964914
58.160 5.445315
58.165 5.345729
58.170 4.977284
58.175 4.438627
58.180 4.276084
58.185 4.080743
58.190 3.789719
58.195 3.631094
58.200 3.437423
58.205 3.646118
58.210 3.6663
58.215 3.947283
58.220 4.324725
58.225 4.902048
58.230 5.175709
58.235 5.385743
58.240 5.501068
58.245 5.842027
58.250 6.003078
58.255 5.791553
58.260 5.472122
58.265 5.310728
58.270 5.378329
58.275 5.266338
58.280 5.217825
58.285 4.990026
58.290 5.225327
58.295 5.213511
58.300 5.376485
58.305 5.506472
58.310 5.642112
58.315 5.680092
58.320 5.815298
58.325 5.718493
58.330 5.792718
58.335 5.565436
58.340 5.370969
58.345 5.237017
58.350 5.131526
58.355 5.131949
58.360 4.710809
58.365 4.644762
58.370 4.623108
58.375 4.72497
58.380 4.855058
58.385 4.989076
58.390 4.983264
58.395 5.42366
58.400 5.800058
58.405 5.80572
58.410 5.873128
58.415 5.774177
58.420 5.968409
58.425 6.168801
58.430 6.115709
58.435 5.989839
58.440 6.168094
58.445 6.331202
58.450 6.557385
58.455 6.277144
58.460 6.254869
58.465 6.038822
58.470 6.067192
58.475 6.041774
58.480 5.797485
58.485 5.673631
58.490 5.883636
58.495 5.996284
58.500 6.231279
58.505 6.291594
58.510 6.208875
58.515 6.080636
58.520 5.843188
58.525 5.528631
58.530 5.562517
58.535 5.577791
58.540 5.316951
58.545 5.338703
58.550 5.597514
58.555 5.766941
58.560 5.871519
58.565 5.629435
58.570 5.843448
58.575 6.021916
58.580 5.973546
58.585 6.019959
58.590 6.327567
58.595 6.42896
58.600 6.462409
58.605 6.542055
58.610 6.895082
58.615 7.198265
58.620 7.072414
58.625 6.98394
58.630 7.251497
58.635 7.447369
58.640 7.33408
58.645 7.223964
58.650 7.06515
58.655 7.198537
58.660 7.355297
58.665 7.15855
58.670 7.206947
58.675 7.230931
58.680 7.188996
58.685 7.210189
58.690 6.984163
58.695 6.900957
58.700 7.133156
58.705 7.217731
58.710 7.166136
58.715 6.985955
58.720 6.951061
58.725 7.4573
58.730 7.277578
58.735 6.857769
58.740 6.606578
58.745 6.885169
58.750 7.256006
58.755 7.374559
58.760 7.34656
58.765 7.308177
58.770 7.173892
58.775 7.130969
58.780 6.81635
58.785 6.450406
58.790 6.529932
58.795 6.518489
58.800 6.433163
58.805 6.309689
58.810 6.440051
58.815 6.555497
58.820 6.698442
58.825 6.597221
58.830 6.436063
58.835 6.805912
58.840 6.970417
58.845 6.741105
58.850 6.394757
58.855 6.170434
58.860 6.166507
58.865 6.150184
58.870 5.958563
58.875 5.669632
58.880 5.750393
58.885 6.100419
58.890 6.235079
58.895 5.907591
58.900 5.778027
58.905 5.700759
58.910 5.844218
58.915 5.761149
58.920 5.457806
58.925 5.162397
58.930 5.285629
58.935 5.070443
58.940 5.130126
58.945 5.135279
58.950 4.906909
58.955 5.120981
58.960 5.366517
58.965 5.365651
58.970 5.505111
58.975 5.200611
58.980 4.854547
58.985 4.790231
58.990 5.035474
58.995 5.184461
59.000 5.083039
59.005 5.114483
59.010 5.459752
59.015 5.71181
59.020 5.947238
59.025 5.5489
59.030 5.526034
59.035 5.921146
59.040 5.909243
59.045 5.964276
59.050 5.677247
59.055 5.453967
59.060 5.590436
59.065 5.501789
59.070 5.631564
59.075 5.803199
59.080 5.678163
59.085 5.928316
59.090 5.701251
59.095 5.651369
59.100 5.529731
59.105 5.085104
59.110 4.732023
59.115 4.800209
59.120 4.782016
59.125 4.864938
59.130 4.75218
59.135 4.838153
59.140 5.010753
59.145 5.088057
59.150 4.683666
59.155 4.659276
59.160 4.575172
59.165 4.343896
59.170 3.879318
59.175 3.675982
59.180 3.606494
59.185 4.040521
59.190 4.006807
59.195 4.271258
59.200 4.658472
59.205 5.163279
59.210 5.641785
59.215 6.13225
59.220 6.061255
59.225 6.270361
59.230 5.990117
59.235 5.723995
59.240 5.416526
59.245 5.136318
59.250 4.749531
59.255 4.630209
59.260 4.47521
59.265 4.647371
59.270 5.040841
59.275 5.152501
59.280 5.468726
59.285 5.966163
59.290 6.450492
59.295 6.693948
59.300 6.60874
59.305 6.528301
59.310 6.25483
59.315 5.814925
59.320 5.16813
59.325 4.750781
59.330 4.664313
59.335 4.676252
59.340 4.720388
59.345 4.776534
59.350 4.805866
59.355 4.944875
59.360 5.200904
59.365 5.316374
59.370 5.28903
59.375 5.184761
59.380 5.244883
59.385 5.320636
59.390 5.760513
59.395 5.631722
59.400 5.575814
59.405 5.532977
59.410 5.475552
59.415 5.268165
59.420 5.290171
59.425 5.307608
59.430 5.19515
59.435 5.238999
59.440 5.365289
59.445 5.329494
59.450 5.272168
59.455 4.989017
59.460 4.81363
59.465 4.894325
59.470 4.583662
59.475 4.424237
59.480 4.85804
59.485 5.098335
59.490 5.49184
59.495 5.647232
59.500 5.803204
59.505 6.150683
59.510 6.393586
59.515 6.031034
59.520 5.810334
59.525 5.241756
59.530 4.727075
59.535 4.771836
59.540 4.548484
59.545 4.469689
59.550 4.794054
59.555 5.102722
59.560 5.441037
59.565 5.799179
59.570 5.67698
59.575 5.827563
59.580 5.602541
59.585 5.335077
59.590 5.202434
59.595 5.015513
59.600 4.861575
59.605 4.956189
59.610 4.813228
59.615 4.89421
59.620 4.785398
59.625 4.940699
59.630 5.19382
59.635 5.219388
59.640 5.18228
59.645 5.207192
59.650 5.218523
59.655 5.255811
59.660 5.429231
59.665 5.342325
59.670 5.24402
59.675 5.389016
59.680 5.444767
59.685 5.596149
59.690 5.70458
59.695 5.443668
59.700 6.137299
59.705 6.474822
59.710 6.391592
59.715 6.156062
59.720 5.818112
59.725 5.729208
59.730 5.865429
59.735 5.610028
59.740 5.506515
59.745 5.553468
59.750 5.834153
59.755 6.248104
59.760 6.256798
59.765 5.782789
59.770 5.515311
59.775 5.518778
59.780 5.555387
59.785 5.621329
59.790 5.504414
59.795 5.559251
59.800 5.698399
59.805 5.669876
59.810 5.851302
59.815 6.097155
59.820 6.047585
59.825 6.070354
59.830 6.421455
59.835 6.497026
59.840 6.480903
59.845 6.004105
59.850 5.640603
59.855 5.608054
59.860 5.353785
59.865 5.052982
59.870 5.118405
59.875 4.950181
59.880 5.144282
59.885 5.017334
59.890 5.382994
59.895 5.469823
59.900 5.098018
59.905 5.163783
59.910 5.335895
59.915 5.445202
59.920 5.457974
59.925 5.063638
59.930 5.44629
59.935 5.971863
59.940 5.658573
59.945 5.638999
59.950 5.589853
59.955 5.616711
59.960 5.69556
59.965 5.627244
59.970 5.542952
59.975 5.568545
59.980 5.480955
59.985 5.332091
59.990 5.362627
59.995 5.329813
60.000 5.160281
60.005 5.124171
60.010 5.483413
60.015 5.645776
60.020 5.825602
60.025 6.090888
60.030 6.035622
60.035 6.095726
60.040 6.113102
60.045 6.06318
60.050 5.789886
60.055 5.773615
60.060 5.614095
60.065 5.324382
60.070 4.958828
60.075 5.026433
60.080 4.954417
60.085 4.828588
60.090 4.543706
60.095 4.395548
60.100 4.631475
60.105 4.802526
60.110 4.700833
60.115 4.581872
60.120 5.058928
60.125 5.414895
60.130 5.564723
60.135 5.612376
60.140 5.72414
60.145 5.732431
60.150 5.640342
60.155 5.265038
60.160 5.015427
60.165 5.04446
60.170 4.979238
60.175 4.960892
60.180 4.804107
60.185 5.182623
60.190 5.522403
60.195 5.780921
60.200 5.874515
60.205 6.02559
60.210 6.044683
60.215 6.155232
60.220 5.760698
60.225 5.441163
60.230 5.34061
60.235 5.130323
60.240 5.096756
60.245 5.186884
60.250 5.118824
60.255 5.157484
60.260 5.373036
60.265 5.31004
60.270 5.17233
60.275 4.931778
60.280 4.657934
60.285 4.736484
60.290 4.823205
60.295 4.608741
60.300 4.41456
60.305 4.715617
60.310 4.977431
60.315 5.3617
60.320 5.394147
60.325 5.103657
60.330 4.895699
60.335 4.823766
60.340 4.559293
60.345 4.226415
60.350 4.105897
60.355 4.057909
60.360 4.244123
60.365 4.39643
60.370 4.572132
60.375 4.68948
60.380 4.848473
60.385 4.581053
60.390 4.542809
60.395 5.098964
60.400 5.192353
60.405 5.073308
60.410 5.290325
60.415 5.393265
60.420 5.646856
60.425 5.539825
60.430 5.013372
60.435 4.80643
60.440 4.833642
60.445 4.865571
60.450 4.582619
60.455 4.505754
60.460 4.769389
60.465 4.88088
60.470 4.994054
60.475 4.776186
60.480 4.658334
60.485 4.741672
60.490 4.55544
60.495 4.547148
60.500 4.694494
60.505 5.040081
60.510 5.050543
60.515 4.972579
60.520 4.953577
60.525 5.261104
60.530 5.434775
60.535 5.395868
60.540 5.26824
60.545 5.649595
60.550 5.875478
60.555 5.870118
60.560 5.610834
60.565 5.439326
60.570 5.254581
60.575 5.070416
60.580 5.232154
60.585 5.481505
60.590 5.690645
60.595 5.58508
60.600 5.56679
60.605 5.436888
60.610 5.360715
60.615 4.99574
60.620 4.790549
60.625 4.732234
60.630 5.092075
60.635 5.285189
60.640 5.707914
60.645 6.133957
60.650 6.021953
60.655 5.920649
60.660 5.777692
60.665 5.637402
60.670 5.354491
60.675 5.153605
60.680 4.92785
60.685 5.206776
60.690 5.201448
60.695 5.280573
60.700 5.266636
60.705 5.517106
60.710 5.881155
60.715 5.650581
60.720 5.584904
60.725 5.759544
60.730 5.681985
60.735 5.427671
60.740 5.089566
60.745 5.015679
60.750 5.303242
60.755 5.142622
60.760 5.296853
60.765 5.821571
60.770 6.397459
60.775 6.500948
60.780 6.239146
60.785 6.543125
60.790 6.606639
60.795 6.434665
60.800 6.041424
60.805 5.632614
60.810 5.507607
60.815 5.499172
60.820 5.095752
60.825 4.977626
60.830 4.698409
60.835 4.403973
60.840 4.457264
60.845 4.645973
60.850 4.790782
60.855 4.969625
60.860 4.993928
60.865 5.497736
60.870 5.696191
60.875 5.818895
60.880 6.088639
60.885 6.128084
60.890 6.078279
60.895 6.166948
60.900 6.154734
60.905 6.372074
60.910 6.502763
60.915 6.069706
60.920 6.036457
60.925 5.925913
60.930 5.732617
60.935 5.382178
60.940 5.310947
60.945 5.256892
60.950 5.382343
60.955 5.135971
60.960 5.236325
60.965 5.455606
60.970 5.863638
60.975 5.818222
60.980 5.756673
60.985 5.87384
60.990 6.206028
60.995 6.444116
61.000 6.579518
61.005 6.379822
61.010 6.293835
61.015 6.069775
61.020 5.815646
61.025 5.7184
61.030 5.510844
61.035 5.017671
61.040 4.794855
61.045 4.914803
61.050 4.738467
61.055 4.726794
61.060 4.795972
61.065 4.848083
61.070 4.982179
61.075 5.212835
61.080 5.187201
61.085 5.343426
61.090 5.380548
61.095 5.027826
61.100 4.92909
61.105 5.237832
61.110 4.919722
61.115 4.894969
61.120 5.180664
61.125 5.258509
61.130 5.57321
61.135 5.587153
61.140 5.318232
61.145 5.484287
61.150 5.43084
61.155 5.253831
61.160 5.033387
61.165 5.092645
61.170 5.053257
61.175 5.247973
61.180 5.248765
61.185 5.282403
61.190 5.60322
61.195 6.046143
61.200 6.313859
61.205 6.381393
61.210 6.295506
61.215 6.521574
61.220 6.635446
61.225 6.418249
61.230 6.069234
61.235 5.647403
61.240 5.675654
61.245 5.789547
61.250 5.86746
61.255 6.007049
61.260 5.899457
61.265 6.169719
61.270 6.502405
61.275 6.639493
61.280 6.348369
61.285 6.246441
61.290 6.031668
61.295 6.25468
61.300 6.26221
61.305 6.029237
61.310 6.018896
61.315 6.084319
61.320 5.773684
61.325 5.608877
61.330 5.442761
61.335 5.14763
61.340 4.974834
61.345 4.989853
61.350 5.070228
61.355 5.288489
61.360 5.356784
61.365 5.4874
61.370 5.76996
61.375 6.030097
61.380 5.747859
61.385 5.5069
61.390 5.304714
61.395 5.377539
61.400 5.272944
61.405 4.78813
61.410 4.483644
61.415 4.796504
61.420 5.086404
61.425 5.433903
61.430 5.397901
61.435 5.18724
61.440 5.584449
61.445 6.024732
61.450 6.090049
61.455 5.981246
61.460 5.7578
61.465 5.581885
61.470 5.838082
61.475 5.59775
61.480 5.288279
61.485 5.055811
61.490 5.026006
61.495 5.253517
61.500 5.346431
61.505 5.35783
61.510 5.417531
61.515 5.85556
61.520 5.931529
61.525 5.909507
61.530 5.701537
61.535 5.788494
61.540 6.217591
61.545 6.392764
61.550 6.16236
61.555 6.264804
61.560 6.239235
61.565 6.266891
61.570 6.342789
61.575 6.116703
61.580 5.756629
61.585 5.390573
61.590 5.350028
61.595 5.763782
61.600 6.25949
61.605 6.259454
61.610 6.591816
61.615 6.988042
61.620 7.343915
61.625 7.177706
61.630 6.778937
61.635 6.294908
61.640 6.282913
61.645 5.723442
61.650 5.293939
61.655 4.94813
61.660 4.846968
61.665 4.779222
61.670 4.941842
61.675 4.863337
61.680 5.154624
61.685 5.487652
61.690 5.773417
61.695 6.129298
61.700 6.251478
61.705 6.096908
61.710 5.832281
61.715 5.91369
61.720 5.8069
61.725 5.746573
61.730 5.847947
61.735 5.982807
61.740 5.993543
61.745 6.235302
61.750 6.748317
61.755 6.864487
61.760 7.009411
61.765 6.780433
61.770 6.293849
61.775 6.429045
61.780 6.13497
61.785 5.417843
61.790 5.33063
61.795 5.335476
61.800 5.327219
61.805 5.667218
61.810 5.8
61.815 6.07968
61.820 6.350707
61.825 6.42504
61.830 6.291677
61.835 6.330063
61.840 6.350555
61.845 6.433094
61.850 6.134774
61.855 5.655634
61.860 5.597872
61.865 5.614173
61.870 5.52776
61.875 5.616992
61.880 5.606557
61.885 5.61417
61.890 5.861334
61.895 5.670642
61.900 5.612181
61.905 5.385746
61.910 5.291487
61.915 5.05998
61.920 4.956761
61.925 4.730267
61.930 5.041725
61.935 5.058826
61.940 5.010059
61.945 5.178628
61.950 5.631511
61.955 5.742653
61.960 5.957993
61.965 5.790374
61.970 5.874564
61.975 6.32228
61.980 5.817405
61.985 5.28763
61.990 5.267282
61.995 4.883568
62.000 4.737361
62.005 4.675559
62.010 4.598638
62.015 4.904609
62.020 5.197598
62.025 5.389387
62.030 5.814573
62.035 6.032073
62.040 5.89141
62.045 5.80962
62.050 6.161078
62.055 6.173611
62.060 6.39662
62.065 6.108159
62.070 6.237411
62.075 6.530795
62.080 6.308327
62.085 5.989367
62.090 5.936099
62.095 5.903366
62.100 6.144568
62.105 5.72969
62.110 5.785906
62.115 6.027692
62.120 6.055819
62.125 6.288128
62.130 6.264081
62.135 6.289896
62.140 6.65081
62.145 6.676086
62.150 6.480268
62.155 6.739568
62.160 6.754949
62.165 6.990197
62.170 7.082241
62.175 6.776953
62.180 6.697564
62.185 6.907424
62.190 6.623002
62.195 6.44249
62.200 6.319063
62.205 5.982211
62.210 6.037625
62.215 6.126872
62.220 6.042484
62.225 5.794139
62.230 5.597137
62.235 5.855054
62.240 6.200012
62.245 6.06463
62.250 5.843829
62.255 5.926108
62.260 6.426374
62.265 6.523005
62.270 6.239747
62.275 6.181223
62.280 6.364795
62.285 6.487677
62.290 6.267164
62.295 5.853509
62.300 6.137516
62.305 6.521708
62.310 6.755929
62.315 6.905593
62.320 6.767302
62.325 6.802118
62.330 6.768545
62.335 6.548162
62.340 6.42011
62.345 6.16666
62.350 5.74435
62.355 5.829532
62.360 5.992142
62.365 5.94295
62.370 5.993383
62.375 5.972017
62.380 6.093494
62.385 6.333604
62.390 6.329719
62.395 6.141256
62.400 6.099974
62.405 5.548792
62.410 5.046476
62.415 4.776491
62.420 5.069802
62.425 5.264638
62.430 5.212383
62.435 5.41591
62.440 5.81602
62.445 6.139668
62.450 6.428123
62.455 6.250305
62.460 6.364964
62.465 6.572016
62.470 6.232232
62.475 6.050581
62.480 6.258346
62.485 6.355478
62.490 6.209803
62.495 5.861453
62.500 5.778445
62.505 5.972569
62.510 6.071066
62.515 6.093037
62.520 6.059839
62.525 6.155827
62.530 6.107045
62.535 6.046947
62.540 6.011805
62.545 5.978461
62.550 5.655548
62.555 5.424644
62.560 5.541037
62.565 5.719543
62.570 5.865174
62.575 6.102397
62.580 5.905672
62.585 5.916276
62.590 6.043459
62.595 5.955461
62.600 5.833125
62.605 5.741356
62.610 5.582427
62.615 5.790658
62.620 5.963202
62.625 5.93432
62.630 5.959754
62.635 6.243024
62.640 6.249794
62.645 6.189892
62.650 6.191614
62.655 5.935153
62.660 6.21705
62.665 6.397968
62.670 6.147887
62.675 6.328495
62.680 6.614003
62.685 6.95931
62.690 7.481825
62.695 7.651552
62.700 7.768916
62.705 7.998003
62.710 7.927581
62.715 7.910327
62.720 7.515086
62.725 6.868794
62.730 6.396741
62.735 6.297092
62.740 6.340147
62.745 6.395897
62.750 6.431694
62.755 6.663842
62.760 7.191871
62.765 7.210104
62.770 7.048782
62.775 6.88589
62.780 6.5859
62.785 6.282884
62.790 5.928478
62.795 5.689288
62.800 5.976357
62.805 6.075773
62.810 6.282129
62.815 6.479619
62.820 6.560171
62.825 6.873454
62.830 6.836087
62.835 6.688462
62.840 6.702336
62.845 6.573065
62.850 6.422348
62.855 6.240732
62.860 5.825639
62.865 5.861814
62.870 5.785706
62.875 5.634164
62.880 5.088409
62.885 4.854312
62.890 4.643076
62.895 4.532126
62.900 4.594675
62.905 4.79379
62.910 5.02106
62.915 5.589539
62.920 5.851572
62.925 6.015153
62.930 6.413403
62.935 6.325693
62.940 6.139455
62.945 5.906667
62.950 5.817489
62.955 5.580728
62.960 5.700344
62.965 5.442912
62.970 5.39226
62.975 5.290289
62.980 5.479882
62.985 5.985124
62.990 6.64244
62.995 6.839309
63.000 6.847938
63.005 6.60329
63.010 6.451035
63.015 6.440928
63.020 6.283408
63.025 6.266491
63.030 6.200686
63.035 6.320919
63.040 6.773593
63.045 6.919177
63.050 6.922581
63.055 6.944863
63.060 6.65277
63.065 6.678617
63.070 6.674262
63.075 6.216415
63.080 6.392814
63.085 6.258829
63.090 5.667459
63.095 5.452617
63.100 5.174811
63.105 5.372364
63.110 5.893782
63.115 5.934046
63.120 5.995714
63.125 6.365181
63.130 6.718985
63.135 7.184746
63.140 7.496132
63.145 7.317024
63.150 7.171407
63.155 7.183939
63.160 6.983959
63.165 6.897306
63.170 7.089364
63.175 6.814256
63.180 6.685799
63.185 6.647681
63.190 6.721769
63.195 6.952163
63.200 7.256895
63.205 7.016825
63.210 6.712736
63.215 6.537708
63.220 6.301199
63.225 6.592682
63.230 6.806809
63.235 6.450077
63.240 6.286847
63.245 6.285474
63.250 6.526919
63.255 6.824242
63.260 6.247092
63.265 5.710009
63.270 5.460752
63.275 5.567228
63.280 5.654987
63.285 5.65153
63.290 5.387928
63.295 5.212814
63.300 5.498627
63.305 5.577517
63.310 5.484962
63.315 5.502866
63.320 5.43053
63.325 6.098607
63.330 6.531921
63.335 6.493912
63.340 6.659665
63.345 6.748151
63.350 7.043329
63.355 7.166491
63.360 6.332721
63.365 6.237777
63.370 6.297712
63.375 6.184778
63.380 6.117792
63.385 5.619593
63.390 5.286356
63.395 5.567408
63.400 5.431774
63.405 5.616269
63.410 5.73177
63.415 5.782565
63.420 5.977458
63.425 6.178246
63.430 6.184035
63.435 6.439016
63.440 6.312658
63.445 6.587612
63.450 6.843426
63.455 6.777689
63.460 7.002749
63.465 7.047647
63.470 7.02029
63.475 6.902843
63.480 6.725186
63.485 6.775051
63.490 6.779275
63.495 6.543277
63.500 6.489583
63.505 6.420383
63.510 6.478756
63.515 6.147151
63.520 5.750726
63.525 5.671744
63.530 5.815111
63.535 5.850637
63.540 5.779854
63.545 5.603732
63.550 5.764976
63.555 5.939843
63.560 6.148844
63.565 5.93918
63.570 5.758608
63.575 5.713774
63.580 6.042269
63.585 6.056444
63.590 5.91969
63.595 5.878881
63.600 6.068206
63.605 6.179889
63.610 6.498241
63.615 6.59015
63.620 6.638815
63.625 6.657571
63.630 6.764135
63.635 6.715409
63.640 7.176265
63.645 7.239005
63.650 7.234125
63.655 7.221372
63.660 7.289004
63.665 7.185955
63.670 7.349706
63.675 7.11084
63.680 6.809689
63.685 6.380362
63.690 6.147633
63.695 6.28271
63.700 6.503951
63.705 6.346807
63.710 6.043218
63.715 6.014303
63.720 6.306449
63.725 6.503444
63.730 6.291505
63.735 5.87146
63.740 5.735985
63.745 5.861861
63.750 5.74596
63.755 5.457568
63.760 5.339611
63.765 5.441841
63.770 5.6551
63.775 5.785081
63.780 6.18037
63.785 6.306612
63.790 6.723187
63.795 6.982654
63.800 7.1595
63.805 7.486432
63.810 7.539385
63.815 7.110287
63.820 7.015306
63.825 6.564924
63.830 6.499453
63.835 6.263292
63.840 5.586212
63.845 5.201648
63.850 5.174127
63.855 5.34912
63.860 5.845581
63.865 5.82005
63.870 5.863122
63.875 6.491148
63.880 6.779187
63.885 6.883112
63.890 7.352906
63.895 7.062754
63.900 7.143368
63.905 7.320055
63.910 7.187559
63.915 7.130463
63.920 6.930796
63.925 6.571478
63.930 6.645351
63.935 6.395739
63.940 6.242667
63.945 6.091405
63.950 6.426661
63.955 6.602766
63.960 6.44373
63.965 6.245966
63.970 6.524361
63.975 6.635024
63.980 6.198223
63.985 6.12683
63.990 6.321607
63.995 6.708671
64.000 6.989551
64.005 6.935369
64.010 7.203683
64.015 7.426116
64.020 7.392974
64.025 7.187647
64.030 7.247279
64.035 7.099639
64.040 6.828573
64.045 6.631623
64.050 6.551321
64.055 6.675743
64.060 6.795973
64.065 6.508796
64.070 6.736914
64.075 6.991711
64.080 7.214075
64.085 7.204722
64.090 7.079578
64.095 6.64907
64.100 6.726977
64.105 6.467179
64.110 6.485471
64.115 6.673585
64.120 6.788848
64.125 6.995794
64.130 7.099766
64.135 7.171155
64.140 7.103734
64.145 6.988518
64.150 6.696467
64.155 6.48562
64.160 6.409525
64.165 6.608397
64.170 6.771962
64.175 6.914039
64.180 6.645142
64.185 6.866415
64.190 7.338919
64.195 7.341995
64.200 7.191211
64.205 6.805839
64.210 7.109441
64.215 7.359326
64.220 7.032504
64.225 6.87015
64.230 6.981487
64.235 7.22908
64.240 7.658008
64.245 7.74289
64.250 7.767923
64.255 7.940953
64.260 8.088014
64.265 8.257927
64.270 8.151959
64.275 7.865065
64.280 7.634715
64.285 7.408509
64.290 7.198509
64.295 6.815638
64.300 6.44284
64.305 6.756814
64.310 7.007086
64.315 7.069242
64.320 7.221192
64.325 7.503787
64.330 7.999744
64.335 8.333047
64.340 7.995786
64.345 8.248421
64.350 8.672816
64.355 8.94474
64.360 9.186583
64.365 9.132232
64.370 9.61333
64.375 9.834214
64.380 9.397461
64.385 9.06502
64.390 9.147304
64.395 9.304575
64.400 9.833961
64.405 9.428856
64.410 9.492899
64.415 9.806231
64.420 10.20999
64.425 10.375008
64.430 10.371599
64.435 10.36329
64.440 10.755236
64.445 11.057156
64.450 11.011467
64.455 10.873909
64.460 10.734987
64.465 10.317183
64.470 10.153963
64.475 9.95862
64.480 10.220072
64.485 10.363809
64.490 10.3059
64.495 10.437817
64.500 10.451112
64.505 10.444177
64.510 10.251972
64.515 10.000733
64.520 9.841461
64.525 9.914556
64.530 9.80445
64.535 9.762696
64.540 10.090544
64.545 10.176265
64.550 10.132562
64.555 9.978422
64.560 9.972304
64.565 10.256959
64.570 10.65556
64.575 10.369275
64.580 10.046089
64.585 9.848823
64.590 10.048512
64.595 9.820401
64.600 9.577836
64.605 9.356994
64.610 9.430779
64.615 9.145526
64.620 9.27158
64.625 9.140369
64.630 9.395071
64.635 9.505793
64.640 9.442818
64.645 9.23375
64.650 9.291661
64.655 9.117743
64.660 8.718582
64.665 8.137921
64.670 8.0854
64.675 7.915135
64.680 8.004605
64.685 8.193212
64.690 8.289632
64.695 8.420378
64.700 8.321455
64.705 7.848637
64.710 7.402084
64.715 7.373242
64.720 7.554674
64.725 7.406209
64.730 7.488388
64.735 7.905642
64.740 8.180319
64.745 8.162452
64.750 7.754436
64.755 7.423613
64.760 7.869448
64.765 7.969792
64.770 8.014514
64.775 7.822458
64.780 7.799357
64.785 7.709673
64.790 7.661181
64.795 7.712516
64.800 7.823799
64.805 7.748003
64.810 8.283166
64.815 8.589025
64.820 8.86983
64.825 8.877698
64.830 8.378493
64.835 8.278827
64.840 8.307245
64.845 7.87355
64.850 7.742743
64.855 7.676044
64.860 7.652335
64.865 7.70852
64.870 7.579522
64.875 7.580396
64.880 7.81646
64.885 7.775165
64.890 7.681436
64.895 7.760393
64.900 7.880247
64.905 7.695527
64.910 7.492333
64.915 7.037392
64.920 7.193198
64.925 7.251609
64.930 7.123115
64.935 6.842811
64.940 7.07784
64.945 6.972594
64.950 7.468933
64.955 7.586443
64.960 7.734633
64.965 8.108356
64.970 8.444493
64.975 8.71587
64.980 8.911463
64.985 8.720119
64.990 8.61992
64.995 8.488705
65.000 7.936423
65.005 7.601764
65.010 7.492797
65.015 7.547274
65.020 7.771512
65.025 7.808267
65.030 7.969038
65.035 8.735369
65.040 9.100356
65.045 8.837326
65.050 8.643503
65.055 8.300369
65.060 8.214825
65.065 8.101175
65.070 7.870242
65.075 7.875371
65.080 8.263951
65.085 8.358932
65.090 8.37154
65.095 8.432208
65.100 8.588849
65.105 8.640869
65.110 8.670316
65.115 8.978731
65.120 9.129028
65.125 9.371828
65.130 9.384712
65.135 9.493781
65.140 9.731506
65.145 9.645723
65.150 9.733382
65.155 9.606538
65.160 10.086413
65.165 10.218737
65.170 9.971826
65.175 9.779359
65.180 9.677539
65.185 9.360995
65.190 9.401407
65.195 8.705239
65.200 8.414761
65.205 8.570708
65.210 8.555127
65.215 8.447813
65.220 8.355897
65.225 8.607671
65.230 9.181529
65.235 9.189869
65.240 9.168438
65.245 9.299608
65.250 9.391031
65.255 9.251088
65.260 9.119245
65.265 8.828048
65.270 8.959379
65.275 8.990641
65.280 8.976664
65.285 9.16042
65.290 9.581757
65.295 9.68877
65.300 9.852669
65.305 9.548265
65.310 9.450786
65.315 9.386396
65.320 9.134357
65.325 9.058755
65.330 9.0684
65.335 8.936764
65.340 9.086702
65.345 9.045283
65.350 8.786975
65.355 8.838943
65.360 8.811767
65.365 8.541866
65.370 8.696955
65.375 8.844126
65.380 8.781785
65.385 9.019378
65.390 9.152278
65.395 9.332256
65.400 9.492817
65.405 9.206913
65.410 8.958899
65.415 9.044695
65.420 8.766156
65.425 8.24052
65.430 7.826458
65.435 7.822517
65.440 8.140742
65.445 8.516228
65.450 8.835266
65.455 9.182003
65.460 9.670649
65.465 9.978497
65.470 9.769524
65.475 9.703229
65.480 9.013846
65.485 8.609469
65.490 8.320276
65.495 8.095339
65.500 8.051063
65.505 8.098224
65.510 8.170502
65.515 8.427617
65.520 8.434368
65.525 8.589507
65.530 8.354069
65.535 8.225047
65.540 7.987782
65.545 7.64952
65.550 7.407497
65.555 7.29344
65.560 7.470007
65.565 7.944438
65.570 8.156336
65.575 8.273806
65.580 8.153469
65.585 7.883436
65.590 7.738918
65.595 7.625015
65.600 7.486863
65.605 7.622231
65.610 7.686459
65.615 8.275388
65.620 8.832153
65.625 8.874166
65.630 8.866755
65.635 8.723284
65.640 8.779995
65.645 8.994563
65.650 8.609513
65.655 8.445852
65.660 8.628182
65.665 8.626845
65.670 8.534486
65.675 8.184253
65.680 8.122583
65.685 8.539507
65.690 8.603056
65.695 8.435488
65.700 8.351901
65.705 8.469964
65.710 8.634847
65.715 8.476085
65.720 8.297041
65.725 7.839623
65.730 7.950588
65.735 8.260451
65.740 8.072369
65.745 8.031116
65.750 8.004663
65.755 7.751219
65.760 8.011375
65.765 8.227075
65.770 8.157527
65.775 7.984513
65.780 8.042742
65.785 7.887794
65.790 8.393969
65.795 8.611884
65.800 8.175919
65.805 7.779923
65.810 7.834821
65.815 7.711483
65.820 7.599614
65.825 7.321431
65.830 7.396226
65.835 7.363168
65.840 7.5167
65.845 7.276734
65.850 7.195807
65.855 7.199891
65.860 7.026298
65.865 7.016706
65.870 7.348695
65.875 7.411855
65.880 7.798468
65.885 7.77949
65.890 7.917801
65.895 8.073848
65.900 8.194861
65.905 8.069675
65.910 8.20647
65.915 8.19773
65.920 8.640554
65.925 8.563483
65.930 8.403187
65.935 7.850791
65.940 7.456748
65.945 7.251911
65.950 7.081706
65.955 6.651558
65.960 6.409748
65.965 6.317126
65.970 6.817613
65.975 7.159942
65.980 7.463583
65.985 7.672696
65.990 8.018951
65.995 8.370929
66.000 8.797586
66.005 8.653995
66.010 8.779017
66.015 8.674398
66.020 8.558523
66.025 8.550397
66.030 8.591421
66.035 8.573855
66.040 8.357367
66.045 8.221388
66.050 8.342477
66.055 8.389692
66.060 8.049798
66.065 7.71606
66.070 7.35553
66.075 7.429867
66.080 7.593543
66.085 7.187022
66.090 7.070107
66.095 7.561315
66.100 7.782903
66.105 7.884517
66.110 7.636943
66.115 7.828137
66.120 8.454494
66.125 8.334597
66.130 8.252128
66.135 8.105051
66.140 8.116215
66.145 8.33582
66.150 7.619572
66.155 7.267344
66.160 7.121726
66.165 6.817737
66.170 6.869034
66.175 6.884866
66.180 6.855801
66.185 6.860432
66.190 6.978371
66.195 6.935423
66.200 6.900851
66.205 7.000928
66.210 7.119929
66.215 7.199473
66.220 7.599021
66.225 7.585916
66.230 7.735663
66.235 7.629385
66.240 7.435929
66.245 7.169811
66.250 6.938359
66.255 6.738841
66.260 6.887437
66.265 6.540716
66.270 6.631698
66.275 6.561597
66.280 6.554027
66.285 6.580279
66.290 6.653298
66.295 6.745286
66.300 7.089307
66.305 7.308475
66.310 7.292521
66.315 7.225175
66.320 7.1321
66.325 7.227922
66.330 7.08084
66.335 7.21134
66.340 6.792962
66.345 6.831678
66.350 6.816665
66.355 7.024916
66.360 6.721987
66.365 6.375307
66.370 6.018051
66.375 5.839248
66.380 6.055543
66.385 5.882093
66.390 5.663496
66.395 6.014897
66.400 6.27245
66.405 6.394525
66.410 6.373031
66.415 5.907139
66.420 5.857964
66.425 5.663091
66.430 5.68891
66.435 5.916406
66.440 6.386935
66.445 6.63514
66.450 6.377285
66.455 6.434657
66.460 6.622948
66.465 6.211695
66.470 6.144749
66.475 5.765892
66.480 6.067728
66.485 6.640812
66.490 6.837404
66.495 6.873332
66.500 7.200078
66.505 7.184438
66.510 7.252438
66.515 7.275945
66.520 7.170991
66.525 7.452691
66.530 7.488205
66.535 7.206446
66.540 7.155393
66.545 7.215535
66.550 7.237593
66.555 7.148908
66.560 6.941298
66.565 6.841382
66.570 6.770624
66.575 6.767131
66.580 6.670647
66.585 6.680162
66.590 6.878662
66.595 6.823133
66.600 7.260918
66.605 7.40155
66.610 7.334136
66.615 7.119681
66.620 6.894743
66.625 6.903041
66.630 6.635046
66.635 6.059843
66.640 5.977415
66.645 6.364371
66.650 6.882426
66.655 6.850713
66.660 6.974505
66.665 6.951454
66.670 7.119715
66.675 6.860542
66.680 6.528598
66.685 5.898572
66.690 5.887507
66.695 5.441154
66.700 5.426761
66.705 5.649865
66.710 5.998251
66.715 6.165542
66.720 6.522061
66.725 6.956033
66.730 7.407424
66.735 7.441453
66.740 7.379018
66.745 7.197019
66.750 7.086174
66.755 7.488079
66.760 7.679205
66.765 7.776169
66.770 8.003678
66.775 7.570079
66.780 7.416244
66.785 7.319158
66.790 6.801599
66.795 6.437583
66.800 6.251903
66.805 6.29461
66.810 6.417958
66.815 6.473259
66.820 6.588247
66.825 6.781126
66.830 6.672388
66.835 6.537816
66.840 6.280073
66.845 6.590353
66.850 6.66896
66.855 6.300024
66.860 6.336478
66.865 6.330866
66.870 6.40602
66.875 6.495722
66.880 6.340096
66.885 6.665711
66.890 6.867017
66.895 6.556305
66.900 6.746462
66.905 6.712922
66.910 6.818409
66.915 6.703454
66.920 6.472013
66.925 6.366466
66.930 6.158861
66.935 5.866996
66.940 5.943256
66.945 6.061604
66.950 6.218774
66.955 6.22846
66.960 6.457196
66.965 7.010046
66.970 7.227483
66.975 7.331086
66.980 6.994102
66.985 6.7225
66.990 6.703745
66.995 6.467214
67.000 6.663773
67.005 7.038581
67.010 7.234717
67.015 7.256691
67.020 7.389496
67.025 7.429719
67.030 7.404334
67.035 6.794892
67.040 6.432784
67.045 6.214366
67.050 6.297768
67.055 6.354152
67.060 6.426905
67.065 6.64654
67.070 6.807798
67.075 6.777389
67.080 6.433065
67.085 6.782737
67.090 6.770397
67.095 6.509023
67.100 6.196639
67.105 6.235641
67.110 6.39882
67.115 6.616874
67.120 6.592336
67.125 6.754019
67.130 6.978601
67.135 7.022051
67.140 7.067778
67.145 7.142595
67.150 6.826323
67.155 6.589971
67.160 6.359855
67.165 6.416389
67.170 6.463443
67.175 6.454748
67.180 6.683772
67.185 7.128749
67.190 7.161572
67.195 7.337947
67.200 7.270844
67.205 7.449075
67.210 7.231684
67.215 7.304149
67.220 7.60308
67.225 7.736962
67.230 7.771293
67.235 7.738061
67.240 7.534475
67.245 7.639315
67.250 7.191254
67.255 6.822872
67.260 6.726682
67.265 6.817488
67.270 7.003761
67.275 6.638416
67.280 6.490894
67.285 6.608675
67.290 6.488158
67.295 6.402626
67.300 6.214408
67.305 6.215299
67.310 6.688498
67.315 7.10139
67.320 7.07903
67.325 6.860933
67.330 7.06512
67.335 7.059409
67.340 7.291706
67.345 7.382592
67.350 6.571145
67.355 6.431068
67.360 6.373425
67.365 5.980793
67.370 5.903655
67.375 5.592205
67.380 5.681673
67.385 6.036961
67.390 6.103315
67.395 6.71482
67.400 6.959446
67.405 7.219451
67.410 7.22262
67.415 7.521913
67.420 8.135631
67.425 8.065586
67.430 8.028152
67.435 7.956591
67.440 7.428724
67.445 7.102796
67.450 6.532124
67.455 6.075488
67.460 5.969402
67.465 5.497528
67.470 5.368648
67.475 5.454951
67.480 5.8686
67.485 6.373861
67.490 6.583658
67.495 6.844436
67.500 7.192563
67.505 7.732971
67.510 8.002164
67.515 8.118811
67.520 7.916409
67.525 7.898167
67.530 7.936139
67.535 7.621214
67.540 7.604963
67.545 7.820336
67.550 7.519013
67.555 7.449106
67.560 7.522438
67.565 7.584288
67.570 7.48337
67.575 7.055173
67.580 6.623187
67.585 6.763045
67.590 6.679814
67.595 6.644358
67.600 6.802633
67.605 7.237858
67.610 7.432276
67.615 7.568355
67.620 7.60531
67.625 7.59409
67.630 7.744978
67.635 7.46293
67.640 7.392255
67.645 7.130756
67.650 7.20165
67.655 7.082711
67.660 6.832729
67.665 6.634605
67.670 6.786138
67.675 6.484958
67.680 6.324728
67.685 6.132976
67.690 6.099724
67.695 6.07252
67.700 5.756378
67.705 5.385635
67.710 5.657302
67.715 6.294915
67.720 6.576329
67.725 6.590557
67.730 6.82472
67.735 7.20211
67.740 7.429821
67.745 7.764277
67.750 7.73231
67.755 7.85779
67.760 7.974313
67.765 8.124816
67.770 8.188481
67.775 8.033343
67.780 7.483533
67.785 7.305242
67.790 7.245845
67.795 7.300389
67.800 7.316403
67.805 7.68015
67.810 8.243856
67.815 8.313458
67.820 8.455391
67.825 8.391662
67.830 8.241124
67.835 8.138597
67.840 7.735617
67.845 7.27038
67.850 7.06242
67.855 6.843259
67.860 6.925349
67.865 7.14549
67.870 7.115291
67.875 7.157141
67.880 7.247979
67.885 7.79041
67.890 7.847963
67.895 7.89214
67.900 7.983018
67.905 8.23545
67.910 8.367777
67.915 8.168921
67.920 7.619551
67.925 7.50713
67.930 7.096408
67.935 7.009493
67.940 6.755276
67.945 6.996828
67.950 7.310083
67.955 7.788101
67.960 7.824481
67.965 7.981382
67.970 7.606426
67.975 7.66327
67.980 7.701597
67.985 7.55855
67.990 7.292959
67.995 7.430872
68.000 7.372501
68.005 7.537223
68.010 7.183743
68.015 7.06168
68.020 7.407392
68.025 7.612636
68.030 7.584316
68.035 7.765149
68.040 7.843857
68.045 7.94071
68.050 7.884651
68.055 7.512815
68.060 7.607601
68.065 7.301419
68.070 7.045458
68.075 6.614428
68.080 6.517953
68.085 6.781057
68.090 6.814066
68.095 6.821565
68.100 7.153928
68.105 7.142969
68.110 7.428539
68.115 7.559552
68.120 7.736369
68.125 7.469675
68.130 7.361945
68.135 7.660541
68.140 7.744033
68.145 7.765803
68.150 7.796138
68.155 7.562106
68.160 7.921985
68.165 7.887472
68.170 7.754991
68.175 8.052572
68.180 8.132892
68.185 8.170028
68.190 8.355628
68.195 8.079633
68.200 7.876514
68.205 8.107871
68.210 7.86627
68.215 7.861299
68.220 7.293674
68.225 7.04125
68.230 7.080031
68.235 6.983249
68.240 6.974772
68.245 7.236478
68.250 7.328747
68.255 7.385041
68.260 7.444084
68.265 7.733595
68.270 7.856058
68.275 7.784593
68.280 7.317294
68.285 7.390121
68.290 7.864024
68.295 7.89356
68.300 7.999837
68.305 7.707294
68.310 7.531571
68.315 7.901079
68.320 7.687144
68.325 7.791349
68.330 8.086524
68.335 8.431949
68.340 8.570838
68.345 8.919397
68.350 8.931362
68.355 8.679977
68.360 8.620823
68.365 8.11838
68.370 7.841587
68.375 7.750657
68.380 7.491913
68.385 7.645963
68.390 7.49253
68.395 7.285409
68.400 7.952491
68.405 7.845144
68.410 8.320671
68.415 8.578433
68.420 8.420396
68.425 8.848106
68.430 8.622833
68.435 8.245938
68.440 8.53829
68.445 8.231354
68.450 8.286947
68.455 8.307059
68.460 8.150833
68.465 8.539083
68.470 8.342814
68.475 8.395367
68.480 8.439705
68.485 8.623853
68.490 9.056762
68.495 9.399425
68.500 9.390316
68.505 9.746871
68.510 9.623678
68.515 9.341464
68.520 8.754587
68.525 8.42894
68.530 7.985222
68.535 7.586454
68.540 7.802878
68.545 8.024638
68.550 8.55343
68.555 9.085725
68.560 9.267684
68.565 9.96428
68.570 10.276332
68.575 10.18615
68.580 10.157734
68.585 10.156231
68.590 10.356654
68.595 10.306423
68.600 9.71906
68.605 9.58883
68.610 9.348823
68.615 9.230867
68.620 9.13396
68.625 8.986183
68.630 9.321103
68.635 9.356587
68.640 9.11828
68.645 9.365344
68.650 8.860607
68.655 8.81541
68.660 8.639709
68.665 8.592173
68.670 9.079041
68.675 9.04871
68.680 8.97948
68.685 9.298393
68.690 9.127183
68.695 9.242609
68.700 8.989952
68.705 8.900162
68.710 8.342653
68.715 8.432816
68.720 8.712531
68.725 8.804551
68.730 8.932137
68.735 9.401491
68.740 9.404113
68.745 9.780996
68.750 9.699744
68.755 9.523461
68.760 9.512362
68.765 9.111678
68.770 8.609621
68.775 8.563129
68.780 9.01487
68.785 8.848372
68.790 8.622837
68.795 8.520615
68.800 8.781497
68.805 8.743132
68.810 8.670537
68.815 8.097176
68.820 8.096024
68.825 8.18395
68.830 8.248226
68.835 8.016523
68.840 8.011947
68.845 8.456938
68.850 8.789351
68.855 8.875736
68.860 8.750267
68.865 8.69019
68.870 8.779898
68.875 8.610035
68.880 8.295714
68.885 8.145783
68.890 8.147697
68.895 8.224897
68.900 8.364508
68.905 8.479066
68.910 8.75957
68.915 8.5204
68.920 8.754584
68.925 8.945832
68.930 8.771238
68.935 8.761134
68.940 8.618565
68.945 8.838644
68.950 8.941152
68.955 8.581784
68.960 8.368521
68.965 8.468307
68.970 8.375792
68.975 8.421906
68.980 8.11599
68.985 8.291207
68.990 8.318859
68.995 8.284071
69.000 8.33948
69.005 8.467228
69.010 8.283091
69.015 8.141182
69.020 8.030569
69.025 7.940499
69.030 7.779841
69.035 7.637988
69.040 7.306169
69.045 7.428584
69.050 7.860495
69.055 8.18587
69.060 8.717042
69.065 9.006657
69.070 9.363107
69.075 9.247675
69.080 9.041727
69.085 8.481523
69.090 8.621999
69.095 8.269374
69.100 8.329473
69.105 8.56041
69.110 9.013142
69.115 9.192588
69.120 9.069122
69.125 8.568621
69.130 8.531984
69.135 8.448421
69.140 7.786115
69.145 7.702894
69.150 7.974802
69.155 8.347641
69.160 8.541938
69.165 8.767018
69.170 8.367254
69.175 8.189629
69.180 8.213157
69.185 7.96189
69.190 8.248271
69.195 8.357356
69.200 8.162077
69.205 8.311476
69.210 8.738125
69.215 8.655568
69.220 8.671203
69.225 8.374955
69.230 8.387938
69.235 8.479995
69.240 8.438757
69.245 7.813593
69.250 7.990876
69.255 7.992562
69.260 8.014671
69.265 7.561293
69.270 7.511152
69.275 7.550852
69.280 7.767479
69.285 7.382547
69.290 7.22008
69.295 6.980811
69.300 7.392802
69.305 7.742764
69.310 8.104646
69.315 8.540088
69.320 8.649987
69.325 8.645771
69.330 8.479035
69.335 8.250266
69.340 8.136429
69.345 7.876321
69.350 7.727479
69.355 8.056887
69.360 8.122179
69.365 8.171874
69.370 7.822532
69.375 7.597301
69.380 7.483662
69.385 7.241166
69.390 7.133071
69.395 7.246747
69.400 7.227675
69.405 7.372479
69.410 7.447597
69.415 7.477772
69.420 7.243985
69.425 7.077774
69.430 7.308207
69.435 7.642393
69.440 7.808019
69.445 8.201117
69.450 8.370093
69.455 8.454132
69.460 8.416082
69.465 8.313966
69.470 8.046062
69.475 7.560596
69.480 7.185297
69.485 7.105214
69.490 7.199167
69.495 7.10645
69.500 6.704965
69.505 6.933519
69.510 7.308545
69.515 6.874319
69.520 6.713742
69.525 6.157252
69.530 6.367312
69.535 6.473093
69.540 6.185059
69.545 6.481446
69.550 6.881524
69.555 7.426818
69.560 7.630927
69.565 7.440291
69.570 7.59171
69.575 7.914748
69.580 7.964056
69.585 7.586006
69.590 7.251482
69.595 7.431925
69.600 7.648323
69.605 7.982374
69.610 7.865204
69.615 7.469827
69.620 7.766098
69.625 8.072894
69.630 8.032463
69.635 7.95068
69.640 7.847156
69.645 7.465382
69.650 7.492178
69.655 7.288519
69.660 6.996811
69.665 6.993457
69.670 7.141293
69.675 7.43376
69.680 8.104487
69.685 8.441508
69.690 8.733552
69.695 8.887912
69.700 8.655665
69.705 8.320475
69.710 7.68917
69.715 7.569205
69.720 7.402935
69.725 7.513524
69.730 7.322775
69.735 7.644757
69.740 8.007382
69.745 8.111693
69.750 7.894205
69.755 7.579463
69.760 7.633617
69.765 7.659476
69.770 7.395189
69.775 7.151668
69.780 7.384653
69.785 7.410692
69.790 7.348083
69.795 7.217724
69.800 7.471877
69.805 7.581558
69.810 7.453467
69.815 7.267095
69.820 7.436941
69.825 7.63385
69.830 7.550846
69.835 7.23119
69.840 7.245935
69.845 7.43368
69.850 7.624692
69.855 7.43492
69.860 7.311975
69.865 7.198204
69.870 7.184436
69.875 7.144642
69.880 7.250828
69.885 7.582267
69.890 7.831343
69.895 7.74227
69.900 7.38014
69.905 7.192216
69.910 7.207862
69.915 7.126004
69.920 6.68538
69.925 7.031745
69.930 7.62747
69.935 8.305809
69.940 8.929188
69.945 8.979289
69.950 9.024638
69.955 8.986183
69.960 8.579476
69.965 8.290277
69.970 8.201783
69.975 7.785804
69.980 7.742095
69.985 7.521988
69.990 7.670034
69.995 7.700696
70.000 7.848953
70.005 7.36552
70.010 7.298296
70.015 7.027329
70.020 6.812137
70.025 6.610925
70.030 6.533976
70.035 6.417767
70.040 7.003263
70.045 6.887221
70.050 7.000624
70.055 7.21331
70.060 7.48352
70.065 7.554002
70.070 7.727826
70.075 7.710505
70.080 8.377668
70.085 8.590295
70.090 8.562067
70.095 8.357577
70.100 8.023329
70.105 7.737067
70.110 7.539148
70.115 7.403923
70.120 7.479485
70.125 7.503993
70.130 7.813121
70.135 7.891542
70.140 8.279808
70.145 8.16141
70.150 8.050566
70.155 7.942381
70.160 7.768268
70.165 7.627527
70.170 7.816431
70.175 7.4353
70.180 7.178688
70.185 7.004632
70.190 7.097831
70.195 7.126483
70.200 6.930765
70.205 6.840057
70.210 6.836239
70.215 7.02995
70.220 6.640268
70.225 6.44965
70.230 6.714121
70.235 6.818295
70.240 6.498998
70.245 6.62842
70.250 6.77779
70.255 7.314103
70.260 7.817146
70.265 8.005011
70.270 8.256042
70.275 8.445828
70.280 8.523997
70.285 8.888563
70.290 8.687038
70.295 8.233835
70.300 8.276838
70.305 8.18085
70.310 8.393799
70.315 8.200912
70.320 7.933096
70.325 7.668216
70.330 7.62763
70.335 7.409847
70.340 7.59362
70.345 7.472402
70.350 7.509721
70.355 7.522714
70.360 7.724483
70.365 7.621188
70.370 7.790354
70.375 7.554058
70.380 7.578109
70.385 7.495783
70.390 7.881631
70.395 8.068974
70.400 8.306863
70.405 8.296997
70.410 8.619286
70.415 8.521
70.420 8.516577
70.425 8.088323
70.430 7.820431
70.435 7.414781
70.440 7.336031
70.445 7.31666
70.450 7.129196
70.455 7.084888
70.460 6.94342
70.465 6.975389
70.470 7.041719
70.475 6.722014
70.480 6.58688
70.485 6.22541
70.490 6.396439
70.495 6.706027
70.500 6.788881
70.505 7.114503
70.510 7.243909
70.515 7.336734
70.520 7.493858
70.525 7.368773
70.530 7.214987
70.535 6.897326
70.540 6.573004
70.545 6.627243
70.550 7.029264
70.555 7.171525
70.560 7.152971
70.565 7.088114
70.570 7.288182
70.575 7.543972
70.580 7.500058
70.585 7.292211
70.590 7.195725
70.595 7.617414
70.600 7.413218
70.605 7.401608
70.610 7.124409
70.615 7.159915
70.620 6.934594
70.625 6.79723
70.630 6.685044
70.635 7.02397
70.640 6.962772
70.645 7.089657
70.650 7.087403
70.655 7.349106
70.660 7.359477
70.665 7.240935
70.670 7.029496
70.675 6.987102
70.680 6.838227
70.685 6.70851
70.690 6.525037
70.695 6.272201
70.700 6.24272
70.705 6.720191
70.710 6.999501
70.715 7.127968
70.720 7.127743
70.725 7.030167
70.730 7.268215
70.735 7.291281
70.740 6.874636
70.745 6.756331
70.750 7.002247
70.755 7.587386
70.760 7.767173
70.765 8.019328
70.770 8.592915
70.775 8.667824
70.780 8.651675
70.785 8.291078
70.790 8.201992
70.795 8.03182
70.800 7.52993
70.805 7.210073
70.810 6.999083
70.815 6.848898
70.820 6.873849
70.825 6.609257
70.830 6.784049
70.835 6.59214
70.840 6.6837
70.845 7.094754
70.850 7.087551
70.855 7.351123
70.860 7.531419
70.865 7.674654
70.870 7.71549
70.875 7.688481
70.880 7.503132
70.885 7.01312
70.890 6.438565
70.895 6.464118
70.900 6.357529
70.905 6.422965
70.910 6.540939
70.915 6.89937
70.920 7.088532
70.925 7.221917
70.930 7.43876
70.935 7.107378
70.940 7.300585
70.945 7.721717
70.950 7.698105
70.955 7.564369
70.960 7.510014
70.965 7.579128
70.970 7.861989
70.975 7.715291
70.980 7.154259
70.985 7.193352
70.990 7.54315
70.995 7.483831
71.000 7.363464
71.005 7.146052
71.010 7.095964
71.015 7.604334
71.020 7.739095
71.025 7.674456
71.030 7.886644
71.035 8.091159
71.040 8.075625
71.045 7.606707
71.050 7.333934
71.055 7.325397
71.060 7.226384
71.065 7.227534
71.070 7.541388
71.075 7.754227
71.080 7.866265
71.085 8.002234
71.090 7.985043
71.095 8.170181
71.100 7.777867
71.105 7.367464
71.110 7.411544
71.115 7.325294
71.120 7.154297
71.125 7.251915
71.130 6.752728
71.135 6.651476
71.140 6.688015
71.145 6.71512
71.150 6.792599
71.155 6.634846
71.160 6.395529
71.165 6.472871
71.170 6.769371
71.175 6.574378
71.180 6.211849
71.185 5.81192
71.190 5.955004
71.195 6.294518
71.200 6.471618
71.205 6.237025
71.210 6.391551
71.215 6.560606
71.220 7.17017
71.225 7.170591
71.230 7.19851
71.235 7.210618
71.240 7.181886
71.245 7.212262
71.250 7.243787
71.255 6.952856
71.260 7.073686
71.265 7.129269
71.270 7.010522
71.275 7.675593
71.280 7.55432
71.285 7.409395
71.290 7.146865
71.295 6.640127
71.300 6.495443
71.305 6.31803
71.310 6.031819
71.315 6.158462
71.320 6.422072
71.325 6.568269
71.330 6.587714
71.335 7.018414
71.340 7.00105
71.345 6.872155
71.350 6.736005
71.355 6.675003
71.360 6.859252
71.365 6.605539
71.370 6.160122
71.375 6.717854
71.380 6.669456
71.385 6.701491
71.390 6.713644
71.395 6.782692
71.400 7.305229
71.405 7.406172
71.410 7.366749
71.415 7.440492
71.420 7.44685
71.425 7.410222
71.430 7.20082
71.435 6.987876
71.440 6.442221
71.445 6.427038
71.450 6.219846
71.455 5.843615
71.460 5.56364
71.465 5.582085
71.470 5.774152
71.475 5.846563
71.480 5.411339
71.485 5.383192
71.490 5.665
71.495 5.971744
71.500 6.060122
71.505 6.130505
71.510 6.419055
71.515 6.59419
71.520 6.744733
71.525 6.802167
71.530 6.884984
71.535 6.802901
71.540 6.359651
71.545 6.06902
71.550 6.116407
71.555 6.410781
71.560 6.437111
71.565 6.236954
71.570 6.198811
71.575 6.387114
71.580 6.528479
71.585 6.629457
71.590 6.757277
71.595 6.868054
71.600 7.013227
71.605 7.187214
71.610 7.325916
71.615 7.590111
71.620 7.180544
71.625 7.007073
71.630 6.987527
71.635 7.170908
71.640 7.095801
71.645 6.910061
71.650 6.748542
71.655 6.858279
71.660 6.885223
71.665 7.206585
71.670 7.032993
71.675 7.30246
71.680 7.474649
71.685 7.588933
71.690 7.73512
71.695 7.550755
71.700 7.424196
71.705 7.765411
71.710 7.799464
71.715 7.732199
71.720 7.9213
71.725 7.756379
71.730 7.767131
71.735 7.81793
71.740 7.576
71.745 7.505803
71.750 7.578607
71.755 7.77165
71.760 8.013371
71.765 8.494068
71.770 8.575999
71.775 8.897929
71.780 9.109865
71.785 8.996058
71.790 8.817546
71.795 8.74015
71.800 8.114979
71.805 7.722164
71.810 7.307817
71.815 7.108423
71.820 6.792153
71.825 6.519997
71.830 6.46138
71.835 6.461117
71.840 6.818985
71.845 6.803331
71.850 6.728347
71.855 7.066171
71.860 7.308086
71.865 7.207631
71.870 7.119075
71.875 7.26935
71.880 7.394192
71.885 7.410478
71.890 7.129221
71.895 6.98506
71.900 7.183281
71.905 6.974814
71.910 6.443204
71.915 6.824208
71.920 7.006391
71.925 7.161364
71.930 7.408278
71.935 7.344505
71.940 7.557099
71.945 7.351638
71.950 7.474651
71.955 7.549555
71.960 7.306211
71.965 7.074129
71.970 7.238729
71.975 7.385024
71.980 7.975971
71.985 7.590889
71.990 7.472683
71.995 7.609706
72.000 7.464235
72.005 7.29682
72.010 6.840043
72.015 6.384061
72.020 6.30054
72.025 6.435638
72.030 6.488131
72.035 6.695326
72.040 6.791153
72.045 6.970515
72.050 7.271443
72.055 7.168894
72.060 7.044202
72.065 6.847094
72.070 6.774277
72.075 6.83139
72.080 6.851305
72.085 7.052993
72.090 6.791623
72.095 6.588652
72.100 6.684065
72.105 6.651175
72.110 6.803152
72.115 6.399267
72.120 6.652867
72.125 7.19399
72.130 7.629256
72.135 8.050167
72.140 7.966822
72.145 7.764007
72.150 7.805963
72.155 7.348325
72.160 7.355736
72.165 7.632184
72.170 7.309532
72.175 6.978312
72.180 7.42242
72.185 7.596726
72.190 7.819146
72.195 7.694624
72.200 7.271384
72.205 7.321152
72.210 7.446746
72.215 7.157322
72.220 7.25843
72.225 7.473333
72.230 7.393392
72.235 7.253148
72.240 7.268325
72.245 7.097421
72.250 7.066889
72.255 7.307307
72.260 7.243225
72.265 7.083109
72.270 7.18189
72.275 6.944553
72.280 7.341994
72.285 7.417279
72.290 6.81599
72.295 6.827977
72.300 7.076453
72.305 7.313982
72.310 7.671771
72.315 7.190664
72.320 6.904328
72.325 7.009026
72.330 6.757551
72.335 6.576332
72.340 6.699229
72.345 6.601842
72.350 7.04965
72.355 7.282451
72.360 7.019967
72.365 6.958838
72.370 7.247517
72.375 7.209622
72.380 7.171152
72.385 6.905342
72.390 7.261946
72.395 7.567032
72.400 7.924253
72.405 7.571126
72.410 7.552166
72.415 7.64291
72.420 7.48193
72.425 7.399967
72.430 7.156084
72.435 7.029868
72.440 7.00164
72.445 6.751753
72.450 6.985588
72.455 7.132239
72.460 7.205691
72.465 7.247136
72.470 7.167207
72.475 7.134611
72.480 7.332787
72.485 6.942343
72.490 7.009757
72.495 7.009583
72.500 6.98853
72.505 7.157238
72.510 7.047541
72.515 6.96685
72.520 7.45053
72.525 7.629868
72.530 7.258582
72.535 7.237453
72.540 7.226024
72.545 7.450439
72.550 7.599057
72.555 7.630357
72.560 7.435624
72.565 7.770707
72.570 7.699569
72.575 7.578569
72.580 7.367561
72.585 7.412133
72.590 7.355713
72.595 7.376911
72.600 7.647903
72.605 7.754528
72.610 7.821626
72.615 8.150631
72.620 8.315882
72.625 8.10183
72.630 8.289805
72.635 8.203458
72.640 8.132707
72.645 7.976305
72.650 7.735456
72.655 6.955026
72.660 7.084368
72.665 7.204945
72.670 7.285214
72.675 7.28844
72.680 7.194846
72.685 7.255307
72.690 7.660623
72.695 7.548925
72.700 6.95856
72.705 6.772188
72.710 6.733261
72.715 6.433997
72.720 6.282224
72.725 5.853014
72.730 5.721214
72.735 6.028601
72.740 6.256393
72.745 6.505887
72.750 6.569371
72.755 6.6892
72.760 6.793829
72.765 7.028517
72.770 6.805474
72.775 6.508715
72.780 6.382982
72.785 6.262008
72.790 6.522053
72.795 6.411927
72.800 6.085883
72.805 6.442888
72.810 6.919495
72.815 7.269792
72.820 7.305887
72.825 7.046453
72.830 7.156553
72.835 7.129506
72.840 7.128799
72.845 6.73407
72.850 6.687918
72.855 7.139373
72.860 7.175172
72.865 7.492414
72.870 7.371568
72.875 7.054436
72.880 7.467321
72.885 7.816953
72.890 7.735554
72.895 8.033391
72.900 7.88272
72.905 8.15006
72.910 7.946082
72.915 7.488898
72.920 7.168317
72.925 7.109998
72.930 6.916859
72.935 6.982867
72.940 6.802724
72.945 7.056591
72.950 6.829825
72.955 6.439525
72.960 6.272889
72.965 6.356506
72.970 6.340492
72.975 6.183518
72.980 6.38844
72.985 6.753522
72.990 6.88308
72.995 6.774435
73.000 6.498044
