!@!!GADDS PLOTSO FILE: Chi integration type
!@!!Title/SampleName: map-a8
!@!!Comment: ?
!@!!User: Bruker Instrument Administrator
!@!!Site: University of Illinois Chicago
!@!!Frame: map-a8_01_000.gfrm
!@!!Wavelengths    1.54184   1.54056   1.54439
!@!!Frame angles: 2Theta: 63.000 Omega: 50.000 Phi: 0.000 Chi: 90.000
!@!!Integration range: 2Theta: 53.000 to 73.000  Gamma: -105.000 to -75.000
!@!!Integration method: bin normalized
!@!N
!@!SS
!@!M
!@!L 0.0 0.0 0.0 0.0
!@!XDegrees
!@!YCounts
53.000 9.679026
53.005 9.736651
53.010 9.956639
53.015 10.300847
53.020 11.213408
53.025 11.621582
53.030 11.782308
53.035 12.165742
53.040 12.343043
53.045 12.56675
53.050 12.126608
53.055 11.429345
53.060 10.571812
53.065 10.045838
53.070 9.845367
53.075 9.69696
53.080 10.094428
53.085 10.276787
53.090 10.497877
53.095 10.60436
53.100 10.502093
53.105 10.50999
53.110 10.157715
53.115 9.158051
53.120 8.942718
53.125 8.860881
53.130 9.092904
53.135 8.965784
53.140 8.907274
53.145 9.303904
53.150 9.987385
53.155 10.169157
53.160 10.146854
53.165 10.354412
53.170 10.620661
53.175 10.991947
53.180 11.242444
53.185 11.528314
53.190 11.852971
53.195 11.833551
53.200 11.665015
53.205 11.719419
53.210 11.607078
53.215 11.153818
53.220 10.936712
53.225 10.74183
53.230 10.817012
53.235 11.018984
53.240 10.81336
53.245 10.712679
53.250 10.558326
53.255 10.495123
53.260 10.439693
53.265 10.141007
53.270 10.163011
53.275 10.272579
53.280 9.908175
53.285 10.032325
53.290 9.800539
53.295 10.272453
53.300 10.435559
53.305 10.032488
53.310 10.037302
53.315 10.195626
53.320 10.213709
53.325 10.413826
53.330 10.695504
53.335 10.941931
53.340 11.362441
53.345 11.607833
53.350 11.753766
53.355 11.470319
53.360 11.269383
53.365 11.180918
53.370 10.448406
53.375 10.255219
53.380 10.197952
53.385 10.203118
53.390 10.883924
53.395 10.944679
53.400 10.843943
53.405 11.269339
53.410 11.048965
53.415 10.900128
53.420 10.960502
53.425 10.710365
53.430 10.854569
53.435 10.818056
53.440 10.761582
53.445 11.471434
53.450 11.747079
53.455 11.377478
53.460 11.008731
53.465 10.696331
53.470 10.507983
53.475 10.26057
53.480 10.001147
53.485 9.748783
53.490 9.860094
53.495 10.56085
53.500 10.291716
53.505 10.632078
53.510 10.722848
53.515 10.395658
53.520 10.866015
53.525 10.891885
53.530 10.925637
53.535 11.845694
53.540 12.196208
53.545 12.087075
53.550 12.393434
53.555 12.525802
53.560 12.366033
53.565 12.075747
53.570 11.630542
53.575 11.806328
53.580 12.129806
53.585 11.926531
53.590 11.82533
53.595 11.709161
53.600 11.430924
53.605 10.93092
53.610 10.311901
53.615 9.888945
53.620 10.201327
53.625 10.168873
53.630 10.446625
53.635 11.090543
53.640 11.643728
53.645 12.139948
53.650 12.089017
53.655 11.994444
53.660 12.182597
53.665 11.656081
53.670 10.820179
53.675 10.503137
53.680 10.503462
53.685 11.267562
53.690 11.326838
53.695 11.03126
53.700 11.504307
53.705 11.462431
53.710 11.315614
53.715 10.996942
53.720 10.589398
53.725 10.694814
53.730 10.952343
53.735 11.339059
53.740 11.631631
53.745 11.452562
53.750 11.406428
53.755 11.517217
53.760 11.758282
53.765 11.472482
53.770 11.398542
53.775 11.26741
53.780 11.426577
53.785 11.618806
53.790 11.259213
53.795 10.669816
53.800 10.821579
53.805 10.903319
53.810 11.638197
53.815 11.974822
53.820 12.109207
53.825 12.659187
53.830 13.270107
53.835 13.344139
53.840 13.106607
53.845 12.112183
53.850 11.863356
53.855 11.593378
53.860 11.204876
53.865 11.276913
53.870 11.153917
53.875 11.485789
53.880 11.706537
53.885 11.959637
53.890 11.785998
53.895 11.45729
53.900 10.964874
53.905 11.04803
53.910 10.770543
53.915 10.460867
53.920 9.995768
53.925 10.218109
53.930 10.523881
53.935 10.775123
53.940 10.515918
53.945 10.759506
53.950 10.891292
53.955 11.019833
53.960 11.549303
53.965 11.706825
53.970 11.849911
53.975 12.101129
53.980 12.351838
53.985 12.898804
53.990 13.064102
53.995 12.908969
54.000 13.009431
54.005 13.059161
54.010 12.983893
54.015 12.905456
54.020 13.287719
54.025 13.086556
54.030 13.036685
54.035 13.199313
54.040 13.010746
54.045 13.023471
54.050 12.663631
54.055 11.913907
54.060 11.935919
54.065 11.837092
54.070 11.331325
54.075 11.205893
54.080 11.181946
54.085 11.896362
54.090 12.133366
54.095 12.300409
54.100 12.526559
54.105 12.702591
54.110 12.914329
54.115 12.916945
54.120 12.451066
54.125 12.188976
54.130 11.370876
54.135 11.098807
54.140 10.965529
54.145 11.501367
54.150 11.706426
54.155 11.819389
54.160 11.858758
54.165 12.3208
54.170 12.451662
54.175 12.348701
54.180 11.567089
54.185 11.18171
54.190 11.335306
54.195 11.891312
54.200 12.276045
54.205 12.196154
54.210 12.156899
54.215 12.373919
54.220 12.762608
54.225 12.803205
54.230 12.214069
54.235 12.055584
54.240 12.172689
54.245 12.079174
54.250 12.114474
54.255 12.018966
54.260 11.826032
54.265 11.692153
54.270 12.01628
54.275 12.497375
54.280 13.187822
54.285 13.275554
54.290 13.05653
54.295 13.328294
54.300 13.97611
54.305 13.89634
54.310 13.598738
54.315 13.284454
54.320 13.027998
54.325 12.880125
54.330 12.611251
54.335 11.919292
54.340 11.748474
54.345 11.293098
54.350 11.068778
54.355 11.503773
54.360 11.542459
54.365 11.846601
54.370 12.260704
54.375 12.314769
54.380 12.712006
54.385 12.398014
54.390 12.290683
54.395 12.235759
54.400 12.019434
54.405 12.114824
54.410 12.311631
54.415 12.326324
54.420 12.586524
54.425 12.208009
54.430 11.893893
54.435 11.623695
54.440 11.528962
54.445 11.240314
54.450 10.762341
54.455 10.892661
54.460 11.276865
54.465 12.114974
54.470 12.225916
54.475 11.832427
54.480 11.458921
54.485 11.340049
54.490 11.092143
54.495 10.593844
54.500 9.837996
54.505 9.724898
54.510 9.939159
54.515 10.386097
54.520 10.5635
54.525 10.684167
54.530 10.854308
54.535 11.002719
54.540 11.490595
54.545 11.979907
54.550 11.946527
54.555 12.137488
54.560 12.172433
54.565 12.160411
54.570 12.232487
54.575 11.957101
54.580 12.048502
54.585 12.317718
54.590 12.29805
54.595 12.432072
54.600 12.576971
54.605 12.896073
54.610 12.480026
54.615 11.937822
54.620 11.589734
54.625 11.391001
54.630 11.646182
54.635 11.820262
54.640 11.302371
54.645 11.19511
54.650 11.310576
54.655 11.748296
54.660 12.558631
54.665 12.434171
54.670 12.374767
54.675 12.512702
54.680 12.746827
54.685 12.366237
54.690 12.543387
54.695 12.687586
54.700 12.339947
54.705 12.140407
54.710 12.772373
54.715 13.145524
54.720 13.360788
54.725 12.211117
54.730 11.615545
54.735 11.71548
54.740 12.284001
54.745 11.69114
54.750 11.704353
54.755 12.191623
54.760 12.592557
54.765 12.854071
54.770 13.450333
54.775 13.41608
54.780 13.131507
54.785 13.24896
54.790 13.026847
54.795 12.891349
54.800 13.109137
54.805 12.649956
54.810 12.382637
54.815 12.209189
54.820 11.698367
54.825 11.504492
54.830 11.243397
54.835 11.022895
54.840 10.996559
54.845 11.726565
54.850 12.203236
54.855 12.475821
54.860 12.82486
54.865 12.956299
54.870 13.149646
54.875 12.679733
54.880 12.007107
54.885 11.914245
54.890 12.043498
54.895 12.066398
54.900 12.528501
54.905 12.429784
54.910 12.36855
54.915 12.540234
54.920 12.790627
54.925 12.488385
54.930 12.50118
54.935 12.156802
54.940 12.201538
54.945 12.750924
54.950 13.241258
54.955 13.247826
54.960 12.963861
54.965 12.679112
54.970 12.630754
54.975 12.290895
54.980 12.129736
54.985 11.634933
54.990 11.871106
54.995 11.932847
55.000 11.59316
55.005 11.412466
55.010 11.57678
55.015 12.103191
55.020 12.729735
55.025 12.665407
55.030 12.956192
55.035 13.083841
55.040 13.527407
55.045 13.636673
55.050 13.272985
55.055 12.650326
55.060 13.05545
55.065 13.78151
55.070 14.469119
55.075 13.976753
55.080 13.669169
55.085 12.839395
55.090 12.928204
55.095 12.508242
55.100 11.807833
55.105 11.579947
55.110 11.626854
55.115 11.772322
55.120 12.700343
55.125 12.756442
55.130 12.671782
55.135 13.19971
55.140 13.552701
55.145 13.604965
55.150 13.579778
55.155 12.791663
55.160 12.611163
55.165 12.892263
55.170 12.990258
55.175 12.856355
55.180 13.241002
55.185 13.576059
55.190 13.696687
55.195 13.541529
55.200 13.068581
55.205 13.099893
55.210 13.262112
55.215 12.66564
55.220 12.318523
55.225 12.694898
55.230 12.32782
55.235 12.061303
55.240 11.592264
55.245 11.568989
55.250 11.982263
55.255 12.263447
55.260 11.903732
55.265 12.080049
55.270 12.504697
55.275 12.558313
55.280 12.562132
55.285 12.443114
55.290 12.339128
55.295 12.462927
55.300 12.710851
55.305 12.232966
55.310 12.142308
55.315 11.971319
55.320 11.959642
55.325 11.892715
55.330 12.082266
55.335 12.20531
55.340 12.302702
55.345 11.764126
55.350 11.731172
55.355 12.341477
55.360 12.934844
55.365 13.478451
55.370 13.658982
55.375 13.657585
55.380 14.203857
55.385 14.1479
55.390 13.767532
55.395 13.735248
55.400 12.874257
55.405 12.584069
55.410 12.323775
55.415 11.995032
55.420 12.327775
55.425 12.704865
55.430 12.768273
55.435 13.147604
55.440 13.681775
55.445 14.849155
55.450 15.208938
55.455 14.916603
55.460 14.377935
55.465 14.533414
55.470 14.543922
55.475 14.010879
55.480 13.015638
55.485 12.63439
55.490 12.669796
55.495 12.725517
55.500 12.371645
55.505 12.226999
55.510 12.243471
55.515 12.751653
55.520 13.2108
55.525 13.035381
55.530 12.831325
55.535 13.081937
55.540 13.146731
55.545 13.00168
55.550 12.929074
55.555 13.212645
55.560 13.649908
55.565 13.621152
55.570 13.539466
55.575 13.641111
55.580 14.172832
55.585 14.166125
55.590 13.964558
55.595 13.624021
55.600 13.530953
55.605 13.365277
55.610 13.426017
55.615 12.995965
55.620 12.91835
55.625 13.011224
55.630 12.957067
55.635 13.187415
55.640 13.171131
55.645 12.893984
55.650 13.01297
55.655 12.946686
55.660 12.781541
55.665 13.288007
55.670 12.643769
55.675 12.967157
55.680 13.356124
55.685 13.275812
55.690 13.426413
55.695 13.441458
55.700 13.550942
55.705 13.909642
55.710 13.444805
55.715 13.408907
55.720 13.544883
55.725 13.756068
55.730 13.866267
55.735 13.676409
55.740 13.732795
55.745 13.57349
55.750 13.347205
55.755 12.958807
55.760 12.730867
55.765 12.656748
55.770 12.808025
55.775 12.930979
55.780 13.010491
55.785 12.99163
55.790 13.362924
55.795 13.620471
55.800 13.599576
55.805 13.456901
55.810 13.927881
55.815 14.619968
55.820 15.379474
55.825 15.442147
55.830 15.444997
55.835 15.551523
55.840 15.435392
55.845 15.06768
55.850 14.83369
55.855 14.456154
55.860 14.000173
55.865 13.506936
55.870 13.895761
55.875 14.396097
55.880 14.744532
55.885 14.639928
55.890 14.468003
55.895 14.607091
55.900 14.818634
55.905 14.391882
55.910 14.09385
55.915 14.093921
55.920 13.83845
55.925 13.954749
55.930 14.144766
55.935 14.432184
55.940 15.269273
55.945 15.423003
55.950 15.306684
55.955 15.602544
55.960 15.06074
55.965 14.83563
55.970 14.581338
55.975 14.065682
55.980 13.44666
55.985 12.816778
55.990 12.512476
55.995 12.872975
56.000 12.801677
56.005 12.480732
56.010 12.428742
56.015 12.575409
56.020 13.424162
56.025 13.646134
56.030 13.481347
56.035 13.432047
56.040 12.880103
56.045 12.84656
56.050 13.078384
56.055 12.611554
56.060 12.719817
56.065 12.996537
56.070 13.391844
56.075 14.571439
56.080 14.85513
56.085 14.269125
56.090 13.922338
56.095 14.256211
56.100 14.095403
56.105 13.94741
56.110 13.230265
56.115 12.948583
56.120 13.404861
56.125 13.429248
56.130 12.859762
56.135 13.32392
56.140 13.464306
56.145 13.518388
56.150 14.117622
56.155 14.808802
56.160 15.141083
56.165 15.341285
56.170 14.879177
56.175 14.403211
56.180 14.232559
56.185 14.010097
56.190 13.087216
56.195 12.842898
56.200 12.705069
56.205 12.937977
56.210 12.883936
56.215 13.109034
56.220 12.56916
56.225 12.843038
56.230 13.150779
56.235 13.196465
56.240 13.587526
56.245 14.04734
56.250 13.945193
56.255 13.823909
56.260 13.696153
56.265 14.184916
56.270 14.258927
56.275 14.018796
56.280 13.704369
56.285 14.230597
56.290 14.920347
56.295 15.17786
56.300 14.857862
56.305 15.180124
56.310 15.257113
56.315 15.444169
56.320 15.259042
56.325 14.673546
56.330 14.18916
56.335 13.786479
56.340 13.531221
56.345 13.586558
56.350 12.89968
56.355 12.747845
56.360 13.08143
56.365 13.582471
56.370 14.295957
56.375 14.091618
56.380 14.178332
56.385 14.647136
56.390 14.682125
56.395 14.600842
56.400 14.502863
56.405 14.182894
56.410 13.962011
56.415 14.142147
56.420 14.564011
56.425 14.545134
56.430 14.525289
56.435 14.327102
56.440 14.150441
56.445 14.375542
56.450 14.219522
56.455 13.901092
56.460 14.255989
56.465 14.486161
56.470 14.944901
56.475 15.395922
56.480 15.486928
56.485 15.086691
56.490 15.340662
56.495 14.806767
56.500 14.119035
56.505 13.951941
56.510 13.43165
56.515 13.207281
56.520 13.240015
56.525 13.253585
56.530 13.969028
56.535 13.986567
56.540 13.906275
56.545 14.283359
56.550 14.443007
56.555 14.485751
56.560 13.875319
56.565 13.526004
56.570 13.527937
56.575 13.601923
56.580 13.740314
56.585 13.859768
56.590 14.170341
56.595 14.762548
56.600 14.761038
56.605 15.07221
56.610 15.246293
56.615 15.587385
56.620 15.515163
56.625 15.316169
56.630 15.311068
56.635 15.884909
56.640 15.639227
56.645 15.151223
56.650 15.101504
56.655 14.746037
56.660 15.006833
56.665 14.524173
56.670 13.952212
56.675 13.908439
56.680 13.955747
56.685 13.857744
56.690 14.306881
56.695 14.120678
56.700 14.695108
56.705 14.826249
56.710 15.264642
56.715 15.063414
56.720 14.948241
56.725 14.769885
56.730 15.027237
56.735 14.711913
56.740 14.627794
56.745 14.041694
56.750 13.676517
56.755 13.940291
56.760 14.306753
56.765 14.63105
56.770 15.04621
56.775 15.252446
56.780 15.507854
56.785 15.738551
56.790 15.905761
56.795 16.086761
56.800 15.304038
56.805 15.0999
56.810 15.245814
56.815 15.653474
56.820 15.890658
56.825 15.456449
56.830 15.359181
56.835 15.857063
56.840 16.008116
56.845 15.94642
56.850 15.544462
56.855 15.461157
56.860 15.665314
56.865 15.714985
56.870 15.618302
56.875 15.383682
56.880 15.134523
56.885 14.988962
56.890 14.951809
56.895 14.85569
56.900 14.679337
56.905 14.466692
56.910 14.222658
56.915 14.572458
56.920 15.215158
56.925 15.386282
56.930 15.454875
56.935 15.877998
56.940 16.014437
56.945 15.681935
56.950 15.594851
56.955 14.921036
56.960 14.757307
56.965 14.172725
56.970 13.705223
56.975 14.246484
56.980 14.577348
56.985 14.711395
56.990 15.18781
56.995 15.482155
57.000 15.522027
57.005 15.074423
57.010 15.081048
57.015 15.600527
57.020 15.461786
57.025 15.134664
57.030 14.96803
57.035 14.938787
57.040 14.912247
57.045 14.296568
57.050 13.801737
57.055 13.516766
57.060 13.807529
57.065 14.180977
57.070 14.714611
57.075 15.12006
57.080 15.308366
57.085 15.634241
57.090 15.68735
57.095 15.457392
57.100 15.440376
57.105 15.402508
57.110 15.010008
57.115 15.053507
57.120 14.908206
57.125 14.892709
57.130 14.723151
57.135 14.503959
57.140 14.42196
57.145 14.513962
57.150 14.167151
57.155 14.267616
57.160 14.863313
57.165 14.941368
57.170 15.250487
57.175 14.842977
57.180 15.110437
57.185 15.253528
57.190 14.948812
57.195 14.569472
57.200 14.290984
57.205 13.896862
57.210 14.251077
57.215 13.93001
57.220 13.860761
57.225 14.036912
57.230 13.936512
57.235 14.032531
57.240 14.078194
57.245 13.975988
57.250 14.240144
57.255 14.443942
57.260 14.055328
57.265 14.039209
57.270 14.032125
57.275 13.908913
57.280 14.293426
57.285 14.430259
57.290 14.466517
57.295 14.616503
57.300 14.792747
57.305 15.0413
57.310 15.194016
57.315 15.479902
57.320 16.044903
57.325 16.426056
57.330 16.731834
57.335 17.078281
57.340 17.305452
57.345 17.139799
57.350 17.026279
57.355 16.500994
57.360 16.186632
57.365 16.074499
57.370 16.18219
57.375 16.260916
57.380 16.066618
57.385 15.875031
57.390 16.433746
57.395 16.890709
57.400 17.13022
57.405 16.69842
57.410 16.262661
57.415 16.241386
57.420 15.836452
57.425 15.140183
57.430 14.810376
57.435 14.34613
57.440 14.404648
57.445 14.715272
57.450 14.649896
57.455 14.708355
57.460 14.362727
57.465 14.782397
57.470 14.637915
57.475 14.579637
57.480 15.034985
57.485 15.226255
57.490 15.700017
57.495 16.164457
57.500 16.327673
57.505 16.807928
57.510 17.016867
57.515 16.409595
57.520 16.012556
57.525 15.874349
57.530 15.98846
57.535 15.692882
57.540 15.794548
57.545 15.695451
57.550 15.932867
57.555 15.843364
57.560 15.687901
57.565 15.672002
57.570 15.168519
57.575 14.836141
57.580 15.150034
57.585 15.047085
57.590 15.480287
57.595 15.341955
57.600 15.459031
57.605 16.011236
57.610 16.061295
57.615 16.027798
57.620 16.169037
57.625 15.429913
57.630 15.709496
57.635 15.454958
57.640 14.986885
57.645 15.080703
57.650 15.397088
57.655 15.454428
57.660 15.544399
57.665 15.055584
57.670 15.154412
57.675 15.197505
57.680 15.094667
57.685 15.010774
57.690 15.160748
57.695 15.195074
57.700 15.335451
57.705 14.864802
57.710 15.20127
57.715 15.068366
57.720 15.269653
57.725 15.16678
57.730 15.336136
57.735 15.51622
57.740 15.757415
57.745 15.343531
57.750 15.33394
57.755 14.906186
57.760 15.475578
57.765 15.843205
57.770 15.396588
57.775 15.244632
57.780 15.816658
57.785 16.380985
57.790 16.361448
57.795 15.683177
57.800 15.575464
57.805 15.824581
57.810 15.539471
57.815 15.200085
57.820 15.119302
57.825 15.676732
57.830 15.940099
57.835 16.393412
57.840 17.161718
57.845 17.464916
57.850 17.172415
57.855 16.902355
57.860 16.603996
57.865 16.661903
57.870 16.767359
57.875 16.761442
57.880 17.071802
57.885 17.391058
57.890 17.836403
57.895 18.15941
57.900 18.50136
57.905 17.672287
57.910 16.749723
57.915 16.464607
57.920 16.599707
57.925 16.677057
57.930 16.468435
57.935 15.806931
57.940 16.067181
57.945 16.291307
57.950 16.163933
57.955 16.023045
57.960 15.651064
57.965 15.715083
57.970 15.818266
57.975 16.357533
57.980 16.553276
57.985 16.381262
57.990 15.867153
57.995 16.112394
58.000 16.530809
58.005 16.632254
58.010 16.27051
58.015 16.312119
58.020 16.852266
58.025 17.220238
58.030 16.602102
58.035 15.712922
58.040 15.443892
58.045 15.006038
58.050 14.76529
58.055 15.153421
58.060 14.906617
58.065 15.196877
58.070 16.16827
58.075 16.58847
58.080 17.372736
58.085 17.602699
58.090 16.775719
58.095 16.687847
58.100 16.12182
58.105 15.91662
58.110 15.545394
58.115 14.7585
58.120 14.950049
58.125 15.770809
58.130 16.824989
58.135 17.301037
58.140 16.91555
58.145 17.16711
58.150 17.318731
58.155 17.048822
58.160 16.706718
58.165 16.157211
58.170 16.154106
58.175 16.411119
58.180 16.131092
58.185 16.334991
58.190 16.230064
58.195 15.690412
58.200 15.63963
58.205 15.749304
58.210 15.535011
58.215 15.378351
58.220 15.041249
58.225 15.313579
58.230 14.917335
58.235 14.928848
58.240 14.803889
58.245 15.298333
58.250 15.887607
58.255 16.552471
58.260 17.280058
58.265 17.788563
58.270 17.591827
58.275 17.728748
58.280 17.494841
58.285 17.015938
58.290 16.39024
58.295 15.307142
58.300 15.231668
58.305 15.632498
58.310 15.80075
58.315 15.765873
58.320 15.813544
58.325 16.149717
58.330 16.40169
58.335 16.765703
58.340 16.833773
58.345 16.475645
58.350 16.655138
58.355 16.51026
58.360 16.419809
58.365 16.217096
58.370 15.703665
58.375 15.702977
58.380 15.757975
58.385 15.307359
58.390 15.521555
58.395 15.077735
58.400 15.000497
58.405 15.438886
58.410 15.503956
58.415 15.987346
58.420 16.585058
58.425 16.479425
58.430 16.827282
58.435 17.265759
58.440 16.816395
58.445 16.953554
58.450 16.790257
58.455 16.736002
58.460 17.042845
58.465 16.997478
58.470 16.910563
58.475 16.943386
58.480 16.708338
58.485 16.568348
58.490 16.78076
58.495 17.037979
58.500 17.100527
58.505 16.838923
58.510 17.052292
58.515 16.878538
58.520 16.66494
58.525 16.390045
58.530 16.283051
58.535 16.649817
58.540 16.90926
58.545 16.892118
58.550 17.068432
58.555 17.305998
58.560 17.317417
58.565 17.808344
58.570 17.686018
58.575 17.636185
58.580 17.26893
58.585 17.042797
58.590 17.241047
58.595 17.229412
58.600 17.024235
58.605 17.333464
58.610 17.209019
58.615 17.350569
58.620 17.369627
58.625 17.051567
58.630 17.08604
58.635 16.873953
58.640 16.810431
58.645 16.608076
58.650 16.252672
58.655 16.588764
58.660 17.05101
58.665 17.018244
58.670 17.003567
58.675 16.770819
58.680 17.243101
58.685 17.534967
58.690 17.023254
58.695 16.869019
58.700 16.482199
58.705 16.422335
58.710 16.510252
58.715 16.450048
58.720 16.258245
58.725 16.063566
58.730 15.910697
58.735 16.792366
58.740 17.253963
58.745 17.828678
58.750 18.057936
58.755 18.212465
58.760 18.799313
58.765 18.854921
58.770 18.035517
58.775 17.880882
58.780 17.482519
58.785 17.215019
58.790 17.136513
58.795 16.609163
58.800 16.098272
58.805 15.762973
58.810 15.375853
58.815 15.616512
58.820 15.763962
58.825 15.823668
58.830 15.731709
58.835 16.001196
58.840 16.134466
58.845 16.564098
58.850 17.180176
58.855 17.710855
58.860 18.067556
58.865 18.179329
58.870 17.951328
58.875 17.665493
58.880 17.778763
58.885 17.3111
58.890 17.077929
58.895 16.885567
58.900 17.227219
58.905 17.464603
58.910 17.796732
58.915 17.189016
58.920 16.811953
58.925 16.783955
58.930 16.909622
58.935 17.603355
58.940 18.161924
58.945 18.358313
58.950 18.015596
58.955 17.788092
58.960 17.806479
58.965 17.819916
58.970 17.296284
58.975 16.588999
58.980 16.690208
58.985 16.774002
58.990 16.929443
58.995 16.758976
59.000 16.76823
59.005 17.064415
59.010 17.682331
59.015 17.810938
59.020 17.829468
59.025 17.89854
59.030 18.278889
59.035 18.139822
59.040 18.80965
59.045 19.219419
59.050 19.224859
59.055 19.657495
59.060 19.565693
59.065 19.679533
59.070 19.707285
59.075 18.667269
59.080 18.435337
59.085 18.585367
59.090 18.493889
59.095 18.118114
59.100 17.711449
59.105 17.592155
59.110 17.510916
59.115 17.605186
59.120 17.774221
59.125 17.599171
59.130 17.273003
59.135 17.343843
59.140 17.711155
59.145 17.58963
59.150 17.718803
59.155 17.768312
59.160 18.409834
59.165 19.141752
59.170 19.495655
59.175 19.049698
59.180 18.796452
59.185 18.484114
59.190 18.219547
59.195 17.649445
59.200 17.80871
59.205 17.515366
59.210 17.930952
59.215 18.154163
59.220 17.42371
59.225 17.026789
59.230 17.001329
59.235 16.293373
59.240 16.391397
59.245 16.64588
59.250 16.508348
59.255 16.576233
59.260 16.663338
59.265 16.913559
59.270 17.744432
59.275 17.746628
59.280 17.961695
59.285 17.925329
59.290 18.399294
59.295 18.62957
59.300 18.675406
59.305 18.570177
59.310 18.514095
59.315 18.05905
59.320 18.44825
59.325 18.600641
59.330 18.854572
59.335 18.443481
59.340 18.207972
59.345 17.828024
59.350 17.696886
59.355 17.973984
59.360 17.883684
59.365 17.445887
59.370 17.284
59.375 17.704573
59.380 18.54348
59.385 18.916714
59.390 19.102797
59.395 19.102901
59.400 19.447796
59.405 19.448559
59.410 18.692575
59.415 18.043478
59.420 17.892529
59.425 17.588976
59.430 17.744316
59.435 17.773426
59.440 18.429987
59.445 18.350235
59.450 18.112259
59.455 18.420113
59.460 18.720026
59.465 18.916361
59.470 18.913599
59.475 18.936428
59.480 19.219082
59.485 19.212858
59.490 19.155691
59.495 19.416168
59.500 19.257082
59.505 18.692249
59.510 17.859554
59.515 17.873476
59.520 18.365217
59.525 18.269701
59.530 18.143429
59.535 17.703295
59.540 17.951097
59.545 18.120125
59.550 18.027863
59.555 18.268782
59.560 18.526533
59.565 18.168678
59.570 18.438711
59.575 18.242933
59.580 18.518145
59.585 19.22345
59.590 19.282438
59.595 19.369717
59.600 19.198893
59.605 19.47891
59.610 20.38048
59.615 20.814497
59.620 20.41025
59.625 19.84918
59.630 19.751837
59.635 20.350752
59.640 20.516926
59.645 19.778023
59.650 19.90056
59.655 19.417786
59.660 19.157507
59.665 19.509439
59.670 18.90834
59.675 18.70961
59.680 19.239019
59.685 19.316368
59.690 20.649904
59.695 21.27212
59.700 21.315338
59.705 20.910328
59.710 21.267851
59.715 21.232225
59.720 21.010592
59.725 20.205853
59.730 19.874357
59.735 20.165762
59.740 21.378542
59.745 21.534286
59.750 21.808365
59.755 21.842878
59.760 21.921886
59.765 22.042761
59.770 21.930433
59.775 21.375605
59.780 20.843199
59.785 20.400824
59.790 19.864702
59.795 19.522881
59.800 19.414566
59.805 19.078327
59.810 18.98601
59.815 19.289328
59.820 19.726694
59.825 20.013809
59.830 20.09926
59.835 20.18107
59.840 20.375738
59.845 20.308935
59.850 19.383024
59.855 18.787897
59.860 18.316195
59.865 18.388838
59.870 17.99626
59.875 18.098736
59.880 18.067503
59.885 18.386335
59.890 18.734739
59.895 19.444313
59.900 20.040756
59.905 20.682951
59.910 20.641209
59.915 21.25083
59.920 21.704443
59.925 22.492395
59.930 22.189405
59.935 21.445545
59.940 20.935925
59.945 20.702152
59.950 20.95476
59.955 21.087099
59.960 20.946051
59.965 21.661398
59.970 22.659786
59.975 22.932531
59.980 22.921154
59.985 22.224472
59.990 21.926315
59.995 21.963863
60.000 21.686682
60.005 21.403315
60.010 21.736105
60.015 22.777828
60.020 23.480335
60.025 23.555117
60.030 22.773104
60.035 22.444899
60.040 22.440252
60.045 22.429008
60.050 21.920473
60.055 21.836086
60.060 22.310213
60.065 23.18675
60.070 23.854994
60.075 23.664768
60.080 23.274481
60.085 23.644484
60.090 23.393919
60.095 23.053703
60.100 22.682493
60.105 22.884991
60.110 22.789419
60.115 22.759756
60.120 22.998854
60.125 23.392439
60.130 23.579756
60.135 24.0343
60.140 23.944771
60.145 24.006857
60.150 24.404625
60.155 23.935999
60.160 23.608322
60.165 23.529863
60.170 23.179926
60.175 22.78965
60.180 22.711039
60.185 22.60918
60.190 22.246384
60.195 21.70454
60.200 21.434021
60.205 21.347174
60.210 21.431482
60.215 20.899563
60.220 20.768759
60.225 20.818783
60.230 21.15896
60.235 20.970825
60.240 20.763313
60.245 21.202595
60.250 21.71669
60.255 21.746317
60.260 22.77294
60.265 22.52165
60.270 22.037109
60.275 21.660686
60.280 21.682089
60.285 21.748508
60.290 21.731995
60.295 21.576979
60.300 21.880526
60.305 22.281635
60.310 22.766895
60.315 22.697365
60.320 22.975115
60.325 22.650728
60.330 22.662975
60.335 23.58662
60.340 24.108372
60.345 24.624218
60.350 24.506718
60.355 24.708572
60.360 24.570004
60.365 23.592712
60.370 23.069191
60.375 23.087561
60.380 22.925896
60.385 22.6728
60.390 22.602167
60.395 22.899027
60.400 23.050974
60.405 22.798359
60.410 22.80464
60.415 22.253269
60.420 22.826052
60.425 22.796873
60.430 23.287928
60.435 23.33655
60.440 22.710817
60.445 22.553957
60.450 22.55089
60.455 22.316088
60.460 21.923853
60.465 22.294659
60.470 23.385925
60.475 24.103296
60.480 24.203812
60.485 23.978165
60.490 23.323
60.495 23.224007
60.500 22.668196
60.505 22.080118
60.510 21.927256
60.515 21.876904
60.520 21.548071
60.525 22.028006
60.530 22.416759
60.535 21.885576
60.540 21.691193
60.545 21.380672
60.550 21.540701
60.555 21.920448
60.560 21.802959
60.565 21.592354
60.570 21.834654
60.575 21.709141
60.580 21.969561
60.585 21.971014
60.590 21.642561
60.595 21.576273
60.600 21.811878
60.605 22.245089
60.610 22.590115
60.615 22.184782
60.620 22.13163
60.625 22.601694
60.630 22.901989
60.635 22.103565
60.640 20.922468
60.645 21.119328
60.650 22.011555
60.655 21.815117
60.660 21.757898
60.665 21.764158
60.670 22.225807
60.675 22.52211
60.680 21.819632
60.685 21.182362
60.690 20.95508
60.695 20.511776
60.700 20.216797
60.705 20.485538
60.710 20.357361
60.715 20.62233
60.720 20.72134
60.725 20.778601
60.730 20.732338
60.735 20.410404
60.740 20.189795
60.745 19.828892
60.750 19.692711
60.755 19.428585
60.760 19.570583
60.765 20.557446
60.770 20.877598
60.775 20.818567
60.780 20.92351
60.785 21.267012
60.790 21.685297
60.795 21.657024
60.800 20.665001
60.805 20.702414
60.810 20.677065
60.815 20.784353
60.820 20.255476
60.825 19.800112
60.830 19.409082
60.835 19.370924
60.840 19.391819
60.845 19.549681
60.850 19.82085
60.855 19.771206
60.860 19.769051
60.865 19.622679
60.870 19.794241
60.875 19.593811
60.880 19.206217
60.885 18.635168
60.890 18.253675
60.895 18.183807
60.900 18.393064
60.905 18.508709
60.910 18.45067
60.915 18.208256
60.920 17.955437
60.925 18.516916
60.930 19.154118
60.935 18.959961
60.940 18.291506
60.945 18.37817
60.950 18.858044
60.955 18.741825
60.960 18.404305
60.965 17.910292
60.970 18.278036
60.975 18.392605
60.980 18.708271
60.985 18.51869
60.990 19.398762
60.995 19.277426
61.000 19.475496
61.005 18.984085
61.010 18.898623
61.015 18.892992
61.020 18.943193
61.025 18.486351
61.030 18.717268
61.035 18.847088
61.040 18.985624
61.045 19.0168
61.050 18.891317
61.055 18.997488
61.060 19.359867
61.065 19.086969
61.070 18.634314
61.075 18.59322
61.080 18.729654
61.085 18.468761
61.090 18.01993
61.095 17.736042
61.100 17.743074
61.105 17.409643
61.110 17.190823
61.115 16.795643
61.120 17.081545
61.125 17.350769
61.130 17.285624
61.135 17.427189
61.140 17.873028
61.145 18.321838
61.150 18.961569
61.155 18.739614
61.160 18.703791
61.165 18.649435
61.170 18.608904
61.175 18.798923
61.180 18.529423
61.185 17.658943
61.190 17.712004
61.195 17.504351
61.200 17.412378
61.205 17.609865
61.210 17.831926
61.215 18.796413
61.220 20.073652
61.225 19.973953
61.230 20.520357
61.235 20.37339
61.240 19.665764
61.245 19.256933
61.250 18.385212
61.255 17.996632
61.260 17.925982
61.265 17.595284
61.270 17.496229
61.275 17.42243
61.280 18.026039
61.285 17.718132
61.290 17.486525
61.295 17.553656
61.300 17.531916
61.305 18.023344
61.310 17.992235
61.315 17.566324
61.320 18.116512
61.325 18.324322
61.330 18.666983
61.335 19.162762
61.340 19.144972
61.345 18.865448
61.350 18.303339
61.355 17.956293
61.360 18.039001
61.365 17.454773
61.370 16.959419
61.375 17.167057
61.380 17.529339
61.385 17.802561
61.390 17.716322
61.395 17.548176
61.400 18.047432
61.405 18.314327
61.410 18.174364
61.415 18.293604
61.420 18.30925
61.425 18.250172
61.430 17.88986
61.435 17.626965
61.440 17.19449
61.445 16.971184
61.450 17.276884
61.455 17.500622
61.460 17.365959
61.465 17.473085
61.470 17.686193
61.475 17.780067
61.480 18.227356
61.485 17.94792
61.490 17.549603
61.495 17.380476
61.500 17.578531
61.505 17.553734
61.510 17.510708
61.515 17.243841
61.520 16.776251
61.525 17.604567
61.530 18.071962
61.535 17.627148
61.540 17.569534
61.545 18.188751
61.550 18.343601
61.555 19.126463
61.560 19.024099
61.565 19.003239
61.570 19.002533
61.575 19.183512
61.580 19.582945
61.585 19.707087
61.590 19.350359
61.595 18.744225
61.600 18.550623
61.605 18.47687
61.610 18.078955
61.615 17.333
61.620 16.610432
61.625 16.114422
61.630 15.78785
61.635 15.86467
61.640 15.746676
61.645 15.824494
61.650 16.389263
61.655 17.104408
61.660 18.327602
61.665 18.67338
61.670 18.658016
61.675 18.850788
61.680 18.967642
61.685 18.207191
61.690 17.985838
61.695 17.472067
61.700 17.676476
61.705 17.559624
61.710 17.48262
61.715 17.60981
61.720 18.293201
61.725 18.805666
61.730 19.066402
61.735 18.950064
61.740 19.499111
61.745 19.560904
61.750 19.095325
61.755 18.786634
61.760 18.580256
61.765 18.132784
61.770 17.961615
61.775 17.651815
61.780 17.487173
61.785 17.71876
61.790 17.615705
61.795 17.197287
61.800 17.702946
61.805 17.954807
61.810 18.053989
61.815 18.337395
61.820 18.372911
61.825 18.901493
61.830 18.696466
61.835 18.457497
61.840 18.995119
61.845 19.03932
61.850 18.943413
61.855 19.003002
61.860 19.098846
61.865 19.625269
61.870 19.825575
61.875 19.635275
61.880 19.92717
61.885 20.180151
61.890 20.483246
61.895 20.386885
61.900 20.582863
61.905 19.892523
61.910 19.29431
61.915 19.027569
61.920 18.868841
61.925 19.103388
61.930 18.727554
61.935 18.195162
61.940 18.484432
61.945 18.528708
61.950 18.362303
61.955 18.392578
61.960 17.248476
61.965 16.991156
61.970 17.626089
61.975 17.704203
61.980 17.900343
61.985 17.329166
61.990 16.765921
61.995 17.232422
62.000 17.275528
62.005 16.888592
62.010 17.069855
62.015 17.089315
62.020 17.495447
62.025 17.784933
62.030 17.716841
62.035 17.609446
62.040 17.65069
62.045 17.600245
62.050 18.005774
62.055 17.991344
62.060 17.934072
62.065 18.223099
62.070 18.07457
62.075 17.76499
62.080 17.40317
62.085 16.884552
62.090 17.523609
62.095 17.848621
62.100 17.761992
62.105 18.148302
62.110 18.97596
62.115 19.043579
62.120 19.147646
62.125 18.735516
62.130 18.054607
62.135 18.200737
62.140 17.993603
62.145 17.592562
62.150 18.060196
62.155 18.421946
62.160 18.730228
62.165 19.050537
62.170 18.986506
62.175 18.824194
62.180 18.679874
62.185 18.389648
62.190 17.6873
62.195 16.781635
62.200 16.490221
62.205 16.279966
62.210 16.439886
62.215 16.603327
62.220 16.746479
62.225 17.473503
62.230 17.807045
62.235 17.831329
62.240 17.789063
62.245 17.661764
62.250 17.087381
62.255 16.573015
62.260 15.936646
62.265 16.111902
62.270 16.244102
62.275 16.114923
62.280 16.275021
62.285 16.908487
62.290 17.045881
62.295 17.5355
62.300 17.139891
62.305 17.063709
62.310 17.184904
62.315 17.018003
62.320 16.909815
62.325 17.17243
62.330 16.825983
62.335 17.271809
62.340 17.085327
62.345 17.368622
62.350 17.262989
62.355 17.230116
62.360 17.082102
62.365 17.156023
62.370 17.466644
62.375 17.515171
62.380 17.383978
62.385 17.802166
62.390 18.102365
62.395 18.082758
62.400 18.234404
62.405 17.725058
62.410 17.961597
62.415 18.187328
62.420 18.279327
62.425 18.03937
62.430 17.980083
62.435 18.53516
62.440 18.889809
62.445 19.060232
62.450 19.301758
62.455 19.034977
62.460 19.508169
62.465 19.707991
62.470 19.325319
62.475 19.052975
62.480 19.001097
62.485 18.544136
62.490 18.124592
62.495 18.138186
62.500 17.762188
62.505 17.455061
62.510 18.147751
62.515 17.908478
62.520 17.561722
62.525 17.773094
62.530 17.485731
62.535 17.786974
62.540 18.202904
62.545 18.249271
62.550 18.288532
62.555 18.428743
62.560 17.756403
62.565 17.108946
62.570 16.515377
62.575 16.054413
62.580 15.185344
62.585 15.18536
62.590 15.635106
62.595 16.613516
62.600 17.050449
62.605 17.585127
62.610 18.169872
62.615 18.677811
62.620 18.759092
62.625 18.640524
62.630 18.360371
62.635 18.306658
62.640 18.139683
62.645 17.533886
62.650 17.39983
62.655 16.786839
62.660 16.450115
62.665 16.638851
62.670 17.101458
62.675 17.469589
62.680 17.572063
62.685 17.670919
62.690 18.109121
62.695 18.267727
62.700 17.916468
62.705 17.35552
62.710 16.961157
62.715 17.172188
62.720 17.050488
62.725 17.300903
62.730 17.513573
62.735 18.192068
62.740 18.496593
62.745 18.955137
62.750 18.890909
62.755 19.000076
62.760 19.333841
62.765 19.271294
62.770 18.921509
62.775 18.181761
62.780 17.176067
62.785 17.384508
62.790 17.131035
62.795 16.453674
62.800 16.461281
62.805 16.397596
62.810 16.722147
62.815 17.001669
62.820 16.671919
62.825 16.581076
62.830 16.713499
62.835 16.986307
62.840 17.133091
62.845 17.295872
62.850 17.731052
62.855 18.184912
62.860 18.738998
62.865 19.272491
62.870 19.046482
62.875 18.559641
62.880 18.204163
62.885 17.905439
62.890 17.110565
62.895 16.409184
62.900 15.69368
62.905 15.401735
62.910 16.390223
62.915 17.591791
62.920 17.69092
62.925 18.165943
62.930 18.481155
62.935 18.78895
62.940 19.211597
62.945 18.833704
62.950 17.776165
62.955 17.873087
62.960 17.660784
62.965 17.95682
62.970 18.235832
62.975 18.145144
62.980 18.122238
62.985 18.732645
62.990 18.439537
62.995 18.231424
63.000 18.005053
63.005 17.751543
63.010 18.16538
63.015 17.695396
63.020 17.318624
63.025 17.687841
63.030 17.325111
63.035 17.106115
63.040 17.485401
63.045 18.141535
63.050 18.40156
63.055 18.672825
63.060 18.968538
63.065 19.531775
63.070 19.362579
63.075 18.635687
63.080 17.413336
63.085 16.929438
63.090 16.549681
63.095 16.306442
63.100 16.362646
63.105 16.602156
63.110 16.630215
63.115 16.823277
63.120 17.485788
63.125 17.873291
63.130 17.91777
63.135 18.122343
63.140 18.003269
63.145 18.125004
63.150 18.417259
63.155 18.194942
63.160 18.079597
63.165 18.346956
63.170 18.12323
63.175 18.161198
63.180 18.234791
63.185 18.348541
63.190 18.590412
63.195 18.719849
63.200 18.310059
63.205 18.407213
63.210 18.925362
63.215 18.930105
63.220 18.87351
63.225 18.751808
63.230 18.625044
63.235 18.709312
63.240 18.564253
63.245 18.058466
63.250 18.042839
63.255 17.947071
63.260 18.079491
63.265 18.372488
63.270 18.233372
63.275 18.307623
63.280 18.48571
63.285 18.310389
63.290 18.127249
63.295 18.465401
63.300 18.300663
63.305 18.78146
63.310 18.72617
63.315 18.713209
63.320 19.244577
63.325 19.348568
63.330 18.715015
63.335 18.495153
63.340 18.421192
63.345 18.581034
63.350 18.791765
63.355 19.215208
63.360 19.556599
63.365 19.512615
63.370 19.512358
63.375 19.616955
63.380 19.90197
63.385 19.760401
63.390 19.252563
63.395 19.476337
63.400 19.654322
63.405 19.547724
63.410 18.940929
63.415 18.66634
63.420 18.839285
63.425 18.853254
63.430 18.618107
63.435 18.592936
63.440 18.765505
63.445 19.182983
63.450 19.000528
63.455 18.708536
63.460 18.693855
63.465 18.875019
63.470 18.630507
63.475 18.860064
63.480 18.844193
63.485 19.424194
63.490 19.143528
63.495 19.043669
63.500 19.038233
63.505 18.792404
63.510 18.119518
63.515 17.780949
63.520 16.920727
63.525 17.087824
63.530 17.104876
63.535 17.438725
63.540 17.818144
63.545 18.007662
63.550 18.183693
63.555 18.606106
63.560 18.606533
63.565 18.695831
63.570 18.335995
63.575 18.319693
63.580 18.169775
63.585 18.290768
63.590 18.407747
63.595 18.580822
63.600 18.668596
63.605 19.18248
63.610 18.944895
63.615 19.271938
63.620 19.344406
63.625 19.1029
63.630 18.346495
63.635 18.386002
63.640 18.120459
63.645 18.976353
63.650 19.290243
63.655 19.178404
63.660 19.556875
63.665 19.520819
63.670 19.334236
63.675 19.811596
63.680 19.252054
63.685 19.081242
63.690 18.792549
63.695 18.797577
63.700 19.291128
63.705 18.754055
63.710 18.142904
63.715 17.760151
63.720 17.56955
63.725 18.149277
63.730 18.492546
63.735 18.397032
63.740 18.625658
63.745 18.651062
63.750 18.683084
63.755 18.566891
63.760 18.652092
63.765 18.581257
63.770 18.226624
63.775 17.884653
63.780 18.1227
63.785 18.442667
63.790 18.452587
63.795 17.452705
63.800 17.066902
63.805 17.228453
63.810 17.850882
63.815 18.013515
63.820 17.365934
63.825 17.41584
63.830 17.717991
63.835 18.010134
63.840 18.113878
63.845 17.802933
63.850 17.928175
63.855 18.931753
63.860 18.896528
63.865 18.977854
63.870 19.022577
63.875 19.172537
63.880 19.36577
63.885 19.4856
63.890 19.284901
63.895 19.578669
63.900 19.545347
63.905 19.185711
63.910 18.897041
63.915 18.441664
63.920 17.833183
63.925 18.060265
63.930 17.895306
63.935 17.882278
63.940 18.136225
63.945 18.895706
63.950 19.308596
63.955 19.830673
63.960 19.374569
63.965 19.333542
63.970 18.931694
63.975 18.322571
63.980 17.837914
63.985 17.978001
63.990 18.15847
63.995 18.72957
64.000 19.690014
64.005 20.287359
64.010 20.566412
64.015 20.898449
64.020 20.787878
64.025 20.739723
64.030 20.134851
64.035 19.204988
64.040 19.392626
64.045 19.513893
64.050 19.074203
64.055 18.815041
64.060 17.884302
64.065 17.756042
64.070 17.567533
64.075 17.30056
64.080 16.96883
64.085 17.307888
64.090 17.686909
64.095 17.873777
64.100 17.392456
64.105 17.41925
64.110 17.360489
64.115 17.206745
64.120 16.846981
64.125 16.674696
64.130 17.288105
64.135 17.82601
64.140 17.948099
64.145 17.851416
64.150 18.181553
64.155 18.391903
64.160 18.987659
64.165 18.621426
64.170 18.983536
64.175 18.920643
64.180 19.330683
64.185 19.548243
64.190 19.74124
64.195 19.108845
64.200 19.407852
64.205 19.538021
64.210 20.259033
64.215 20.241755
64.220 20.169127
64.225 19.399374
64.230 19.261581
64.235 19.368521
64.240 19.878397
64.245 19.70941
64.250 19.258797
64.255 19.603603
64.260 20.320686
64.265 20.058735
64.270 19.644979
64.275 18.802767
64.280 18.515141
64.285 18.826805
64.290 18.515617
64.295 18.27569
64.300 18.411127
64.305 18.142574
64.310 18.378736
64.315 18.501898
64.320 18.506578
64.325 18.475731
64.330 18.906958
64.335 19.490753
64.340 20.221558
64.345 20.68045
64.350 20.565956
64.355 20.60726
64.360 21.596323
64.365 21.374165
64.370 21.572279
64.375 21.487577
64.380 21.616455
64.385 21.260786
64.390 20.646173
64.395 20.409657
64.400 20.669838
64.405 20.123562
64.410 20.059956
64.415 19.742432
64.420 19.5098
64.425 19.74712
64.430 19.251026
64.435 19.54776
64.440 19.522776
64.445 19.609884
64.450 20.208206
64.455 20.7132
64.460 20.825748
64.465 21.270996
64.470 20.96793
64.475 21.301535
64.480 21.527916
64.485 21.403898
64.490 22.161087
64.495 22.610327
64.500 22.028519
64.505 21.584387
64.510 21.192225
64.515 20.904766
64.520 20.552378
64.525 20.018009
64.530 19.524986
64.535 19.772343
64.540 20.637724
64.545 20.734093
64.550 19.797764
64.555 19.670898
64.560 19.69961
64.565 19.900236
64.570 20.087952
64.575 19.461945
64.580 19.130064
64.585 19.783386
64.590 19.575012
64.595 19.097788
64.600 18.750666
64.605 18.670366
64.610 18.882303
64.615 19.548264
64.620 20.037174
64.625 20.171225
64.630 20.296852
64.635 20.409763
64.640 19.889587
64.645 20.182522
64.650 19.771584
64.655 19.253008
64.660 19.748619
64.665 20.10083
64.670 20.013821
64.675 20.507294
64.680 20.330322
64.685 20.502256
64.690 20.501553
64.695 20.12817
64.700 20.224398
64.705 20.25021
64.710 20.105333
64.715 19.957766
64.720 19.835396
64.725 20.14555
64.730 20.533985
64.735 20.414322
64.740 20.586748
64.745 20.910496
64.750 21.468283
64.755 21.942505
64.760 22.057425
64.765 21.937527
64.770 21.404903
64.775 21.226772
64.780 20.883635
64.785 20.5949
64.790 19.876215
64.795 19.813488
64.800 19.905252
64.805 20.222492
64.810 20.190947
64.815 20.143242
64.820 20.349405
64.825 20.683281
64.830 20.022192
64.835 20.390587
64.840 20.710629
64.845 20.407797
64.850 20.724951
64.855 21.031345
64.860 21.33684
64.865 21.261438
64.870 21.10795
64.875 21.214142
64.880 21.012077
64.885 20.744293
64.890 20.214336
64.895 19.865444
64.900 19.929113
64.905 19.571949
64.910 19.527067
64.915 19.773209
64.920 19.635382
64.925 19.993961
64.930 21.053787
64.935 21.413412
64.940 21.983419
64.945 22.365068
64.950 22.956081
64.955 22.848886
64.960 22.212347
64.965 21.608545
64.970 21.700739
64.975 21.225084
64.980 20.440964
64.985 20.338053
64.990 21.26774
64.995 21.714983
65.000 21.916729
65.005 22.195349
65.010 23.200527
65.015 23.978275
65.020 24.876389
65.025 24.456558
65.030 24.594322
65.035 24.418097
65.040 24.619192
65.045 24.940145
65.050 24.782913
65.055 24.774519
65.060 25.411093
65.065 24.943054
65.070 25.100561
65.075 24.84738
65.080 24.489706
65.085 24.370737
65.090 24.245386
65.095 23.952902
65.100 24.780489
65.105 25.034008
65.110 25.39994
65.115 25.134026
65.120 24.788263
65.125 24.710276
65.130 24.530209
65.135 24.679436
65.140 24.097076
65.145 24.111961
65.150 24.180552
65.155 24.148619
65.160 24.45645
65.165 24.569475
65.170 24.491615
65.175 24.713947
65.180 24.512396
65.185 24.661942
65.190 24.923264
65.195 24.52758
65.200 24.498514
65.205 24.592876
65.210 24.838909
65.215 24.672655
65.220 24.465485
65.225 24.036596
65.230 23.872482
65.235 23.883417
65.240 23.760492
65.245 24.17083
65.250 24.388874
65.255 24.280577
65.260 24.147684
65.265 24.338274
65.270 24.288895
65.275 23.746704
65.280 23.60841
65.285 24.057707
65.290 24.297577
65.295 24.897636
65.300 24.481861
65.305 24.129309
65.310 24.033903
65.315 23.566004
65.320 22.847641
65.325 22.190706
65.330 21.747608
65.335 21.739817
65.340 21.6488
65.345 22.082674
65.350 22.536556
65.355 22.19664
65.360 22.926029
65.365 23.429739
65.370 24.269423
65.375 24.604591
65.380 24.194798
65.385 24.389811
65.390 25.411999
65.395 25.343925
65.400 25.423109
65.405 25.256693
65.410 25.66466
65.415 26.456726
65.420 26.310743
65.425 25.868183
65.430 25.763863
65.435 25.470282
65.440 26.223783
65.445 26.114897
65.450 25.623833
65.455 25.262907
65.460 26.08259
65.465 26.614923
65.470 26.266346
65.475 25.614433
65.480 25.863306
65.485 26.533569
65.490 27.058245
65.495 26.841873
65.500 27.084061
65.505 28.691711
65.510 30.08753
65.515 30.515921
65.520 30.358255
65.525 30.677231
65.530 31.021646
65.535 31.217405
65.540 30.648241
65.545 30.190067
65.550 30.434589
65.555 30.790442
65.560 30.856699
65.565 30.116728
65.570 30.262653
65.575 30.325857
65.580 29.876724
65.585 29.758009
65.590 29.548292
65.595 29.379869
65.600 29.91354
65.605 30.230129
65.610 30.314798
65.615 31.047972
65.620 31.875738
65.625 31.99637
65.630 32.481197
65.635 32.429516
65.640 32.307167
65.645 33.005009
65.650 33.019817
65.655 33.192547
65.660 33.103489
65.665 33.005844
65.670 33.525234
65.675 34.155178
65.680 34.35685
65.685 33.876938
65.690 34.07806
65.695 34.824623
65.700 34.757114
65.705 34.489689
65.710 34.040833
65.715 34.613594
65.720 35.230366
65.725 35.070499
65.730 35.281036
65.735 35.25996
65.740 35.162872
65.745 35.238972
65.750 35.223286
65.755 36.085697
65.760 36.505299
65.765 37.599064
65.770 38.490852
65.775 38.467747
65.780 38.153519
65.785 38.545845
65.790 38.100502
65.795 37.162216
65.800 36.601444
65.805 37.027153
65.810 38.069233
65.815 38.548862
65.820 38.341846
65.825 38.174892
65.830 39.043095
65.835 39.41518
65.840 39.909561
65.845 39.42868
65.850 39.021923
65.855 38.673389
65.860 39.003029
65.865 38.654976
65.870 38.199692
65.875 37.780285
65.880 38.370945
65.885 38.534935
65.890 38.783234
65.895 38.4324
65.900 38.590759
65.905 38.600327
65.910 37.490788
65.915 37.27515
65.920 37.998611
65.925 37.818913
65.930 38.344803
65.935 38.122986
65.940 38.079254
65.945 38.909092
65.950 38.738205
65.955 38.599438
65.960 39.512791
65.965 39.346798
65.970 39.98547
65.975 40.643616
65.980 40.002979
65.985 40.251274
65.990 40.53307
65.995 39.851532
66.000 39.317196
66.005 38.733543
66.010 38.042671
66.015 38.321148
66.020 37.495251
66.025 36.832008
66.030 36.573025
66.035 36.660583
66.040 36.433632
66.045 37.05162
66.050 37.264832
66.055 37.408836
66.060 37.976471
66.065 38.908962
66.070 39.104851
66.075 39.596375
66.080 39.409164
66.085 39.65863
66.090 39.900734
66.095 39.086296
66.100 38.206997
66.105 37.612877
66.110 37.393917
66.115 37.612225
66.120 37.334568
66.125 36.833866
66.130 37.080269
66.135 37.202751
66.140 37.019066
66.145 36.33939
66.150 35.859867
66.155 35.575607
66.160 35.42421
66.165 35.195602
66.170 34.748859
66.175 35.28537
66.180 35.422005
66.185 35.300541
66.190 35.005024
66.195 35.059967
66.200 35.320389
66.205 35.320293
66.210 34.371883
66.215 34.250244
66.220 35.227383
66.225 35.023979
66.230 34.376175
66.235 33.98893
66.240 34.482677
66.245 35.829784
66.250 36.480907
66.255 35.71006
66.260 36.763958
66.265 37.55904
66.270 37.2174
66.275 36.9114
66.280 36.121368
66.285 35.194664
66.290 35.367832
66.295 35.323532
66.300 34.465683
66.305 33.653603
66.310 33.279503
66.315 33.253201
66.320 32.997478
66.325 32.29623
66.330 31.134697
66.335 31.343149
66.340 31.294327
66.345 30.650455
66.350 30.334541
66.355 30.792257
66.360 31.004236
66.365 31.158411
66.370 30.968851
66.375 31.378727
66.380 32.039501
66.385 32.217052
66.390 31.131275
66.395 30.775105
66.400 30.679441
66.405 31.170271
66.410 31.674257
66.415 31.426649
66.420 31.345442
66.425 31.786495
66.430 31.515232
66.435 31.919903
66.440 31.926945
66.445 31.437054
66.450 31.049196
66.455 29.999363
66.460 29.647903
66.465 29.882162
66.470 28.722248
66.475 27.842121
66.480 27.495947
66.485 27.228075
66.490 27.902636
66.495 27.803558
66.500 27.5408
66.505 28.256062
66.510 28.669638
66.515 28.599352
66.520 28.440107
66.525 28.295874
66.530 28.893894
66.535 29.389099
66.540 29.401747
66.545 29.192976
66.550 28.68573
66.555 29.231628
66.560 29.506641
66.565 29.278242
66.570 29.142607
66.575 28.393938
66.580 27.765734
66.585 27.595804
66.590 27.308252
66.595 26.998596
66.600 26.418863
66.605 25.714552
66.610 25.693287
66.615 26.233156
66.620 26.810448
66.625 26.88195
66.630 27.175404
66.635 27.103327
66.640 27.597475
66.645 27.583904
66.650 27.262161
66.655 27.052605
66.660 26.580702
66.665 25.847481
66.670 25.420002
66.675 25.040558
66.680 25.08
66.685 25.05727
66.690 24.64802
66.695 25.050667
66.700 25.210926
66.705 25.681078
66.710 26.082375
66.715 26.541212
66.720 27.381859
66.725 27.320936
66.730 27.268373
66.735 27.535294
66.740 28.007444
66.745 27.83745
66.750 27.059919
66.755 26.217384
66.760 25.661526
66.765 25.097383
66.770 25.086967
66.775 24.823654
66.780 25.159082
66.785 25.004868
66.790 24.760834
66.795 24.98941
66.800 25.166378
66.805 23.83543
66.810 23.230133
66.815 22.963306
66.820 23.609497
66.825 23.902311
66.830 24.131672
66.835 24.203583
66.840 24.325443
66.845 24.50355
66.850 24.110331
66.855 23.096035
66.860 22.971306
66.865 22.690348
66.870 22.672728
66.875 23.25349
66.880 22.872093
66.885 23.177132
66.890 23.330364
66.895 22.896257
66.900 23.119589
66.905 23.349018
66.910 23.563498
66.915 24.133114
66.920 23.955425
66.925 24.128721
66.930 24.822775
66.935 24.987926
66.940 25.039566
66.945 24.750277
66.950 24.637749
66.955 24.350327
66.960 24.65209
66.965 24.586926
66.970 24.122402
66.975 23.665129
66.980 23.485815
66.985 23.224192
66.990 23.51943
66.995 23.559996
67.000 23.086348
67.005 23.181829
67.010 23.383902
67.015 23.605793
67.020 23.428276
67.025 22.631992
67.030 22.169374
67.035 21.979424
67.040 22.528648
67.045 22.412628
67.050 22.135239
67.055 22.700956
67.060 23.050484
67.065 23.585192
67.070 24.102085
67.075 23.879847
67.080 23.674458
67.085 23.446293
67.090 23.063906
67.095 23.274675
67.100 23.611259
67.105 23.367393
67.110 22.767429
67.115 23.185474
67.120 23.936068
67.125 24.338734
67.130 23.952501
67.135 23.173635
67.140 22.763531
67.145 23.277254
67.150 23.325266
67.155 22.921194
67.160 22.53282
67.165 22.813171
67.170 23.041603
67.175 23.293406
67.180 22.703739
67.185 22.914206
67.190 22.85881
67.195 22.931759
67.200 22.816757
67.205 22.450462
67.210 22.145941
67.215 22.154636
67.220 22.041636
67.225 22.62504
67.230 22.355579
67.235 21.920912
67.240 21.867598
67.245 22.238756
67.250 22.125067
67.255 22.211882
67.260 22.184422
67.265 22.586821
67.270 23.180914
67.275 23.470564
67.280 23.777641
67.285 24.884104
67.290 24.75219
67.295 24.399752
67.300 24.712009
67.305 24.229633
67.310 23.887583
67.315 23.264231
67.320 21.891384
67.325 21.395638
67.330 21.256062
67.335 21.356472
67.340 21.769598
67.345 22.442541
67.350 22.718374
67.355 23.032372
67.360 23.154982
67.365 22.882872
67.370 22.211702
67.375 21.641249
67.380 21.253757
67.385 21.257462
67.390 21.321634
67.395 21.31933
67.400 21.112284
67.405 21.353144
67.410 21.734665
67.415 21.995804
67.420 21.6555
67.425 21.565832
67.430 22.196543
67.435 23.36104
67.440 23.93675
67.445 24.060387
67.450 24.227949
67.455 24.52582
67.460 24.213068
67.465 23.642334
67.470 22.576265
67.475 21.58042
67.480 21.451254
67.485 21.159462
67.490 21.816435
67.495 22.102257
67.500 22.588011
67.505 22.432779
67.510 22.461521
67.515 22.338905
67.520 22.567368
67.525 22.504339
67.530 22.55983
67.535 21.823311
67.540 21.935434
67.545 22.497164
67.550 22.847408
67.555 23.058836
67.560 22.703146
67.565 22.569126
67.570 23.149424
67.575 23.852001
67.580 23.78508
67.585 23.85722
67.590 23.472584
67.595 23.250559
67.600 23.092541
67.605 22.947781
67.610 23.209993
67.615 23.021608
67.620 23.04353
67.625 23.653765
67.630 24.522352
67.635 24.852924
67.640 24.523436
67.645 23.960546
67.650 24.042332
67.655 24.288294
67.660 23.932875
67.665 24.267605
67.670 24.340881
67.675 24.415745
67.680 24.31823
67.685 24.171387
67.690 23.921793
67.695 23.279749
67.700 22.557009
67.705 22.569319
67.710 22.799053
67.715 22.923317
67.720 22.734638
67.725 22.876471
67.730 22.113537
67.735 21.888151
67.740 21.636683
67.745 21.742119
67.750 21.712965
67.755 21.664753
67.760 21.279121
67.765 22.195
67.770 22.421633
67.775 22.294949
67.780 22.094633
67.785 22.027819
67.790 22.132086
67.795 21.608049
67.800 21.45907
67.805 21.16894
67.810 20.922077
67.815 21.232328
67.820 21.689621
67.825 21.311319
67.830 21.533085
67.835 21.295256
67.840 21.396023
67.845 21.869802
67.850 21.908388
67.855 21.806566
67.860 22.101961
67.865 22.297445
67.870 22.326206
67.875 22.543671
67.880 22.054356
67.885 22.047796
67.890 21.630274
67.895 21.992083
67.900 22.265921
67.905 23.073898
67.910 22.992693
67.915 22.924469
67.920 22.63467
67.925 22.920385
67.930 22.958313
67.935 22.337336
67.940 21.253241
67.945 21.271488
67.950 21.327076
67.955 21.511444
67.960 21.257334
67.965 21.266003
67.970 21.755899
67.975 22.188967
67.980 22.034266
67.985 21.834398
67.990 21.552937
67.995 21.146477
68.000 20.087278
68.005 19.630325
68.010 19.832373
68.015 20.163908
68.020 20.544333
68.025 20.70743
68.030 20.698973
68.035 21.054314
68.040 21.30739
68.045 21.141407
68.050 20.827518
68.055 20.349751
68.060 20.385178
68.065 20.353245
68.070 20.248589
68.075 20.229586
68.080 20.369169
68.085 21.033773
68.090 21.169308
68.095 21.35071
68.100 22.035118
68.105 22.476629
68.110 22.57465
68.115 22.905689
68.120 22.716209
68.125 23.462473
68.130 23.630661
68.135 23.557739
68.140 23.150208
68.145 22.427374
68.150 21.871437
68.155 21.74979
68.160 21.534624
68.165 21.383501
68.170 21.423271
68.175 21.679066
68.180 22.297909
68.185 22.039
68.190 22.302053
68.195 21.796869
68.200 21.347918
68.205 21.364603
68.210 21.303606
68.215 21.152426
68.220 21.524233
68.225 21.032001
68.230 21.272104
68.235 21.389811
68.240 20.979683
68.245 20.861471
68.250 21.267363
68.255 21.23176
68.260 21.662394
68.265 21.923538
68.270 22.17564
68.275 22.910452
68.280 23.242908
68.285 22.43429
68.290 22.25601
68.295 22.129658
68.300 22.096842
68.305 21.832285
68.310 21.573677
68.315 21.491552
68.320 21.381756
68.325 21.45495
68.330 21.277433
68.335 21.06744
68.340 21.261459
68.345 21.351675
68.350 21.632025
68.355 22.315163
68.360 22.01149
68.365 21.899405
68.370 22.308023
68.375 22.425297
68.380 22.296043
68.385 22.396009
68.390 22.306957
68.395 21.902395
68.400 22.155609
68.405 21.872366
68.410 22.055576
68.415 22.313614
68.420 21.78393
68.425 21.75947
68.430 22.652048
68.435 22.606993
68.440 22.450836
68.445 22.020716
68.450 21.510567
68.455 22.061686
68.460 22.321009
68.465 22.369843
68.470 22.637136
68.475 22.853996
68.480 22.840277
68.485 23.131298
68.490 22.361917
68.495 22.409393
68.500 22.34457
68.505 22.085724
68.510 21.985327
68.515 21.980267
68.520 21.961475
68.525 21.998161
68.530 22.096714
68.535 22.160852
68.540 22.607758
68.545 22.833796
68.550 22.52689
68.555 22.351603
68.560 22.65332
68.565 22.119228
68.570 21.518147
68.575 20.936035
68.580 20.883383
68.585 21.163359
68.590 21.739689
68.595 22.114267
68.600 22.212814
68.605 22.67909
68.610 23.007261
68.615 23.970802
68.620 23.821672
68.625 23.498541
68.630 23.845772
68.635 24.614187
68.640 24.269341
68.645 24.26968
68.650 23.777891
68.655 24.853785
68.660 24.551338
68.665 23.796913
68.670 23.673851
68.675 23.979313
68.680 24.114847
68.685 24.094973
68.690 23.252907
68.695 23.555275
68.700 23.581987
68.705 23.255138
68.710 23.167402
68.715 22.797552
68.720 22.717239
68.725 22.425045
68.730 22.699007
68.735 22.506403
68.740 22.328819
68.745 22.042255
68.750 22.35586
68.755 22.616076
68.760 23.176048
68.765 22.923023
68.770 22.856741
68.775 23.317343
68.780 23.598602
68.785 22.943426
68.790 22.509321
68.795 22.075886
68.800 21.865013
68.805 22.112131
68.810 22.545345
68.815 22.630226
68.820 23.45351
68.825 23.64431
68.830 23.823231
68.835 24.717272
68.840 24.587151
68.845 24.25094
68.850 24.635643
68.855 25.252779
68.860 25.390829
68.865 25.449915
68.870 25.063906
68.875 25.152502
68.880 24.781433
68.885 24.06708
68.890 23.052208
68.895 23.058022
68.900 22.415859
68.905 22.538176
68.910 22.809715
68.915 22.595436
68.920 22.963043
68.925 23.404554
68.930 23.659246
68.935 24.167921
68.940 23.663904
68.945 23.567865
68.950 24.334795
68.955 24.350067
68.960 24.038059
68.965 23.467196
68.970 23.606592
68.975 23.556234
68.980 22.904568
68.985 22.619226
68.990 23.232986
68.995 23.558834
69.000 23.931839
69.005 24.117258
69.010 24.674423
69.015 24.842045
69.020 24.653522
69.025 24.002853
69.030 23.534767
69.035 23.484085
69.040 23.689177
69.045 23.394205
69.050 23.553038
69.055 24.00165
69.060 24.362164
69.065 24.807671
69.070 25.475584
69.075 24.623598
69.080 25.336306
69.085 25.260183
69.090 25.262524
69.095 25.237766
69.100 25.634512
69.105 25.849003
69.110 25.981438
69.115 26.143663
69.120 26.675575
69.125 27.195116
69.130 27.60498
69.135 27.43611
69.140 27.138927
69.145 26.598867
69.150 26.615818
69.155 26.085888
69.160 25.962023
69.165 25.529093
69.170 25.319498
69.175 25.8922
69.180 26.265755
69.185 26.082273
69.190 26.55455
69.195 26.656202
69.200 26.178492
69.205 26.851366
69.210 27.285599
69.215 27.706499
69.220 27.459646
69.225 26.866386
69.230 26.914341
69.235 27.252419
69.240 26.865383
69.245 27.108179
69.250 26.944616
69.255 27.699615
69.260 27.413357
69.265 27.345018
69.270 27.599072
69.275 27.534319
69.280 27.363539
69.285 27.665556
69.290 27.82358
69.295 28.134577
69.300 28.737148
69.305 28.930262
69.310 28.927961
69.315 28.982996
69.320 29.054337
69.325 28.820833
69.330 28.466827
69.335 28.307707
69.340 27.777517
69.345 27.875393
69.350 27.832588
69.355 27.55051
69.360 28.131264
69.365 28.334202
69.370 27.636581
69.375 28.624985
69.380 28.001932
69.385 28.078768
69.390 28.973574
69.395 28.665789
69.400 29.019243
69.405 29.107935
69.410 28.84392
69.415 28.787546
69.420 29.135639
69.425 28.749872
69.430 29.327999
69.435 30.197983
69.440 30.955553
69.445 31.180622
69.450 31.526918
69.455 30.621874
69.460 29.524445
69.465 28.667332
69.470 28.142231
69.475 27.341068
69.480 27.569305
69.485 27.894236
69.490 28.411343
69.495 28.583593
69.500 28.140453
69.505 27.458664
69.510 27.144644
69.515 26.704657
69.520 26.328173
69.525 26.265724
69.530 26.938194
69.535 27.276077
69.540 27.003109
69.545 27.223738
69.550 27.175171
69.555 27.33922
69.560 27.748611
69.565 27.742868
69.570 28.447149
69.575 28.735184
69.580 29.083303
69.585 29.057686
69.590 28.417286
69.595 27.842138
69.600 27.385683
69.605 27.432922
69.610 27.634649
69.615 27.764446
69.620 28.442619
69.625 28.867373
69.630 28.646908
69.635 29.170765
69.640 29.458101
69.645 29.728065
69.650 29.232309
69.655 28.359861
69.660 28.415091
69.665 28.410664
69.670 27.448921
69.675 27.164551
69.680 27.502447
69.685 27.980398
69.690 28.353258
69.695 27.89883
69.700 28.430168
69.705 28.997578
69.710 28.978123
69.715 28.61871
69.720 28.485514
69.725 28.391317
69.730 28.768017
69.735 28.874987
69.740 28.686296
69.745 28.662901
69.750 27.907068
69.755 27.1742
69.760 27.812658
69.765 27.915834
69.770 27.865892
69.775 27.586603
69.780 27.912342
69.785 28.631401
69.790 28.795719
69.795 27.093172
69.800 26.857941
69.805 27.136194
69.810 27.370779
69.815 27.22245
69.820 26.804283
69.825 28.189911
69.830 29.172302
69.835 28.624245
69.840 27.896341
69.845 27.271305
69.850 27.276918
69.855 27.238657
69.860 25.757341
69.865 25.483521
69.870 25.146765
69.875 25.4006
69.880 25.280704
69.885 24.171993
69.890 24.807125
69.895 24.467628
69.900 24.802067
69.905 25.422363
69.910 25.325342
69.915 25.487722
69.920 25.910383
69.925 25.644693
69.930 25.54187
69.935 24.498171
69.940 23.507017
69.945 23.498421
69.950 23.554853
69.955 23.034561
69.960 22.338358
69.965 21.854862
69.970 22.118214
69.975 22.553713
69.980 22.199982
69.985 21.674084
69.990 21.257893
69.995 21.44825
70.000 21.869295
70.005 21.618034
70.010 20.95545
70.015 20.83692
70.020 20.761133
70.025 21.100031
70.030 20.928366
70.035 20.728506
70.040 20.843628
70.045 20.818399
70.050 20.95768
70.055 21.054096
70.060 20.935881
70.065 21.355686
70.070 21.796104
70.075 22.249298
70.080 22.224916
70.085 22.161539
70.090 21.818415
70.095 21.375834
70.100 21.25
70.105 21.130014
70.110 21.277096
70.115 22.227886
70.120 22.552845
70.125 22.465263
70.130 22.717251
70.135 22.560448
70.140 22.410698
70.145 22.239317
70.150 21.910406
70.155 21.941811
70.160 22.374973
70.165 22.450218
70.170 22.926689
70.175 22.831793
70.180 22.858637
70.185 22.650444
70.190 22.426182
70.195 22.97024
70.200 23.977659
70.205 23.565807
70.210 23.374245
70.215 23.112986
70.220 22.330782
70.225 21.808352
70.230 21.220411
70.235 20.166195
70.240 20.141964
70.245 19.88331
70.250 20.260443
70.255 20.80969
70.260 21.340881
70.265 21.020876
70.270 21.174788
70.275 21.536444
70.280 21.77298
70.285 21.777666
70.290 21.364401
70.295 21.503849
70.300 21.849241
70.305 21.407215
70.310 21.152563
70.315 21.35578
70.320 21.859642
70.325 22.263186
70.330 21.596685
70.335 21.194241
70.340 21.251131
70.345 21.057428
70.350 21.186007
70.355 21.523613
70.360 21.778864
70.365 21.973583
70.370 21.839235
70.375 21.924128
70.380 21.596136
70.385 20.765909
70.390 20.422655
70.395 20.642475
70.400 21.221046
70.405 21.590782
70.410 21.182476
70.415 20.825371
70.420 20.492603
70.425 20.075176
70.430 19.562407
70.435 18.953819
70.440 19.46921
70.445 20.512589
70.450 21.251978
70.455 21.374773
70.460 21.370548
70.465 21.468109
70.470 21.869144
70.475 21.769823
70.480 21.370386
70.485 21.57349
70.490 21.284254
70.495 21.164083
70.500 20.828436
70.505 20.304981
70.510 19.878147
70.515 19.903934
70.520 19.864634
70.525 20.183321
70.530 20.305456
70.535 20.811302
70.540 21.074348
70.545 21.205601
70.550 21.104618
70.555 21.204039
70.560 21.676506
70.565 22.038202
70.570 22.02038
70.575 22.065567
70.580 22.099026
70.585 22.097843
70.590 21.908028
70.595 21.408127
70.600 21.546391
70.605 20.984158
70.610 20.446308
70.615 21.136148
70.620 21.055119
70.625 20.850084
70.630 20.483702
70.635 19.725763
70.640 19.952091
70.645 19.745291
70.650 19.209793
70.655 19.328989
70.660 19.806051
70.665 20.890245
70.670 20.870203
70.675 21.094307
70.680 21.570114
70.685 21.533794
70.690 22.3743
70.695 21.817368
70.700 21.198891
70.705 21.722851
70.710 21.890882
70.715 21.3575
70.720 20.228642
70.725 19.669779
70.730 19.814878
70.735 20.05158
70.740 19.301201
70.745 18.389128
70.750 18.798111
70.755 19.034536
70.760 19.046993
70.765 19.390923
70.770 19.714638
70.775 20.502098
70.780 21.230221
70.785 21.136341
70.790 21.027712
70.795 20.895002
70.800 20.326538
70.805 20.096872
70.810 19.53479
70.815 19.785019
70.820 20.218813
70.825 19.999697
70.830 20.112806
70.835 20.70874
70.840 21.119352
70.845 21.598618
70.850 21.6012
70.855 21.446955
70.860 21.518875
70.865 20.740597
70.870 20.080738
70.875 19.713243
70.880 19.356459
70.885 18.987471
70.890 19.879538
70.895 20.801893
70.900 21.37817
70.905 21.453756
70.910 21.548904
70.915 21.614656
70.920 21.281281
70.925 20.712553
70.930 20.324026
70.935 20.365992
70.940 20.031075
70.945 19.928293
70.950 19.898972
70.955 19.544855
70.960 19.123636
70.965 18.625439
70.970 18.575678
70.975 18.540073
70.980 19.137907
70.985 19.230173
70.990 19.866245
70.995 20.535595
71.000 20.960466
71.005 21.110073
71.010 21.239204
71.015 20.888584
71.020 20.950352
71.025 20.601196
71.030 20.222229
71.035 19.715284
71.040 19.108976
71.045 18.93734
71.050 19.056973
71.055 19.036507
71.060 19.344172
71.065 19.542322
71.070 19.699793
71.075 19.906536
71.080 19.670584
71.085 19.75189
71.090 19.78656
71.095 19.506563
71.100 19.400066
71.105 19.671343
71.110 19.348818
71.115 19.60083
71.120 19.147968
71.125 19.081289
71.130 18.969275
71.135 18.724932
71.140 18.830795
71.145 18.984867
71.150 18.352238
71.155 18.454678
71.160 18.777517
71.165 19.665598
71.170 20.028635
71.175 19.857275
71.180 20.454498
71.185 20.939318
71.190 20.798006
71.195 20.240965
71.200 19.12394
71.205 19.25831
71.210 19.612284
71.215 20.154331
71.220 20.13065
71.225 20.118124
71.230 20.220192
71.235 20.08626
71.240 19.431131
71.245 18.893852
71.250 18.147511
71.255 18.220722
71.260 18.106306
71.265 18.35903
71.270 18.932289
71.275 19.473244
71.280 19.604692
71.285 19.121584
71.290 19.412863
71.295 19.850874
71.300 19.499798
71.305 19.65995
71.310 18.95517
71.315 19.21225
71.320 19.524557
71.325 19.141161
71.330 18.742832
71.335 18.848808
71.340 18.294291
71.345 18.644039
71.350 18.394505
71.355 18.438646
71.360 18.470221
71.365 18.973244
71.370 19.485659
71.375 20.096571
71.380 20.339939
71.385 20.819651
71.390 20.739946
71.395 20.078484
71.400 19.527519
71.405 18.666807
71.410 18.965979
71.415 18.673521
71.420 18.403519
71.425 18.423805
71.430 18.943008
71.435 19.737154
71.440 19.861004
71.445 19.059595
71.450 19.689451
71.455 20.527887
71.460 20.736748
71.465 19.965137
71.470 19.809559
71.475 19.994925
71.480 19.873247
71.485 19.100613
71.490 18.682383
71.495 19.138367
71.500 19.040674
71.505 18.727247
71.510 18.474691
71.515 18.734713
71.520 18.901262
71.525 18.960035
71.530 18.594017
71.535 18.760635
71.540 19.249033
71.545 19.719305
71.550 19.726696
71.555 19.898773
71.560 20.364902
71.565 20.444195
71.570 20.525152
71.575 20.02923
71.580 19.31843
71.585 19.682154
71.590 19.48008
71.595 19.783867
71.600 20.050398
71.605 20.495176
71.610 21.295877
71.615 21.336195
71.620 20.490141
71.625 20.021107
71.630 19.874823
71.635 20.223236
71.640 20.261099
71.645 19.732342
71.650 20.056738
71.655 19.928659
71.660 19.990925
71.665 20.085793
71.670 20.027843
71.675 19.778484
71.680 20.229256
71.685 20.060297
71.690 20.122557
71.695 19.970665
71.700 19.332933
71.705 18.984848
71.710 18.63179
71.715 18.393229
71.720 18.928469
71.725 18.841553
71.730 19.026869
71.735 19.205942
71.740 19.223808
71.745 19.88435
71.750 19.528053
71.755 19.221054
71.760 19.092386
71.765 19.083584
71.770 18.563623
71.775 18.517969
71.780 17.688742
71.785 17.539402
71.790 17.531521
71.795 17.714849
71.800 18.241381
71.805 18.732655
71.810 18.574203
71.815 19.400179
71.820 19.353403
71.825 18.846914
71.830 18.654619
71.835 18.365671
71.840 18.45323
71.845 18.094145
71.850 17.654245
71.855 17.821001
71.860 17.88974
71.865 17.852943
71.870 17.773882
71.875 18.431707
71.880 18.980062
71.885 19.168444
71.890 19.048141
71.895 19.406338
71.900 19.815754
71.905 20.13801
71.910 19.914555
71.915 20.144478
71.920 20.454874
71.925 20.728182
71.930 20.526768
71.935 20.343845
71.940 20.112
71.945 19.993135
71.950 19.862844
71.955 19.702721
71.960 19.31599
71.965 19.495287
71.970 19.13879
71.975 18.953016
71.980 18.367704
71.985 17.964874
71.990 17.709877
71.995 18.179098
72.000 17.68063
72.005 17.506033
72.010 17.321436
72.015 17.44673
72.020 18.022446
72.025 18.294912
72.030 18.060698
72.035 18.590799
72.040 19.30183
72.045 19.398853
72.050 19.281775
72.055 19.298603
72.060 19.556765
72.065 19.334259
72.070 18.674564
72.075 18.130968
72.080 18.867609
72.085 19.017242
72.090 18.900299
72.095 18.405157
72.100 18.433176
72.105 18.588255
72.110 18.362379
72.115 18.074253
72.120 18.314041
72.125 18.468037
72.130 18.786161
72.135 18.907455
72.140 18.988045
72.145 19.069395
72.150 18.700089
72.155 18.618015
72.160 18.649807
72.165 18.984755
72.170 19.463158
72.175 19.787088
72.180 19.823639
72.185 19.486467
72.190 19.001898
72.195 19.344763
72.200 18.966354
72.205 18.484337
72.210 18.174597
72.215 17.852221
72.220 18.005995
72.225 17.83112
72.230 17.626728
72.235 17.657669
72.240 18.291956
72.245 18.579294
72.250 19.349514
72.255 19.786036
72.260 19.233826
72.265 19.111813
72.270 19.041807
72.275 19.403185
72.280 19.283543
72.285 18.940756
72.290 19.395136
72.295 19.585194
72.300 19.62381
72.305 19.407509
72.310 19.112692
72.315 19.480949
72.320 19.767355
72.325 19.61187
72.330 19.702845
72.335 19.177818
72.340 19.02117
72.345 18.654812
72.350 18.284517
72.355 17.671555
72.360 17.525867
72.365 17.467113
72.370 17.664864
72.375 17.898176
72.380 17.740709
72.385 17.565603
72.390 18.319271
72.395 18.770559
72.400 19.182295
72.405 19.314495
72.410 19.21232
72.415 19.46987
72.420 19.382607
72.425 19.236862
72.430 19.096376
72.435 18.739552
72.440 18.396576
72.445 18.186871
72.450 18.272827
72.455 17.843081
72.460 17.004526
72.465 17.404125
72.470 18.027935
72.475 18.289486
72.480 18.356932
72.485 19.237576
72.490 19.880423
72.495 19.91437
72.500 19.748199
72.505 19.977413
72.510 20.248608
72.515 20.331875
72.520 20.050966
72.525 19.84981
72.530 19.540401
72.535 19.29722
72.540 18.903419
72.545 18.619539
72.550 18.037548
72.555 18.149385
72.560 18.60428
72.565 18.729435
72.570 18.707191
72.575 18.757778
72.580 19.31337
72.585 19.315266
72.590 19.414953
72.595 19.659933
72.600 20.04841
72.605 20.487316
72.610 20.285429
72.615 20.326626
72.620 20.520643
72.625 20.733513
72.630 20.479593
72.635 20.125521
72.640 19.777336
72.645 19.694784
72.650 19.135941
72.655 19.06282
72.660 19.400919
72.665 18.838923
72.670 18.51878
72.675 18.935823
72.680 18.690754
72.685 18.664738
72.690 17.759708
72.695 17.720869
72.700 18.182463
72.705 18.046549
72.710 18.07122
72.715 18.309874
72.720 17.908716
72.725 17.694721
72.730 17.520559
72.735 17.265272
72.740 17.580915
72.745 17.600611
72.750 17.700563
72.755 18.507858
72.760 19.171663
72.765 19.627274
72.770 19.823212
72.775 18.906626
72.780 18.171585
72.785 17.700804
72.790 17.038479
72.795 15.85747
72.800 15.590951
72.805 15.836432
72.810 16.324827
72.815 16.74312
72.820 17.089222
72.825 17.053797
72.830 17.515486
72.835 17.434099
72.840 17.178469
72.845 17.255554
72.850 17.09288
72.855 16.331257
72.860 15.438321
72.865 15.497523
72.870 15.667169
72.875 16.127274
72.880 16.060009
72.885 16.526802
72.890 17.488503
72.895 18.419519
72.900 18.58827
72.905 18.556936
72.910 19.00226
72.915 18.950638
72.920 18.90287
72.925 18.623123
72.930 18.667002
72.935 18.336815
72.940 17.938356
72.945 17.510403
72.950 17.486721
72.955 17.62895
72.960 17.652386
72.965 17.470537
72.970 17.585602
72.975 17.620371
72.980 17.689753
72.985 17.61496
72.990 17.423014
72.995 17.422125
73.000 17.377983
