!@!!GADDS PLOTSO FILE: Chi integration type
!@!!Title/SampleName: map-9a
!@!!Comment: ?
!@!!User: Bruker Instrument Administrator
!@!!Site: University of Illinois Chicago
!@!!Frame: map-9a_01_000.gfrm
!@!!Wavelengths    1.54184   1.54056   1.54439
!@!!Frame angles: 2Theta: 63.000 Omega: 50.000 Phi: 0.000 Chi: 90.000
!@!!Integration range: 2Theta: 53.000 to 73.000  Gamma: -105.000 to -75.000
!@!!Integration method: bin normalized
!@!N
!@!SS
!@!M
!@!L 0.0 0.0 0.0 0.0
!@!XDegrees
!@!YCounts
53.000 7.211305
53.005 7.409792
53.010 7.653326
53.015 7.804206
53.020 8.007145
53.025 7.842491
53.030 7.908333
53.035 7.738019
53.040 8.047059
53.045 8.448324
53.050 8.802911
53.055 8.719983
53.060 8.726638
53.065 8.477241
53.070 8.447743
53.075 8.1755
53.080 8.233241
53.085 8.118634
53.090 8.290896
53.095 8.644284
53.100 8.99517
53.105 8.817423
53.110 8.367527
53.115 7.637419
53.120 7.646103
53.125 7.715327
53.130 7.70308
53.135 7.775799
53.140 8.233607
53.145 8.728349
53.150 9.358521
53.155 9.320301
53.160 9.349446
53.165 9.41624
53.170 9.33942
53.175 8.77804
53.180 8.609085
53.185 8.3546
53.190 8.33351
53.195 7.937202
53.200 7.766087
53.205 7.940806
53.210 8.311687
53.215 8.197363
53.220 8.378934
53.225 8.587564
53.230 8.914215
53.235 8.913034
53.240 8.605742
53.245 8.494957
53.250 8.534448
53.255 8.138885
53.260 8.078509
53.265 8.136003
53.270 8.293229
53.275 8.534321
53.280 8.886443
53.285 9.073876
53.290 9.233351
53.295 8.470493
53.300 8.402568
53.305 8.495971
53.310 8.493272
53.315 7.978203
53.320 7.368738
53.325 7.384729
53.330 8.055794
53.335 8.08205
53.340 7.917505
53.345 7.891887
53.350 8.370715
53.355 8.716692
53.360 8.470411
53.365 8.102255
53.370 8.215632
53.375 8.157465
53.380 8.208019
53.385 8.123556
53.390 8.305846
53.395 8.474396
53.400 8.350887
53.405 8.419697
53.410 8.484452
53.415 8.721077
53.420 8.978936
53.425 8.979711
53.430 9.459305
53.435 9.517748
53.440 9.48576
53.445 9.803566
53.450 9.460768
53.455 9.890486
53.460 9.732399
53.465 9.170684
53.470 9.233154
53.475 9.091495
53.480 8.605578
53.485 8.329995
53.490 7.961195
53.495 8.138574
53.500 8.239738
53.505 8.290195
53.510 8.667289
53.515 9.053447
53.520 9.332648
53.525 9.585263
53.530 9.774704
53.535 10.21175
53.540 10.29863
53.545 10.200213
53.550 10.32275
53.555 10.056648
53.560 10.256805
53.565 10.65855
53.570 10.386696
53.575 10.096948
53.580 10.238873
53.585 10.425355
53.590 10.773065
53.595 10.540905
53.600 10.131145
53.605 9.842458
53.610 9.717834
53.615 9.137233
53.620 8.933784
53.625 8.366128
53.630 8.374516
53.635 8.427796
53.640 8.739609
53.645 8.831988
53.650 8.671135
53.655 8.662441
53.660 8.898396
53.665 8.820012
53.670 8.930011
53.675 8.67336
53.680 9.199709
53.685 9.497092
53.690 9.333947
53.695 9.474287
53.700 9.562328
53.705 9.388547
53.710 9.409037
53.715 9.160048
53.720 9.213081
53.725 9.410351
53.730 9.023675
53.735 9.150567
53.740 9.347716
53.745 9.357123
53.750 9.585407
53.755 9.532558
53.760 9.44671
53.765 9.147466
53.770 9.140885
53.775 9.020265
53.780 8.909494
53.785 8.572862
53.790 8.431968
53.795 8.707299
53.800 9.067913
53.805 9.414298
53.810 9.613708
53.815 9.922076
53.820 10.130983
53.825 10.09384
53.830 9.893917
53.835 10.244803
53.840 10.158872
53.845 10.309039
53.850 9.963345
53.855 9.86649
53.860 10.310551
53.865 10.332842
53.870 10.077673
53.875 10.432338
53.880 10.568656
53.885 10.701345
53.890 10.80371
53.895 10.634831
53.900 10.417354
53.905 10.087364
53.910 9.548491
53.915 9.412042
53.920 9.572318
53.925 9.590022
53.930 9.691826
53.935 9.866959
53.940 9.993882
53.945 9.981622
53.950 9.744325
53.955 9.453329
53.960 9.318527
53.965 8.976261
53.970 8.881222
53.975 8.803717
53.980 8.595974
53.985 8.774992
53.990 8.843274
53.995 8.608623
54.000 8.645921
54.005 8.192168
54.010 8.149044
54.015 8.221797
54.020 8.213806
54.025 8.711419
54.030 9.064906
54.035 9.038787
54.040 8.98801
54.045 8.908046
54.050 9.092707
54.055 8.95771
54.060 8.561951
54.065 8.821782
54.070 8.687386
54.075 9.013326
54.080 9.220863
54.085 9.07865
54.090 8.857931
54.095 8.418522
54.100 9.11171
54.105 9.341879
54.110 9.512907
54.115 9.584396
54.120 9.855506
54.125 10.313125
54.130 10.406545
54.135 9.945037
54.140 9.995252
54.145 9.81678
54.150 9.562389
54.155 9.444536
54.160 9.119833
54.165 8.956696
54.170 8.615563
54.175 8.923332
54.180 9.03439
54.185 9.469665
54.190 9.566759
54.195 10.152882
54.200 10.672359
54.205 10.826048
54.210 10.872367
54.215 11.167501
54.220 10.724998
54.225 10.951818
54.230 10.826249
54.235 10.728985
54.240 10.386677
54.245 10.105912
54.250 9.865358
54.255 9.872225
54.260 9.419361
54.265 8.823653
54.270 8.707657
54.275 8.942635
54.280 8.98609
54.285 8.970543
54.290 9.393287
54.295 9.494058
54.300 9.806458
54.305 9.736048
54.310 9.938815
54.315 9.66909
54.320 9.822843
54.325 9.48842
54.330 9.757832
54.335 9.816856
54.340 10.502385
54.345 10.863729
54.350 11.446685
54.355 11.256548
54.360 11.354743
54.365 11.325661
54.370 11.458042
54.375 11.000206
54.380 10.554625
54.385 10.000593
54.390 9.994893
54.395 10.054608
54.400 9.655657
54.405 9.712282
54.410 10.164199
54.415 9.899265
54.420 10.08759
54.425 10.040899
54.430 10.17552
54.435 10.046692
54.440 9.819646
54.445 9.588335
54.450 9.737329
54.455 9.591523
54.460 9.594812
54.465 9.651307
54.470 10.435416
54.475 9.963921
54.480 10.045985
54.485 10.584006
54.490 10.941526
54.495 10.93116
54.500 10.247601
54.505 10.490456
54.510 10.737756
54.515 10.647694
54.520 9.976494
54.525 9.641564
54.530 10.177835
54.535 10.19743
54.540 9.632863
54.545 9.664096
54.550 9.758766
54.555 10.335491
54.560 10.226227
54.565 10.152755
54.570 10.299192
54.575 10.629786
54.580 10.910203
54.585 10.937845
54.590 10.817759
54.595 11.388171
54.600 11.219863
54.605 11.382751
54.610 11.37494
54.615 11.495631
54.620 12.003346
54.625 11.606865
54.630 11.202363
54.635 11.216391
54.640 10.682261
54.645 10.357616
54.650 9.818919
54.655 9.434883
54.660 9.83028
54.665 9.670046
54.670 9.783179
54.675 9.65558
54.680 9.63476
54.685 9.7103
54.690 9.424214
54.695 9.228215
54.700 9.663567
54.705 10.123511
54.710 10.259684
54.715 10.496646
54.720 10.721908
54.725 11.225234
54.730 11.076908
54.735 10.728448
54.740 10.427352
54.745 10.36193
54.750 10.358944
54.755 10.307194
54.760 9.907072
54.765 9.909968
54.770 10.197145
54.775 10.523914
54.780 10.744952
54.785 10.207126
54.790 10.278364
54.795 10.570869
54.800 10.581993
54.805 10.385997
54.810 9.970812
54.815 9.702768
54.820 9.699571
54.825 9.390453
54.830 9.357273
54.835 9.589069
54.840 9.701074
54.845 10.21876
54.850 11.020913
54.855 11.187867
54.860 11.387343
54.865 11.332488
54.870 11.065899
54.875 10.929666
54.880 10.711386
54.885 10.400308
54.890 10.606012
54.895 10.650572
54.900 10.905766
54.905 11.461585
54.910 11.911823
54.915 12.13811
54.920 11.978126
54.925 11.604236
54.930 11.622746
54.935 11.515871
54.940 10.989375
54.945 10.645075
54.950 10.603574
54.955 10.619445
54.960 10.932646
54.965 10.756523
54.970 10.610709
54.975 10.814932
54.980 10.858393
54.985 10.597489
54.990 10.414892
54.995 10.335736
55.000 10.01042
55.005 10.406446
55.010 10.186711
55.015 9.740478
55.020 9.631679
55.025 9.839252
55.030 10.213869
55.035 10.060162
55.040 9.765476
55.045 10.446288
55.050 10.890202
55.055 11.112798
55.060 11.171675
55.065 11.097544
55.070 11.225148
55.075 11.447112
55.080 11.130253
55.085 11.199956
55.090 11.040246
55.095 10.252254
55.100 10.175997
55.105 10.078038
55.110 9.88658
55.115 9.546796
55.120 9.656328
55.125 9.480275
55.130 10.344451
55.135 10.80069
55.140 10.904323
55.145 10.807366
55.150 11.201575
55.155 11.412606
55.160 11.542407
55.165 11.208784
55.170 11.346828
55.175 11.1804
55.180 11.538506
55.185 11.502243
55.190 11.481757
55.195 11.899466
55.200 12.006911
55.205 12.121286
55.210 12.370882
55.215 12.299286
55.220 12.081421
55.225 11.67733
55.230 11.074648
55.235 10.888331
55.240 10.615505
55.245 10.528822
55.250 10.529181
55.255 10.371945
55.260 10.199132
55.265 10.153726
55.270 10.342818
55.275 10.437117
55.280 10.083728
55.285 10.009553
55.290 10.044475
55.295 10.147964
55.300 10.37296
55.305 10.64542
55.310 10.572727
55.315 10.745984
55.320 11.066983
55.325 11.737891
55.330 11.950402
55.335 11.504808
55.340 11.136976
55.345 10.831353
55.350 10.60357
55.355 10.373155
55.360 9.919989
55.365 9.907116
55.370 9.506045
55.375 9.841817
55.380 10.554299
55.385 10.481945
55.390 10.083156
55.395 10.474368
55.400 10.595986
55.405 10.768914
55.410 10.428527
55.415 10.709526
55.420 10.939061
55.425 11.404056
55.430 11.260775
55.435 11.412025
55.440 11.33113
55.445 11.575878
55.450 11.601733
55.455 11.531677
55.460 11.405573
55.465 11.08001
55.470 10.965765
55.475 11.063375
55.480 10.803194
55.485 10.290741
55.490 10.495219
55.495 10.793367
55.500 11.566002
55.505 12.009425
55.510 11.953739
55.515 12.492884
55.520 12.767633
55.525 12.861815
55.530 12.904708
55.535 12.272812
55.540 11.932722
55.545 11.665865
55.550 11.389997
55.555 11.393332
55.560 11.044662
55.565 10.889016
55.570 11.064712
55.575 10.977757
55.580 11.46013
55.585 11.359583
55.590 11.17072
55.595 10.885902
55.600 10.564563
55.605 10.422264
55.610 10.519887
55.615 10.136804
55.620 10.206164
55.625 10.443688
55.630 11.033014
55.635 11.416394
55.640 11.632698
55.645 11.492524
55.650 12.05485
55.655 11.873746
55.660 11.693848
55.665 11.275907
55.670 11.112331
55.675 11.219655
55.680 10.836507
55.685 10.322482
55.690 10.711578
55.695 10.934499
55.700 10.726771
55.705 10.264899
55.710 10.022438
55.715 10.059929
55.720 10.218939
55.725 9.880318
55.730 9.679835
55.735 10.033117
55.740 10.037272
55.745 9.983336
55.750 10.406151
55.755 10.153214
55.760 10.138073
55.765 10.178347
55.770 10.595307
55.775 10.644245
55.780 11.142588
55.785 10.964983
55.790 11.041166
55.795 10.759071
55.800 10.875652
55.805 11.009928
55.810 10.949195
55.815 10.839272
55.820 10.899175
55.825 11.280738
55.830 11.727519
55.835 11.666258
55.840 11.751911
55.845 12.311827
55.850 12.713374
55.855 12.56146
55.860 12.506577
55.865 12.398305
55.870 12.751352
55.875 12.389208
55.880 11.898161
55.885 11.382628
55.890 11.700497
55.895 11.630773
55.900 11.568162
55.905 11.628867
55.910 12.244507
55.915 12.473001
55.920 12.788417
55.925 12.480806
55.930 12.370474
55.935 12.23632
55.940 12.10351
55.945 12.184093
55.950 12.075123
55.955 11.723432
55.960 12.076509
55.965 12.074975
55.970 11.851758
55.975 11.323488
55.980 11.395278
55.985 11.611729
55.990 11.420943
55.995 10.881117
56.000 10.739785
56.005 10.706108
56.010 10.379338
56.015 9.943917
56.020 9.711041
56.025 9.965065
56.030 10.516733
56.035 10.395268
56.040 10.394373
56.045 10.350005
56.050 10.274466
56.055 10.615638
56.060 10.524033
56.065 10.279029
56.070 10.222202
56.075 10.125101
56.080 10.699457
56.085 10.398729
56.090 9.95623
56.095 10.424828
56.100 10.459249
56.105 10.601799
56.110 10.671311
56.115 10.517292
56.120 11.074328
56.125 11.381716
56.130 11.1436
56.135 11.411088
56.140 12.089787
56.145 12.497123
56.150 12.455802
56.155 12.418341
56.160 12.503359
56.165 12.684384
56.170 12.486052
56.175 12.29371
56.180 11.968476
56.185 12.10909
56.190 11.988781
56.195 11.591904
56.200 11.85429
56.205 11.894172
56.210 12.178432
56.215 12.388823
56.220 12.497693
56.225 12.929342
56.230 12.876646
56.235 12.974545
56.240 13.311436
56.245 13.373507
56.250 13.288424
56.255 12.70013
56.260 12.636828
56.265 12.622107
56.270 12.209442
56.275 12.114923
56.280 11.634031
56.285 11.441953
56.290 11.631138
56.295 11.729435
56.300 11.677444
56.305 11.931738
56.310 12.132868
56.315 12.699866
56.320 12.571856
56.325 12.465482
56.330 12.23703
56.335 12.541148
56.340 12.694856
56.345 12.163226
56.350 11.731675
56.355 11.914631
56.360 11.75934
56.365 11.527233
56.370 11.403038
56.375 11.219949
56.380 11.733412
56.385 12.081154
56.390 12.086265
56.395 12.384627
56.400 12.220485
56.405 12.3615
56.410 12.344878
56.415 12.005868
56.420 12.162949
56.425 11.848376
56.430 12.306352
56.435 12.355412
56.440 11.673301
56.445 11.29589
56.450 11.073141
56.455 11.01248
56.460 11.286996
56.465 11.00841
56.470 11.292309
56.475 11.824725
56.480 12.172413
56.485 12.516612
56.490 13.084238
56.495 13.366399
56.500 13.218572
56.505 13.021275
56.510 12.895943
56.515 12.639934
56.520 12.766777
56.525 12.133584
56.530 12.016596
56.535 12.389208
56.540 12.187477
56.545 11.951709
56.550 12.211738
56.555 12.054946
56.560 12.072396
56.565 11.707362
56.570 11.402918
56.575 11.476405
56.580 11.288527
56.585 10.714857
56.590 11.010747
56.595 11.058046
56.600 11.342052
56.605 11.363269
56.610 11.664411
56.615 12.143859
56.620 12.367473
56.625 11.953411
56.630 12.123211
56.635 11.985398
56.640 12.015801
56.645 11.785152
56.650 11.822472
56.655 11.876185
56.660 11.950104
56.665 11.731262
56.670 11.710559
56.675 12.051908
56.680 12.113576
56.685 12.101309
56.690 12.154109
56.695 12.866817
56.700 12.887027
56.705 13.349901
56.710 13.390008
56.715 13.73527
56.720 13.72835
56.725 13.860222
56.730 13.457735
56.735 13.477833
56.740 13.095833
56.745 12.951638
56.750 12.706218
56.755 12.709738
56.760 12.631131
56.765 13.609824
56.770 14.012357
56.775 14.329185
56.780 14.575924
56.785 14.95365
56.790 14.926279
56.795 14.882478
56.800 14.004603
56.805 13.859492
56.810 13.630257
56.815 13.487916
56.820 13.407804
56.825 13.14825
56.830 12.750839
56.835 12.736606
56.840 12.719961
56.845 12.565581
56.850 12.16068
56.855 11.930219
56.860 12.402787
56.865 12.701013
56.870 13.157369
56.875 13.474064
56.880 13.817746
56.885 14.552405
56.890 14.495036
56.895 14.297875
56.900 14.773948
56.905 14.305301
56.910 13.929523
56.915 13.848786
56.920 13.39819
56.925 13.541881
56.930 13.353416
56.935 12.942824
56.940 12.725226
56.945 12.760547
56.950 12.750948
56.955 12.667154
56.960 12.854195
56.965 12.46051
56.970 11.837423
56.975 12.279136
56.980 12.309117
56.985 12.669212
56.990 12.731599
56.995 12.430737
57.000 12.551479
57.005 12.854061
57.010 12.379093
57.015 12.156679
57.020 11.606128
57.025 12.259272
57.030 12.306196
57.035 12.64351
57.040 12.51559
57.045 12.555172
57.050 12.468604
57.055 12.035677
57.060 11.596168
57.065 11.821682
57.070 11.614321
57.075 12.030452
57.080 12.672384
57.085 12.913397
57.090 13.511427
57.095 13.426656
57.100 13.126192
57.105 13.037366
57.110 13.227756
57.115 12.822098
57.120 12.469894
57.125 12.090292
57.130 12.207602
57.135 12.375501
57.140 12.460321
57.145 12.314268
57.150 12.561028
57.155 12.992683
57.160 13.239614
57.165 14.174456
57.170 14.229844
57.175 14.367827
57.180 14.065897
57.185 13.949026
57.190 14.13936
57.195 13.39514
57.200 13.294118
57.205 13.727715
57.210 13.636763
57.215 13.340717
57.220 13.335484
57.225 13.236487
57.230 13.075822
57.235 12.265453
57.240 12.127527
57.245 11.909026
57.250 11.754576
57.255 11.716827
57.260 11.6646
57.265 12.311752
57.270 12.633025
57.275 12.551292
57.280 13.613869
57.285 14.573358
57.290 14.738643
57.295 15.035601
57.300 15.255706
57.305 14.946364
57.310 14.811494
57.315 14.160857
57.320 14.220439
57.325 14.114724
57.330 13.717175
57.335 13.756359
57.340 13.962737
57.345 13.664348
57.350 13.957449
57.355 13.761384
57.360 14.205579
57.365 14.329823
57.370 13.975706
57.375 13.809546
57.380 13.910245
57.385 13.272648
57.390 13.36766
57.395 13.029922
57.400 12.388715
57.405 11.966499
57.410 11.718583
57.415 11.51849
57.420 11.49716
57.425 10.98399
57.430 10.929565
57.435 11.478594
57.440 12.348544
57.445 12.974865
57.450 13.066625
57.455 12.859476
57.460 12.997889
57.465 13.14403
57.470 13.477959
57.475 13.492799
57.480 13.787672
57.485 14.28019
57.490 14.961602
57.495 14.884531
57.500 14.3589
57.505 13.909315
57.510 13.523354
57.515 13.519176
57.520 13.404522
57.525 13.266115
57.530 13.593266
57.535 14.210987
57.540 14.346397
57.545 13.943014
57.550 13.242989
57.555 12.816176
57.560 12.767517
57.565 12.990146
57.570 13.051382
57.575 13.030713
57.580 13.666945
57.585 14.097753
57.590 14.334156
57.595 14.511828
57.600 15.222226
57.605 15.158113
57.610 15.114955
57.615 14.723784
57.620 15.002915
57.625 15.408193
57.630 14.81319
57.635 13.965181
57.640 14.104844
57.645 14.376571
57.650 14.498272
57.655 14.39523
57.660 13.717898
57.665 13.808867
57.670 13.68981
57.675 13.51845
57.680 13.681863
57.685 13.743368
57.690 14.391858
57.695 15.318128
57.700 15.42038
57.705 15.579154
57.710 15.810201
57.715 15.623466
57.720 15.74178
57.725 14.987363
57.730 14.482298
57.735 14.187174
57.740 13.89595
57.745 13.678205
57.750 13.992188
57.755 13.695909
57.760 13.785079
57.765 14.113862
57.770 14.395065
57.775 14.406344
57.780 14.188901
57.785 13.824492
57.790 13.63578
57.795 13.63736
57.800 13.64364
57.805 13.709728
57.810 13.7073
57.815 13.859924
57.820 14.021687
57.825 14.39454
57.830 14.390955
57.835 14.826252
57.840 15.072599
57.845 15.124166
57.850 14.746173
57.855 14.796445
57.860 14.841169
57.865 15.279703
57.870 15.429933
57.875 15.049744
57.880 15.27058
57.885 15.52362
57.890 15.319641
57.895 15.493865
57.900 14.592734
57.905 14.249831
57.910 14.239144
57.915 14.29253
57.920 14.19962
57.925 14.198359
57.930 14.141058
57.935 14.316953
57.940 14.140633
57.945 14.134608
57.950 13.884863
57.955 13.621807
57.960 13.702362
57.965 13.815284
57.970 14.027594
57.975 14.006982
57.980 14.407801
57.985 14.905524
57.990 15.457285
57.995 15.380566
58.000 15.316233
58.005 15.413857
58.010 15.956955
58.015 16.231781
58.020 16.461233
58.025 16.283575
58.030 15.850587
58.035 15.819387
58.040 16.025646
58.045 16.020521
58.050 15.894274
58.055 15.674973
58.060 16.026937
58.065 16.250008
58.070 16.34457
58.075 16.407112
58.080 16.815626
58.085 16.858686
58.090 17.125433
58.095 16.852663
58.100 16.688076
58.105 16.485041
58.110 16.153063
58.115 15.351701
58.120 14.784542
58.125 14.585136
58.130 14.83979
58.135 15.458977
58.140 16.080341
58.145 16.660715
58.150 16.36076
58.155 16.442425
58.160 17.051544
58.165 16.861389
58.170 16.73468
58.175 16.800016
58.180 16.38579
58.185 16.541641
58.190 15.984342
58.195 15.521605
58.200 15.986006
58.205 15.950714
58.210 15.744716
58.215 15.992128
58.220 16.51137
58.225 17.387737
58.230 17.530537
58.235 17.551067
58.240 17.253277
58.245 16.851789
58.250 17.224022
58.255 17.764706
58.260 17.873413
58.265 17.813087
58.270 17.59466
58.275 18.068583
58.280 18.943405
58.285 18.599621
58.290 18.520252
58.295 18.173975
58.300 17.959284
58.305 17.605932
58.310 17.58003
58.315 17.677048
58.320 17.515247
58.325 17.146877
58.330 17.50231
58.335 18.071815
58.340 19.006094
58.345 18.860121
58.350 18.453024
58.355 18.938766
58.360 19.239769
58.365 19.17594
58.370 19.294279
58.375 19.445662
58.380 19.310574
58.385 19.354202
58.390 19.388302
58.395 19.392975
58.400 19.934486
58.405 19.775553
58.410 19.661257
58.415 20.027081
58.420 20.194609
58.425 19.925838
58.430 19.81646
58.435 19.89463
58.440 19.852003
58.445 19.886259
58.450 20.617002
58.455 21.416965
58.460 22.03787
58.465 23.380579
58.470 24.096138
58.475 25.008566
58.480 25.097975
58.485 25.391998
58.490 25.789114
58.495 25.900673
58.500 25.388409
58.505 24.974035
58.510 25.12475
58.515 25.406603
58.520 24.881397
58.525 25.691637
58.530 26.000347
58.535 26.066483
58.540 26.080992
58.545 25.827045
58.550 25.927969
58.555 26.725775
58.560 26.944977
58.565 27.504021
58.570 28.24362
58.575 29.203833
58.580 29.831648
58.585 30.492395
58.590 30.989307
58.595 30.869389
58.600 31.048368
58.605 31.541119
58.610 31.243536
58.615 31.249969
58.620 31.315731
58.625 31.347687
58.630 32.050388
58.635 32.303169
58.640 32.473148
58.645 33.039173
58.650 33.348637
58.655 33.529701
58.660 33.699303
58.665 33.551693
58.670 33.553963
58.675 32.895065
58.680 32.427307
58.685 31.95974
58.690 31.967686
58.695 32.551147
58.700 32.453983
58.705 32.998001
58.710 33.38924
58.715 33.257015
58.720 33.207752
58.725 32.691956
58.730 31.724312
58.735 31.791819
58.740 32.266449
58.745 32.900482
58.750 33.095936
58.755 33.926243
58.760 34.58606
58.765 34.175007
58.770 33.497639
58.775 32.140461
58.780 31.323637
58.785 30.294552
58.790 29.15715
58.795 28.804598
58.800 28.773235
58.805 28.399691
58.810 28.535898
58.815 28.727802
58.820 29.37051
58.825 29.15505
58.830 28.707151
58.835 27.902727
58.840 28.138063
58.845 27.414728
58.850 26.03698
58.855 25.387163
58.860 24.889626
58.865 24.321594
58.870 23.885958
58.875 23.070393
58.880 22.837227
58.885 23.343235
58.890 23.529348
58.895 23.759188
58.900 23.532076
58.905 22.969767
58.910 22.317106
58.915 22.081324
58.920 21.564568
58.925 21.595173
58.930 21.470783
58.935 21.548172
58.940 21.799492
58.945 22.46567
58.950 22.70598
58.955 22.104156
58.960 21.39941
58.965 20.478575
58.970 19.919928
58.975 19.780029
58.980 19.300829
58.985 18.666945
58.990 18.357882
58.995 17.826815
59.000 18.159718
59.005 18.369726
59.010 17.934307
59.015 17.278873
59.020 17.035809
59.025 17.745657
59.030 18.305655
59.035 18.314554
59.040 18.412466
59.045 17.876535
59.050 17.888836
59.055 17.763708
59.060 17.24642
59.065 17.226019
59.070 16.918318
59.075 16.106897
59.080 16.334518
59.085 16.524199
59.090 16.699938
59.095 16.448774
59.100 15.876113
59.105 16.274448
59.110 16.542347
59.115 16.093397
59.120 16.032339
59.125 16.156836
59.130 16.4813
59.135 16.531422
59.140 16.079464
59.145 16.026285
59.150 15.877498
59.155 15.520058
59.160 15.046048
59.165 14.87282
59.170 15.005963
59.175 14.983892
59.180 15.089121
59.185 15.856517
59.190 16.557926
59.195 17.031164
59.200 16.502386
59.205 16.429146
59.210 16.668344
59.215 16.557306
59.220 16.576586
59.225 16.355492
59.230 16.088533
59.235 16.480898
59.240 16.642879
59.245 16.696741
59.250 16.16564
59.255 15.374331
59.260 15.225412
59.265 15.451976
59.270 15.440302
59.275 15.36874
59.280 15.413101
59.285 15.463199
59.290 15.615147
59.295 15.38353
59.300 15.289561
59.305 15.242839
59.310 15.095263
59.315 14.722012
59.320 14.567916
59.325 14.293425
59.330 14.393814
59.335 14.16175
59.340 13.8943
59.345 14.474375
59.350 14.65504
59.355 14.690302
59.360 14.511317
59.365 13.910383
59.370 13.931614
59.375 13.759481
59.380 13.048862
59.385 13.145026
59.390 13.597053
59.395 14.010952
59.400 14.231001
59.405 14.523655
59.410 14.53071
59.415 14.911231
59.420 14.784843
59.425 14.658572
59.430 14.336175
59.435 14.652578
59.440 14.43521
59.445 14.643236
59.450 14.670605
59.455 14.932522
59.460 15.611122
59.465 16.321344
59.470 16.417414
59.475 16.658087
59.480 16.4729
59.485 15.915449
59.490 15.417459
59.495 14.869164
59.500 14.694259
59.505 14.469759
59.510 13.970022
59.515 14.29549
59.520 14.642327
59.525 14.839717
59.530 14.582615
59.535 14.104387
59.540 14.468764
59.545 14.581694
59.550 14.171391
59.555 14.360608
59.560 14.816319
59.565 14.940923
59.570 15.616574
59.575 15.344336
59.580 15.226359
59.585 15.340535
59.590 15.275532
59.595 14.67815
59.600 14.51993
59.605 14.049053
59.610 14.17606
59.615 14.097928
59.620 14.348113
59.625 14.585687
59.630 15.277309
59.635 15.287088
59.640 15.787922
59.645 15.54551
59.650 15.482412
59.655 15.70462
59.660 15.409576
59.665 14.98528
59.670 14.866791
59.675 14.524007
59.680 14.513193
59.685 15.00649
59.690 14.567637
59.695 14.697326
59.700 15.102319
59.705 15.385098
59.710 15.733022
59.715 15.856373
59.720 15.080009
59.725 15.301581
59.730 14.935632
59.735 14.696775
59.740 14.484561
59.745 14.210595
59.750 14.57601
59.755 14.972341
59.760 15.219582
59.765 15.534354
59.770 15.322927
59.775 15.557513
59.780 15.84968
59.785 15.55107
59.790 15.432579
59.795 14.911282
59.800 14.86672
59.805 14.61247
59.810 14.105133
59.815 13.725017
59.820 14.026378
59.825 14.169121
59.830 14.578643
59.835 14.888644
59.840 14.994671
59.845 15.373537
59.850 15.615113
59.855 15.233587
59.860 15.188083
59.865 15.073354
59.870 15.46151
59.875 15.794189
59.880 15.473986
59.885 15.725814
59.890 16.298479
59.895 16.121614
59.900 15.643123
59.905 14.70018
59.910 14.301575
59.915 14.091131
59.920 13.640464
59.925 13.511544
59.930 13.616893
59.935 14.03334
59.940 14.833526
59.945 14.956994
59.950 15.142157
59.955 15.383419
59.960 15.104292
59.965 15.307688
59.970 15.375784
59.975 15.095264
59.980 14.923577
59.985 14.772923
59.990 15.109436
59.995 15.230349
60.000 14.936776
60.005 14.604949
60.010 14.154706
60.015 14.480856
60.020 14.52549
60.025 14.212838
60.030 13.914379
60.035 13.973799
60.040 14.428052
60.045 14.699035
60.050 14.596263
60.055 14.556187
60.060 14.67262
60.065 15.167665
60.070 15.452832
60.075 15.502976
60.080 15.149233
60.085 15.077836
60.090 14.987983
60.095 15.033622
60.100 14.472142
60.105 13.9729
60.110 13.534712
60.115 14.039106
60.120 14.519955
60.125 14.889366
60.130 14.407784
60.135 14.443924
60.140 14.542362
60.145 14.671728
60.150 14.753572
60.155 14.199811
60.160 14.176386
60.165 14.316009
60.170 14.245956
60.175 14.321221
60.180 14.262698
60.185 13.935326
60.190 13.986602
60.195 13.967766
60.200 14.353867
60.205 14.617082
60.210 14.689121
60.215 14.720665
60.220 14.86788
60.225 15.028528
60.230 15.593456
60.235 15.982514
60.240 16.45038
60.245 16.871122
60.250 16.919252
60.255 17.372314
60.260 17.283081
60.265 16.558573
60.270 15.875688
60.275 15.405221
60.280 15.381415
60.285 15.293581
60.290 14.577928
60.295 14.198872
60.300 14.126626
60.305 14.426582
60.310 14.130949
60.315 14.198019
60.320 14.300612
60.325 14.416987
60.330 14.287283
60.335 14.707608
60.340 14.517973
60.345 14.671898
60.350 14.196744
60.355 14.163128
60.360 14.062488
60.365 14.54994
60.370 14.074314
60.375 13.826613
60.380 13.805327
60.385 13.907928
60.390 13.937028
60.395 14.390231
60.400 14.022096
60.405 14.048533
60.410 14.232368
60.415 14.361381
60.420 14.451469
60.425 14.968204
60.430 14.884018
60.435 14.868487
60.440 14.63339
60.445 15.215713
60.450 15.594775
60.455 15.730269
60.460 15.225912
60.465 15.336864
60.470 15.890334
60.475 16.317347
60.480 16.106501
60.485 15.60188
60.490 16.085995
60.495 16.022125
60.500 15.795809
60.505 15.918703
60.510 15.877867
60.515 15.86166
60.520 15.922729
60.525 15.03689
60.530 14.666453
60.535 14.930825
60.540 14.243599
60.545 14.197081
60.550 13.797524
60.555 13.570361
60.560 13.830678
60.565 14.51381
60.570 14.417981
60.575 14.671966
60.580 15.107976
60.585 15.189041
60.590 15.12464
60.595 14.943675
60.600 14.546329
60.605 15.189399
60.610 15.380174
60.615 15.137116
60.620 15.315266
60.625 15.756839
60.630 15.794359
60.635 15.840302
60.640 15.334172
60.645 15.544841
60.650 15.575925
60.655 15.596357
60.660 15.308996
60.665 15.535252
60.670 15.441641
60.675 14.687995
60.680 14.661723
60.685 14.207948
60.690 14.258974
60.695 14.610379
60.700 14.900149
60.705 15.128132
60.710 15.593408
60.715 15.092932
60.720 15.053495
60.725 14.920595
60.730 14.414513
60.735 14.030445
60.740 14.025554
60.745 14.221015
60.750 14.456761
60.755 14.780327
60.760 14.611438
60.765 14.943132
60.770 15.616508
60.775 15.392416
60.780 15.054945
60.785 15.558621
60.790 15.420704
60.795 15.289782
60.800 15.252872
60.805 15.060252
60.810 15.441599
60.815 15.705043
60.820 15.099732
60.825 15.102163
60.830 15.567645
60.835 15.397243
60.840 14.70401
60.845 14.374984
60.850 14.456383
60.855 14.529756
60.860 14.277159
60.865 13.897865
60.870 14.143901
60.875 14.294522
60.880 14.332746
60.885 14.485356
60.890 14.665733
60.895 15.086401
60.900 15.18813
60.905 15.036771
60.910 15.279328
60.915 15.486218
60.920 15.387494
60.925 15.229932
60.930 15.485045
60.935 15.472176
60.940 15.578616
60.945 15.646617
60.950 15.205228
60.955 15.152053
60.960 14.83542
60.965 14.347042
60.970 14.661856
60.975 14.754507
60.980 14.458075
60.985 14.886011
60.990 15.39857
60.995 15.380179
61.000 15.40354
61.005 14.959529
61.010 14.549971
61.015 14.626792
61.020 14.138589
61.025 13.50155
61.030 13.516834
61.035 13.53723
61.040 13.651488
61.045 14.196424
61.050 14.784343
61.055 14.901582
61.060 15.265891
61.065 15.694511
61.070 16.274189
61.075 16.752396
61.080 16.807024
61.085 16.51757
61.090 16.952833
61.095 16.750538
61.100 16.838791
61.105 16.364334
61.110 16.034229
61.115 15.95101
61.120 15.755409
61.125 15.552733
61.130 15.86259
61.135 15.458139
61.140 15.043408
61.145 14.878481
61.150 14.741894
61.155 15.245229
61.160 15.628499
61.165 15.170623
61.170 14.862988
61.175 15.032662
61.180 15.195264
61.185 15.093978
61.190 15.048139
61.195 14.782525
61.200 15.123441
61.205 15.988822
61.210 16.330585
61.215 16.290833
61.220 16.642719
61.225 16.789326
61.230 16.793051
61.235 17.001553
61.240 16.602999
61.245 16.283556
61.250 16.686674
61.255 16.418472
61.260 16.145901
61.265 16.170076
61.270 15.711859
61.275 16.093719
61.280 16.022596
61.285 15.816414
61.290 15.860746
61.295 15.656572
61.300 15.638794
61.305 16.152884
61.310 16.12899
61.315 16.190758
61.320 16.240425
61.325 16.331856
61.330 16.744522
61.335 16.960764
61.340 16.513271
61.345 16.537727
61.350 16.521656
61.355 16.438923
61.360 15.94304
61.365 15.665942
61.370 15.219787
61.375 15.266434
61.380 15.12527
61.385 14.832853
61.390 15.08711
61.395 15.475498
61.400 15.498931
61.405 15.384439
61.410 15.280448
61.415 15.228196
61.420 15.38158
61.425 15.232059
61.430 15.191026
61.435 15.210642
61.440 15.37162
61.445 15.66849
61.450 15.314813
61.455 15.247883
61.460 15.503748
61.465 15.34966
61.470 15.408628
61.475 15.190612
61.480 15.045391
61.485 15.437954
61.490 15.08548
61.495 15.03505
61.500 14.927464
61.505 14.781767
61.510 15.291876
61.515 15.129898
61.520 14.760386
61.525 15.186608
61.530 15.210174
61.535 15.425904
61.540 15.537507
61.545 15.702932
61.550 16.317333
61.555 16.330511
61.560 16.24478
61.565 15.72148
61.570 15.690341
61.575 15.065248
61.580 15.167539
61.585 15.340793
61.590 15.801656
61.595 15.916605
61.600 16.457489
61.605 16.640249
61.610 17.200649
61.615 16.86252
61.620 16.789497
61.625 17.122686
61.630 17.095291
61.635 16.955439
61.640 16.781382
61.645 16.418175
61.650 15.912113
61.655 15.603534
61.660 15.349401
61.665 15.388929
61.670 15.858369
61.675 16.038895
61.680 16.350039
61.685 16.721504
61.690 16.607855
61.695 16.656502
61.700 16.505199
61.705 15.918614
61.710 15.881871
61.715 15.732618
61.720 15.311665
61.725 15.53053
61.730 15.661987
61.735 15.544701
61.740 15.537631
61.745 15.274856
61.750 15.38092
61.755 15.297521
61.760 14.798608
61.765 14.716814
61.770 15.169401
61.775 15.533065
61.780 15.793434
61.785 16.468786
61.790 17.036411
61.795 17.455629
61.800 17.413246
61.805 17.028131
61.810 16.55043
61.815 16.521004
61.820 15.796647
61.825 15.657794
61.830 15.345639
61.835 15.247954
61.840 15.458908
61.845 15.749496
61.850 15.684114
61.855 16.16301
61.860 16.183956
61.865 16.457762
61.870 16.641922
61.875 16.47599
61.880 16.475286
61.885 16.607141
61.890 16.208054
61.895 15.9906
61.900 16.268383
61.905 16.46133
61.910 17.004969
61.915 16.946178
61.920 16.932341
61.925 17.025755
61.930 17.278658
61.935 16.667419
61.940 16.435534
61.945 16.695314
61.950 16.951893
61.955 16.915327
61.960 16.833193
61.965 16.431787
61.970 16.524633
61.975 16.503452
61.980 15.175884
61.985 14.698976
61.990 14.716285
61.995 14.235058
62.000 14.160689
62.005 13.510609
62.010 13.262085
62.015 14.017412
62.020 13.884874
62.025 13.945313
62.030 14.174303
62.035 14.399531
62.040 14.662258
62.045 14.861463
62.050 14.99286
62.055 15.094345
62.060 15.40202
62.065 16.186502
62.070 16.239441
62.075 16.03302
62.080 15.36204
62.085 15.129994
62.090 15.029049
62.095 14.528646
62.100 13.976055
62.105 14.185947
62.110 14.264844
62.115 14.767678
62.120 14.610757
62.125 14.900131
62.130 15.486621
62.135 16.096636
62.140 15.989398
62.145 16.569391
62.150 16.405869
62.155 16.969316
62.160 16.896749
62.165 16.306747
62.170 15.796792
62.175 16.249838
62.180 16.671167
62.185 16.537069
62.190 16.029264
62.195 15.783951
62.200 15.64061
62.205 15.03594
62.210 14.909896
62.215 14.721793
62.220 15.067561
62.225 15.548482
62.230 15.752835
62.235 16.398151
62.240 17.080933
62.245 16.548109
62.250 16.429819
62.255 16.625505
62.260 16.083677
62.265 15.697761
62.270 15.729962
62.275 16.352522
62.280 16.264414
62.285 16.201998
62.290 15.653633
62.295 16.036531
62.300 16.284752
62.305 16.044559
62.310 15.005333
62.315 14.779759
62.320 14.676694
62.325 14.603073
62.330 14.37166
62.335 14.560753
62.340 14.066086
62.345 14.830134
62.350 15.370314
62.355 15.607293
62.360 16.088943
62.365 16.344398
62.370 16.359589
62.375 16.286024
62.380 15.902081
62.385 15.47121
62.390 15.42551
62.395 15.696732
62.400 15.470895
62.405 15.817282
62.410 16.136448
62.415 16.524956
62.420 17.212227
62.425 17.066689
62.430 16.608864
62.435 17.113537
62.440 16.898762
62.445 17.213717
62.450 17.311895
62.455 17.548862
62.460 17.600529
62.465 17.734068
62.470 17.348743
62.475 17.556694
62.480 17.328447
62.485 17.274509
62.490 16.607006
62.495 16.653698
62.500 16.831646
62.505 16.508968
62.510 16.362652
62.515 16.257757
62.520 15.965905
62.525 15.935775
62.530 15.498734
62.535 15.35561
62.540 15.413698
62.545 15.510957
62.550 15.824954
62.555 15.999848
62.560 16.061785
62.565 15.9401
62.570 15.548002
62.575 15.474015
62.580 14.909136
62.585 14.388673
62.590 14.652128
62.595 14.728264
62.600 15.028677
62.605 15.590094
62.610 15.53507
62.615 15.705462
62.620 15.949837
62.625 15.479423
62.630 15.480189
62.635 15.386695
62.640 15.326104
62.645 15.612913
62.650 16.17716
62.655 15.623367
62.660 15.937034
62.665 16.14538
62.670 16.350832
62.675 15.925858
62.680 15.945064
62.685 15.784233
62.690 15.388403
62.695 15.019231
62.700 15.229981
62.705 15.90458
62.710 17.090033
62.715 16.883604
62.720 16.461687
62.725 16.825865
62.730 16.956421
62.735 17.428246
62.740 17.475515
62.745 16.553047
62.750 16.809114
62.755 17.433859
62.760 17.463806
62.765 17.365818
62.770 16.398046
62.775 15.492875
62.780 15.574335
62.785 15.837274
62.790 15.725202
62.795 15.812235
62.800 15.72249
62.805 16.00728
62.810 16.011278
62.815 15.999513
62.820 15.957339
62.825 16.035698
62.830 15.994966
62.835 15.807242
62.840 15.504585
62.845 15.553529
62.850 15.618794
62.855 15.757862
62.860 15.294277
62.865 15.612095
62.870 15.655658
62.875 15.314869
62.880 15.717119
62.885 15.544984
62.890 15.498577
62.895 15.875483
62.900 15.806129
62.905 16.024353
62.910 16.618591
62.915 16.094599
62.920 15.502279
62.925 15.10491
62.930 14.834069
62.935 15.411501
62.940 15.593178
62.945 15.168635
62.950 15.615108
62.955 16.356562
62.960 16.573362
62.965 16.95993
62.970 16.599924
62.975 16.582865
62.980 16.861996
62.985 16.926062
62.990 16.941372
62.995 17.395044
63.000 17.291811
63.005 17.160097
63.010 17.017931
63.015 16.761732
63.020 16.181585
63.025 16.200642
63.030 16.088446
63.035 16.126072
63.040 15.935383
63.045 15.984872
63.050 16.585373
63.055 16.385508
63.060 16.465639
63.065 16.342793
63.070 16.100193
63.075 16.272463
63.080 16.336477
63.085 16.626108
63.090 17.344395
63.095 16.937826
63.100 16.816517
63.105 17.329582
63.110 17.692785
63.115 17.582937
63.120 16.987701
63.125 16.837353
63.130 16.978474
63.135 17.097202
63.140 16.843229
63.145 16.486006
63.150 16.466906
63.155 16.370955
63.160 16.817671
63.165 17.334253
63.170 17.547926
63.175 17.531996
63.180 17.267349
63.185 17.443281
63.190 17.353466
63.195 16.449829
63.200 15.903798
63.205 15.714974
63.210 15.751973
63.215 15.712681
63.220 15.501978
63.225 15.878
63.230 16.63764
63.235 16.506094
63.240 15.971762
63.245 16.239565
63.250 16.63908
63.255 16.992422
63.260 16.767134
63.265 16.666714
63.270 16.917364
63.275 17.288813
63.280 16.726471
63.285 16.312426
63.290 15.700493
63.295 15.859727
63.300 16.174797
63.305 16.311611
63.310 16.025703
63.315 16.246828
63.320 16.457172
63.325 17.010836
63.330 16.661531
63.335 16.044353
63.340 16.283731
63.345 16.51244
63.350 16.599499
63.355 16.568415
63.360 16.327421
63.365 17.150293
63.370 17.514416
63.375 17.082125
63.380 16.859846
63.385 16.673214
63.390 16.295855
63.395 16.020252
63.400 15.717358
63.405 14.946333
63.410 14.922575
63.415 14.890406
63.420 14.863101
63.425 15.542041
63.430 15.452505
63.435 15.381479
63.440 15.716162
63.445 16.376768
63.450 16.718531
63.455 17.30249
63.460 17.118303
63.465 17.48172
63.470 17.876484
63.475 18.022495
63.480 17.947189
63.485 18.672426
63.490 18.73558
63.495 18.883944
63.500 19.265337
63.505 18.862167
63.510 18.537504
63.515 18.256767
63.520 17.940666
63.525 17.959129
63.530 17.515488
63.535 17.128941
63.540 16.912989
63.545 16.788931
63.550 16.623241
63.555 16.461815
63.560 16.164162
63.565 16.532187
63.570 17.091463
63.575 17.564302
63.580 17.704388
63.585 18.071871
63.590 18.19449
63.595 17.97525
63.600 18.047543
63.605 17.335304
63.610 17.34841
63.615 16.848568
63.620 16.191055
63.625 15.933583
63.630 16.127253
63.635 15.528806
63.640 15.84954
63.645 15.810073
63.650 16.417793
63.655 16.538021
63.660 16.667568
63.665 17.129663
63.670 17.622892
63.675 17.474691
63.680 17.797182
63.685 18.514687
63.690 18.780025
63.695 18.546694
63.700 18.652966
63.705 18.778881
63.710 18.841284
63.715 18.79796
63.720 18.609306
63.725 18.295174
63.730 18.421206
63.735 18.363667
63.740 17.932066
63.745 17.42334
63.750 17.409811
63.755 17.475937
63.760 17.55641
63.765 17.127012
63.770 17.022755
63.775 17.373461
63.780 17.649885
63.785 17.433664
63.790 17.243523
63.795 17.883871
63.800 18.144163
63.805 18.236206
63.810 18.395632
63.815 18.363142
63.820 18.442734
63.825 18.242733
63.830 18.025513
63.835 18.359198
63.840 18.529457
63.845 18.56843
63.850 18.634645
63.855 18.716179
63.860 18.682144
63.865 18.218056
63.870 18.012445
63.875 18.080389
63.880 18.465219
63.885 18.772594
63.890 19.145462
63.895 19.608494
63.900 20.282383
63.905 19.963388
63.910 19.443386
63.915 18.952692
63.920 18.806744
63.925 18.543627
63.930 18.715063
63.935 18.620949
63.940 18.770788
63.945 19.182205
63.950 19.768433
63.955 20.078253
63.960 20.295307
63.965 20.003962
63.970 20.086863
63.975 20.445734
63.980 20.681381
63.985 20.801182
63.990 20.714924
63.995 20.544407
64.000 20.211134
64.005 20.364241
64.010 20.967148
64.015 21.321754
64.020 21.706793
64.025 22.074751
64.030 22.183165
64.035 22.527048
64.040 22.358662
64.045 22.338306
64.050 22.493105
64.055 22.094212
64.060 22.006067
64.065 22.533758
64.070 23.374966
64.075 23.434484
64.080 23.382393
64.085 23.620838
64.090 24.074593
64.095 24.506708
64.100 24.312542
64.105 24.133722
64.110 24.818579
64.115 24.92568
64.120 24.934483
64.125 25.099182
64.130 24.978971
64.135 25.902744
64.140 26.757757
64.145 27.322071
64.150 27.918625
64.155 28.093649
64.160 28.307886
64.165 28.820999
64.170 29.666895
64.175 30.425596
64.180 30.784883
64.185 31.614422
64.190 32.040676
64.195 32.663746
64.200 32.981194
64.205 32.501343
64.210 31.861059
64.215 31.81072
64.220 32.113045
64.225 32.680988
64.230 33.110497
64.235 33.50124
64.240 33.919731
64.245 34.823624
64.250 35.801254
64.255 37.057819
64.260 38.68211
64.265 38.970741
64.270 38.773159
64.275 39.450912
64.280 40.176517
64.285 40.623337
64.290 40.882172
64.295 41.076469
64.300 42.139778
64.305 42.807163
64.310 42.399887
64.315 42.890026
64.320 43.139133
64.325 43.752132
64.330 44.003792
64.335 44.464874
64.340 44.808449
64.345 44.963089
64.350 44.483028
64.355 44.307304
64.360 44.53833
64.365 44.419659
64.370 45.362926
64.375 45.847122
64.380 45.962845
64.385 45.959538
64.390 46.235264
64.395 46.01696
64.400 45.500946
64.405 44.716606
64.410 44.523994
64.415 44.330185
64.420 44.50259
64.425 44.687218
64.430 45.158939
64.435 44.960491
64.440 45.471794
64.445 46.584351
64.450 47.08564
64.455 47.110737
64.460 46.65181
64.465 46.203056
64.470 46.904678
64.475 46.475185
64.480 45.568386
64.485 45.667316
64.490 44.591713
64.495 44.01268
64.500 43.619339
64.505 42.808872
64.510 42.170406
64.515 42.130119
64.520 41.697205
64.525 40.882816
64.530 40.285572
64.535 39.642509
64.540 39.151592
64.545 39.066463
64.550 38.253738
64.555 38.607967
64.560 38.87875
64.565 39.079292
64.570 38.169693
64.575 37.797344
64.580 36.949917
64.585 36.26392
64.590 34.81535
64.595 34.471855
64.600 33.609665
64.605 32.831741
64.610 31.418331
64.615 30.791761
64.620 29.905993
64.625 29.814606
64.630 29.234842
64.635 29.28742
64.640 30.28071
64.645 30.176788
64.650 29.957937
64.655 29.719913
64.660 30.085249
64.665 30.055927
64.670 30.061977
64.675 29.068951
64.680 28.813482
64.685 28.643734
64.690 28.495285
64.695 27.676399
64.700 27.768005
64.705 27.693352
64.710 27.640278
64.715 27.389576
64.720 26.989044
64.725 27.302916
64.730 27.288328
64.735 26.526674
64.740 25.187996
64.745 24.477917
64.750 24.878862
64.755 25.089994
64.760 24.522009
64.765 23.84182
64.770 23.520554
64.775 23.926886
64.780 23.861322
64.785 23.30504
64.790 22.415514
64.795 22.206316
64.800 22.514851
64.805 23.086695
64.810 22.85425
64.815 22.432297
64.820 23.457518
64.825 23.641653
64.830 23.718575
64.835 24.277542
64.840 24.581003
64.845 24.661839
64.850 24.893995
64.855 24.85804
64.860 25.358877
64.865 24.792675
64.870 23.819427
64.875 22.865307
64.880 22.822527
64.885 22.693834
64.890 22.239719
64.895 22.07225
64.900 22.817497
64.905 22.771494
64.910 22.7843
64.915 22.878386
64.920 22.394777
64.925 22.000101
64.930 21.64197
64.935 21.070452
64.940 21.573822
64.945 22.047573
64.950 21.729692
64.955 21.776157
64.960 21.905174
64.965 22.048338
64.970 22.07523
64.975 21.985355
64.980 22.178288
64.985 23.041008
64.990 23.685669
64.995 23.575773
65.000 23.404896
65.005 24.540392
65.010 25.119707
65.015 25.804689
65.020 26.680643
65.025 27.252686
65.030 27.843414
65.035 28.594227
65.040 28.248077
65.045 28.232914
65.050 27.945129
65.055 27.683208
65.060 27.115009
65.065 27.271873
65.070 27.236748
65.075 27.20579
65.080 27.531538
65.085 27.237963
65.090 27.17717
65.095 27.35873
65.100 27.095428
65.105 27.414352
65.110 27.664715
65.115 27.860907
65.120 27.696943
65.125 28.240389
65.130 29.975306
65.135 31.123192
65.140 31.119768
65.145 31.109476
65.150 31.087435
65.155 31.346039
65.160 30.830219
65.165 29.998802
65.170 29.961201
65.175 29.937099
65.180 30.018057
65.185 30.466398
65.190 31.132029
65.195 31.041227
65.200 30.158424
65.205 29.746321
65.210 29.359932
65.215 29.599274
65.220 29.854509
65.225 29.682274
65.230 29.889994
65.235 31.208742
65.240 31.878376
65.245 32.735371
65.250 32.860142
65.255 32.281616
65.260 32.698441
65.265 32.737236
65.270 32.496552
65.275 31.986633
65.280 31.336582
65.285 31.267218
65.290 31.55838
65.295 31.498314
65.300 32.094578
65.305 32.298878
65.310 32.866264
65.315 33.238811
65.320 32.744289
65.325 32.901165
65.330 33.690857
65.335 33.269188
65.340 33.216621
65.345 33.711193
65.350 33.830986
65.355 33.860798
65.360 33.484699
65.365 32.821526
65.370 33.273586
65.375 33.662266
65.380 33.867928
65.385 34.254299
65.390 34.267857
65.395 34.586533
65.400 34.250484
65.405 33.93161
65.410 34.535118
65.415 34.897408
65.420 35.704659
65.425 36.386105
65.430 36.427876
65.435 37.594261
65.440 38.64587
65.445 38.191921
65.450 38.023327
65.455 37.521767
65.460 37.258774
65.465 37.413631
65.470 36.485306
65.475 35.412796
65.480 35.389748
65.485 34.934589
65.490 34.76366
65.495 35.353424
65.500 36.091988
65.505 36.905624
65.510 37.656364
65.515 38.104774
65.520 38.575329
65.525 38.327564
65.530 37.266258
65.535 36.390369
65.540 36.384209
65.545 36.934483
65.550 37.740234
65.555 37.102657
65.560 37.609993
65.565 38.477657
65.570 39.01897
65.575 38.878349
65.580 37.795727
65.585 36.916855
65.590 37.374374
65.595 37.141445
65.600 36.719238
65.605 36.402832
65.610 36.958099
65.615 37.106064
65.620 37.177574
65.625 36.471043
65.630 36.408268
65.635 36.401512
65.640 36.697224
65.645 37.144314
65.650 37.552437
65.655 37.333046
65.660 37.839481
65.665 38.46159
65.670 38.617573
65.675 38.80949
65.680 37.922813
65.685 37.970421
65.690 38.863815
65.695 38.875633
65.700 37.967758
65.705 37.823147
65.710 37.458427
65.715 37.756561
65.720 37.933582
65.725 37.592407
65.730 37.505802
65.735 38.03149
65.740 37.822086
65.745 37.391109
65.750 36.866276
65.755 36.446228
65.760 37.081348
65.765 37.395092
65.770 37.344734
65.775 38.024841
65.780 38.530029
65.785 38.557346
65.790 37.869686
65.795 37.190506
65.800 36.998188
65.805 36.732597
65.810 35.749081
65.815 35.227581
65.820 34.734737
65.825 34.716976
65.830 33.834084
65.835 33.34066
65.840 33.382736
65.845 33.267155
65.850 33.217327
65.855 33.053825
65.860 32.91861
65.865 32.306396
65.870 31.513765
65.875 30.871771
65.880 31.021822
65.885 30.644335
65.890 30.756117
65.895 30.455713
65.900 31.104004
65.905 31.365772
65.910 31.308722
65.915 30.697454
65.920 30.28159
65.925 29.480982
65.930 29.612989
65.935 30.08095
65.940 30.031734
65.945 29.175442
65.950 28.519346
65.955 28.578493
65.960 28.214779
65.965 27.413874
65.970 26.58942
65.975 27.196072
65.980 28.168587
65.985 28.309595
65.990 27.985037
65.995 27.755768
66.000 27.333216
66.005 26.442354
66.010 25.7411
66.015 25.540047
66.020 26.029427
66.025 25.898666
66.030 25.229321
66.035 24.755737
66.040 24.522585
66.045 24.132881
66.050 23.799145
66.055 23.243134
66.060 22.977533
66.065 22.755753
66.070 22.968859
66.075 22.842058
66.080 23.285618
66.085 23.556053
66.090 23.190235
66.095 23.263924
66.100 23.615656
66.105 23.511328
66.110 23.522598
66.115 23.390251
66.120 23.008049
66.125 22.766392
66.130 22.316658
66.135 21.856354
66.140 22.283754
66.145 22.482021
66.150 21.99798
66.155 22.030136
66.160 21.825327
66.165 21.808222
66.170 21.984135
66.175 21.574699
66.180 20.794941
66.185 20.492245
66.190 20.063982
66.195 20.353605
66.200 20.342503
66.205 19.826403
66.210 19.726042
66.215 20.017935
66.220 19.759674
66.225 19.729279
66.230 19.568966
66.235 19.708759
66.240 19.990086
66.245 19.817429
66.250 20.105362
66.255 19.935631
66.260 19.858309
66.265 19.780296
66.270 19.690027
66.275 19.472151
66.280 18.883217
66.285 18.426567
66.290 18.756773
66.295 19.36445
66.300 19.498528
66.305 18.787476
66.310 18.757008
66.315 18.750441
66.320 19.159349
66.325 19.315027
66.330 18.640631
66.335 18.578367
66.340 18.470745
66.345 18.28669
66.350 18.871349
66.355 18.688395
66.360 18.231434
66.365 17.718979
66.370 17.755388
66.375 17.714731
66.380 17.297649
66.385 16.915293
66.390 16.988754
66.395 17.150415
66.400 17.391336
66.405 17.246016
66.410 17.694267
66.415 18.332836
66.420 18.189987
66.425 17.901154
66.430 17.94556
66.435 18.211687
66.440 18.76466
66.445 19.017242
66.450 19.180944
66.455 19.463102
66.460 19.626905
66.465 20.049423
66.470 20.270773
66.475 20.023903
66.480 20.239166
66.485 20.175524
66.490 19.672371
66.495 19.372442
66.500 18.473967
66.505 17.826517
66.510 17.903456
66.515 17.489693
66.520 17.498037
66.525 17.51725
66.530 17.624912
66.535 17.710337
66.540 17.491339
66.545 17.072189
66.550 16.574677
66.555 16.898485
66.560 17.659281
66.565 18.222322
66.570 18.739767
66.575 19.097113
66.580 18.953856
66.585 19.288118
66.590 18.830397
66.595 18.403805
66.600 17.807602
66.605 17.770124
66.610 17.789829
66.615 17.981949
66.620 18.010481
66.625 18.084389
66.630 18.344702
66.635 18.593828
66.640 18.339342
66.645 17.852413
66.650 17.968401
66.655 18.257513
66.660 17.359642
66.665 16.781881
66.670 16.611681
66.675 17.065542
66.680 17.795382
66.685 18.136169
66.690 17.803337
66.695 18.010151
66.700 18.037636
66.705 18.337465
66.710 17.867977
66.715 17.729025
66.720 17.323208
66.725 17.592581
66.730 18.284994
66.735 18.539537
66.740 18.678562
66.745 18.910944
66.750 18.913527
66.755 18.808226
66.760 18.730389
66.765 18.361544
66.770 18.168802
66.775 17.386683
66.780 17.132395
66.785 16.556774
66.790 16.52376
66.795 16.689808
66.800 16.811794
66.805 16.426037
66.810 16.500158
66.815 16.717602
66.820 16.840101
66.825 16.859869
66.830 16.678658
66.835 16.695787
66.840 17.413105
66.845 17.93605
66.850 18.055618
66.855 18.185741
66.860 18.00733
66.865 18.149899
66.870 18.468817
66.875 18.498138
66.880 17.93153
66.885 17.910055
66.890 18.310814
66.895 18.607489
66.900 18.674799
66.905 18.497091
66.910 18.144241
66.915 18.820728
66.920 18.404161
66.925 17.810759
66.930 17.494625
66.935 17.00144
66.940 17.123507
66.945 17.573675
66.950 17.405085
66.955 18.043678
66.960 18.922064
66.965 19.308147
66.970 18.891058
66.975 19.075636
66.980 18.794827
66.985 18.463785
66.990 18.23675
66.995 17.706348
67.000 17.773508
67.005 18.263514
67.010 17.861731
67.015 17.737005
67.020 17.421381
67.025 17.431332
67.030 17.376245
67.035 17.493654
67.040 17.156759
67.045 17.16618
67.050 17.192753
67.055 17.207832
67.060 17.284498
67.065 17.27828
67.070 17.126198
67.075 17.191372
67.080 17.696859
67.085 17.939899
67.090 17.648544
67.095 17.327726
67.100 17.151794
67.105 17.359983
67.110 16.978731
67.115 16.758682
67.120 17.394522
67.125 17.848221
67.130 18.075535
67.135 18.214012
67.140 18.865913
67.145 19.130674
67.150 19.063953
67.155 18.861078
67.160 18.973433
67.165 19.276508
67.170 19.173553
67.175 18.57312
67.180 19.195478
67.185 18.940889
67.190 18.574556
67.195 18.846214
67.200 18.708233
67.205 18.780432
67.210 18.505444
67.215 18.659344
67.220 18.480141
67.225 18.671053
67.230 18.404821
67.235 18.203976
67.240 18.446863
67.245 18.463228
67.250 17.758652
67.255 18.073557
67.260 18.186539
67.265 18.032
67.270 18.124332
67.275 17.725498
67.280 17.696762
67.285 18.171471
67.290 18.439962
67.295 18.30361
67.300 18.361284
67.305 18.29154
67.310 18.541536
67.315 18.185148
67.320 18.363438
67.325 18.085835
67.330 18.167488
67.335 18.770485
67.340 18.758339
67.345 18.912064
67.350 18.687151
67.355 18.159754
67.360 18.129313
67.365 17.875069
67.370 17.296341
67.375 17.436363
67.380 17.228352
67.385 17.568424
67.390 17.538036
67.395 17.121824
67.400 17.294046
67.405 17.557924
67.410 17.625324
67.415 17.580675
67.420 17.539711
67.425 17.753963
67.430 18.061144
67.435 17.760141
67.440 17.584469
67.445 17.735228
67.450 18.2598
67.455 18.333488
67.460 18.328054
67.465 18.573042
67.470 18.44046
67.475 18.089777
67.480 17.590454
67.485 17.62381
67.490 17.522474
67.495 17.507084
67.500 17.616459
67.505 18.343111
67.510 19.031969
67.515 19.512367
67.520 19.215586
67.525 19.49198
67.530 19.287531
67.535 19.092953
67.540 18.982542
67.545 18.657822
67.550 18.688314
67.555 18.858635
67.560 18.649876
67.565 18.402987
67.570 18.492031
67.575 18.260649
67.580 18.298052
67.585 18.400602
67.590 18.409025
67.595 18.813185
67.600 19.388193
67.605 19.437027
67.610 19.685465
67.615 19.59572
67.620 19.906713
67.625 20.093014
67.630 20.25761
67.635 20.150106
67.640 20.18355
67.645 19.962946
67.650 19.495953
67.655 18.863234
67.660 18.616507
67.665 17.788092
67.670 17.407013
67.675 17.130701
67.680 17.086359
67.685 17.4601
67.690 17.216803
67.695 16.928829
67.700 17.291246
67.705 17.438992
67.710 17.859056
67.715 18.031942
67.720 18.35297
67.725 18.137985
67.730 18.373632
67.735 18.016729
67.740 17.625248
67.745 17.681852
67.750 17.532576
67.755 17.423431
67.760 17.607037
67.765 17.464449
67.770 17.188551
67.775 17.535704
67.780 17.321241
67.785 17.235174
67.790 17.378387
67.795 17.480703
67.800 18.022875
67.805 18.626652
67.810 18.241188
67.815 18.142569
67.820 17.989254
67.825 17.268539
67.830 17.130924
67.835 16.423794
67.840 16.266495
67.845 16.327038
67.850 16.423397
67.855 17.174183
67.860 17.78249
67.865 18.068035
67.870 18.144457
67.875 18.125441
67.880 17.929405
67.885 17.33185
67.890 16.530153
67.895 16.539598
67.900 17.264086
67.905 17.454514
67.910 17.683708
67.915 17.802488
67.920 18.26207
67.925 18.088619
67.930 18.285519
67.935 18.192678
67.940 18.64188
67.945 19.76539
67.950 20.08971
67.955 20.192183
67.960 20.984221
67.965 20.642469
67.970 21.05061
67.975 20.866295
67.980 19.993885
67.985 20.025505
67.990 19.791224
67.995 19.036516
68.000 18.533268
68.005 17.77734
68.010 17.581892
68.015 17.874853
68.020 18.168316
68.025 18.101799
68.030 18.564939
68.035 18.815723
68.040 19.102295
68.045 18.759476
68.050 18.551834
68.055 18.480999
68.060 18.713209
68.065 19.063526
68.070 19.192204
68.075 19.829096
68.080 20.484129
68.085 20.433163
68.090 20.215824
68.095 19.933161
68.100 19.838961
68.105 20.15032
68.110 20.001938
68.115 19.529057
68.120 19.272081
68.125 19.100115
68.130 19.415901
68.135 19.207567
68.140 18.454729
68.145 17.96476
68.150 17.878929
68.155 18.117676
68.160 18.302139
68.165 18.300739
68.170 18.770134
68.175 19.255497
68.180 19.52281
68.185 20.007532
68.190 20.499802
68.195 20.416662
68.200 20.458195
68.205 20.357813
68.210 20.306564
68.215 20.865274
68.220 20.787086
68.225 20.486631
68.230 20.502375
68.235 21.074722
68.240 21.518944
68.245 21.878794
68.250 21.748953
68.255 22.138466
68.260 22.535992
68.265 22.947435
68.270 22.595724
68.275 22.466843
68.280 21.978951
68.285 21.471239
68.290 21.19301
68.295 21.305733
68.300 21.783882
68.305 21.847267
68.310 22.467587
68.315 23.267612
68.320 23.061806
68.325 22.802734
68.330 22.639694
68.335 22.573967
68.340 22.640245
68.345 22.392172
68.350 23.070108
68.355 23.214407
68.360 23.296759
68.365 23.252844
68.370 22.838139
68.375 22.489967
68.380 23.354969
68.385 24.093462
68.390 24.489185
68.395 25.482494
68.400 26.126431
68.405 26.364178
68.410 26.439178
68.415 25.804976
68.420 25.359715
68.425 25.401356
68.430 24.955828
68.435 24.548639
68.440 24.198931
68.445 23.881111
68.450 23.910126
68.455 24.516651
68.460 25.058611
68.465 25.212379
68.470 26.591831
68.475 27.480822
68.480 28.18976
68.485 28.248001
68.490 27.828835
68.495 28.491814
68.500 29.125147
68.505 28.9676
68.510 29.153048
68.515 29.008587
68.520 29.177601
68.525 29.421402
68.530 29.009268
68.535 29.065327
68.540 28.944614
68.545 28.956472
68.550 29.281582
68.555 29.859283
68.560 30.576962
68.565 30.469109
68.570 30.755758
68.575 30.750063
68.580 30.432184
68.585 30.217535
68.590 30.105379
68.595 29.985603
68.600 29.930443
68.605 29.602766
68.610 29.448666
68.615 29.451763
68.620 29.797873
68.625 29.823992
68.630 29.975597
68.635 30.103699
68.640 30.32741
68.645 30.845999
68.650 31.53194
68.655 31.669729
68.660 32.078983
68.665 32.285946
68.670 31.829266
68.675 31.284927
68.680 31.335369
68.685 30.952374
68.690 30.946146
68.695 31.161703
68.700 31.738007
68.705 32.752743
68.710 33.467564
68.715 33.439354
68.720 33.44173
68.725 32.601894
68.730 31.917391
68.735 31.160316
68.740 30.437836
68.745 30.67429
68.750 31.146744
68.755 31.859995
68.760 32.667835
68.765 32.816322
68.770 33.910301
68.775 33.955215
68.780 34.38023
68.785 34.6283
68.790 34.593346
68.795 35.446827
68.800 35.526936
68.805 34.909386
68.810 34.454258
68.815 34.332104
68.820 33.370781
68.825 32.555832
68.830 31.870279
68.835 32.251404
68.840 32.667881
68.845 32.221783
68.850 31.600094
68.855 32.649036
68.860 33.641689
68.865 34.943283
68.870 35.465359
68.875 35.51778
68.880 36.000347
68.885 36.629757
68.890 36.703434
68.895 36.57336
68.900 36.5942
68.905 36.665363
68.910 37.411045
68.915 37.357658
68.920 36.585941
68.925 36.266541
68.930 36.033394
68.935 34.665188
68.940 33.773113
68.945 33.002651
68.950 33.408054
68.955 33.298229
68.960 32.945538
68.965 33.046696
68.970 33.339081
68.975 33.490223
68.980 33.918709
68.985 33.815155
68.990 33.743694
68.995 33.301266
69.000 32.458805
69.005 32.179775
69.010 32.611038
69.015 31.89497
69.020 31.657244
69.025 31.775854
69.030 32.124138
69.035 31.969055
69.040 31.347923
69.045 30.65951
69.050 30.325525
69.055 30.199965
69.060 30.18491
69.065 29.860134
69.070 30.329327
69.075 30.570313
69.080 31.01586
69.085 30.864443
69.090 30.535898
69.095 30.17617
69.100 30.690573
69.105 30.110325
69.110 29.764997
69.115 29.302261
69.120 29.435863
69.125 29.752428
69.130 29.472202
69.135 29.141083
69.140 29.003006
69.145 28.91217
69.150 28.598732
69.155 28.676119
69.160 28.288141
69.165 27.781395
69.170 27.219084
69.175 26.982048
69.180 26.243895
69.185 25.803436
69.190 25.222168
69.195 25.286839
69.200 24.904491
69.205 24.600548
69.210 24.475828
69.215 24.930851
69.220 25.179619
69.225 25.416033
69.230 24.781916
69.235 24.858938
69.240 24.896894
69.245 24.837469
69.250 24.716587
69.255 24.279942
69.260 24.435284
69.265 24.702087
69.270 24.097019
69.275 23.928373
69.280 22.928915
69.285 22.6453
69.290 21.771622
69.295 20.933678
69.300 20.811047
69.305 20.94335
69.310 20.742775
69.315 20.097679
69.320 19.964222
69.325 20.407639
69.330 20.042669
69.335 19.25878
69.340 18.938814
69.345 18.912071
69.350 19.591648
69.355 19.963221
69.360 19.909061
69.365 20.712919
69.370 21.318441
69.375 21.483232
69.380 21.159628
69.385 20.462004
69.390 20.277092
69.395 19.846245
69.400 19.30353
69.405 19.120592
69.410 19.646385
69.415 20.271246
69.420 20.439623
69.425 20.212959
69.430 20.190544
69.435 20.540457
69.440 20.192804
69.445 19.612217
69.450 18.60886
69.455 18.606535
69.460 18.838846
69.465 18.602648
69.470 18.619904
69.475 19.177732
69.480 19.1738
69.485 19.935499
69.490 19.990261
69.495 19.820107
69.500 20.011057
69.505 19.564041
69.510 19.301735
69.515 19.491116
69.520 19.195404
69.525 19.118093
69.530 18.691925
69.535 19.188652
69.540 19.856573
69.545 19.496809
69.550 19.396795
69.555 19.35445
69.560 19.591755
69.565 20.260763
69.570 19.807671
69.575 19.318985
69.580 19.701712
69.585 18.968456
69.590 18.34524
69.595 17.796764
69.600 17.130838
69.605 16.904814
69.610 16.507662
69.615 16.625809
69.620 16.79949
69.625 17.232634
69.630 17.481951
69.635 17.847271
69.640 18.160692
69.645 18.38777
69.650 18.109814
69.655 18.033737
69.660 17.629515
69.665 17.543892
69.670 17.945011
69.675 18.435566
69.680 18.753469
69.685 18.939104
69.690 19.288378
69.695 19.636703
69.700 19.753471
69.705 19.521202
69.710 19.314533
69.715 19.299208
69.720 19.169043
69.725 19.587877
69.730 19.191164
69.735 19.300407
69.740 18.642874
69.745 18.978016
69.750 18.635689
69.755 18.454229
69.760 18.789705
69.765 19.423363
69.770 19.554714
69.775 19.352451
69.780 18.731962
69.785 19.199888
69.790 19.097746
69.795 19.056623
69.800 19.139189
69.805 18.858389
69.810 19.077667
69.815 19.530247
69.820 19.233725
69.825 19.574907
69.830 19.504557
69.835 19.329796
69.840 19.552296
69.845 19.382059
69.850 19.044748
69.855 18.884382
69.860 18.309637
69.865 17.954782
69.870 18.182774
69.875 18.423706
69.880 18.892548
69.885 18.863136
69.890 18.738279
69.895 18.872023
69.900 18.88818
69.905 18.495451
69.910 18.316433
69.915 18.857018
69.920 19.408014
69.925 19.18807
69.930 18.843103
69.935 18.114391
69.940 17.865557
69.945 17.072561
69.950 16.416386
69.955 16.53805
69.960 16.987993
69.965 17.202284
69.970 17.110157
69.975 17.176914
69.980 17.338318
69.985 17.087896
69.990 16.842398
69.995 16.705713
70.000 17.682573
70.005 18.400881
70.010 18.385073
70.015 18.351274
70.020 18.96946
70.025 19.012138
70.030 18.758862
70.035 18.016319
70.040 17.558256
70.045 17.233677
70.050 17.095095
70.055 16.724087
70.060 16.602329
70.065 16.44558
70.070 16.801487
70.075 17.888842
70.080 18.150278
70.085 18.287571
70.090 18.524612
70.095 18.325535
70.100 18.075668
70.105 17.745518
70.110 17.06361
70.115 17.386839
70.120 17.315056
70.125 17.07605
70.130 17.856909
70.135 18.151911
70.140 18.111721
70.145 18.514053
70.150 18.70524
70.155 18.760876
70.160 18.168726
70.165 17.344973
70.170 17.281809
70.175 16.956421
70.180 16.96023
70.185 17.22414
70.190 17.668142
70.195 18.181887
70.200 18.488693
70.205 18.607521
70.210 18.425169
70.215 18.41596
70.220 18.09388
70.225 17.676672
70.230 17.627758
70.235 17.448032
70.240 18.139849
70.245 18.216921
70.250 18.296789
70.255 18.29476
70.260 18.366236
70.265 18.683933
70.270 18.831081
70.275 18.899162
70.280 18.891174
70.285 18.853819
70.290 19.022032
70.295 19.796774
70.300 20.001467
70.305 19.399515
70.310 18.570768
70.315 18.611412
70.320 18.834375
70.325 18.173569
70.330 17.766703
70.335 17.081581
70.340 17.059786
70.345 17.180017
70.350 17.204514
70.355 17.242001
70.360 17.156713
70.365 17.044552
70.370 17.261702
70.375 17.401602
70.380 17.475897
70.385 17.329531
70.390 17.479294
70.395 17.725634
70.400 18.333952
70.405 19.009359
70.410 19.746302
70.415 19.624834
70.420 19.612251
70.425 19.27931
70.430 19.305677
70.435 18.472408
70.440 17.971191
70.445 16.770987
70.450 16.603649
70.455 16.671423
70.460 16.514843
70.465 16.870495
70.470 17.152538
70.475 18.090857
70.480 18.936996
70.485 18.902996
70.490 19.150703
70.495 19.37137
70.500 19.457163
70.505 19.674601
70.510 18.974827
70.515 18.459002
70.520 17.842251
70.525 17.305996
70.530 16.868773
70.535 16.416712
70.540 16.098558
70.545 16.143373
70.550 16.279795
70.555 16.746037
70.560 16.908525
70.565 17.263496
70.570 17.759834
70.575 17.590635
70.580 18.199934
70.585 18.708364
70.590 18.701246
70.595 18.699503
70.600 17.810846
70.605 17.823511
70.610 17.926851
70.615 17.10372
70.620 17.245729
70.625 17.443336
70.630 17.320591
70.635 17.262972
70.640 17.068413
70.645 17.737717
70.650 18.048542
70.655 18.175953
70.660 17.820621
70.665 18.447239
70.670 18.529766
70.675 18.149996
70.680 17.834749
70.685 18.091364
70.690 18.327997
70.695 18.414797
70.700 18.797108
70.705 18.913021
70.710 19.275702
70.715 19.366468
70.720 19.076656
70.725 18.621082
70.730 18.616825
70.735 18.350464
70.740 18.878626
70.745 18.47476
70.750 18.395945
70.755 18.281101
70.760 19.161961
70.765 19.238342
70.770 19.260172
70.775 18.998255
70.780 19.304213
70.785 18.814419
70.790 18.485229
70.795 17.763615
70.800 17.539309
70.805 17.572418
70.810 17.091955
70.815 16.796967
70.820 17.554726
70.825 18.044924
70.830 18.473585
70.835 18.166304
70.840 18.150421
70.845 18.336584
70.850 18.508728
70.855 18.234272
70.860 17.847754
70.865 17.725657
70.870 17.781918
70.875 17.514114
70.880 17.509512
70.885 17.268063
70.890 17.6689
70.895 17.269062
70.900 17.329174
70.905 17.519033
70.910 17.734579
70.915 18.408775
70.920 18.741285
70.925 18.517387
70.930 19.145094
70.935 19.307919
70.940 19.568483
70.945 19.961241
70.950 19.801466
70.955 19.413197
70.960 19.370991
70.965 18.442215
70.970 17.942434
70.975 17.959719
70.980 18.29685
70.985 18.454693
70.990 17.874008
70.995 18.311819
71.000 18.723703
71.005 18.948471
71.010 18.417229
71.015 17.233803
71.020 17.037302
71.025 17.377855
71.030 17.21612
71.035 17.51277
71.040 17.754807
71.045 17.763126
71.050 18.063801
71.055 17.928181
71.060 18.319437
71.065 18.795546
71.070 19.142298
71.075 18.879587
71.080 18.552244
71.085 18.637194
71.090 19.22407
71.095 19.099167
71.100 17.941875
71.105 17.06184
71.110 17.561682
71.115 18.124449
71.120 18.129095
71.125 17.651333
71.130 17.842287
71.135 18.460699
71.140 18.654186
71.145 18.405331
71.150 17.886557
71.155 18.280563
71.160 18.137987
71.165 17.845703
71.170 17.554596
71.175 17.593956
71.180 17.749788
71.185 17.198145
71.190 16.901312
71.195 17.013735
71.200 16.977135
71.205 17.039536
71.210 16.477634
71.215 16.647436
71.220 17.583607
71.225 17.498571
71.230 17.261133
71.235 16.83095
71.240 16.400087
71.245 16.664608
71.250 16.703009
71.255 16.109827
71.260 15.836219
71.265 16.324158
71.270 16.853756
71.275 17.619942
71.280 17.568556
71.285 17.823168
71.290 17.8762
71.295 17.652407
71.300 17.88591
71.305 18.365492
71.310 18.236895
71.315 18.268976
71.320 18.758177
71.325 18.87676
71.330 19.359219
71.335 19.173643
71.340 18.938122
71.345 18.978355
71.350 18.918528
71.355 18.445904
71.360 18.779621
71.365 17.866499
71.370 17.800455
71.375 17.904274
71.380 18.006241
71.385 18.240196
71.390 18.138399
71.395 18.440853
71.400 19.00407
71.405 19.363527
71.410 18.804268
71.415 17.958412
71.420 18.087276
71.425 17.743757
71.430 17.396404
71.435 17.237642
71.440 16.646433
71.445 17.013601
71.450 17.682171
71.455 17.59959
71.460 17.936443
71.465 17.873783
71.470 17.804493
71.475 17.955349
71.480 18.262493
71.485 17.86067
71.490 17.651615
71.495 18.344866
71.500 18.258327
71.505 18.037279
71.510 17.926575
71.515 17.741621
71.520 17.656834
71.525 17.79804
71.530 17.521107
71.535 17.409765
71.540 18.493832
71.545 18.743725
71.550 18.948769
71.555 19.359163
71.560 18.732771
71.565 18.177401
71.570 17.473444
71.575 16.969913
71.580 16.520081
71.585 16.230698
71.590 16.391432
71.595 16.522354
71.600 17.300171
71.605 18.52286
71.610 18.119259
71.615 18.110027
71.620 18.594177
71.625 18.405024
71.630 18.6898
71.635 18.137436
71.640 17.977045
71.645 18.389587
71.650 18.448984
71.655 17.963638
71.660 17.911724
71.665 17.563427
71.670 17.514961
71.675 17.801346
71.680 17.543327
71.685 17.59444
71.690 18.177668
71.695 18.086683
71.700 18.28479
71.705 18.725925
71.710 18.940405
71.715 18.878138
71.720 19.05781
71.725 19.055496
71.730 19.324829
71.735 19.327711
71.740 18.861565
71.745 18.49074
71.750 18.330631
71.755 18.037226
71.760 17.291819
71.765 16.884644
71.770 16.667706
71.775 16.026077
71.780 16.415058
71.785 16.600769
71.790 17.06591
71.795 17.784771
71.800 18.022644
71.805 18.222158
71.810 18.087233
71.815 18.12145
71.820 17.947577
71.825 17.698294
71.830 17.581823
71.835 17.091959
71.840 17.118675
71.845 18.033499
71.850 18.380625
71.855 18.539455
71.860 18.386114
71.865 18.208603
71.870 17.993279
71.875 18.424923
71.880 17.559723
71.885 17.258255
71.890 17.046911
71.895 17.146526
71.900 17.834221
71.905 18.047819
71.910 17.40925
71.915 17.246632
71.920 17.37365
71.925 17.631577
71.930 17.736553
71.935 17.595644
71.940 17.971819
71.945 18.15645
71.950 18.29567
71.955 17.928194
71.960 18.379293
71.965 18.386589
71.970 18.400848
71.975 18.712561
71.980 18.482855
71.985 18.736685
71.990 18.352707
71.995 17.953888
72.000 17.854185
72.005 17.697699
72.010 17.473192
72.015 17.043541
72.020 16.918077
72.025 16.686806
72.030 16.811966
72.035 17.026102
72.040 16.744358
72.045 16.962749
72.050 17.347214
72.055 17.303387
72.060 17.486616
72.065 17.356022
72.070 17.156893
72.075 17.112448
72.080 17.230141
72.085 16.878454
72.090 16.75915
72.095 16.425726
72.100 16.534424
72.105 17.137209
72.110 17.467962
72.115 16.975451
72.120 17.234478
72.125 17.167662
72.130 16.965521
72.135 16.484495
72.140 15.991805
72.145 15.929091
72.150 15.783564
72.155 16.007652
72.160 16.279745
72.165 16.229576
72.170 16.381618
72.175 16.410034
72.180 16.608435
72.185 16.751228
72.190 16.613111
72.195 16.9818
72.200 17.025076
72.205 16.85903
72.210 17.246754
72.215 17.326166
72.220 17.255434
72.225 16.708706
72.230 15.974695
72.235 16.585453
72.240 16.566093
72.245 16.169319
72.250 16.148045
72.255 16.47003
72.260 17.001112
72.265 17.053215
72.270 16.575888
72.275 16.8969
72.280 16.875309
72.285 16.611853
72.290 16.560728
72.295 16.295326
72.300 16.505779
72.305 16.437572
72.310 16.342869
72.315 16.957142
72.320 17.246355
72.325 17.481415
72.330 17.939039
72.335 18.174879
72.340 18.122286
72.345 17.9659
72.350 17.541735
72.355 17.477192
72.360 17.451406
72.365 17.217266
72.370 17.188814
72.375 17.129158
72.380 17.031233
72.385 16.962873
72.390 17.166061
72.395 16.955833
72.400 17.044693
72.405 16.631624
72.410 17.06175
72.415 17.74737
72.420 18.07058
72.425 17.661474
72.430 18.171007
72.435 18.984211
72.440 19.2742
72.445 18.846823
72.450 18.039167
72.455 17.448097
72.460 17.602642
72.465 16.989889
72.470 16.19099
72.475 16.24366
72.480 16.231081
72.485 16.73411
72.490 17.7558
72.495 18.110651
72.500 18.061195
72.505 18.339603
72.510 18.355204
72.515 18.475592
72.520 18.812904
72.525 18.651272
72.530 17.879387
72.535 17.543877
72.540 17.525908
72.545 17.17944
72.550 17.07926
72.555 16.715389
72.560 17.068605
72.565 17.806389
72.570 18.034664
72.575 17.733162
72.580 18.1024
72.585 18.525524
72.590 18.016676
72.595 17.610224
72.600 17.30088
72.605 17.371714
72.610 17.342678
72.615 17.427483
72.620 17.556927
72.625 17.675329
72.630 17.169798
72.635 17.209358
72.640 17.168358
72.645 17.107571
72.650 16.874767
72.655 16.690399
72.660 17.157326
72.665 17.418684
72.670 17.185259
72.675 16.515982
72.680 16.153334
72.685 15.741796
72.690 15.948897
72.695 15.858107
72.700 15.897465
72.705 16.278074
72.710 16.519386
72.715 16.806583
72.720 16.742224
72.725 16.421392
72.730 16.378906
72.735 16.54052
72.740 17.037466
72.745 17.613565
72.750 17.477276
72.755 17.797838
72.760 17.898607
72.765 17.954439
72.770 18.107384
72.775 17.710302
72.780 17.314852
72.785 17.114948
72.790 16.496975
72.795 16.067265
72.800 15.963597
72.805 15.848767
72.810 16.032873
72.815 16.821018
72.820 16.866886
72.825 17.533188
72.830 18.234049
72.835 18.273659
72.840 18.488768
72.845 18.241753
72.850 18.037529
72.855 18.13793
72.860 17.642788
72.865 17.372082
72.870 17.066666
72.875 16.758978
72.880 16.777933
72.885 16.264919
72.890 16.211533
72.895 16.045647
72.900 16.092297
72.905 16.414854
72.910 16.297064
72.915 16.754713
72.920 16.728773
72.925 16.378895
72.930 16.481409
72.935 16.743919
72.940 16.905247
72.945 17.064405
72.950 17.055782
72.955 17.047539
72.960 17.324516
72.965 16.74304
72.970 16.607822
72.975 16.580322
72.980 16.559719
72.985 16.963741
72.990 16.892929
72.995 16.502319
73.000 16.071487
