!@!!GADDS PLOTSO FILE: Chi integration type
!@!!Title/SampleName: map-15
!@!!Comment: ?
!@!!User: Bruker Instrument Administrator
!@!!Site: University of Illinois Chicago
!@!!Frame: map-15_01_000.gfrm
!@!!Wavelengths    1.54184   1.54056   1.54439
!@!!Frame angles: 2Theta: 63.000 Omega: 50.000 Phi: 0.000 Chi: 90.000
!@!!Integration range: 2Theta: 53.000 to 73.000  Gamma: -105.000 to -75.000
!@!!Integration method: bin normalized
!@!N
!@!SS
!@!M
!@!L 0.0 0.0 0.0 0.0
!@!XDegrees
!@!YCounts
53.000 7.178746
53.005 6.999924
53.010 6.961434
53.015 7.004568
53.020 6.761063
53.025 6.532681
53.030 6.834119
53.035 6.982546
53.040 7.129381
53.045 7.087057
53.050 7.135584
53.055 7.441379
53.060 7.606131
53.065 7.294974
53.070 7.292685
53.075 7.08023
53.080 6.787139
53.085 6.838279
53.090 6.596103
53.095 6.824183
53.100 6.932627
53.105 7.278565
53.110 7.681171
53.115 7.663329
53.120 7.484293
53.125 7.575349
53.130 7.471776
53.135 7.378126
53.140 7.13957
53.145 6.996984
53.150 6.740828
53.155 6.88019
53.160 6.879891
53.165 6.698123
53.170 7.159034
53.175 7.318591
53.180 7.6621
53.185 7.89101
53.190 7.520101
53.195 7.616979
53.200 7.642725
53.205 7.258128
53.210 7.406518
53.215 7.190852
53.220 7.192933
53.225 7.509072
53.230 7.319232
53.235 7.337314
53.240 7.305315
53.245 6.731959
53.250 6.781757
53.255 6.566376
53.260 7.078964
53.265 7.302264
53.270 7.076341
53.275 7.243107
53.280 7.675622
53.285 7.647723
53.290 7.681092
53.295 7.540418
53.300 7.392296
53.305 7.260377
53.310 7.447787
53.315 7.259405
53.320 7.499113
53.325 7.459089
53.330 7.455678
53.335 7.82924
53.340 8.082012
53.345 8.060221
53.350 8.273065
53.355 8.798846
53.360 9.068991
53.365 9.442828
53.370 9.607654
53.375 9.227913
53.380 9.149768
53.385 8.904995
53.390 8.176929
53.395 7.738769
53.400 7.406013
53.405 7.108805
53.410 7.081687
53.415 7.063935
53.420 7.021099
53.425 7.34434
53.430 7.151368
53.435 7.012315
53.440 7.093632
53.445 7.089115
53.450 7.20994
53.455 7.568624
53.460 7.510363
53.465 7.674108
53.470 7.606149
53.475 7.472234
53.480 7.318515
53.485 7.633523
53.490 7.32635
53.495 7.085505
53.500 6.938965
53.505 7.04939
53.510 7.388703
53.515 7.31903
53.520 6.873827
53.525 7.115622
53.530 7.15124
53.535 7.436589
53.540 7.402574
53.545 7.148868
53.550 7.185378
53.555 7.283424
53.560 7.353107
53.565 7.527259
53.570 7.267889
53.575 7.122293
53.580 7.251141
53.585 7.670879
53.590 7.568985
53.595 7.879954
53.600 7.937864
53.605 8.246923
53.610 8.438684
53.615 8.463751
53.620 8.166164
53.625 8.032141
53.630 7.676767
53.635 7.642588
53.640 7.575284
53.645 7.501482
53.650 7.526953
53.655 7.695364
53.660 7.681111
53.665 7.25352
53.670 7.101732
53.675 7.067543
53.680 6.985019
53.685 7.310853
53.690 7.694541
53.695 8.380149
53.700 8.821486
53.705 9.026928
53.710 9.021818
53.715 9.213574
53.720 9.270314
53.725 9.112587
53.730 8.528405
53.735 8.699532
53.740 8.639032
53.745 8.74946
53.750 8.622303
53.755 8.404406
53.760 8.679259
53.765 8.782437
53.770 8.926759
53.775 9.058248
53.780 9.009255
53.785 8.860808
53.790 8.666393
53.795 9.057263
53.800 9.357624
53.805 8.989732
53.810 8.763381
53.815 9.102805
53.820 9.085004
53.825 9.159879
53.830 8.57935
53.835 8.508422
53.840 8.623536
53.845 8.727118
53.850 8.457171
53.855 8.445514
53.860 8.168143
53.865 8.231947
53.870 8.121552
53.875 7.929976
53.880 7.636178
53.885 7.444924
53.890 7.73251
53.895 7.797567
53.900 7.791548
53.905 7.907145
53.910 8.090817
53.915 8.625053
53.920 8.961647
53.925 8.836982
53.930 8.798443
53.935 8.558055
53.940 8.440494
53.945 8.327646
53.950 8.317436
53.955 7.921329
53.960 7.632978
53.965 7.445389
53.970 7.351724
53.975 7.436612
53.980 7.58236
53.985 7.258351
53.990 7.523861
53.995 7.764845
54.000 8.089109
54.005 8.234107
54.010 8.105056
54.015 8.131897
54.020 8.324678
54.025 8.219728
54.030 8.208567
54.035 8.434077
54.040 8.476629
54.045 8.337461
54.050 8.402249
54.055 8.355827
54.060 8.329224
54.065 8.190312
54.070 8.082555
54.075 7.947925
54.080 8.080681
54.085 7.719196
54.090 7.796088
54.095 8.023712
54.100 8.18504
54.105 8.469376
54.110 8.407726
54.115 8.476571
54.120 8.645403
54.125 8.593768
54.130 8.522204
54.135 8.238082
54.140 7.892875
54.145 7.810168
54.150 7.70295
54.155 8.060549
54.160 7.963396
54.165 8.084613
54.170 8.281239
54.175 8.396252
54.180 8.566303
54.185 8.65002
54.190 8.499321
54.195 8.661145
54.200 8.804644
54.205 9.083905
54.210 9.106095
54.215 8.944409
54.220 8.64775
54.225 8.922112
54.230 9.009656
54.235 8.859253
54.240 8.677713
54.245 8.739806
54.250 9.040088
54.255 9.407226
54.260 9.076399
54.265 8.663342
54.270 8.554214
54.275 8.908682
54.280 9.500633
54.285 9.399066
54.290 9.184649
54.295 9.124472
54.300 9.28726
54.305 9.671579
54.310 9.044001
54.315 8.556259
54.320 8.438327
54.325 8.46394
54.330 8.465447
54.335 8.33185
54.340 8.441593
54.345 8.712799
54.350 8.578418
54.355 8.141328
54.360 8.315147
54.365 8.654242
54.370 8.798378
54.375 8.428788
54.380 8.407204
54.385 9.130509
54.390 9.466824
54.395 9.300226
54.400 9.199405
54.405 9.195655
54.410 9.444037
54.415 9.439699
54.420 9.16055
54.425 9.017773
54.430 9.23319
54.435 9.408175
54.440 9.577892
54.445 9.420668
54.450 9.74143
54.455 9.858335
54.460 9.825811
54.465 9.211412
54.470 8.961472
54.475 8.66082
54.480 8.50594
54.485 8.1985
54.490 8.421132
54.495 8.720233
54.500 9.078879
54.505 8.867727
54.510 9.255773
54.515 9.605531
54.520 9.926459
54.525 9.680477
54.530 9.38715
54.535 9.376708
54.540 8.991344
54.545 8.517932
54.550 8.283238
54.555 7.891215
54.560 8.238665
54.565 8.379539
54.570 8.607367
54.575 8.725692
54.580 8.525334
54.585 8.367196
54.590 8.209778
54.595 7.618042
54.600 7.173318
54.605 6.895801
54.610 7.173902
54.615 7.595119
54.620 8.181227
54.625 8.522725
54.630 9.039981
54.635 9.537815
54.640 9.596293
54.645 9.53614
54.650 9.113911
54.655 9.025516
54.660 8.966323
54.665 9.117172
54.670 9.165938
54.675 9.38576
54.680 9.562144
54.685 9.659873
54.690 9.693106
54.695 9.738435
54.700 9.339346
54.705 9.309273
54.710 9.232194
54.715 9.085016
54.720 9.290994
54.725 9.165416
54.730 9.280153
54.735 9.468936
54.740 9.295312
54.745 9.46182
54.750 9.308034
54.755 9.083825
54.760 9.278432
54.765 9.104042
54.770 9.151621
54.775 9.267381
54.780 9.23578
54.785 9.821109
54.790 9.681949
54.795 9.42486
54.800 9.541842
54.805 9.707111
54.810 9.976392
54.815 9.609015
54.820 9.02627
54.825 9.012327
54.830 9.015151
54.835 8.700073
54.840 8.618518
54.845 8.655437
54.850 8.776151
54.855 8.872279
54.860 8.926132
54.865 9.27844
54.870 9.831427
54.875 9.8835
54.880 10.137902
54.885 10.782456
54.890 10.788595
54.895 10.852035
54.900 10.879594
54.905 10.4248
54.910 10.520687
54.915 10.494651
54.920 10.762102
54.925 11.000144
54.930 10.701853
54.935 10.716034
54.940 11.029749
54.945 11.212453
54.950 10.732098
54.955 10.160236
54.960 10.161512
54.965 10.006096
54.970 9.680861
54.975 9.496059
54.980 9.256474
54.985 9.665479
54.990 10.138072
54.995 10.242463
55.000 10.539178
55.005 10.428546
55.010 10.580827
55.015 10.299589
55.020 9.927201
55.025 9.853098
55.030 9.833218
55.035 10.01792
55.040 9.751862
55.045 9.627863
55.050 9.833542
55.055 9.928178
55.060 9.838805
55.065 9.504573
55.070 9.068827
55.075 9.200519
55.080 8.755466
55.085 8.333459
55.090 8.500992
55.095 8.385546
55.100 8.89818
55.105 9.202836
55.110 9.336173
55.115 9.712841
55.120 9.842493
55.125 9.905713
55.130 9.950808
55.135 9.545965
55.140 9.420442
55.145 9.671467
55.150 9.568062
55.155 9.405825
55.160 9.650271
55.165 9.47001
55.170 9.613388
55.175 9.825986
55.180 9.731091
55.185 10.099412
55.190 10.176363
55.195 9.650152
55.200 9.74194
55.205 9.563708
55.210 9.424221
55.215 9.230136
55.220 8.886593
55.225 8.501039
55.230 8.717737
55.235 8.781363
55.240 9.044492
55.245 8.882123
55.250 8.833348
55.255 9.106709
55.260 9.54402
55.265 9.955514
55.270 10.009315
55.275 9.797134
55.280 10.355918
55.285 10.548364
55.290 10.358206
55.295 10.249508
55.300 9.666677
55.305 10.256098
55.310 10.148459
55.315 9.913334
55.320 9.673812
55.325 9.715625
55.330 10.278522
55.335 10.55239
55.340 10.377959
55.345 10.528978
55.350 10.592898
55.355 10.664031
55.360 10.907595
55.365 10.400472
55.370 9.819215
55.375 9.522308
55.380 9.868606
55.385 9.712871
55.390 9.69768
55.395 10.078458
55.400 10.293194
55.405 10.603536
55.410 10.655345
55.415 10.322749
55.420 10.519192
55.425 10.892839
55.430 11.19682
55.435 11.48183
55.440 11.576151
55.445 11.468899
55.450 11.309189
55.455 11.370544
55.460 10.752256
55.465 9.914026
55.470 9.651587
55.475 9.657951
55.480 9.918006
55.485 9.927368
55.490 9.881968
55.495 9.741083
55.500 9.596002
55.505 10.012263
55.510 10.060102
55.515 9.916833
55.520 9.594536
55.525 9.390661
55.530 9.717861
55.535 10.181644
55.540 9.939434
55.545 10.027521
55.550 10.243462
55.555 10.887079
55.560 11.189641
55.565 11.010015
55.570 10.810311
55.575 10.403631
55.580 10.105044
55.585 9.73606
55.590 9.419766
55.595 9.369239
55.600 9.100224
55.605 9.233989
55.610 9.407997
55.615 9.458672
55.620 9.524197
55.625 9.855961
55.630 9.969601
55.635 10.120577
55.640 10.158031
55.645 10.182432
55.650 10.827166
55.655 10.689148
55.660 10.019997
55.665 9.881196
55.670 9.939604
55.675 9.844945
55.680 10.104041
55.685 10.021306
55.690 10.618508
55.695 11.23416
55.700 11.142674
55.705 11.446658
55.710 11.528518
55.715 11.534192
55.720 11.454361
55.725 11.16257
55.730 11.202504
55.735 11.123357
55.740 10.686456
55.745 10.484937
55.750 9.775591
55.755 9.596647
55.760 9.472927
55.765 9.470693
55.770 9.521883
55.775 9.778143
55.780 9.75193
55.785 10.173891
55.790 10.320801
55.795 10.282154
55.800 10.139936
55.805 10.516576
55.810 10.969239
55.815 11.351656
55.820 11.841208
55.825 12.22664
55.830 12.660387
55.835 12.985615
55.840 12.69145
55.845 12.465828
55.850 12.16602
55.855 12.238946
55.860 11.968868
55.865 11.595361
55.870 11.919813
55.875 12.215005
55.880 11.676463
55.885 11.471711
55.890 10.624773
55.895 10.565489
55.900 10.372008
55.905 9.880213
55.910 9.967897
55.915 10.344174
55.920 10.26478
55.925 10.37484
55.930 10.323673
55.935 10.484095
55.940 10.294255
55.945 10.508743
55.950 10.375927
55.955 10.585566
55.960 10.593144
55.965 10.214384
55.970 10.411982
55.975 10.416839
55.980 10.126824
55.985 9.886006
55.990 9.740486
55.995 10.017137
56.000 10.213345
56.005 9.442377
56.010 9.291233
56.015 9.636078
56.020 9.899944
56.025 9.878036
56.030 9.836194
56.035 10.221549
56.040 10.097016
56.045 9.397787
56.050 8.959261
56.055 9.370082
56.060 9.611392
56.065 9.338466
56.070 8.950631
56.075 9.557602
56.080 10.406823
56.085 10.510144
56.090 10.092113
56.095 9.916834
56.100 9.996405
56.105 10.590199
56.110 10.046847
56.115 9.790229
56.120 9.93084
56.125 9.947254
56.130 11.055938
56.135 11.575583
56.140 11.58791
56.145 11.932666
56.150 11.793211
56.155 11.727636
56.160 11.585772
56.165 10.646308
56.170 10.652445
56.175 10.611913
56.180 10.414742
56.185 10.40064
56.190 10.578792
56.195 10.447783
56.200 10.52451
56.205 10.601763
56.210 11.192874
56.215 11.817358
56.220 12.198546
56.225 12.419059
56.230 12.781907
56.235 12.359138
56.240 12.188248
56.245 12.389994
56.250 12.145128
56.255 12.399779
56.260 12.938504
56.265 13.046428
56.270 13.249825
56.275 13.026924
56.280 12.560821
56.285 12.83317
56.290 12.737833
56.295 12.556883
56.300 12.503027
56.305 12.533857
56.310 12.335578
56.315 12.412054
56.320 11.947741
56.325 11.090142
56.330 10.755692
56.335 10.819398
56.340 11.06214
56.345 11.443314
56.350 11.082909
56.355 11.396666
56.360 11.733053
56.365 11.529944
56.370 11.26219
56.375 11.352588
56.380 11.731589
56.385 11.899424
56.390 11.684437
56.395 11.611389
56.400 11.85968
56.405 11.895884
56.410 11.300721
56.415 10.906473
56.420 11.218368
56.425 11.902632
56.430 11.83146
56.435 11.506274
56.440 11.344528
56.445 11.592688
56.450 11.270483
56.455 11.06451
56.460 10.854348
56.465 10.927268
56.470 10.874362
56.475 10.94385
56.480 10.773192
56.485 10.970645
56.490 11.171224
56.495 11.143013
56.500 11.496793
56.505 11.724339
56.510 11.4482
56.515 11.586211
56.520 11.73354
56.525 11.560089
56.530 11.425799
56.535 11.912364
56.540 12.296521
56.545 12.822467
56.550 13.037632
56.555 12.810317
56.560 12.357562
56.565 12.048779
56.570 11.280765
56.575 10.860969
56.580 10.965734
56.585 11.06298
56.590 11.398701
56.595 11.881979
56.600 11.896839
56.605 12.34671
56.610 12.771175
56.615 12.945245
56.620 12.585857
56.625 11.817132
56.630 11.565337
56.635 12.031378
56.640 11.819599
56.645 11.924828
56.650 11.658
56.655 11.843288
56.660 12.198374
56.665 12.016093
56.670 11.834916
56.675 11.863891
56.680 11.475996
56.685 11.016275
56.690 11.38003
56.695 11.483463
56.700 11.503295
56.705 11.609088
56.710 11.787614
56.715 11.666023
56.720 11.886835
56.725 11.750272
56.730 12.06265
56.735 12.72801
56.740 12.871784
56.745 12.412251
56.750 12.482904
56.755 12.603588
56.760 12.632316
56.765 12.606176
56.770 11.821594
56.775 11.520806
56.780 11.695938
56.785 12.077997
56.790 11.75428
56.795 11.562748
56.800 11.33341
56.805 11.622854
56.810 11.813563
56.815 11.963016
56.820 11.848619
56.825 12.178073
56.830 12.412583
56.835 12.716854
56.840 12.584948
56.845 12.323697
56.850 12.384628
56.855 12.609261
56.860 13.179015
56.865 13.218041
56.870 13.158108
56.875 13.228543
56.880 13.124846
56.885 12.859141
56.890 12.764773
56.895 12.240375
56.900 12.085679
56.905 11.796903
56.910 11.969429
56.915 12.598735
56.920 12.470954
56.925 12.328159
56.930 12.491687
56.935 12.467084
56.940 13.21052
56.945 13.482052
56.950 13.560711
56.955 14.00422
56.960 13.977592
56.965 14.037156
56.970 13.995049
56.975 13.316809
56.980 13.365182
56.985 13.154739
56.990 12.819845
56.995 12.866743
57.000 13.106306
57.005 13.177464
57.010 13.257495
57.015 13.000719
57.020 12.972108
57.025 13.315842
57.030 13.272859
57.035 12.87156
57.040 12.885903
57.045 12.87228
57.050 12.642133
57.055 12.658294
57.060 12.264651
57.065 12.519196
57.070 12.397514
57.075 12.493758
57.080 12.272426
57.085 12.351995
57.090 11.852849
57.095 11.756159
57.100 11.488233
57.105 11.956966
57.110 12.170388
57.115 12.058661
57.120 12.077264
57.125 12.696258
57.130 13.009589
57.135 12.804911
57.140 12.739448
57.145 12.822073
57.150 13.101191
57.155 12.903356
57.160 12.98149
57.165 13.150805
57.170 13.51477
57.175 13.522656
57.180 13.087997
57.185 12.837145
57.190 12.877391
57.195 12.65063
57.200 12.513304
57.205 12.441433
57.210 12.395394
57.215 12.318206
57.220 12.620734
57.225 12.355201
57.230 12.029548
57.235 11.765749
57.240 11.827638
57.245 11.637212
57.250 11.648712
57.255 11.438435
57.260 12.042962
57.265 12.464795
57.270 12.606593
57.275 12.361596
57.280 12.096326
57.285 12.465973
57.290 12.235692
57.295 11.960225
57.300 11.826224
57.305 11.723175
57.310 12.102864
57.315 12.374229
57.320 12.048986
57.325 12.166897
57.330 12.149358
57.335 12.207065
57.340 12.101337
57.345 11.620752
57.350 11.278159
57.355 11.90207
57.360 12.144461
57.365 12.078218
57.370 12.033763
57.375 12.36548
57.380 12.410675
57.385 12.582994
57.390 12.40924
57.395 12.555049
57.400 12.843119
57.405 12.905759
57.410 12.838257
57.415 12.904959
57.420 13.114824
57.425 12.982106
57.430 12.82009
57.435 12.747151
57.440 12.516096
57.445 12.175467
57.450 12.382581
57.455 12.219214
57.460 11.884192
57.465 11.647257
57.470 11.974004
57.475 12.584891
57.480 12.771083
57.485 12.651937
57.490 12.834544
57.495 13.668259
57.500 13.794442
57.505 13.038839
57.510 12.866932
57.515 13.223331
57.520 13.619474
57.525 13.876945
57.530 13.495365
57.535 13.755055
57.540 14.43285
57.545 14.159779
57.550 14.506779
57.555 14.742493
57.560 14.484973
57.565 14.424664
57.570 14.239854
57.575 14.247553
57.580 14.56169
57.585 13.883506
57.590 13.254534
57.595 13.330239
57.600 13.482958
57.605 13.324401
57.610 12.472921
57.615 11.953456
57.620 12.158727
57.625 12.639
57.630 12.257643
57.635 11.862472
57.640 11.836905
57.645 12.501714
57.650 12.816666
57.655 13.123196
57.660 13.014352
57.665 12.698352
57.670 12.517272
57.675 12.484806
57.680 12.596162
57.685 12.177896
57.690 11.530535
57.695 11.269804
57.700 11.778284
57.705 12.015134
57.710 12.421949
57.715 12.476771
57.720 12.963119
57.725 12.867748
57.730 13.548939
57.735 13.538036
57.740 13.403928
57.745 13.336888
57.750 13.317217
57.755 12.948133
57.760 13.210918
57.765 12.950424
57.770 12.895288
57.775 13.501117
57.780 13.579134
57.785 13.515132
57.790 13.589985
57.795 13.867099
57.800 13.827758
57.805 13.653512
57.810 13.743349
57.815 13.737104
57.820 13.866961
57.825 13.917229
57.830 13.228133
57.835 13.089581
57.840 13.345733
57.845 12.982384
57.850 12.717681
57.855 12.757682
57.860 12.771378
57.865 13.102982
57.870 13.0136
57.875 12.723748
57.880 12.678782
57.885 12.415907
57.890 12.500761
57.895 13.066877
57.900 13.568484
57.905 13.662293
57.910 13.576423
57.915 13.385342
57.920 13.171423
57.925 12.987372
57.930 12.750055
57.935 12.398074
57.940 12.230652
57.945 11.620702
57.950 11.443798
57.955 11.673912
57.960 11.443814
57.965 10.936646
57.970 10.540478
57.975 10.518675
57.980 11.677886
57.985 12.524539
57.990 12.353377
57.995 12.322833
58.000 12.608094
58.005 13.218452
58.010 14.036817
58.015 13.672799
58.020 13.112713
58.025 13.902085
58.030 14.332371
58.035 14.4146
58.040 14.41486
58.045 14.142423
58.050 13.893603
58.055 13.656413
58.060 13.086711
58.065 12.705537
58.070 12.958466
58.075 13.291953
58.080 12.9163
58.085 12.731173
58.090 13.155072
58.095 13.64841
58.100 14.064934
58.105 14.19484
58.110 13.927078
58.115 14.502034
58.120 15.092267
58.125 14.53088
58.130 14.085423
58.135 13.731415
58.140 13.217157
58.145 12.822292
58.150 12.989583
58.155 13.297832
58.160 13.799556
58.165 13.830503
58.170 13.421386
58.175 13.197417
58.180 13.061093
58.185 12.904522
58.190 12.756486
58.195 12.341541
58.200 12.419951
58.205 13.033554
58.210 13.512371
58.215 13.264093
58.220 13.333082
58.225 13.191595
58.230 13.311919
58.235 12.754468
58.240 12.316695
58.245 11.969301
58.250 12.161237
58.255 11.988945
58.260 11.59119
58.265 12.224383
58.270 13.67432
58.275 14.155648
58.280 14.734496
58.285 14.523541
58.290 14.617211
58.295 14.779044
58.300 14.539768
58.305 13.81757
58.310 13.56846
58.315 13.281515
58.320 13.61639
58.325 13.907809
58.330 14.283438
58.335 14.186967
58.340 14.109705
58.345 14.065907
58.350 14.199247
58.355 14.277406
58.360 14.017276
58.365 14.135625
58.370 14.178722
58.375 14.371207
58.380 14.340172
58.385 14.327851
58.390 14.180828
58.395 14.101195
58.400 13.90464
58.405 14.348536
58.410 14.454379
58.415 14.474242
58.420 14.098721
58.425 13.509013
58.430 13.676283
58.435 13.987662
58.440 13.336771
58.445 13.127782
58.450 13.160824
58.455 13.422695
58.460 13.917222
58.465 14.024374
58.470 14.123001
58.475 14.568697
58.480 14.392426
58.485 14.156377
58.490 14.47732
58.495 14.293684
58.500 13.576643
58.505 13.345918
58.510 13.495884
58.515 13.497307
58.520 13.477595
58.525 12.729416
58.530 12.939907
58.535 13.068981
58.540 13.12184
58.545 13.299095
58.550 13.54247
58.555 14.057137
58.560 14.466961
58.565 14.29172
58.570 14.184628
58.575 13.574903
58.580 13.143426
58.585 13.122067
58.590 13.090381
58.595 13.166953
58.600 13.303917
58.605 13.296698
58.610 13.619495
58.615 13.959826
58.620 14.240911
58.625 14.240101
58.630 14.296609
58.635 14.425235
58.640 14.505742
58.645 14.326337
58.650 13.855641
58.655 13.53002
58.660 13.778077
58.665 14.311881
58.670 14.109653
58.675 14.215721
58.680 14.485068
58.685 14.946305
58.690 15.049471
58.695 14.70217
58.700 13.978189
58.705 13.975609
58.710 14.187971
58.715 13.757799
58.720 13.418829
58.725 13.289021
58.730 14.075228
58.735 14.658667
58.740 14.786158
58.745 14.80884
58.750 15.180624
58.755 15.091696
58.760 14.828233
58.765 14.574971
58.770 14.939742
58.775 15.0461
58.780 14.892286
58.785 14.84105
58.790 15.122627
58.795 15.866592
58.800 15.306094
58.805 14.974534
58.810 15.263816
58.815 15.833839
58.820 16.04508
58.825 16.273132
58.830 15.895862
58.835 16.033295
58.840 15.594489
58.845 15.118396
58.850 14.323156
58.855 13.951125
58.860 13.581656
58.865 13.132814
58.870 12.992837
58.875 13.101887
58.880 13.192336
58.885 13.331146
58.890 13.3515
58.895 12.992349
58.900 13.335006
58.905 13.428109
58.910 13.407591
58.915 12.9885
58.920 13.066898
58.925 13.292956
58.930 13.975499
58.935 14.010025
58.940 13.765088
58.945 14.022025
58.950 14.619562
58.955 14.687874
58.960 14.598052
58.965 13.856396
58.970 13.440262
58.975 13.60799
58.980 13.835242
58.985 13.10772
58.990 13.158959
58.995 13.375901
59.000 13.657664
59.005 14.273053
59.010 15.201528
59.015 15.682401
59.020 16.378008
59.025 16.76473
59.030 16.625917
59.035 16.632248
59.040 16.51922
59.045 15.422285
59.050 14.864092
59.055 14.484454
59.060 14.103262
59.065 14.6042
59.070 14.404049
59.075 14.245682
59.080 15.332343
59.085 16.172108
59.090 16.462351
59.095 16.499313
59.100 16.049477
59.105 16.482269
59.110 16.056908
59.115 14.711549
59.120 13.775342
59.125 13.764672
59.130 13.987433
59.135 14.287349
59.140 14.193281
59.145 14.445887
59.150 14.59012
59.155 14.587412
59.160 14.538347
59.165 14.21994
59.170 14.048379
59.175 14.248243
59.180 14.070663
59.185 14.30003
59.190 14.45641
59.195 14.23432
59.200 14.342313
59.205 14.407475
59.210 14.165136
59.215 14.623303
59.220 14.447811
59.225 14.325488
59.230 14.246939
59.235 14.546853
59.240 14.786713
59.245 15.360023
59.250 15.400721
59.255 15.576408
59.260 15.877448
59.265 16.502695
59.270 16.454115
59.275 15.826475
59.280 15.518091
59.285 14.710375
59.290 14.572102
59.295 14.972391
59.300 15.026193
59.305 14.878622
59.310 15.181248
59.315 14.829023
59.320 15.272633
59.325 15.535749
59.330 15.063214
59.335 15.005221
59.340 15.239951
59.345 15.024882
59.350 15.32553
59.355 15.648313
59.360 16.102468
59.365 16.361919
59.370 16.01018
59.375 15.596383
59.380 16.260435
59.385 15.949691
59.390 15.796885
59.395 15.368995
59.400 15.130838
59.405 15.747155
59.410 15.694274
59.415 15.174604
59.420 15.408036
59.425 15.168064
59.430 15.227139
59.435 15.060457
59.440 14.985304
59.445 14.800399
59.450 14.858881
59.455 15.007764
59.460 16.372583
59.465 16.69647
59.470 16.870092
59.475 16.583857
59.480 17.359806
59.485 17.662886
59.490 17.511007
59.495 17.159575
59.500 17.137865
59.505 16.723005
59.510 16.469481
59.515 16.220629
59.520 15.792129
59.525 15.27467
59.530 14.604475
59.535 14.200327
59.540 14.408426
59.545 14.634228
59.550 14.837431
59.555 15.311974
59.560 15.21683
59.565 14.609106
59.570 14.561825
59.575 15.073209
59.580 14.599144
59.585 13.915367
59.590 14.001608
59.595 14.180837
59.600 14.972254
59.605 15.047269
59.610 15.304956
59.615 16.18593
59.620 16.27228
59.625 16.590054
59.630 16.998089
59.635 17.142998
59.640 17.427383
59.645 17.437277
59.650 17.685921
59.655 18.084515
59.660 17.797726
59.665 17.998884
59.670 17.672325
59.675 17.082237
59.680 16.700581
59.685 16.514742
59.690 16.331173
59.695 16.326965
59.700 16.896578
59.705 17.521723
59.710 18.221943
59.715 18.234518
59.720 18.228039
59.725 18.490965
59.730 18.693573
59.735 18.470783
59.740 18.431746
59.745 18.229521
59.750 18.355642
59.755 18.691868
59.760 19.125849
59.765 18.977739
59.770 18.605434
59.775 18.185844
59.780 18.524513
59.785 18.177032
59.790 17.577688
59.795 17.080893
59.800 17.301271
59.805 17.541485
59.810 17.924013
59.815 18.301926
59.820 18.552372
59.825 18.156797
59.830 17.956244
59.835 17.609821
59.840 17.338326
59.845 17.397221
59.850 16.559258
59.855 16.516348
59.860 17.274824
59.865 17.338045
59.870 17.409456
59.875 17.230644
59.880 16.985538
59.885 16.826483
59.890 17.365862
59.895 17.049887
59.900 16.894527
59.905 16.890659
59.910 16.88217
59.915 16.992146
59.920 17.512232
59.925 17.541014
59.930 17.861713
59.935 18.053061
59.940 18.184626
59.945 18.99334
59.950 19.208185
59.955 18.804873
59.960 18.718222
59.965 19.037333
59.970 19.150362
59.975 19.295105
59.980 19.755251
59.985 19.806242
59.990 20.775293
59.995 20.768078
60.000 20.71233
60.005 20.786808
60.010 20.84234
60.015 20.322546
60.020 20.215206
60.025 19.725821
60.030 19.522423
60.035 19.103769
60.040 19.522896
60.045 20.092035
60.050 19.948914
60.055 19.055676
60.060 18.944635
60.065 18.942131
60.070 19.205818
60.075 18.596693
60.080 17.953733
60.085 18.269482
60.090 19.379866
60.095 19.528223
60.100 19.576214
60.105 19.415659
60.110 19.922894
60.115 20.40988
60.120 20.678743
60.125 20.258968
60.130 20.147081
60.135 20.552814
60.140 21.264235
60.145 20.993847
60.150 21.327822
60.155 21.238993
60.160 21.191904
60.165 21.13678
60.170 20.686428
60.175 20.230171
60.180 19.713631
60.185 19.026653
60.190 18.535778
60.195 18.953926
60.200 19.749323
60.205 20.409552
60.210 20.085062
60.215 19.621788
60.220 19.779917
60.225 20.963314
60.230 20.363243
60.235 19.891571
60.240 19.677422
60.245 20.766296
60.250 21.915213
60.255 21.010033
60.260 20.556728
60.265 20.706409
60.270 20.078588
60.275 20.180328
60.280 20.251966
60.285 20.090296
60.290 20.693823
60.295 20.247971
60.300 20.56333
60.305 21.241735
60.310 20.750486
60.315 20.458809
60.320 20.307404
60.325 20.165371
60.330 20.47687
60.335 20.002993
60.340 19.250999
60.345 19.403292
60.350 18.648109
60.355 18.796309
60.360 18.516035
60.365 18.397133
60.370 18.848217
60.375 19.316332
60.380 19.691547
60.385 20.210571
60.390 20.18321
60.395 20.187086
60.400 20.079659
60.405 19.775658
60.410 19.528502
60.415 18.535736
60.420 18.456608
60.425 18.328987
60.430 18.42585
60.435 18.595968
60.440 19.245228
60.445 19.342525
60.450 19.438904
60.455 19.630114
60.460 20.12484
60.465 20.306297
60.470 20.060343
60.475 19.804157
60.480 20.099022
60.485 20.149212
60.490 19.936438
60.495 19.737101
60.500 19.858566
60.505 20.27424
60.510 20.243778
60.515 20.163105
60.520 19.694672
60.525 19.468197
60.530 19.122831
60.535 18.532314
60.540 17.818129
60.545 17.02931
60.550 16.932753
60.555 17.438543
60.560 17.565887
60.565 17.540806
60.570 17.572603
60.575 17.700605
60.580 18.705267
60.585 18.846325
60.590 19.079779
60.595 19.314108
60.600 19.387156
60.605 19.61623
60.610 19.679361
60.615 19.295073
60.620 19.57198
60.625 19.397499
60.630 19.242855
60.635 19.209146
60.640 18.921549
60.645 18.53553
60.650 18.131021
60.655 18.213961
60.660 18.301886
60.665 18.057072
60.670 17.868418
60.675 17.940556
60.680 17.928577
60.685 17.899418
60.690 17.341284
60.695 16.981997
60.700 17.046627
60.705 17.532953
60.710 17.822792
60.715 17.884319
60.720 17.711443
60.725 17.425896
60.730 18.270834
60.735 18.779341
60.740 18.46867
60.745 18.384741
60.750 18.312439
60.755 18.629232
60.760 19.087626
60.765 18.593929
60.770 18.327572
60.775 18.265741
60.780 18.244465
60.785 18.501934
60.790 18.296179
60.795 17.886267
60.800 17.952728
60.805 17.908173
60.810 17.873348
60.815 17.739086
60.820 17.728989
60.825 17.811993
60.830 17.283878
60.835 17.036821
60.840 17.656635
60.845 18.260607
60.850 18.421814
60.855 18.362917
60.860 18.76705
60.865 19.404005
60.870 19.138653
60.875 18.285105
60.880 17.618807
60.885 17.518629
60.890 17.348385
60.895 16.836557
60.900 16.34194
60.905 16.587282
60.910 16.985216
60.915 16.854183
60.920 16.782963
60.925 16.233128
60.930 16.20932
60.935 16.337103
60.940 15.954926
60.945 16.064959
60.950 16.214628
60.955 15.88733
60.960 16.44449
60.965 16.581835
60.970 16.906025
60.975 16.591307
60.980 16.330425
60.985 17.134489
60.990 18.13479
60.995 18.187523
61.000 18.820681
61.005 18.966522
61.010 19.073349
61.015 18.923132
61.020 18.675369
61.025 18.300678
61.030 18.526886
61.035 17.764608
61.040 17.203793
61.045 17.29133
61.050 17.60397
61.055 17.359016
61.060 16.985706
61.065 16.125523
61.070 16.144115
61.075 16.449726
61.080 16.688089
61.085 16.356564
61.090 15.781776
61.095 15.770931
61.100 16.346819
61.105 16.516863
61.110 16.21632
61.115 15.803551
61.120 15.301202
61.125 15.810927
61.130 15.422739
61.135 14.77977
61.140 14.977596
61.145 15.238554
61.150 15.345267
61.155 15.513811
61.160 15.054475
61.165 14.985013
61.170 15.198432
61.175 15.047869
61.180 14.635169
61.185 14.82809
61.190 15.318199
61.195 15.803478
61.200 16.348509
61.205 16.518208
61.210 16.943571
61.215 17.556967
61.220 17.454124
61.225 17.441166
61.230 17.014071
61.235 16.980366
61.240 16.682699
61.245 16.565014
61.250 16.639343
61.255 16.883881
61.260 16.945354
61.265 17.478453
61.270 17.540644
61.275 17.60037
61.280 17.550114
61.285 17.338106
61.290 17.043404
61.295 16.486624
61.300 15.834564
61.305 15.427301
61.310 15.14234
61.315 14.621469
61.320 14.649404
61.325 14.678656
61.330 14.848092
61.335 15.026244
61.340 15.010996
61.345 14.705267
61.350 15.335173
61.355 15.370348
61.360 15.420709
61.365 15.6161
61.370 16.177917
61.375 16.76436
61.380 17.08176
61.385 16.388861
61.390 16.32448
61.395 16.232292
61.400 15.974516
61.405 15.104565
61.410 15.208619
61.415 15.359733
61.420 15.443871
61.425 15.154873
61.430 15.053725
61.435 15.197339
61.440 15.166096
61.445 15.076659
61.450 15.32393
61.455 15.492316
61.460 15.182498
61.465 14.963331
61.470 15.582067
61.475 15.93852
61.480 15.379884
61.485 14.719697
61.490 14.398053
61.495 15.216295
61.500 15.654271
61.505 15.390844
61.510 15.481667
61.515 15.949128
61.520 16.733921
61.525 16.349068
61.530 15.710026
61.535 15.490832
61.540 15.716757
61.545 15.992287
61.550 16.187756
61.555 16.213053
61.560 17.012037
61.565 17.670633
61.570 17.920561
61.575 18.066484
61.580 17.974878
61.585 17.58634
61.590 17.49688
61.595 17.166605
61.600 16.705971
61.605 16.346189
61.610 15.890645
61.615 15.873653
61.620 15.572149
61.625 15.37181
61.630 15.084305
61.635 15.494147
61.640 15.754884
61.645 15.659893
61.650 15.542592
61.655 15.787679
61.660 16.079832
61.665 16.217182
61.670 16.248503
61.675 16.535685
61.680 16.387453
61.685 16.259138
61.690 16.474405
61.695 16.69986
61.700 16.557384
61.705 16.143736
61.710 16.056147
61.715 16.445795
61.720 16.948603
61.725 16.631956
61.730 16.697836
61.735 17.088709
61.740 17.365919
61.745 17.151257
61.750 16.403807
61.755 16.065413
61.760 16.968916
61.765 16.768127
61.770 16.556658
61.775 16.030226
61.780 15.821362
61.785 16.115807
61.790 16.008141
61.795 15.396336
61.800 15.526697
61.805 15.561304
61.810 16.076942
61.815 16.276409
61.820 16.804541
61.825 16.93058
61.830 16.676367
61.835 16.459532
61.840 16.43786
61.845 16.27776
61.850 16.493505
61.855 16.655754
61.860 16.841009
61.865 17.574942
61.870 18.252953
61.875 18.234617
61.880 18.147581
61.885 18.484837
61.890 18.006247
61.895 17.815727
61.900 17.318369
61.905 16.933805
61.910 17.670206
61.915 17.480968
61.920 17.507174
61.925 17.85128
61.930 17.509079
61.935 17.742147
61.940 17.837227
61.945 17.601622
61.950 17.274067
61.955 17.104036
61.960 16.81752
61.965 16.384388
61.970 16.09565
61.975 16.381214
61.980 16.125727
61.985 16.14986
61.990 15.890931
61.995 16.153416
62.000 16.675138
62.005 16.420256
62.010 15.992473
62.015 16.369255
62.020 16.679552
62.025 16.517845
62.030 16.336489
62.035 16.148706
62.040 16.565601
62.045 16.499182
62.050 16.410318
62.055 16.404362
62.060 16.821585
62.065 16.529087
62.070 16.482712
62.075 15.924522
62.080 15.768705
62.085 15.850596
62.090 15.734782
62.095 15.028852
62.100 14.804772
62.105 14.608108
62.110 14.892259
62.115 14.915872
62.120 14.789853
62.125 15.155581
62.130 15.710102
62.135 16.23101
62.140 16.24918
62.145 15.950244
62.150 15.532792
62.155 15.506743
62.160 15.030001
62.165 15.163387
62.170 15.64238
62.175 16.146614
62.180 16.625412
62.185 16.881361
62.190 16.889837
62.195 16.858727
62.200 16.399845
62.205 15.849489
62.210 15.671249
62.215 15.303345
62.220 15.4993
62.225 15.469571
62.230 15.737619
62.235 15.894406
62.240 15.955363
62.245 16.432924
62.250 16.546459
62.255 16.289919
62.260 16.252937
62.265 16.1038
62.270 16.008564
62.275 16.126204
62.280 16.123381
62.285 16.361942
62.290 16.670574
62.295 16.768425
62.300 16.589542
62.305 16.742477
62.310 16.798521
62.315 16.196171
62.320 16.161839
62.325 16.370892
62.330 16.588202
62.335 16.851036
62.340 16.137959
62.345 15.822513
62.350 15.771066
62.355 15.450398
62.360 14.798757
62.365 14.627437
62.370 14.827703
62.375 15.190528
62.380 15.07279
62.385 15.156237
62.390 15.326094
62.395 15.71535
62.400 15.991413
62.405 16.189329
62.410 16.649097
62.415 16.767122
62.420 16.625494
62.425 16.29521
62.430 16.066214
62.435 16.020098
62.440 15.59259
62.445 15.384744
62.450 16.40782
62.455 16.922579
62.460 17.297503
62.465 17.66713
62.470 18.418839
62.475 19.091393
62.480 19.711576
62.485 19.071844
62.490 18.762491
62.495 18.690136
62.500 19.007313
62.505 18.382851
62.510 17.715145
62.515 16.898712
62.520 16.616745
62.525 16.953184
62.530 16.86507
62.535 16.114693
62.540 15.836108
62.545 16.036835
62.550 16.250792
62.555 16.25523
62.560 16.134733
62.565 16.175699
62.570 16.276865
62.575 16.338156
62.580 15.959424
62.585 15.681046
62.590 15.865893
62.595 15.117977
62.600 15.029498
62.605 15.106334
62.610 14.878488
62.615 15.245981
62.620 14.808891
62.625 14.587657
62.630 15.532076
62.635 15.554158
62.640 15.398457
62.645 15.495878
62.650 15.221418
62.655 16.089457
62.660 16.696018
62.665 16.449598
62.670 17.000357
62.675 17.111332
62.680 17.34108
62.685 17.762238
62.690 17.51939
62.695 16.654137
62.700 16.160408
62.705 15.868722
62.710 15.505599
62.715 15.332458
62.720 15.011939
62.725 15.41641
62.730 15.975265
62.735 16.020624
62.740 15.938236
62.745 16.305002
62.750 16.258074
62.755 16.549862
62.760 16.325756
62.765 16.663637
62.770 16.99914
62.775 17.046589
62.780 17.471792
62.785 17.533905
62.790 17.080229
62.795 16.934967
62.800 17.170021
62.805 17.119267
62.810 16.825891
62.815 16.422979
62.820 16.942389
62.825 17.296621
62.830 17.043827
62.835 17.098457
62.840 17.087688
62.845 17.666553
62.850 18.556601
62.855 17.88736
62.860 17.522041
62.865 17.763973
62.870 17.14599
62.875 17.125328
62.880 17.025776
62.885 16.270622
62.890 16.277357
62.895 16.335367
62.900 16.668268
62.905 16.710888
62.910 16.273558
62.915 15.768525
62.920 15.344417
62.925 15.478806
62.930 15.60813
62.935 15.565996
62.940 15.966543
62.945 15.939502
62.950 15.782466
62.955 16.312738
62.960 16.179916
62.965 16.236923
62.970 16.296793
62.975 16.925844
62.980 17.443182
62.985 17.248793
62.990 16.857319
62.995 17.183926
63.000 17.501816
63.005 16.997946
63.010 16.774105
63.015 16.995222
63.020 17.225498
63.025 17.231337
63.030 16.826071
63.035 16.09034
63.040 16.095791
63.045 15.531672
63.050 15.287653
63.055 15.10667
63.060 15.498565
63.065 16.010897
63.070 15.954738
63.075 15.452668
63.080 15.755931
63.085 15.426661
63.090 15.260457
63.095 14.866501
63.100 14.738824
63.105 15.969408
63.110 16.802683
63.115 16.588432
63.120 17.114077
63.125 17.819944
63.130 18.053164
63.135 18.161621
63.140 17.392368
63.145 16.943733
63.150 16.545338
63.155 16.833429
63.160 17.442333
63.165 17.496891
63.170 17.574877
63.175 17.485123
63.180 17.395466
63.185 17.703783
63.190 17.300228
63.195 16.84269
63.200 17.051924
63.205 16.722965
63.210 16.794985
63.215 16.607706
63.220 16.370054
63.225 16.469213
63.230 16.031401
63.235 15.851153
63.240 15.595264
63.245 16.323912
63.250 16.695805
63.255 16.603584
63.260 16.403656
63.265 16.373585
63.270 16.585321
63.275 17.291685
63.280 17.326975
63.285 17.570744
63.290 17.811422
63.295 17.934662
63.300 18.343178
63.305 18.268534
63.310 18.203987
63.315 17.474312
63.320 17.691292
63.325 17.505611
63.330 17.229382
63.335 17.083559
63.340 16.902044
63.345 16.31012
63.350 16.809938
63.355 16.812361
63.360 16.682154
63.365 16.611664
63.370 16.315706
63.375 16.060825
63.380 16.508247
63.385 15.952405
63.390 15.713896
63.395 16.338827
63.400 16.495729
63.405 16.522539
63.410 16.530972
63.415 16.164785
63.420 16.357378
63.425 16.371365
63.430 15.845063
63.435 16.232704
63.440 16.404554
63.445 16.942951
63.450 17.170694
63.455 17.190577
63.460 17.384403
63.465 17.736097
63.470 17.966188
63.475 18.199663
63.480 18.155344
63.485 18.434906
63.490 18.510092
63.495 18.308285
63.500 18.192692
63.505 17.516279
63.510 17.160332
63.515 16.09787
63.520 15.453473
63.525 14.837487
63.530 14.722324
63.535 14.874344
63.540 15.134531
63.545 15.062367
63.550 15.66551
63.555 16.073946
63.560 17.033554
63.565 16.999296
63.570 16.559526
63.575 16.518534
63.580 16.728748
63.585 17.406506
63.590 17.790945
63.595 17.924456
63.600 18.515396
63.605 18.692133
63.610 18.597523
63.615 18.973856
63.620 18.611282
63.625 18.019215
63.630 17.729822
63.635 18.235773
63.640 18.464897
63.645 18.852303
63.650 18.187775
63.655 18.115713
63.660 18.642101
63.665 18.724461
63.670 17.950785
63.675 18.169714
63.680 18.199448
63.685 18.76128
63.690 18.549942
63.695 18.118523
63.700 17.346815
63.705 17.553663
63.710 17.185677
63.715 17.013922
63.720 17.120512
63.725 17.217405
63.730 17.294422
63.735 17.489183
63.740 17.714222
63.745 17.76936
63.750 17.224716
63.755 16.902853
63.760 16.794571
63.765 16.778673
63.770 17.189861
63.775 16.358471
63.780 16.278683
63.785 16.869162
63.790 17.103823
63.795 17.218277
63.800 17.469494
63.805 17.112911
63.810 16.963472
63.815 16.539146
63.820 16.607456
63.825 16.071493
63.830 15.436053
63.835 15.213686
63.840 15.378304
63.845 15.905064
63.850 16.473295
63.855 16.2174
63.860 16.776823
63.865 17.348675
63.870 17.378555
63.875 17.153517
63.880 16.971674
63.885 17.213554
63.890 17.392859
63.895 17.080603
63.900 16.821972
63.905 16.791698
63.910 16.704023
63.915 16.415291
63.920 16.649153
63.925 16.718706
63.930 16.808762
63.935 16.868305
63.940 17.087645
63.945 17.166815
63.950 17.670748
63.955 17.183567
63.960 17.195637
63.965 17.528223
63.970 17.842958
63.975 17.491692
63.980 17.633844
63.985 17.648727
63.990 17.961306
63.995 18.101776
64.000 17.576876
64.005 17.150892
64.010 17.594624
64.015 18.366606
64.020 18.551472
64.025 18.45998
64.030 18.506016
64.035 19.131218
64.040 19.210983
64.045 19.284101
64.050 18.885344
64.055 18.63574
64.060 18.559519
64.065 18.365677
64.070 18.141005
64.075 18.136143
64.080 17.753242
64.085 17.616602
64.090 17.485521
64.095 17.237057
64.100 17.48057
64.105 17.747456
64.110 17.792986
64.115 17.975185
64.120 18.529222
64.125 18.393368
64.130 18.259615
64.135 18.38249
64.140 18.233221
64.145 18.151999
64.150 17.834055
64.155 17.460543
64.160 16.983236
64.165 16.666943
64.170 16.557354
64.175 16.03931
64.180 16.444389
64.185 16.560541
64.190 16.132366
64.195 16.162561
64.200 16.549368
64.205 16.159033
64.210 16.474922
64.215 16.3988
64.220 16.261278
64.225 16.82263
64.230 17.287767
64.235 17.347036
64.240 17.728495
64.245 18.110157
64.250 17.682343
64.255 18.176357
64.260 18.11046
64.265 17.885286
64.270 17.574678
64.275 17.281115
64.280 17.376945
64.285 17.277079
64.290 16.852524
64.295 16.67226
64.300 16.620573
64.305 16.754749
64.310 16.943077
64.315 16.625595
64.320 16.625444
64.325 16.419743
64.330 16.360853
64.335 16.258039
64.340 16.416903
64.345 16.947102
64.350 17.338953
64.355 17.526842
64.360 17.236624
64.365 17.223557
64.370 16.962906
64.375 16.518383
64.380 16.443974
64.385 16.149527
64.390 16.32268
64.395 16.617449
64.400 17.200701
64.405 17.970997
64.410 18.021658
64.415 17.805079
64.420 18.370491
64.425 18.501556
64.430 18.128763
64.435 17.854872
64.440 17.888458
64.445 18.732445
64.450 19.043848
64.455 18.482422
64.460 18.267584
64.465 18.585396
64.470 19.02837
64.475 18.737274
64.480 18.627512
64.485 18.769606
64.490 18.668905
64.495 18.730505
64.500 19.051962
64.505 18.855556
64.510 18.906219
64.515 18.544798
64.520 18.422827
64.525 18.626957
64.530 18.592325
64.535 18.407568
64.540 18.026518
64.545 17.796301
64.550 18.235086
64.555 18.427263
64.560 18.531324
64.565 18.548655
64.570 18.881203
64.575 19.045511
64.580 19.118593
64.585 18.195133
64.590 17.731871
64.595 17.980053
64.600 17.969002
64.605 17.905949
64.610 18.67831
64.615 18.683924
64.620 18.996998
64.625 18.920399
64.630 18.921341
64.635 18.852518
64.640 18.745621
64.645 18.247414
64.650 17.700695
64.655 17.270943
64.660 17.041748
64.665 16.673721
64.670 16.488695
64.675 16.547815
64.680 16.32198
64.685 16.564234
64.690 17.032774
64.695 17.530228
64.700 17.910757
64.705 18.411982
64.710 18.372175
64.715 18.435656
64.720 18.763844
64.725 18.755451
64.730 18.787016
64.735 18.415812
64.740 18.725115
64.745 18.485552
64.750 18.530943
64.755 18.419035
64.760 18.442598
64.765 18.529097
64.770 18.805655
64.775 18.367226
64.780 18.29682
64.785 18.487181
64.790 18.934294
64.795 18.795826
64.800 18.919973
64.805 19.11096
64.810 19.440325
64.815 19.73378
64.820 19.281544
64.825 19.105019
64.830 19.288246
64.835 19.132271
64.840 19.113018
64.845 19.372959
64.850 19.339123
64.855 20.177132
64.860 20.868105
64.865 21.142311
64.870 21.154451
64.875 20.588074
64.880 20.119295
64.885 19.935637
64.890 19.405163
64.895 18.563902
64.900 18.223209
64.905 17.93074
64.910 17.897358
64.915 17.822598
64.920 18.536831
64.925 18.961687
64.930 19.004311
64.935 18.599392
64.940 18.539219
64.945 19.036867
64.950 19.151155
64.955 18.345062
64.960 17.790606
64.965 18.020378
64.970 18.221388
64.975 18.351137
64.980 18.122751
64.985 18.29574
64.990 18.848055
64.995 19.132151
65.000 18.96126
65.005 18.743685
65.010 18.987526
65.015 19.283623
65.020 19.545153
65.025 19.726284
65.030 19.644375
65.035 20.06748
65.040 21.135719
65.045 21.548531
65.050 21.920761
65.055 21.97711
65.060 22.186432
65.065 22.538774
65.070 22.306168
65.075 21.494785
65.080 20.848064
65.085 20.332222
65.090 20.235218
65.095 20.218172
65.100 20.21335
65.105 20.564146
65.110 20.765757
65.115 20.753914
65.120 20.767408
65.125 20.939428
65.130 20.792923
65.135 20.768286
65.140 21.040878
65.145 21.230251
65.150 21.417253
65.155 21.364611
65.160 21.508026
65.165 21.905991
65.170 22.229248
65.175 21.943151
65.180 21.654671
65.185 21.571266
65.190 21.805756
65.195 21.672838
65.200 21.107824
65.205 19.982895
65.210 19.80534
65.215 19.684072
65.220 19.919481
65.225 20.01413
65.230 20.606663
65.235 20.560726
65.240 20.76623
65.245 21.377512
65.250 21.987463
65.255 21.721952
65.260 20.98111
65.265 19.975517
65.270 20.447687
65.275 20.816114
65.280 20.010582
65.285 19.397331
65.290 19.556084
65.295 19.883587
65.300 20.251062
65.305 20.401165
65.310 20.872906
65.315 21.510021
65.320 22.086046
65.325 22.115164
65.330 21.716171
65.335 20.999048
65.340 20.175814
65.345 20.411169
65.350 20.806309
65.355 20.29092
65.360 20.503712
65.365 20.716829
65.370 21.149738
65.375 21.720835
65.380 21.253773
65.385 21.309866
65.390 21.518211
65.395 21.72694
65.400 22.186972
65.405 22.717077
65.410 22.530296
65.415 22.492872
65.420 22.7328
65.425 23.211666
65.430 22.576927
65.435 22.462414
65.440 22.308504
65.445 22.158241
65.450 22.27441
65.455 22.053841
65.460 21.793291
65.465 22.160349
65.470 22.895857
65.475 23.322332
65.480 23.035412
65.485 22.724417
65.490 23.175688
65.495 23.838718
65.500 23.866762
65.505 24.039948
65.510 24.23502
65.515 24.850964
65.520 25.21879
65.525 25.144423
65.530 24.984535
65.535 25.185804
65.540 25.534819
65.545 26.161922
65.550 26.922962
65.555 27.338186
65.560 26.75827
65.565 26.727743
65.570 27.979923
65.575 28.238758
65.580 28.617756
65.585 28.009813
65.590 27.661066
65.595 28.506371
65.600 29.151882
65.605 28.382317
65.610 28.021444
65.615 28.314678
65.620 29.077311
65.625 29.940142
65.630 30.329727
65.635 29.834291
65.640 30.229301
65.645 29.307049
65.650 28.838327
65.655 28.393681
65.660 28.502598
65.665 28.613655
65.670 28.358412
65.675 28.310467
65.680 29.936758
65.685 30.324577
65.690 30.248755
65.695 29.784336
65.700 29.702427
65.705 30.142462
65.710 30.007223
65.715 29.666796
65.720 29.868576
65.725 30.006054
65.730 29.852867
65.735 30.192223
65.740 30.985559
65.745 31.246058
65.750 31.916588
65.755 32.262695
65.760 32.56617
65.765 32.911423
65.770 33.02729
65.775 32.908733
65.780 33.15321
65.785 33.199745
65.790 33.855274
65.795 33.640537
65.800 33.022942
65.805 33.175461
65.810 33.566864
65.815 33.658134
65.820 33.057819
65.825 32.685455
65.830 33.804806
65.835 35.006969
65.840 34.96925
65.845 34.893745
65.850 35.138256
65.855 36.18327
65.860 36.665058
65.865 36.94405
65.870 36.575058
65.875 36.249306
65.880 35.462051
65.885 34.962879
65.890 34.825443
65.895 34.737362
65.900 34.929264
65.905 35.964344
65.910 36.382195
65.915 37.031841
65.920 37.366058
65.925 36.828175
65.930 37.077255
65.935 37.169113
65.940 36.354298
65.945 36.713333
65.950 35.98756
65.955 36.172466
65.960 36.938644
65.965 37.123367
65.970 36.43169
65.975 36.817715
65.980 36.277946
65.985 36.636131
65.990 36.323872
65.995 35.991673
66.000 36.07233
66.005 37.088493
66.010 37.234642
66.015 37.772736
66.020 38.478893
66.025 38.846527
66.030 38.418018
66.035 37.888268
66.040 37.128162
66.045 36.474606
66.050 36.407394
66.055 35.853279
66.060 35.709251
66.065 36.011581
66.070 36.391384
66.075 36.654949
66.080 37.297115
66.085 36.918026
66.090 37.312843
66.095 37.158321
66.100 37.701603
66.105 37.358437
66.110 36.694004
66.115 36.196938
66.120 36.631966
66.125 36.460861
66.130 36.626823
66.135 36.131763
66.140 35.673271
66.145 36.042824
66.150 35.586746
66.155 35.323841
66.160 35.40295
66.165 34.715378
66.170 34.323376
66.175 34.437431
66.180 34.569324
66.185 34.758411
66.190 33.863758
66.195 33.386505
66.200 33.837486
66.205 33.256222
66.210 33.888145
66.215 33.635983
66.220 33.427586
66.225 33.916515
66.230 34.0588
66.235 34.476418
66.240 34.739681
66.245 34.540108
66.250 34.04657
66.255 34.180748
66.260 33.700893
66.265 33.27388
66.270 32.56282
66.275 31.909277
66.280 31.594109
66.285 31.650803
66.290 31.282745
66.295 31.540873
66.300 31.061743
66.305 31.132843
66.310 30.80901
66.315 30.455681
66.320 30.540995
66.325 30.977654
66.330 31.126192
66.335 31.340691
66.340 30.89764
66.345 30.965788
66.350 30.599754
66.355 30.458708
66.360 30.40764
66.365 30.569281
66.370 30.649208
66.375 30.378986
66.380 30.132734
66.385 30.125149
66.390 29.893539
66.395 29.334255
66.400 29.135536
66.405 29.130716
66.410 29.250343
66.415 30.171947
66.420 30.757751
66.425 31.224068
66.430 31.280603
66.435 30.523523
66.440 30.318342
66.445 30.048159
66.450 29.628977
66.455 29.287573
66.460 28.980253
66.465 28.611206
66.470 28.492371
66.475 28.037622
66.480 27.777992
66.485 27.293783
66.490 27.616793
66.495 27.16193
66.500 27.318535
66.505 27.687143
66.510 27.916979
66.515 28.495251
66.520 27.991297
66.525 27.177185
66.530 27.227976
66.535 27.532211
66.540 27.705187
66.545 26.981571
66.550 26.200943
66.555 25.660154
66.560 26.039843
66.565 25.723782
66.570 25.183052
66.575 24.58959
66.580 25.117613
66.585 25.633043
66.590 25.941439
66.595 25.986967
66.600 25.694237
66.605 25.810072
66.610 25.894207
66.615 25.796419
66.620 25.525314
66.625 25.447395
66.630 25.43133
66.635 25.506411
66.640 25.306919
66.645 25.541445
66.650 25.502689
66.655 25.097277
66.660 24.99507
66.665 25.247314
66.670 25.723389
66.675 25.40843
66.680 25.327152
66.685 25.751938
66.690 25.817671
66.695 26.086302
66.700 25.985903
66.705 25.540573
66.710 25.811905
66.715 24.874739
66.720 23.904884
66.725 23.478909
66.730 22.346924
66.735 21.522215
66.740 21.058374
66.745 21.131969
66.750 22.093918
66.755 23.167154
66.760 24.066202
66.765 24.73111
66.770 25.637177
66.775 25.598398
66.780 25.332333
66.785 24.743166
66.790 24.321297
66.795 23.360138
66.800 22.105673
66.805 21.981884
66.810 22.497723
66.815 22.802101
66.820 22.420536
66.825 22.305584
66.830 23.037724
66.835 23.824369
66.840 24.094267
66.845 24.039112
66.850 24.128214
66.855 24.06082
66.860 23.516279
66.865 23.151041
66.870 22.661551
66.875 22.293688
66.880 22.0504
66.885 21.86727
66.890 22.237116
66.895 22.411713
66.900 22.883886
66.905 23.533161
66.910 23.484791
66.915 23.211401
66.920 23.340944
66.925 23.397955
66.930 23.242756
66.935 22.655556
66.940 21.980587
66.945 21.811132
66.950 21.407061
66.955 20.555313
66.960 20.319134
66.965 20.218182
66.970 20.313265
66.975 20.24445
66.980 20.41309
66.985 21.073805
66.990 21.761625
66.995 22.077211
67.000 22.868168
67.005 23.641853
67.010 24.275196
67.015 24.168646
67.020 24.084618
67.025 24.158201
67.030 24.437126
67.035 24.351482
67.040 24.309759
67.045 23.706181
67.050 24.222801
67.055 24.305593
67.060 23.857853
67.065 23.502403
67.070 22.886652
67.075 22.747992
67.080 23.274506
67.085 23.066401
67.090 22.786957
67.095 22.93273
67.100 22.752001
67.105 22.41906
67.110 22.7554
67.115 22.799191
67.120 22.360201
67.125 22.44504
67.130 22.245192
67.135 22.432039
67.140 22.47118
67.145 21.727663
67.150 21.480156
67.155 21.611807
67.160 21.556355
67.165 21.895456
67.170 22.146513
67.175 21.908138
67.180 21.515831
67.185 21.334633
67.190 20.878275
67.195 20.620548
67.200 20.122765
67.205 19.552645
67.210 20.168768
67.215 20.554743
67.220 20.625425
67.225 20.785339
67.230 21.005205
67.235 21.296305
67.240 21.882208
67.245 21.771992
67.250 21.542507
67.255 21.726906
67.260 22.082823
67.265 21.815781
67.270 21.992466
67.275 21.708389
67.280 21.630352
67.285 22.170788
67.290 22.194811
67.295 22.104828
67.300 22.130058
67.305 21.814623
67.310 21.767826
67.315 21.3969
67.320 20.878969
67.325 20.552626
67.330 20.483562
67.335 20.467134
67.340 20.370697
67.345 20.270905
67.350 20.172995
67.355 20.421108
67.360 20.235235
67.365 20.054861
67.370 19.962662
67.375 19.81266
67.380 20.169735
67.385 20.227318
67.390 20.273258
67.395 20.668402
67.400 20.920439
67.405 21.194967
67.410 21.646648
67.415 21.345789
67.420 21.380169
67.425 21.421692
67.430 20.846977
67.435 20.308109
67.440 19.921179
67.445 19.358759
67.450 19.697294
67.455 19.519567
67.460 19.389952
67.465 19.953957
67.470 20.601486
67.475 20.38834
67.480 21.046541
67.485 20.861979
67.490 21.357269
67.495 21.626732
67.500 21.97291
67.505 21.684763
67.510 21.740198
67.515 21.762812
67.520 21.546141
67.525 21.35569
67.530 21.227009
67.535 20.632504
67.540 20.805767
67.545 20.89817
67.550 20.53474
67.555 21.11964
67.560 20.91691
67.565 20.306807
67.570 20.534334
67.575 20.330961
67.580 20.507257
67.585 20.652048
67.590 20.14749
67.595 20.23609
67.600 20.99292
67.605 20.453465
67.610 20.569386
67.615 20.642941
67.620 20.83643
67.625 20.908245
67.630 21.464113
67.635 21.060112
67.640 21.476042
67.645 21.135111
67.650 20.668362
67.655 20.416313
67.660 20.461168
67.665 20.089725
67.670 20.368839
67.675 20.269569
67.680 20.312887
67.685 20.132038
67.690 19.775305
67.695 19.90033
67.700 20.269384
67.705 20.624567
67.710 21.372112
67.715 21.285019
67.720 21.525661
67.725 21.457291
67.730 21.151583
67.735 20.701473
67.740 20.870316
67.745 20.95047
67.750 21.373718
67.755 21.062807
67.760 21.013916
67.765 20.858879
67.770 20.217196
67.775 19.590845
67.780 18.839811
67.785 17.930414
67.790 18.035488
67.795 17.466797
67.800 17.868925
67.805 18.444351
67.810 18.312201
67.815 18.703768
67.820 19.730829
67.825 20.13135
67.830 20.672234
67.835 20.462269
67.840 19.79884
67.845 19.645313
67.850 19.238926
67.855 19.333828
67.860 19.507074
67.865 19.590019
67.870 20.03586
67.875 20.428261
67.880 20.256386
67.885 20.497646
67.890 19.758251
67.895 19.788858
67.900 19.790854
67.905 19.758108
67.910 19.470444
67.915 19.636734
67.920 19.871317
67.925 20.088964
67.930 20.253496
67.935 20.274002
67.940 19.884876
67.945 19.968868
67.950 20.447309
67.955 20.645416
67.960 21.060827
67.965 20.742422
67.970 20.618103
67.975 20.919985
67.980 20.699013
67.985 20.541788
67.990 20.254381
67.995 19.656965
68.000 19.966677
68.005 20.062571
68.010 20.525198
68.015 20.320715
68.020 20.003716
68.025 19.867189
68.030 19.427767
68.035 19.207645
68.040 19.333607
68.045 19.24328
68.050 19.862219
68.055 20.381306
68.060 20.672743
68.065 21.441259
68.070 21.336292
68.075 21.232327
68.080 21.677309
68.085 21.89735
68.090 21.21629
68.095 21.321405
68.100 21.366873
68.105 22.26985
68.110 22.177279
68.115 21.785374
68.120 21.315004
68.125 21.274338
68.130 21.10816
68.135 20.747593
68.140 20.414938
68.145 20.489872
68.150 20.308441
68.155 20.783579
68.160 20.921419
68.165 20.920403
68.170 20.768347
68.175 20.244978
68.180 19.881115
68.185 20.262478
68.190 20.600595
68.195 21.243692
68.200 21.131697
68.205 21.221825
68.210 21.590483
68.215 21.98827
68.220 21.484779
68.225 21.1544
68.230 20.949192
68.235 21.00563
68.240 21.079952
68.245 20.468601
68.250 19.734766
68.255 19.788498
68.260 19.826807
68.265 19.989021
68.270 20.332878
68.275 20.549234
68.280 20.768847
68.285 21.201773
68.290 20.852316
68.295 20.455303
68.300 20.023876
68.305 19.443907
68.310 19.012491
68.315 19.258295
68.320 19.811493
68.325 19.807079
68.330 20.125198
68.335 20.029167
68.340 20.089991
68.345 20.342794
68.350 20.065983
68.355 19.402241
68.360 19.736368
68.365 19.467022
68.370 19.752819
68.375 19.936226
68.380 20.127932
68.385 20.513659
68.390 20.683424
68.395 20.510839
68.400 20.23354
68.405 19.976629
68.410 20.304218
68.415 19.990679
68.420 19.693872
68.425 19.605116
68.430 19.610188
68.435 19.967445
68.440 20.330521
68.445 20.408575
68.450 20.991049
68.455 20.822659
68.460 20.744099
68.465 21.36132
68.470 21.679455
68.475 21.358818
68.480 20.768774
68.485 20.630526
68.490 20.947008
68.495 21.046383
68.500 20.295603
68.505 20.493553
68.510 20.328756
68.515 19.841156
68.520 20.108984
68.525 20.290842
68.530 20.595787
68.535 21.237501
68.540 21.146368
68.545 21.33614
68.550 21.596977
68.555 22.254265
68.560 22.414244
68.565 22.263786
68.570 21.731031
68.575 21.831446
68.580 22.255732
68.585 22.678829
68.590 22.395697
68.595 22.539606
68.600 23.0711
68.605 23.87475
68.610 23.72089
68.615 23.002439
68.620 22.423176
68.625 21.680861
68.630 21.372194
68.635 21.126987
68.640 20.612711
68.645 20.774538
68.650 20.754444
68.655 20.933275
68.660 21.675833
68.665 22.02034
68.670 21.821911
68.675 22.103476
68.680 22.28326
68.685 22.282583
68.690 22.113865
68.695 21.355898
68.700 20.760689
68.705 20.372232
68.710 20.176567
68.715 19.871176
68.720 20.099949
68.725 20.216055
68.730 20.255884
68.735 20.325111
68.740 20.252474
68.745 19.927053
68.750 20.38649
68.755 20.498407
68.760 20.447813
68.765 21.027691
68.770 21.001549
68.775 21.265574
68.780 21.219238
68.785 21.455208
68.790 21.622671
68.795 21.216619
68.800 21.041422
68.805 21.18539
68.810 21.397306
68.815 22.335142
68.820 22.323053
68.825 22.648106
68.830 22.440584
68.835 22.182381
68.840 22.314386
68.845 22.235634
68.850 22.004461
68.855 21.926294
68.860 22.161945
68.865 23.079952
68.870 23.809576
68.875 24.055355
68.880 24.002684
68.885 23.660187
68.890 23.18511
68.895 22.553228
68.900 21.491587
68.905 21.593956
68.910 21.957943
68.915 22.175936
68.920 22.257893
68.925 22.365561
68.930 22.732561
68.935 23.38517
68.940 22.700081
68.945 22.011305
68.950 21.491718
68.955 21.511913
68.960 22.214478
68.965 22.519857
68.970 22.248404
68.975 22.199316
68.980 22.169697
68.985 22.471399
68.990 22.654259
68.995 22.423845
69.000 22.810444
69.005 23.875509
69.010 24.740768
69.015 24.928741
69.020 24.799288
69.025 24.541862
69.030 24.257029
69.035 23.759281
69.040 22.835419
69.045 21.582003
69.050 21.485817
69.055 21.558239
69.060 21.408165
69.065 20.982349
69.070 20.68623
69.075 20.73979
69.080 21.566614
69.085 22.119316
69.090 22.958685
69.095 23.356684
69.100 23.947575
69.105 23.776791
69.110 23.909258
69.115 23.812708
69.120 23.605522
69.125 23.646772
69.130 24.224024
69.135 24.291618
69.140 24.457516
69.145 24.331276
69.150 23.993631
69.155 24.22694
69.160 23.96242
69.165 23.730236
69.170 24.268419
69.175 25.278242
69.180 25.852982
69.185 26.63258
69.190 26.607061
69.195 26.554585
69.200 26.735489
69.205 26.037827
69.210 25.458681
69.215 25.547735
69.220 25.185818
69.225 25.537432
69.230 25.842001
69.235 25.454441
69.240 25.685257
69.245 26.355484
69.250 25.860806
69.255 25.817123
69.260 25.387959
69.265 25.441561
69.270 25.81996
69.275 25.320879
69.280 25.526474
69.285 25.833221
69.290 26.18152
69.295 25.978724
69.300 26.012114
69.305 26.54188
69.310 27.163467
69.315 27.613497
69.320 27.585293
69.325 26.911928
69.330 26.51532
69.335 26.412054
69.340 25.855364
69.345 26.202658
69.350 26.702297
69.355 26.665863
69.360 27.235952
69.365 27.961161
69.370 27.769176
69.375 27.794641
69.380 27.079327
69.385 26.260796
69.390 26.397495
69.395 25.773676
69.400 25.662933
69.405 26.112402
69.410 26.33165
69.415 26.253641
69.420 25.853708
69.425 26.447462
69.430 27.560917
69.435 28.433092
69.440 29.350004
69.445 29.957857
69.450 30.395962
69.455 30.996702
69.460 30.522032
69.465 29.884829
69.470 29.458128
69.475 29.151489
69.480 28.564486
69.485 28.208447
69.490 28.429453
69.495 28.653212
69.500 28.393864
69.505 27.896824
69.510 27.50815
69.515 27.525709
69.520 27.476044
69.525 26.672447
69.530 26.281271
69.535 27.113129
69.540 27.347141
69.545 27.560677
69.550 28.723143
69.555 29.056997
69.560 29.196514
69.565 28.911682
69.570 28.389997
69.575 27.972811
69.580 27.07752
69.585 26.230225
69.590 26.292835
69.595 26.558342
69.600 26.899767
69.605 27.004278
69.610 27.361816
69.615 27.680029
69.620 27.646122
69.625 27.993967
69.630 28.025305
69.635 27.373096
69.640 27.18504
69.645 27.414793
69.650 27.723965
69.655 27.256725
69.660 27.378178
69.665 27.897335
69.670 28.562576
69.675 28.972383
69.680 29.152231
69.685 29.102255
69.690 29.233204
69.695 28.438349
69.700 28.348965
69.705 28.237055
69.710 28.266171
69.715 27.693882
69.720 27.212713
69.725 26.936333
69.730 27.027754
69.735 26.863922
69.740 26.774118
69.745 26.569929
69.750 26.536001
69.755 27.250071
69.760 27.650972
69.765 26.938589
69.770 26.331835
69.775 25.497992
69.780 24.753019
69.785 24.734535
69.790 23.905485
69.795 23.727177
69.800 24.253822
69.805 24.754608
69.810 25.165462
69.815 25.746201
69.820 26.043133
69.825 26.625126
69.830 27.155212
69.835 27.103071
69.840 26.774038
69.845 26.601273
69.850 26.225195
69.855 26.304598
69.860 25.985617
69.865 25.014708
69.870 25.249203
69.875 25.592701
69.880 25.828869
69.885 25.28796
69.890 24.379356
69.895 24.220783
69.900 24.309526
69.905 23.876995
69.910 23.598318
69.915 23.370913
69.920 24.154528
69.925 24.476723
69.930 24.258408
69.935 24.174711
69.940 23.919703
69.945 23.791485
69.950 23.236912
69.955 22.374098
69.960 22.283136
69.965 22.372942
69.970 21.677843
69.975 21.151159
69.980 20.936157
69.985 20.519938
69.990 20.759911
69.995 20.815636
70.000 20.910875
70.005 21.195873
70.010 21.3486
70.015 21.434284
70.020 21.286392
70.025 20.91991
70.030 21.252083
70.035 21.007263
70.040 20.621653
70.045 20.351875
70.050 21.096575
70.055 21.702614
70.060 21.328205
70.065 20.385239
70.070 20.66843
70.075 20.797165
70.080 20.44272
70.085 19.994196
70.090 19.788795
70.095 20.066957
70.100 19.884848
70.105 20.205093
70.110 20.388494
70.115 20.36742
70.120 20.376257
70.125 20.588594
70.130 20.705595
70.135 20.896994
70.140 20.401011
70.145 20.642725
70.150 20.387774
70.155 20.058405
70.160 19.987078
70.165 19.935635
70.170 19.940344
70.175 19.698746
70.180 19.66407
70.185 19.388088
70.190 19.419172
70.195 19.293394
70.200 19.16526
70.205 19.00127
70.210 19.198727
70.215 19.703728
70.220 20.341972
70.225 20.358252
70.230 20.398739
70.235 19.968794
70.240 20.153559
70.245 20.190269
70.250 19.787569
70.255 19.598564
70.260 19.44076
70.265 19.361919
70.270 18.868979
70.275 18.625935
70.280 18.46166
70.285 18.193598
70.290 17.843296
70.295 17.746099
70.300 17.189442
70.305 17.475611
70.310 17.796192
70.315 18.413864
70.320 18.932596
70.325 19.301748
70.330 19.594828
70.335 20.523811
70.340 21.124382
70.345 20.977528
70.350 20.846001
70.355 20.938829
70.360 20.500355
70.365 20.706619
70.370 20.767233
70.375 19.967402
70.380 18.999216
70.385 18.123098
70.390 18.48288
70.395 18.536011
70.400 18.364418
70.405 18.649805
70.410 18.502821
70.415 19.284744
70.420 19.355339
70.425 18.795069
70.430 19.592915
70.435 19.751804
70.440 19.929474
70.445 20.233305
70.450 20.055958
70.455 20.139065
70.460 20.450735
70.465 19.869089
70.470 19.687166
70.475 19.084642
70.480 18.51841
70.485 18.706472
70.490 18.673426
70.495 18.51779
70.500 18.633183
70.505 18.452402
70.510 19.149319
70.515 20.079832
70.520 20.028681
70.525 19.942682
70.530 19.520948
70.535 19.184238
70.540 18.962694
70.545 18.728979
70.550 18.798523
70.555 18.741856
70.560 19.381544
70.565 20.230284
70.570 20.44763
70.575 19.981613
70.580 19.337357
70.585 19.135298
70.590 18.962591
70.595 18.210535
70.600 17.516159
70.605 17.422056
70.610 17.810631
70.615 17.742359
70.620 17.405844
70.625 18.244251
70.630 18.570593
70.635 19.062969
70.640 19.136127
70.645 19.112558
70.650 19.634941
70.655 19.723095
70.660 19.509756
70.665 19.627504
70.670 19.442215
70.675 19.600864
70.680 19.224621
70.685 18.713001
70.690 19.414764
70.695 18.945496
70.700 18.501369
70.705 18.52286
70.710 19.137934
70.715 20.268118
70.720 19.79644
70.725 19.159283
70.730 19.385908
70.735 19.102381
70.740 18.710922
70.745 17.926554
70.750 17.959923
70.755 18.540531
70.760 18.868605
70.765 19.01712
70.770 19.256853
70.775 19.800274
70.780 19.635189
70.785 18.787123
70.790 18.705824
70.795 18.148838
70.800 18.173599
70.805 17.956053
70.810 17.80105
70.815 18.428833
70.820 19.209261
70.825 19.533564
70.830 19.191557
70.835 19.329309
70.840 19.221872
70.845 18.803133
70.850 18.886885
70.855 17.887768
70.860 17.610569
70.865 17.593176
70.870 17.39036
70.875 17.87368
70.880 17.925571
70.885 17.806774
70.890 18.181744
70.895 18.458368
70.900 19.093855
70.905 19.023323
70.910 19.171736
70.915 18.878725
70.920 18.519217
70.925 18.863003
70.930 18.695992
70.935 18.905722
70.940 19.066439
70.945 19.187572
70.950 19.478798
70.955 20.011858
70.960 20.471708
70.965 20.3316
70.970 20.2869
70.975 20.529499
70.980 20.412756
70.985 20.959328
70.990 20.599218
70.995 19.629545
71.000 19.479862
71.005 19.313328
71.010 19.259748
71.015 19.354271
71.020 18.99959
71.025 19.056013
71.030 18.911127
71.035 18.626724
71.040 18.311438
71.045 18.088089
71.050 18.159332
71.055 18.371241
71.060 18.36705
71.065 18.359297
71.070 18.771921
71.075 18.856638
71.080 18.272676
71.085 18.520494
71.090 18.406675
71.095 18.896269
71.100 19.124208
71.105 18.713385
71.110 18.784904
71.115 19.065901
71.120 18.805834
71.125 18.67041
71.130 18.807127
71.135 18.747566
71.140 18.882635
71.145 18.56382
71.150 18.494083
71.155 18.59392
71.160 18.314327
71.165 18.685719
71.170 19.343664
71.175 19.194986
71.180 19.310001
71.185 19.372427
71.190 18.867386
71.195 18.613701
71.200 18.131769
71.205 18.170774
71.210 18.603083
71.215 19.12097
71.220 19.160311
71.225 19.458519
71.230 19.350712
71.235 19.071966
71.240 18.957609
71.245 18.468718
71.250 18.136072
71.255 18.341091
71.260 18.236849
71.265 18.584148
71.270 18.679157
71.275 18.947704
71.280 19.133682
71.285 18.759527
71.290 18.839138
71.295 19.378651
71.300 19.021379
71.305 19.0651
71.310 18.697561
71.315 18.719368
71.320 19.054274
71.325 19.125887
71.330 19.038502
71.335 19.463364
71.340 19.115305
71.345 19.280575
71.350 19.46102
71.355 19.767937
71.360 19.506594
71.365 19.036251
71.370 18.649948
71.375 18.703978
71.380 17.946762
71.385 17.29488
71.390 17.052795
71.395 16.963388
71.400 17.279144
71.405 17.329933
71.410 17.53093
71.415 18.292225
71.420 18.285332
71.425 18.544081
71.430 18.608709
71.435 18.990208
71.440 19.622555
71.445 20.37521
71.450 20.759794
71.455 21.140305
71.460 21.261835
71.465 20.420582
71.470 20.149736
71.475 19.664255
71.480 18.993044
71.485 18.842102
71.490 18.507896
71.495 18.42827
71.500 18.965673
71.505 19.214563
71.510 19.636175
71.515 19.67387
71.520 19.370516
71.525 19.257496
71.530 18.959661
71.535 19.038563
71.540 18.659075
71.545 18.115772
71.550 18.133568
71.555 18.388643
71.560 18.698444
71.565 18.6991
71.570 18.724535
71.575 18.854443
71.580 18.648401
71.585 18.559566
71.590 18.633196
71.595 18.969097
71.600 19.033249
71.605 18.364553
71.610 18.496166
71.615 18.554819
71.620 18.324224
71.625 18.233841
71.630 18.138363
71.635 18.486145
71.640 18.571491
71.645 18.37958
71.650 19.234756
71.655 19.805429
71.660 19.271587
71.665 19.29402
71.670 19.055826
71.675 19.405975
71.680 19.0718
71.685 18.551563
71.690 18.185188
71.695 18.11598
71.700 18.117323
71.705 17.761557
71.710 18.141731
71.715 18.323627
71.720 18.262739
71.725 18.095751
71.730 17.790876
71.735 18.019014
71.740 18.229252
71.745 18.213558
71.750 18.360643
71.755 18.533028
71.760 19.039488
71.765 19.008389
71.770 18.509245
71.775 18.071947
71.780 17.729197
71.785 17.351513
71.790 17.356449
71.795 17.441135
71.800 17.397562
71.805 17.272865
71.810 18.069653
71.815 18.717094
71.820 19.232922
71.825 19.511896
71.830 20.190016
71.835 21.087944
71.840 21.349253
71.845 20.994184
71.850 20.941406
71.855 20.451506
71.860 20.030821
71.865 19.566793
71.870 19.530991
71.875 20.140766
71.880 19.848555
71.885 19.421753
71.890 19.449718
71.895 19.66753
71.900 19.504625
71.905 18.82711
71.910 17.909863
71.915 18.295725
71.920 17.904524
71.925 17.516199
71.930 16.877518
71.935 16.893904
71.940 16.996073
71.945 17.17053
71.950 17.119467
71.955 17.499136
71.960 17.503242
71.965 17.883083
71.970 18.072927
71.975 17.814362
71.980 18.32077
71.985 18.708729
71.990 18.582115
71.995 18.959932
72.000 19.080618
72.005 19.184973
72.010 19.258266
72.015 18.53792
72.020 18.219162
72.025 18.68096
72.030 18.406548
72.035 18.565176
72.040 18.246611
72.045 18.96767
72.050 19.01903
72.055 18.979553
72.060 19.292383
72.065 19.031448
72.070 19.029552
72.075 18.744186
72.080 17.918058
72.085 17.920736
72.090 17.615665
72.095 17.757587
72.100 17.798244
72.105 17.566547
72.110 17.756592
72.115 18.359314
72.120 18.517681
72.125 18.683065
72.130 18.863218
72.135 19.027496
72.140 19.592604
72.145 19.607487
72.150 18.748613
72.155 19.151224
72.160 19.407314
72.165 19.758726
72.170 19.501959
72.175 19.028896
72.180 19.280094
72.185 19.493586
72.190 19.195824
72.195 18.817282
72.200 18.701851
72.205 18.822054
72.210 18.893522
72.215 18.937685
72.220 18.44092
72.225 18.487026
72.230 18.06988
72.235 17.974106
72.240 18.26652
72.245 18.645952
72.250 18.036552
72.255 18.150776
72.260 18.204515
72.265 18.550098
72.270 18.504444
72.275 18.498396
72.280 18.226513
72.285 18.362793
72.290 18.116247
72.295 17.991268
72.300 17.583557
72.305 17.351297
72.310 17.035862
72.315 17.537149
72.320 18.032419
72.325 17.813133
72.330 17.910025
72.335 18.386358
72.340 18.64669
72.345 18.42226
72.350 18.190268
72.355 18.158934
72.360 18.507423
72.365 18.041386
72.370 17.391861
72.375 17.072474
72.380 16.922085
72.385 16.88155
72.390 16.755806
72.395 15.940593
72.400 15.825016
72.405 16.060766
72.410 16.325914
72.415 16.535755
72.420 16.028584
72.425 16.463341
72.430 16.879572
72.435 16.815945
72.440 16.235613
72.445 15.655414
72.450 16.154165
72.455 16.157923
72.460 16.258585
72.465 16.679386
72.470 16.657879
72.475 17.00774
72.480 17.47493
72.485 17.70558
72.490 18.244432
72.495 17.931639
72.500 17.179907
72.505 17.41585
72.510 17.578224
72.515 17.756918
72.520 17.161972
72.525 17.20364
72.530 17.625589
72.535 18.5439
72.540 18.437651
72.545 17.90379
72.550 17.533268
72.555 17.601145
72.560 16.889133
72.565 16.653238
72.570 16.184965
72.575 16.128901
72.580 16.247149
72.585 15.930239
72.590 15.829723
72.595 16.275578
72.600 16.472914
72.605 16.824696
72.610 17.037394
72.615 17.339964
72.620 17.31945
72.625 17.354952
72.630 16.488642
72.635 16.119801
72.640 15.547742
72.645 15.16783
72.650 15.230645
72.655 15.763728
72.660 16.425215
72.665 16.838453
72.670 17.125452
72.675 17.486753
72.680 17.383453
72.685 16.869257
72.690 16.640297
72.695 16.904009
72.700 16.94622
72.705 16.848471
72.710 16.994083
72.715 17.686167
72.720 17.634212
72.725 17.418312
72.730 17.503134
72.735 17.232752
72.740 17.315283
72.745 17.430397
72.750 17.168701
72.755 17.596502
72.760 17.316059
72.765 16.968931
72.770 17.477842
72.775 17.219555
72.780 17.10927
72.785 16.890682
72.790 16.440992
72.795 17.242994
72.800 17.394341
72.805 17.705456
72.810 18.069675
72.815 17.66671
72.820 17.256329
72.825 17.157467
72.830 16.274223
72.835 16.124636
72.840 15.689036
72.845 15.660383
72.850 16.435446
72.855 16.315432
72.860 15.99542
72.865 15.903631
72.870 15.791098
72.875 15.313672
72.880 15.280095
72.885 15.260443
72.890 15.828835
72.895 16.425913
72.900 16.76478
72.905 17.111967
72.910 17.592697
72.915 17.921856
72.920 18.45186
72.925 18.718361
72.930 19.079014
72.935 18.813221
72.940 18.561455
72.945 18.585079
72.950 17.692726
72.955 17.252157
72.960 17.070391
72.965 16.668364
72.970 16.889957
72.975 16.702152
72.980 16.536232
72.985 16.48732
72.990 16.428963
72.995 16.587248
73.000 16.10894
