!@!!GADDS PLOTSO FILE: Chi integration type
!@!!Title/SampleName: map-10e
!@!!Comment: ?
!@!!User: Bruker Instrument Administrator
!@!!Site: University of Illinois Chicago
!@!!Frame: map-10e_01_000.gfrm
!@!!Wavelengths    1.54184   1.54056   1.54439
!@!!Frame angles: 2Theta: 63.000 Omega: 50.000 Phi: 0.000 Chi: 90.000
!@!!Integration range: 2Theta: 53.000 to 73.000  Gamma: -105.000 to -75.000
!@!!Integration method: bin normalized
!@!N
!@!SS
!@!M
!@!L 0.0 0.0 0.0 0.0
!@!XDegrees
!@!YCounts
53.000 8.660514
53.005 8.528202
53.010 8.465976
53.015 8.732681
53.020 8.89189
53.025 8.8428
53.030 8.611926
53.035 8.731833
53.040 8.799893
53.045 8.850742
53.050 8.543461
53.055 8.750182
53.060 8.724283
53.065 8.934987
53.070 8.538681
53.075 8.424088
53.080 8.634765
53.085 9.061493
53.090 9.360589
53.095 9.355096
53.100 9.044648
53.105 9.147798
53.110 9.363523
53.115 9.481853
53.120 9.447287
53.125 9.166803
53.130 9.133214
53.135 9.733918
53.140 10.109278
53.145 10.144979
53.150 9.98476
53.155 9.776933
53.160 9.669175
53.165 10.103186
53.170 9.865513
53.175 9.427605
53.180 9.019296
53.185 9.154185
53.190 9.275692
53.195 9.327765
53.200 8.786137
53.205 8.996604
53.210 9.128065
53.215 9.618402
53.220 9.198233
53.225 9.493919
53.230 9.237811
53.235 9.155991
53.240 9.101765
53.245 8.893785
53.250 8.604995
53.255 8.303023
53.260 8.371956
53.265 8.755804
53.270 8.683771
53.275 8.724123
53.280 8.906949
53.285 9.013678
53.290 9.509696
53.295 9.305413
53.300 9.368071
53.305 9.431523
53.310 9.145702
53.315 9.104143
53.320 9.401789
53.325 8.994143
53.330 9.30409
53.335 9.027314
53.340 9.210867
53.345 9.342277
53.350 8.921147
53.355 8.61006
53.360 8.449915
53.365 8.158608
53.370 8.712859
53.375 8.555398
53.380 8.529498
53.385 8.888983
53.390 8.99456
53.395 9.107298
53.400 8.726956
53.405 8.060555
53.410 8.242361
53.415 8.301908
53.420 7.74626
53.425 7.716037
53.430 7.777552
53.435 8.399114
53.440 8.647456
53.445 9.201915
53.450 9.473023
53.455 9.934779
53.460 9.56886
53.465 9.302857
53.470 8.980375
53.475 8.866809
53.480 8.407072
53.485 7.980007
53.490 7.970725
53.495 8.386958
53.500 8.661344
53.505 8.61082
53.510 8.551301
53.515 8.873073
53.520 8.753591
53.525 9.153691
53.530 9.280955
53.535 8.990313
53.540 9.232185
53.545 9.570784
53.550 9.662003
53.555 9.992783
53.560 9.881542
53.565 10.167397
53.570 10.879134
53.575 10.892835
53.580 10.253733
53.585 10.020176
53.590 9.732927
53.595 9.637554
53.600 9.53307
53.605 9.40819
53.610 8.953816
53.615 9.151257
53.620 9.418634
53.625 9.782768
53.630 9.571976
53.635 9.447917
53.640 9.43992
53.645 9.798818
53.650 9.732051
53.655 9.743243
53.660 9.71957
53.665 9.643193
53.670 9.234741
53.675 8.924838
53.680 8.795979
53.685 9.145152
53.690 9.314315
53.695 9.723002
53.700 10.180085
53.705 10.306306
53.710 10.780653
53.715 10.565203
53.720 10.457507
53.725 10.733394
53.730 10.431638
53.735 10.405273
53.740 10.582884
53.745 10.086096
53.750 10.138978
53.755 9.760991
53.760 9.223197
53.765 8.942396
53.770 8.512294
53.775 8.457891
53.780 9.203602
53.785 8.878534
53.790 8.795391
53.795 8.566911
53.800 8.550418
53.805 8.725324
53.810 8.927578
53.815 8.965027
53.820 9.113782
53.825 9.478806
53.830 9.98853
53.835 10.131292
53.840 10.353161
53.845 10.319883
53.850 10.228224
53.855 10.268377
53.860 9.878559
53.865 10.01191
53.870 10.654675
53.875 10.310734
53.880 10.375967
53.885 10.922188
53.890 10.925707
53.895 10.852558
53.900 10.419938
53.905 10.409659
53.910 10.678852
53.915 10.773458
53.920 10.890776
53.925 11.025663
53.930 11.223399
53.935 11.243672
53.940 10.702071
53.945 10.075101
53.950 9.686419
53.955 9.580651
53.960 9.531526
53.965 9.775011
53.970 10.147541
53.975 10.023425
53.980 10.13595
53.985 9.738724
53.990 9.446547
53.995 8.744484
54.000 7.850373
54.005 7.316427
54.010 7.349191
54.015 7.519442
54.020 7.839983
54.025 8.246571
54.030 9.353112
54.035 10.104993
54.040 10.254696
54.045 10.120768
54.050 10.132565
54.055 9.96955
54.060 9.839928
54.065 9.052268
54.070 8.823303
54.075 9.091692
54.080 9.112115
54.085 9.278797
54.090 9.191406
54.095 9.193744
54.100 9.848446
54.105 10.168508
54.110 10.183882
54.115 9.922275
54.120 9.821242
54.125 9.995985
54.130 9.768521
54.135 8.860497
54.140 8.622839
54.145 8.802212
54.150 9.024406
54.155 9.016675
54.160 8.652071
54.165 8.416763
54.170 9.04353
54.175 9.251763
54.180 9.649342
54.185 9.715923
54.190 9.686785
54.195 10.178373
54.200 10.646644
54.205 10.919287
54.210 10.676356
54.215 10.648497
54.220 10.283954
54.225 10.374823
54.230 10.21432
54.235 10.302831
54.240 10.158678
54.245 10.28277
54.250 10.494796
54.255 11.289212
54.260 11.572621
54.265 11.455048
54.270 11.097038
54.275 10.612526
54.280 10.202291
54.285 9.771454
54.290 9.590299
54.295 9.620398
54.300 9.418666
54.305 9.238016
54.310 9.238433
54.315 9.430352
54.320 9.422925
54.325 9.426792
54.330 9.37285
54.335 9.808438
54.340 9.918338
54.345 9.913652
54.350 9.687943
54.355 9.549242
54.360 8.84437
54.365 8.716152
54.370 8.408534
54.375 8.692888
54.380 8.928521
54.385 8.874213
54.390 8.966104
54.395 9.420566
54.400 9.575625
54.405 9.542766
54.410 9.723184
54.415 9.19992
54.420 9.56172
54.425 9.697062
54.430 9.756907
54.435 9.383273
54.440 9.227361
54.445 9.397928
54.450 9.636495
54.455 9.138609
54.460 9.21662
54.465 9.310095
54.470 9.771517
54.475 10.046874
54.480 9.768374
54.485 9.762385
54.490 10.014227
54.495 10.121068
54.500 10.581611
54.505 10.82829
54.510 10.826641
54.515 11.196454
54.520 11.793272
54.525 11.637179
54.530 11.288584
54.535 10.656622
54.540 10.334581
54.545 10.447418
54.550 10.594817
54.555 10.462121
54.560 11.055094
54.565 11.614932
54.570 11.658568
54.575 11.555798
54.580 11.339899
54.585 11.094627
54.590 10.791357
54.595 10.687269
54.600 10.697682
54.605 10.906887
54.610 10.945971
54.615 11.261914
54.620 11.375533
54.625 11.242785
54.630 10.967975
54.635 10.361935
54.640 10.387357
54.645 10.537848
54.650 9.987758
54.655 10.072475
54.660 10.323953
54.665 10.35673
54.670 10.712434
54.675 10.093597
54.680 10.407125
54.685 10.578512
54.690 9.861964
54.695 9.130313
54.700 9.114729
54.705 9.10565
54.710 9.174258
54.715 8.78919
54.720 9.152975
54.725 9.473473
54.730 9.750206
54.735 9.814339
54.740 9.857426
54.745 9.728319
54.750 9.810411
54.755 9.614373
54.760 9.465465
54.765 9.630136
54.770 9.82885
54.775 9.983488
54.780 10.37891
54.785 10.508326
54.790 11.025648
54.795 11.351295
54.800 11.167196
54.805 11.036819
54.810 11.349673
54.815 11.062385
54.820 10.809167
54.825 10.425626
54.830 10.623589
54.835 10.791872
54.840 10.770109
54.845 11.03434
54.850 11.493813
54.855 11.403792
54.860 11.198496
54.865 10.799502
54.870 10.672743
54.875 10.333109
54.880 10.219127
54.885 10.243863
54.890 10.435542
54.895 11.010041
54.900 11.568307
54.905 11.776546
54.910 11.903704
54.915 11.745261
54.920 11.638682
54.925 11.097071
54.930 10.628408
54.935 9.970955
54.940 9.822076
54.945 9.636358
54.950 9.904856
54.955 10.446028
54.960 11.134177
54.965 10.854937
54.970 10.926022
54.975 11.078239
54.980 11.546827
54.985 11.519369
54.990 10.977311
54.995 10.638558
55.000 11.157471
55.005 11.587972
55.010 11.383371
55.015 11.32799
55.020 11.220715
55.025 11.843515
55.030 11.860966
55.035 11.870501
55.040 11.919743
55.045 11.953243
55.050 11.349384
55.055 11.167953
55.060 11.2516
55.065 11.520859
55.070 11.715131
55.075 11.599345
55.080 12.133076
55.085 12.504527
55.090 12.318887
55.095 12.332127
55.100 12.466993
55.105 12.200013
55.110 12.225303
55.115 12.239907
55.120 11.97803
55.125 11.916844
55.130 11.379593
55.135 11.639976
55.140 11.793749
55.145 11.827045
55.150 11.421707
55.155 11.684638
55.160 11.865013
55.165 12.006104
55.170 11.625061
55.175 11.298132
55.180 11.329812
55.185 11.155234
55.190 11.364205
55.195 11.18307
55.200 10.963218
55.205 10.82602
55.210 10.821172
55.215 10.71242
55.220 10.722559
55.225 10.571588
55.230 10.411249
55.235 10.333085
55.240 10.275309
55.245 10.042556
55.250 9.760232
55.255 9.549932
55.260 9.498219
55.265 9.534838
55.270 9.902953
55.275 9.927011
55.280 10.012123
55.285 10.044854
55.290 9.953022
55.295 9.849572
55.300 9.966613
55.305 10.354292
55.310 10.467693
55.315 10.444168
55.320 10.560662
55.325 10.404019
55.330 10.241554
55.335 10.375933
55.340 10.041738
55.345 10.305987
55.350 10.354146
55.355 10.216139
55.360 10.763013
55.365 10.713305
55.370 10.410391
55.375 10.356756
55.380 10.247128
55.385 10.670663
55.390 10.726734
55.395 10.704832
55.400 10.465091
55.405 10.488617
55.410 10.554928
55.415 10.35349
55.420 10.412954
55.425 10.966578
55.430 11.352344
55.435 11.832678
55.440 11.493523
55.445 11.54083
55.450 11.530336
55.455 11.538327
55.460 11.281199
55.465 10.856289
55.470 10.743444
55.475 10.93938
55.480 11.104239
55.485 11.205838
55.490 11.226676
55.495 11.320642
55.500 11.488627
55.505 11.926455
55.510 12.155074
55.515 12.332502
55.520 12.293831
55.525 12.501552
55.530 12.255417
55.535 12.239704
55.540 11.91189
55.545 11.513569
55.550 11.032505
55.555 10.853108
55.560 10.449872
55.565 10.431579
55.570 10.492138
55.575 10.381882
55.580 10.127964
55.585 10.297333
55.590 10.130996
55.595 10.6245
55.600 11.203102
55.605 11.146181
55.610 11.703794
55.615 12.366427
55.620 12.254929
55.625 12.08462
55.630 11.519503
55.635 11.389552
55.640 11.688927
55.645 11.317133
55.650 11.228254
55.655 11.320218
55.660 11.544744
55.665 11.67298
55.670 11.266191
55.675 10.949769
55.680 10.709827
55.685 10.705174
55.690 10.767776
55.695 10.441673
55.700 10.039066
55.705 10.50017
55.710 10.699056
55.715 10.884685
55.720 10.705479
55.725 11.084278
55.730 11.865056
55.735 12.145667
55.740 11.874391
55.745 11.655212
55.750 11.410023
55.755 11.77968
55.760 11.310926
55.765 10.779765
55.770 10.653206
55.775 10.45194
55.780 11.018229
55.785 11.342128
55.790 11.059437
55.795 11.034099
55.800 11.215255
55.805 11.422462
55.810 11.731186
55.815 11.766519
55.820 12.121392
55.825 12.158123
55.830 12.688613
55.835 12.616448
55.840 12.669586
55.845 12.615227
55.850 12.71826
55.855 12.174812
55.860 12.26244
55.865 11.993869
55.870 11.946293
55.875 12.04322
55.880 11.97802
55.885 11.762096
55.890 12.400545
55.895 12.689803
55.900 12.467968
55.905 12.635016
55.910 12.405692
55.915 12.520283
55.920 12.700901
55.925 12.535291
55.930 12.281191
55.935 12.783102
55.940 12.444196
55.945 12.884216
55.950 13.176492
55.955 13.118423
55.960 12.768632
55.965 12.712294
55.970 12.35636
55.975 12.610647
55.980 11.797608
55.985 11.471985
55.990 10.938061
55.995 11.020105
56.000 11.102742
56.005 10.995147
56.010 11.888614
56.015 11.942413
56.020 11.763221
56.025 12.297903
56.030 12.123029
56.035 11.909248
56.040 11.478743
56.045 10.235916
56.050 10.110172
56.055 9.830709
56.060 9.816676
56.065 10.026827
56.070 10.062077
56.075 10.379181
56.080 11.269104
56.085 11.59306
56.090 12.08116
56.095 11.865078
56.100 12.192052
56.105 12.911626
56.110 12.862815
56.115 12.512011
56.120 12.368556
56.125 12.534901
56.130 12.601277
56.135 12.422211
56.140 12.282846
56.145 12.119401
56.150 12.610005
56.155 12.9324
56.160 12.759116
56.165 12.54924
56.170 12.385604
56.175 12.091256
56.180 11.219393
56.185 10.626059
56.190 10.256937
56.195 10.18923
56.200 10.56021
56.205 10.796162
56.210 11.089448
56.215 12.02699
56.220 12.4527
56.225 12.627964
56.230 12.956387
56.235 13.323287
56.240 13.515338
56.245 13.622971
56.250 13.550825
56.255 13.384777
56.260 13.270918
56.265 12.915532
56.270 12.620659
56.275 12.316265
56.280 12.275531
56.285 12.505171
56.290 13.048884
56.295 13.510317
56.300 13.635828
56.305 13.91431
56.310 14.431931
56.315 14.665895
56.320 14.186104
56.325 13.432029
56.330 12.870866
56.335 12.699914
56.340 12.520425
56.345 12.512084
56.350 12.53412
56.355 13.08976
56.360 13.232561
56.365 13.353008
56.370 13.20577
56.375 12.927205
56.380 12.361637
56.385 11.884828
56.390 11.614186
56.395 12.388525
56.400 13.188027
56.405 13.633455
56.410 13.440503
56.415 13.891431
56.420 14.431693
56.425 14.496499
56.430 14.30403
56.435 13.754979
56.440 13.923492
56.445 13.940559
56.450 13.446818
56.455 13.131008
56.460 12.660132
56.465 12.331532
56.470 11.991044
56.475 12.192527
56.480 12.78959
56.485 12.985793
56.490 13.759194
56.495 14.306596
56.500 14.525709
56.505 14.441653
56.510 14.293219
56.515 13.838692
56.520 13.961033
56.525 13.489311
56.530 12.723125
56.535 12.654193
56.540 12.685952
56.545 12.553596
56.550 12.789207
56.555 12.547816
56.560 12.433937
56.565 13.268175
56.570 13.117191
56.575 12.866159
56.580 12.505422
56.585 12.05217
56.590 12.108605
56.595 12.592788
56.600 12.247316
56.605 12.370906
56.610 12.680653
56.615 13.510069
56.620 13.843708
56.625 13.891727
56.630 13.248264
56.635 12.889666
56.640 12.99146
56.645 12.742785
56.650 12.32562
56.655 12.407797
56.660 12.610404
56.665 12.942887
56.670 13.210569
56.675 12.858641
56.680 13.046658
56.685 13.527424
56.690 13.227587
56.695 13.09336
56.700 13.443813
56.705 13.808421
56.710 13.998289
56.715 13.841051
56.720 13.353748
56.725 13.629195
56.730 13.644495
56.735 13.203015
56.740 12.863416
56.745 13.09691
56.750 13.280333
56.755 13.342174
56.760 13.047014
56.765 12.601913
56.770 12.314506
56.775 12.648963
56.780 12.737967
56.785 12.767915
56.790 12.540185
56.795 12.691041
56.800 13.095119
56.805 13.213192
56.810 13.02949
56.815 12.817359
56.820 12.912923
56.825 12.833779
56.830 12.823213
56.835 13.214141
56.840 13.172681
56.845 13.294209
56.850 13.226352
56.855 12.945436
56.860 13.092808
56.865 13.062151
56.870 13.058327
56.875 13.049367
56.880 12.712711
56.885 12.431133
56.890 12.62525
56.895 12.517056
56.900 12.383038
56.905 12.315165
56.910 12.716887
56.915 13.150282
56.920 13.443311
56.925 13.700574
56.930 14.082162
56.935 14.354456
56.940 14.407804
56.945 14.282037
56.950 14.585541
56.955 14.697055
56.960 14.448935
56.965 14.233199
56.970 14.067236
56.975 14.192204
56.980 13.877047
56.985 13.783775
56.990 13.401094
56.995 13.366772
57.000 13.066543
57.005 13.028235
57.010 12.725077
57.015 12.944374
57.020 13.097031
57.025 13.748355
57.030 13.842655
57.035 14.168376
57.040 14.019316
57.045 14.299244
57.050 14.119927
57.055 13.715727
57.060 12.629338
57.065 12.037572
57.070 12.216634
57.075 11.944909
57.080 11.571533
57.085 11.423082
57.090 11.646133
57.095 12.164284
57.100 12.504763
57.105 12.188393
57.110 11.895135
57.115 11.626011
57.120 11.376579
57.125 11.277511
57.130 11.800548
57.135 12.247262
57.140 12.530726
57.145 12.646247
57.150 12.334705
57.155 12.148883
57.160 11.933807
57.165 11.767665
57.170 11.631842
57.175 11.637557
57.180 12.089724
57.185 12.984966
57.190 13.665069
57.195 13.748332
57.200 13.12415
57.205 13.162724
57.210 13.422647
57.215 13.619756
57.220 13.449815
57.225 13.337203
57.230 13.530069
57.235 13.636958
57.240 13.463184
57.245 13.298553
57.250 12.80139
57.255 12.637309
57.260 12.910141
57.265 12.894164
57.270 13.103305
57.275 12.781451
57.280 12.778129
57.285 12.844912
57.290 12.975308
57.295 13.253248
57.300 13.574828
57.305 14.059546
57.310 14.249261
57.315 14.926732
57.320 15.220224
57.325 14.671236
57.330 13.935374
57.335 13.202877
57.340 12.957165
57.345 12.644662
57.350 12.279691
57.355 12.28833
57.360 12.795997
57.365 13.073921
57.370 13.293979
57.375 13.237823
57.380 13.260634
57.385 13.390439
57.390 13.27632
57.395 13.321053
57.400 13.520035
57.405 13.719557
57.410 14.678306
57.415 14.825642
57.420 14.636439
57.425 14.19213
57.430 13.811376
57.435 13.994794
57.440 14.243237
57.445 13.965047
57.450 13.664748
57.455 13.643056
57.460 13.553116
57.465 13.232666
57.470 12.731668
57.475 12.105652
57.480 12.389775
57.485 12.582238
57.490 12.788126
57.495 13.141584
57.500 13.730759
57.505 14.292122
57.510 14.387298
57.515 14.152549
57.520 14.202072
57.525 14.305073
57.530 14.266299
57.535 13.895288
57.540 13.62396
57.545 13.4486
57.550 13.71567
57.555 13.755349
57.560 13.435493
57.565 13.746731
57.570 13.69226
57.575 13.615817
57.580 13.443757
57.585 13.103566
57.590 12.707191
57.595 12.99289
57.600 13.231516
57.605 12.988259
57.610 13.207458
57.615 13.155034
57.620 13.072863
57.625 13.112872
57.630 12.984624
57.635 12.43227
57.640 12.513494
57.645 12.448812
57.650 12.426789
57.655 12.24999
57.660 12.43614
57.665 12.392976
57.670 12.951653
57.675 13.719059
57.680 13.422731
57.685 13.560754
57.690 13.795939
57.695 13.95526
57.700 13.62648
57.705 13.445504
57.710 13.081318
57.715 12.939386
57.720 12.848598
57.725 13.003632
57.730 13.376383
57.735 13.839219
57.740 13.598194
57.745 13.435451
57.750 13.963217
57.755 14.121695
57.760 13.876152
57.765 13.79087
57.770 13.648426
57.775 13.671649
57.780 13.832373
57.785 13.97378
57.790 13.626136
57.795 13.739918
57.800 13.84726
57.805 13.645223
57.810 13.518609
57.815 13.790268
57.820 13.784969
57.825 13.894695
57.830 13.415982
57.835 12.820931
57.840 13.161222
57.845 13.123139
57.850 12.84265
57.855 12.650813
57.860 12.472462
57.865 12.775578
57.870 13.23232
57.875 13.316487
57.880 13.572901
57.885 13.907908
57.890 13.74279
57.895 13.739095
57.900 13.307263
57.905 13.267596
57.910 13.210574
57.915 12.596438
57.920 12.579576
57.925 12.7987
57.930 12.950572
57.935 13.176412
57.940 13.357532
57.945 13.230404
57.950 13.368553
57.955 13.083122
57.960 13.027633
57.965 13.387817
57.970 13.515877
57.975 13.119553
57.980 13.843086
57.985 13.961187
57.990 13.852639
57.995 14.011147
58.000 13.669481
58.005 13.315642
58.010 13.457625
58.015 12.98382
58.020 12.235237
58.025 12.641603
58.030 12.798139
58.035 13.137712
58.040 13.365449
58.045 13.142272
58.050 13.436255
58.055 14.354977
58.060 14.433485
58.065 14.488893
58.070 14.443807
58.075 14.8034
58.080 15.011374
58.085 14.656718
58.090 13.993644
58.095 14.101516
58.100 14.273643
58.105 14.516338
58.110 14.427965
58.115 14.663136
58.120 15.451954
58.125 15.917573
58.130 15.844594
58.135 15.828876
58.140 16.136158
58.145 15.677717
58.150 15.457037
58.155 15.247556
58.160 15.130961
58.165 15.202064
58.170 15.108775
58.175 14.544926
58.180 14.538907
58.185 14.037859
58.190 13.826016
58.195 13.614557
58.200 13.561964
58.205 13.559978
58.210 13.76329
58.215 13.942428
58.220 14.390635
58.225 14.410597
58.230 14.054357
58.235 13.79666
58.240 13.463323
58.245 13.142484
58.250 13.099859
58.255 13.297551
58.260 13.462762
58.265 13.866887
58.270 14.2507
58.275 14.611796
58.280 15.167355
58.285 15.369993
58.290 14.93393
58.295 15.469769
58.300 15.169066
58.305 14.491791
58.310 14.230011
58.315 13.926001
58.320 13.800722
58.325 13.282302
58.330 12.478559
58.335 12.593385
58.340 12.663138
58.345 12.8384
58.350 12.812692
58.355 13.422501
58.360 13.785384
58.365 13.993194
58.370 13.915274
58.375 13.958592
58.380 14.035133
58.385 13.442722
58.390 12.694496
58.395 12.821818
58.400 12.359069
58.405 12.571813
58.410 12.316095
58.415 12.288239
58.420 13.330091
58.425 13.741594
58.430 13.725812
58.435 14.079213
58.440 14.288511
58.445 14.643294
58.450 14.7632
58.455 15.183737
58.460 14.783398
58.465 15.220179
58.470 14.963946
58.475 14.547884
58.480 14.265935
58.485 13.753105
58.490 13.389567
58.495 13.705473
58.500 13.555445
58.505 13.647733
58.510 14.124368
58.515 14.489784
58.520 15.022873
58.525 15.248364
58.530 15.359375
58.535 15.429688
58.540 15.642141
58.545 15.598918
58.550 15.491452
58.555 15.269593
58.560 15.324552
58.565 15.785532
58.570 16.038185
58.575 16.113377
58.580 15.649639
58.585 15.332766
58.590 15.214458
58.595 15.11153
58.600 14.850483
58.605 14.514415
58.610 14.258981
58.615 14.812665
58.620 15.441722
58.625 15.767467
58.630 16.004927
58.635 15.482288
58.640 15.743202
58.645 15.687452
58.650 15.322381
58.655 14.723416
58.660 14.211531
58.665 13.572651
58.670 13.602995
58.675 13.465885
58.680 13.577285
58.685 13.831689
58.690 13.866775
58.695 14.221707
58.700 14.305733
58.705 14.1178
58.710 14.006989
58.715 14.081711
58.720 14.047773
58.725 13.784196
58.730 13.014981
58.735 13.645223
58.740 14.32816
58.745 14.477612
58.750 14.709317
58.755 14.774242
58.760 15.315836
58.765 15.604163
58.770 15.304461
58.775 15.456405
58.780 15.533913
58.785 15.559548
58.790 15.545341
58.795 15.710326
58.800 15.573816
58.805 15.17809
58.810 14.70119
58.815 14.764618
58.820 14.762496
58.825 14.757431
58.830 13.908994
58.835 13.682693
58.840 14.224876
58.845 14.630134
58.850 14.418621
58.855 14.636978
58.860 15.398672
58.865 15.533676
58.870 15.863062
58.875 15.828092
58.880 15.639055
58.885 15.584689
58.890 15.355856
58.895 15.217568
58.900 16.182636
58.905 16.398163
58.910 16.005928
58.915 16.139647
58.920 16.392479
58.925 16.164465
58.930 15.854231
58.935 15.362252
58.940 15.241963
58.945 15.386781
58.950 14.898315
58.955 14.643033
58.960 14.655406
58.965 14.822545
58.970 14.753435
58.975 14.897572
58.980 15.256198
58.985 16.048054
58.990 16.262354
58.995 16.127249
59.000 15.888397
59.005 15.815356
59.010 16.209364
59.015 15.617886
59.020 15.174495
59.025 14.876829
59.030 15.00495
59.035 15.270392
59.040 15.28147
59.045 14.258296
59.050 14.369724
59.055 14.255117
59.060 14.3627
59.065 14.642111
59.070 14.82833
59.075 15.040489
59.080 16.006329
59.085 16.392189
59.090 17.070786
59.095 17.121578
59.100 16.785131
59.105 16.600063
59.110 15.769546
59.115 15.355349
59.120 15.047995
59.125 14.802693
59.130 15.16818
59.135 15.287042
59.140 15.225273
59.145 15.990212
59.150 15.720684
59.155 15.393287
59.160 15.156065
59.165 14.631639
59.170 14.842623
59.175 15.190237
59.180 15.007586
59.185 15.079497
59.190 14.979103
59.195 14.797428
59.200 14.95957
59.205 14.84297
59.210 14.936728
59.215 14.882503
59.220 15.068856
59.225 15.425924
59.230 15.879352
59.235 15.952786
59.240 15.790088
59.245 15.876329
59.250 16.088243
59.255 16.139309
59.260 16.216906
59.265 16.083603
59.270 16.127947
59.275 16.140909
59.280 16.406528
59.285 16.67041
59.290 16.907307
59.295 16.608177
59.300 16.434748
59.305 16.69829
59.310 15.902814
59.315 15.459773
59.320 15.14907
59.325 15.16144
59.330 15.713198
59.335 15.77961
59.340 15.202336
59.345 15.422058
59.350 15.480748
59.355 16.034924
59.360 15.978189
59.365 15.920079
59.370 15.765954
59.375 15.951834
59.380 16.245508
59.385 16.023125
59.390 15.884269
59.395 15.580125
59.400 15.436584
59.405 15.727674
59.410 15.488447
59.415 15.388148
59.420 15.275593
59.425 15.512769
59.430 15.421078
59.435 15.589375
59.440 16.135578
59.445 16.479805
59.450 16.362705
59.455 16.470112
59.460 16.114975
59.465 16.601046
59.470 16.456108
59.475 16.216219
59.480 16.428772
59.485 16.536987
59.490 16.559765
59.495 16.992092
59.500 16.590899
59.505 16.743359
59.510 16.417393
59.515 16.351896
59.520 16.214628
59.525 16.132893
59.530 16.044945
59.535 16.112993
59.540 15.994706
59.545 16.195654
59.550 16.36729
59.555 16.787086
59.560 17.06193
59.565 16.87974
59.570 17.05813
59.575 17.261042
59.580 17.330666
59.585 17.09527
59.590 16.893805
59.595 16.51437
59.600 16.159451
59.605 15.727419
59.610 15.552124
59.615 15.777504
59.620 16.412403
59.625 16.983915
59.630 17.883259
59.635 18.434322
59.640 18.415756
59.645 18.235847
59.650 17.806086
59.655 17.368465
59.660 17.015348
59.665 17.055439
59.670 17.43103
59.675 17.335241
59.680 17.693056
59.685 18.513947
59.690 19.419767
59.695 19.707767
59.700 19.94091
59.705 19.84936
59.710 20.645479
59.715 20.325056
59.720 20.015387
59.725 19.853024
59.730 19.939814
59.735 19.604805
59.740 20.334921
59.745 19.904057
59.750 20.056768
59.755 19.796309
59.760 19.67016
59.765 19.665277
59.770 19.638298
59.775 19.581873
59.780 20.096104
59.785 20.250551
59.790 20.249685
59.795 19.985012
59.800 20.047195
59.805 20.044165
59.810 19.549311
59.815 19.476425
59.820 19.033581
59.825 18.904989
59.830 19.030033
59.835 18.569777
59.840 18.010239
59.845 18.192873
59.850 17.917427
59.855 17.859978
59.860 17.572191
59.865 17.577579
59.870 17.498678
59.875 18.029392
59.880 17.965139
59.885 18.377426
59.890 18.951735
59.895 18.785547
59.900 18.573202
59.905 18.978476
59.910 18.80859
59.915 18.620358
59.920 18.563868
59.925 18.540049
59.930 18.93099
59.935 19.075577
59.940 19.060814
59.945 19.52459
59.950 19.755995
59.955 19.762796
59.960 20.061409
59.965 20.342871
59.970 20.240406
59.975 19.992912
59.980 19.847116
59.985 19.967052
59.990 19.991205
59.995 20.060179
60.000 19.893826
60.005 20.717562
60.010 20.450043
60.015 19.554182
60.020 19.588614
60.025 19.824446
60.030 19.371851
60.035 19.53779
60.040 19.238232
60.045 19.661909
60.050 20.480335
60.055 19.973452
60.060 18.913403
60.065 18.632576
60.070 17.896425
60.075 17.973291
60.080 18.199263
60.085 18.434019
60.090 18.800339
60.095 19.669048
60.100 20.76214
60.105 20.550074
60.110 20.334686
60.115 19.902739
60.120 19.837961
60.125 20.127771
60.130 19.991905
60.135 19.527172
60.140 20.492247
60.145 20.834442
60.150 20.899035
60.155 20.971895
60.160 21.009594
60.165 20.8218
60.170 21.140362
60.175 20.445992
60.180 20.428802
60.185 20.486277
60.190 20.334013
60.195 19.370852
60.200 18.80014
60.205 18.72061
60.210 18.735933
60.215 18.248983
60.220 17.433447
60.225 17.552347
60.230 18.285589
60.235 18.729189
60.240 18.471718
60.245 18.809288
60.250 19.129217
60.255 19.48638
60.260 19.520559
60.265 20.030159
60.270 20.276291
60.275 20.047543
60.280 19.55895
60.285 19.572346
60.290 19.767323
60.295 19.238178
60.300 19.354986
60.305 19.394529
60.310 19.465271
60.315 19.63969
60.320 19.331743
60.325 19.246157
60.330 19.625607
60.335 18.850145
60.340 18.148607
60.345 17.839674
60.350 18.084963
60.355 18.206001
60.360 18.181187
60.365 17.715878
60.370 17.791248
60.375 17.87924
60.380 18.294554
60.385 17.542099
60.390 17.346889
60.395 17.345751
60.400 17.393806
60.405 17.364504
60.410 17.846424
60.415 17.422468
60.420 17.698473
60.425 17.920738
60.430 18.103655
60.435 18.38843
60.440 18.489241
60.445 18.099543
60.450 18.499557
60.455 18.409441
60.460 18.133951
60.465 18.159275
60.470 18.659737
60.475 18.689516
60.480 19.20392
60.485 19.17684
60.490 19.626345
60.495 19.682384
60.500 18.870659
60.505 18.201723
60.510 17.819677
60.515 17.281773
60.520 17.31642
60.525 17.130959
60.530 16.918283
60.535 16.811283
60.540 16.911722
60.545 16.956305
60.550 17.117542
60.555 17.33584
60.560 17.719574
60.565 18.370275
60.570 18.639572
60.575 18.941481
60.580 19.438389
60.585 19.872746
60.590 19.496656
60.595 19.089996
60.600 18.645098
60.605 18.5674
60.610 18.479687
60.615 17.641672
60.620 17.241871
60.625 17.484642
60.630 17.741383
60.635 18.230778
60.640 18.578411
60.645 18.903172
60.650 19.593172
60.655 19.131723
60.660 19.481239
60.665 19.210264
60.670 18.840582
60.675 18.302902
60.680 17.96628
60.685 17.715958
60.690 17.791338
60.695 16.864025
60.700 16.662144
60.705 16.914238
60.710 17.042154
60.715 16.91914
60.720 16.914961
60.725 17.103813
60.730 17.167721
60.735 17.313797
60.740 16.914021
60.745 16.87797
60.750 16.203516
60.755 16.118597
60.760 15.687234
60.765 15.559599
60.770 15.207237
60.775 14.767193
60.780 14.16649
60.785 14.956484
60.790 15.185079
60.795 15.039523
60.800 15.007971
60.805 15.164104
60.810 15.779547
60.815 16.595545
60.820 16.466223
60.825 16.655243
60.830 17.485731
60.835 17.936449
60.840 18.161705
60.845 17.979033
60.850 17.798172
60.855 17.249193
60.860 17.146324
60.865 16.812778
60.870 16.365015
60.875 16.266325
60.880 16.082739
60.885 15.846772
60.890 15.880662
60.895 15.386127
60.900 15.110732
60.905 15.296361
60.910 15.455823
60.915 15.686774
60.920 16.004381
60.925 16.50938
60.930 16.513992
60.935 16.492357
60.940 16.295666
60.945 16.401148
60.950 16.32275
60.955 15.90569
60.960 16.07851
60.965 16.393873
60.970 16.68445
60.975 16.465521
60.980 15.890385
60.985 15.923477
60.990 15.497701
60.995 14.732622
61.000 15.290244
61.005 15.648942
61.010 16.132574
61.015 16.39814
61.020 16.761503
61.025 16.651724
61.030 16.838377
61.035 16.127235
61.040 16.187201
61.045 16.181095
61.050 16.14846
61.055 15.738769
61.060 16.761814
61.065 17.337791
61.070 17.482788
61.075 17.013739
61.080 16.844006
61.085 16.693975
61.090 17.419273
61.095 17.308931
61.100 16.893929
61.105 16.401525
61.110 16.45574
61.115 16.556816
61.120 16.421257
61.125 15.682871
61.130 15.573635
61.135 15.435382
61.140 15.652716
61.145 15.777139
61.150 15.850076
61.155 16.405132
61.160 16.761177
61.165 16.848934
61.170 16.83869
61.175 16.763676
61.180 16.351408
61.185 16.067558
61.190 15.655146
61.195 15.506152
61.200 15.625129
61.205 16.030354
61.210 16.610546
61.215 16.726267
61.220 16.932186
61.225 17.130932
61.230 16.966969
61.235 16.487898
61.240 16.18903
61.245 16.371428
61.250 16.5439
61.255 16.365204
61.260 16.239347
61.265 16.156588
61.270 16.266937
61.275 15.922588
61.280 14.829892
61.285 14.836384
61.290 14.80406
61.295 14.586601
61.300 14.690235
61.305 14.45316
61.310 14.129427
61.315 14.765756
61.320 15.123255
61.325 15.042219
61.330 15.257232
61.335 15.442303
61.340 15.838483
61.345 16.467031
61.350 16.595377
61.355 16.412767
61.360 15.881434
61.365 15.634553
61.370 15.394455
61.375 15.508438
61.380 15.265389
61.385 14.740661
61.390 14.792807
61.395 15.827977
61.400 16.373783
61.405 16.760792
61.410 16.882473
61.415 16.597721
61.420 16.475735
61.425 16.34585
61.430 15.909989
61.435 15.551709
61.440 15.13216
61.445 15.100065
61.450 15.710894
61.455 15.992603
61.460 15.958973
61.465 15.813239
61.470 15.604121
61.475 15.936915
61.480 16.260841
61.485 16.110678
61.490 16.246214
61.495 16.283499
61.500 16.28054
61.505 16.484322
61.510 16.629076
61.515 16.904482
61.520 16.540728
61.525 16.088804
61.530 16.14929
61.535 16.049091
61.540 15.98187
61.545 15.430304
61.550 15.209013
61.555 16.126677
61.560 16.162865
61.565 16.093185
61.570 16.875214
61.575 16.857416
61.580 16.841703
61.585 15.966877
61.590 15.325056
61.595 15.124071
61.600 15.249018
61.605 14.696818
61.610 14.251154
61.615 13.950841
61.620 14.587905
61.625 14.563708
61.630 15.131269
61.635 15.312976
61.640 15.539535
61.645 16.207529
61.650 15.97242
61.655 15.777991
61.660 16.145596
61.665 15.985899
61.670 16.039833
61.675 16.002729
61.680 16.029564
61.685 16.378227
61.690 16.554222
61.695 16.328043
61.700 16.028126
61.705 15.675024
61.710 15.570559
61.715 15.848975
61.720 15.765286
61.725 15.753115
61.730 15.890782
61.735 16.153278
61.740 16.230221
61.745 16.28944
61.750 16.506084
61.755 16.13312
61.760 15.879224
61.765 15.780401
61.770 15.534538
61.775 15.100867
61.780 14.688642
61.785 13.784015
61.790 14.522196
61.795 14.890934
61.800 14.91933
61.805 15.459131
61.810 16.356651
61.815 16.785357
61.820 17.473703
61.825 17.400694
61.830 17.045485
61.835 16.581059
61.840 16.496136
61.845 16.355267
61.850 16.199207
61.855 15.850407
61.860 16.291428
61.865 16.373493
61.870 16.491335
61.875 16.484819
61.880 16.423536
61.885 16.73036
61.890 16.974977
61.895 16.659248
61.900 16.837536
61.905 17.138855
61.910 16.552149
61.915 16.588478
61.920 16.194811
61.925 15.709607
61.930 15.493252
61.935 15.850593
61.940 16.13624
61.945 16.044683
61.950 16.119453
61.955 16.06097
61.960 16.113901
61.965 15.939493
61.970 15.826822
61.975 15.859549
61.980 15.668091
61.985 14.949266
61.990 15.148038
61.995 14.766215
62.000 14.923428
62.005 14.554332
62.010 14.344948
62.015 15.005116
62.020 15.517857
62.025 15.426898
62.030 15.274334
62.035 15.453042
62.040 15.716266
62.045 16.159788
62.050 16.179466
62.055 16.582905
62.060 16.710262
62.065 17.359432
62.070 17.579716
62.075 17.389177
62.080 16.850323
62.085 16.103586
62.090 15.472819
62.095 15.25234
62.100 14.814731
62.105 14.822874
62.110 14.941309
62.115 15.192268
62.120 15.766375
62.125 15.875548
62.130 16.381102
62.135 16.64871
62.140 16.631126
62.145 16.650673
62.150 16.884239
62.155 16.558359
62.160 16.787088
62.165 16.795418
62.170 16.524286
62.175 15.893247
62.180 15.731327
62.185 15.317618
62.190 15.557778
62.195 15.115607
62.200 15.445867
62.205 15.689831
62.210 16.328011
62.215 16.882557
62.220 16.964062
62.225 16.507393
62.230 16.588556
62.235 16.097088
62.240 16.247662
62.245 15.69351
62.250 15.089397
62.255 14.851148
62.260 15.066892
62.265 15.307529
62.270 15.123117
62.275 14.957222
62.280 14.882467
62.285 14.586114
62.290 14.276849
62.295 14.317653
62.300 14.040707
62.305 13.942821
62.310 13.851714
62.315 13.996424
62.320 14.776661
62.325 15.251441
62.330 15.393809
62.335 15.533615
62.340 15.871361
62.345 15.705482
62.350 15.630852
62.355 15.577494
62.360 16.04216
62.365 15.833145
62.370 15.933079
62.375 16.112377
62.380 16.130432
62.385 15.914811
62.390 15.788012
62.395 15.76954
62.400 15.902737
62.405 16.001904
62.410 16.857121
62.415 16.956799
62.420 16.686264
62.425 16.140629
62.430 16.314182
62.435 16.672148
62.440 16.798018
62.445 16.189484
62.450 16.218174
62.455 16.689665
62.460 17.362906
62.465 17.725822
62.470 17.82715
62.475 18.152115
62.480 17.605993
62.485 17.854794
62.490 17.94776
62.495 17.531134
62.500 16.592482
62.505 15.847259
62.510 15.373968
62.515 15.162578
62.520 14.538713
62.525 13.990698
62.530 14.253147
62.535 14.141254
62.540 13.768321
62.545 13.850357
62.550 14.881562
62.555 15.69713
62.560 15.294427
62.565 15.05702
62.570 15.220846
62.575 15.796458
62.580 15.318044
62.585 14.628715
62.590 14.076382
62.595 14.620344
62.600 14.100905
62.605 14.456872
62.610 14.653495
62.615 15.114851
62.620 15.341827
62.625 15.45206
62.630 15.47195
62.635 15.954267
62.640 16.073528
62.645 15.930785
62.650 16.35453
62.655 16.572987
62.660 16.612183
62.665 16.594269
62.670 16.890554
62.675 17.457338
62.680 17.890684
62.685 18.278456
62.690 19.319395
62.695 19.895586
62.700 19.783726
62.705 19.812868
62.710 19.575148
62.715 18.843203
62.720 18.478661
62.725 17.894445
62.730 18.189371
62.735 18.634781
62.740 18.293428
62.745 17.952869
62.750 18.377148
62.755 18.01807
62.760 17.342081
62.765 16.924389
62.770 16.5674
62.775 16.332258
62.780 16.23448
62.785 15.687208
62.790 15.795583
62.795 16.17137
62.800 16.209309
62.805 16.997046
62.810 17.365051
62.815 17.837797
62.820 18.021385
62.825 18.154102
62.830 18.079664
62.835 18.352688
62.840 17.825584
62.845 17.31159
62.850 17.241949
62.855 17.463585
62.860 17.359367
62.865 17.453794
62.870 17.289259
62.875 17.283333
62.880 17.568188
62.885 17.210566
62.890 16.584888
62.895 16.104599
62.900 15.836565
62.905 15.93716
62.910 16.57202
62.915 16.487833
62.920 16.540667
62.925 16.392139
62.930 16.295233
62.935 16.535994
62.940 16.214218
62.945 16.209684
62.950 16.293924
62.955 16.98971
62.960 17.747963
62.965 18.546669
62.970 18.844482
62.975 19.644556
62.980 19.818108
62.985 19.564285
62.990 19.216284
62.995 19.608274
63.000 19.419725
63.005 19.048222
63.010 17.75676
63.015 16.747019
63.020 16.938263
63.025 16.446966
63.030 16.238194
63.035 16.033722
63.040 15.796876
63.045 16.412544
63.050 17.036777
63.055 16.770649
63.060 16.944191
63.065 16.788273
63.070 17.221394
63.075 17.199593
63.080 16.937193
63.085 17.269773
63.090 17.752939
63.095 17.475918
63.100 17.017775
63.105 17.035471
63.110 17.525297
63.115 18.123425
63.120 17.472763
63.125 16.995785
63.130 17.067358
63.135 17.017725
63.140 16.661776
63.145 16.22677
63.150 16.202526
63.155 16.710144
63.160 16.913996
63.165 17.081707
63.170 17.707668
63.175 17.94273
63.180 17.932241
63.185 17.752884
63.190 17.245171
63.195 17.106483
63.200 17.203148
63.205 16.807478
63.210 16.825476
63.215 16.941046
63.220 16.957317
63.225 16.829805
63.230 17.208023
63.235 17.193285
63.240 17.424574
63.245 17.694597
63.250 17.967375
63.255 18.168472
63.260 18.415499
63.265 18.136892
63.270 17.732384
63.275 17.533886
63.280 17.073248
63.285 16.77726
63.290 16.458195
63.295 16.364773
63.300 16.621115
63.305 16.636194
63.310 16.583691
63.315 16.477198
63.320 16.176346
63.325 16.264257
63.330 16.7924
63.335 16.858027
63.340 17.016863
63.345 17.205666
63.350 17.901102
63.355 18.315872
63.360 18.167488
63.365 17.81839
63.370 17.702662
63.375 17.979746
63.380 17.708071
63.385 16.682405
63.390 16.024464
63.395 16.068243
63.400 15.903121
63.405 15.567635
63.410 15.089687
63.415 15.2543
63.420 16.441221
63.425 17.063992
63.430 16.817631
63.435 16.790691
63.440 17.002193
63.445 17.283943
63.450 17.076767
63.455 16.661741
63.460 16.631468
63.465 16.87376
63.470 16.823284
63.475 17.005857
63.480 17.30234
63.485 17.465828
63.490 17.57662
63.495 17.172483
63.500 17.413738
63.505 17.938231
63.510 18.150604
63.515 18.391529
63.520 18.206217
63.525 18.023706
63.530 18.604254
63.535 19.124247
63.540 18.639469
63.545 17.919056
63.550 16.860609
63.555 17.303022
63.560 17.179901
63.565 17.051672
63.570 16.61636
63.575 16.71711
63.580 17.290064
63.585 17.844967
63.590 17.319937
63.595 17.216658
63.600 17.555584
63.605 17.304979
63.610 16.811565
63.615 15.918406
63.620 15.854103
63.625 16.241985
63.630 16.026052
63.635 15.430425
63.640 15.677279
63.645 15.956557
63.650 16.175718
63.655 16.143353
63.660 16.06044
63.665 16.400751
63.670 16.464954
63.675 15.957512
63.680 16.012941
63.685 16.736628
63.690 16.994688
63.695 17.067198
63.700 16.610386
63.705 16.781322
63.710 16.860819
63.715 16.593529
63.720 16.267382
63.725 16.317478
63.730 16.305439
63.735 15.990195
63.740 15.573134
63.745 15.85526
63.750 15.895769
63.755 15.780952
63.760 15.11932
63.765 15.11255
63.770 15.250003
63.775 15.702935
63.780 15.942987
63.785 16.284124
63.790 16.347443
63.795 16.152254
63.800 16.22015
63.805 16.399035
63.810 16.188032
63.815 16.702629
63.820 16.895418
63.825 17.119917
63.830 17.825853
63.835 17.570753
63.840 17.344862
63.845 16.961109
63.850 16.2395
63.855 15.698877
63.860 15.718276
63.865 16.228931
63.870 16.985935
63.875 17.899679
63.880 18.369467
63.885 18.396828
63.890 18.561806
63.895 17.955723
63.900 17.343246
63.905 16.9077
63.910 16.496489
63.915 17.003489
63.920 17.032803
63.925 17.127565
63.930 17.294294
63.935 16.978624
63.940 17.09066
63.945 16.9834
63.950 15.971409
63.955 15.770405
63.960 16.063931
63.965 16.524265
63.970 16.972233
63.975 16.965849
63.980 17.50738
63.985 17.995642
63.990 17.964386
63.995 17.475622
64.000 17.579655
64.005 17.440844
64.010 17.541924
64.015 17.891609
64.020 18.444008
64.025 18.895544
64.030 18.912792
64.035 18.752769
64.040 18.823822
64.045 18.877134
64.050 19.035276
64.055 18.999094
64.060 19.006142
64.065 19.217543
64.070 18.81226
64.075 18.619116
64.080 18.451206
64.085 17.837729
64.090 17.39274
64.095 17.535175
64.100 17.193808
64.105 17.408617
64.110 17.272472
64.115 16.944662
64.120 16.975109
64.125 17.022882
64.130 16.987028
64.135 17.216053
64.140 17.401793
64.145 18.142927
64.150 18.513086
64.155 18.267054
64.160 18.127951
64.165 17.884882
64.170 17.550615
64.175 17.01787
64.180 16.454552
64.185 15.748836
64.190 15.629062
64.195 15.922161
64.200 16.970201
64.205 17.511639
64.210 17.683147
64.215 17.521175
64.220 17.698362
64.225 17.439537
64.230 17.30946
64.235 16.392052
64.240 16.374132
64.245 16.784815
64.250 17.423031
64.255 17.725538
64.260 18.630571
64.265 18.621939
64.270 18.692312
64.275 19.097071
64.280 18.918522
64.285 18.517799
64.290 18.505283
64.295 17.892773
64.300 18.41641
64.305 18.792419
64.310 18.79393
64.315 18.762024
64.320 18.626085
64.325 18.572748
64.330 18.772243
64.335 18.441427
64.340 18.235445
64.345 17.726906
64.350 17.616426
64.355 18.455002
64.360 18.474255
64.365 18.267345
64.370 17.74847
64.375 17.239836
64.380 17.424978
64.385 17.166712
64.390 16.951412
64.395 16.986973
64.400 17.249701
64.405 17.739035
64.410 17.778629
64.415 17.572073
64.420 17.428862
64.425 17.236059
64.430 17.252918
64.435 17.71637
64.440 17.817381
64.445 18.21389
64.450 18.42963
64.455 18.769808
64.460 18.681139
64.465 18.580822
64.470 18.206879
64.475 18.435087
64.480 18.312864
64.485 18.515755
64.490 18.616907
64.495 18.990475
64.500 18.904396
64.505 19.156446
64.510 19.039679
64.515 19.093422
64.520 19.117203
64.525 19.040192
64.530 18.657001
64.535 18.588198
64.540 18.46133
64.545 18.275337
64.550 18.347885
64.555 18.485079
64.560 18.749437
64.565 18.81505
64.570 19.028496
64.575 18.553139
64.580 18.474026
64.585 18.197521
64.590 17.757408
64.595 17.613903
64.600 17.66704
64.605 17.973129
64.610 18.699709
64.615 19.607262
64.620 20.031096
64.625 20.13591
64.630 20.339035
64.635 20.561707
64.640 20.447496
64.645 20.255255
64.650 19.58399
64.655 19.135908
64.660 19.26482
64.665 18.960869
64.670 18.620852
64.675 18.679489
64.680 18.369713
64.685 18.668043
64.690 19.069384
64.695 19.6945
64.700 20.304226
64.705 20.321295
64.710 19.624596
64.715 19.523319
64.720 19.748163
64.725 19.711779
64.730 19.035753
64.735 18.739586
64.740 19.247004
64.745 20.029367
64.750 20.066835
64.755 20.120794
64.760 20.356499
64.765 20.617241
64.770 20.670303
64.775 20.751232
64.780 20.563482
64.785 21.09333
64.790 20.775267
64.795 20.208811
64.800 19.908279
64.805 20.397968
64.810 19.809349
64.815 19.706018
64.820 19.16972
64.825 19.161098
64.830 19.930527
64.835 20.508614
64.840 20.602268
64.845 20.95067
64.850 20.817289
64.855 21.395697
64.860 21.536489
64.865 21.100592
64.870 20.8508
64.875 20.235432
64.880 20.536766
64.885 20.713085
64.890 20.68856
64.895 20.739216
64.900 20.61956
64.905 19.791933
64.910 19.660482
64.915 18.943953
64.920 20.037313
64.925 20.38875
64.930 20.717203
64.935 20.67131
64.940 21.197958
64.945 21.276825
64.950 21.536255
64.955 21.043131
64.960 20.676466
64.965 20.655134
64.970 20.842245
64.975 20.973146
64.980 21.545277
64.985 21.758614
64.990 22.035685
64.995 21.767363
65.000 21.141531
65.005 21.136868
65.010 21.25057
65.015 21.430616
65.020 22.478464
65.025 22.227425
65.030 22.547298
65.035 22.808117
65.040 22.686056
65.045 22.865902
65.050 23.310696
65.055 22.517431
65.060 22.653049
65.065 22.427637
65.070 22.776802
65.075 22.887276
65.080 22.294872
65.085 21.736366
65.090 21.396471
65.095 21.271101
65.100 21.664711
65.105 21.520767
65.110 21.58794
65.115 22.309956
65.120 22.774342
65.125 22.986744
65.130 23.608206
65.135 23.428671
65.140 23.641518
65.145 23.857889
65.150 22.718311
65.155 22.079737
65.160 22.184828
65.165 22.28236
65.170 22.876011
65.175 23.450659
65.180 23.613138
65.185 23.785006
65.190 23.805586
65.195 23.572664
65.200 23.06015
65.205 23.306982
65.210 22.897257
65.215 22.91884
65.220 23.407894
65.225 23.273848
65.230 22.937744
65.235 22.649412
65.240 21.908758
65.245 21.694084
65.250 21.666597
65.255 22.01236
65.260 22.624456
65.265 23.01173
65.270 22.780273
65.275 22.745708
65.280 22.447323
65.285 21.96649
65.290 21.297691
65.295 20.975328
65.300 20.549681
65.305 20.733137
65.310 21.088572
65.315 21.347868
65.320 21.520332
65.325 21.933825
65.330 22.369335
65.335 23.25853
65.340 23.736643
65.345 23.778025
65.350 23.914982
65.355 24.008471
65.360 23.755152
65.365 23.688881
65.370 23.214581
65.375 22.425289
65.380 22.517111
65.385 22.377029
65.390 22.908432
65.395 23.153368
65.400 22.816589
65.405 22.771597
65.410 22.925215
65.415 22.765844
65.420 22.809958
65.425 22.517778
65.430 22.596111
65.435 23.161192
65.440 23.675138
65.445 24.231024
65.450 24.319624
65.455 24.350187
65.460 24.535349
65.465 24.594202
65.470 24.296673
65.475 24.453093
65.480 24.608171
65.485 24.673018
65.490 24.523821
65.495 24.586445
65.500 24.337923
65.505 24.320066
65.510 23.722
65.515 23.048515
65.520 23.768585
65.525 24.166483
65.530 24.060694
65.535 24.382357
65.540 24.34848
65.545 24.923195
65.550 25.581816
65.555 25.50765
65.560 25.650419
65.565 25.613749
65.570 25.773085
65.575 26.712599
65.580 27.358416
65.585 26.946312
65.590 26.411823
65.595 26.673653
65.600 26.598417
65.605 27.075869
65.610 26.948996
65.615 26.79702
65.620 27.385698
65.625 27.878656
65.630 27.560282
65.635 28.499386
65.640 28.001499
65.645 27.49991
65.650 26.964804
65.655 26.84721
65.660 26.591045
65.665 26.959738
65.670 27.281885
65.675 28.187206
65.680 28.743193
65.685 29.077513
65.690 29.573305
65.695 30.389458
65.700 30.154617
65.705 29.224724
65.710 28.541523
65.715 28.641544
65.720 28.890718
65.725 28.621656
65.730 28.791866
65.735 28.945292
65.740 29.550854
65.745 29.571215
65.750 29.292963
65.755 29.32756
65.760 29.452852
65.765 29.115032
65.770 29.385311
65.775 28.885344
65.780 29.265728
65.785 29.904613
65.790 30.184353
65.795 30.310993
65.800 30.922115
65.805 31.066181
65.810 31.8689
65.815 32.130058
65.820 32.716766
65.825 32.585594
65.830 32.907093
65.835 33.084072
65.840 33.613403
65.845 33.793556
65.850 33.630009
65.855 33.933468
65.860 34.471493
65.865 34.911747
65.870 34.654095
65.875 34.302456
65.880 34.062717
65.885 33.878998
65.890 33.788765
65.895 33.844799
65.900 33.694294
65.905 33.464375
65.910 33.725189
65.915 33.746204
65.920 33.927422
65.925 33.418587
65.930 32.525215
65.935 31.927652
65.940 32.278732
65.945 32.277542
65.950 32.653915
65.955 32.725838
65.960 33.362888
65.965 34.789577
65.970 35.333698
65.975 34.745041
65.980 33.994049
65.985 34.000954
65.990 34.46397
65.995 34.298141
66.000 33.204967
66.005 33.003857
66.010 33.354908
66.015 33.755066
66.020 33.757996
66.025 33.182404
66.030 33.186764
66.035 33.993893
66.040 34.402161
66.045 34.494522
66.050 33.942341
66.055 33.929279
66.060 34.615204
66.065 34.169399
66.070 33.828991
66.075 33.489098
66.080 33.760059
66.085 34.037781
66.090 33.247047
66.095 32.612019
66.100 32.256023
66.105 31.918926
66.110 31.942026
66.115 31.726685
66.120 31.341005
66.125 31.695732
66.130 31.944641
66.135 32.51059
66.140 32.603645
66.145 32.781891
66.150 32.315895
66.155 32.254814
66.160 32.056068
66.165 31.817295
66.170 31.901045
66.175 31.626177
66.180 31.305111
66.185 31.563799
66.190 32.307869
66.195 32.354038
66.200 32.437016
66.205 31.986893
66.210 31.893076
66.215 32.63414
66.220 33.164871
66.225 33.141212
66.230 33.758549
66.235 33.751171
66.240 33.94191
66.245 33.908138
66.250 33.240932
66.255 33.389694
66.260 33.433678
66.265 33.286137
66.270 33.21225
66.275 32.829781
66.280 33.40073
66.285 33.020634
66.290 32.250488
66.295 31.401768
66.300 30.960218
66.305 30.514881
66.310 30.427458
66.315 29.778265
66.320 29.774754
66.325 29.915014
66.330 30.515753
66.335 30.373419
66.340 31.012905
66.345 31.203472
66.350 31.715487
66.355 31.935806
66.360 32.161411
66.365 31.76849
66.370 31.638432
66.375 30.544649
66.380 30.33625
66.385 29.129391
66.390 28.685228
66.395 28.227587
66.400 28.068428
66.405 28.177483
66.410 28.094402
66.415 27.883547
66.420 27.729361
66.425 27.508739
66.430 27.326586
66.435 27.408218
66.440 27.69804
66.445 28.432219
66.450 28.403065
66.455 28.662441
66.460 28.989771
66.465 28.597343
66.470 27.977886
66.475 27.114065
66.480 26.621466
66.485 26.706888
66.490 26.115982
66.495 25.989113
66.500 26.245958
66.505 26.61298
66.510 26.377853
66.515 25.787546
66.520 25.50119
66.525 25.355448
66.530 24.616434
66.535 24.585266
66.540 24.907265
66.545 25.449341
66.550 25.984947
66.555 26.012068
66.560 26.274137
66.565 26.768221
66.570 26.014505
66.575 25.396763
66.580 24.717604
66.585 23.98818
66.590 24.078806
66.595 24.046633
66.600 23.715508
66.605 24.321457
66.610 24.624731
66.615 24.65424
66.620 25.506151
66.625 24.769655
66.630 24.862947
66.635 24.400305
66.640 23.843439
66.645 23.488043
66.650 23.436741
66.655 23.035282
66.660 22.843674
66.665 22.509827
66.670 23.117451
66.675 23.183577
66.680 23.258938
66.685 23.348555
66.690 23.569679
66.695 23.477448
66.700 23.367798
66.705 23.090117
66.710 23.617027
66.715 23.65147
66.720 23.488552
66.725 23.129244
66.730 23.046455
66.735 22.535894
66.740 22.449381
66.745 21.837519
66.750 21.560841
66.755 21.308067
66.760 21.295822
66.765 21.414064
66.770 21.729351
66.775 22.061026
66.780 22.946232
66.785 23.386648
66.790 23.319397
66.795 23.55629
66.800 23.855341
66.805 23.624655
66.810 22.846895
66.815 21.701115
66.820 21.244385
66.825 21.474066
66.830 21.215109
66.835 21.311811
66.840 21.592781
66.845 22.05892
66.850 22.551044
66.855 22.886742
66.860 22.685503
66.865 23.263924
66.870 22.908686
66.875 22.501028
66.880 22.022089
66.885 21.922323
66.890 21.865021
66.895 21.455576
66.900 20.963995
66.905 20.951567
66.910 20.607265
66.915 20.657782
66.920 20.497141
66.925 20.260868
66.930 20.132128
66.935 19.992987
66.940 20.13703
66.945 20.426437
66.950 20.604248
66.955 20.673597
66.960 20.743834
66.965 21.02655
66.970 20.894306
66.975 20.747011
66.980 21.088425
66.985 20.792776
66.990 20.845055
66.995 20.803907
67.000 20.189737
67.005 20.363508
67.010 20.57522
67.015 20.357635
67.020 20.458347
67.025 20.178915
67.030 20.281698
67.035 20.919092
67.040 20.465509
67.045 20.29698
67.050 20.682732
67.055 20.940777
67.060 20.848385
67.065 20.372198
67.070 20.138901
67.075 20.439163
67.080 20.455372
67.085 20.090683
67.090 20.48501
67.095 21.322996
67.100 21.726665
67.105 21.624695
67.110 21.728771
67.115 22.065878
67.120 22.275326
67.125 21.703939
67.130 21.444914
67.135 21.416086
67.140 21.623442
67.145 21.878023
67.150 21.456982
67.155 21.391762
67.160 21.368526
67.165 21.194426
67.170 21.131023
67.175 21.036905
67.180 21.126984
67.185 21.171686
67.190 21.00618
67.195 20.841005
67.200 20.973875
67.205 21.171106
67.210 21.512529
67.215 21.548744
67.220 21.933765
67.225 21.874359
67.230 21.343365
67.235 21.362932
67.240 21.246359
67.245 20.060732
67.250 19.920393
67.255 19.547928
67.260 19.542662
67.265 19.993469
67.270 19.791466
67.275 20.014069
67.280 20.371593
67.285 19.816097
67.290 19.721453
67.295 19.913765
67.300 19.768
67.305 19.580984
67.310 18.90155
67.315 19.255171
67.320 19.56352
67.325 19.720686
67.330 19.574409
67.335 19.918726
67.340 20.19533
67.345 20.766434
67.350 20.485277
67.355 19.975718
67.360 19.485323
67.365 19.426744
67.370 19.312429
67.375 19.532101
67.380 19.590256
67.385 20.169966
67.390 20.438848
67.395 21.463146
67.400 21.978777
67.405 21.613562
67.410 21.580584
67.415 20.833794
67.420 20.385326
67.425 20.478804
67.430 19.846842
67.435 19.288233
67.440 19.305483
67.445 19.443369
67.450 19.897461
67.455 20.601845
67.460 20.806103
67.465 20.529474
67.470 20.806326
67.475 20.98517
67.480 20.578327
67.485 21.372196
67.490 21.115049
67.495 20.894644
67.500 21.041748
67.505 20.882755
67.510 21.171494
67.515 21.723415
67.520 20.864502
67.525 20.937933
67.530 21.52725
67.535 21.865856
67.540 22.3235
67.545 22.098055
67.550 22.347029
67.555 22.769337
67.560 22.283852
67.565 22.008444
67.570 22.018589
67.575 21.531916
67.580 21.450575
67.585 20.940769
67.590 20.056595
67.595 19.848864
67.600 19.902645
67.605 19.788803
67.610 20.004469
67.615 19.453375
67.620 19.721426
67.625 19.910568
67.630 19.952097
67.635 19.886219
67.640 19.38649
67.645 19.576715
67.650 20.245115
67.655 20.086424
67.660 20.173706
67.665 20.422586
67.670 20.40847
67.675 20.340376
67.680 19.6654
67.685 19.13155
67.690 18.816673
67.695 19.160177
67.700 19.030062
67.705 19.147411
67.710 19.85388
67.715 20.052649
67.720 20.559803
67.725 21.07526
67.730 20.890747
67.735 20.651415
67.740 21.100916
67.745 21.163824
67.750 21.543018
67.755 20.981569
67.760 20.621136
67.765 20.56893
67.770 20.68224
67.775 20.59729
67.780 19.976824
67.785 19.213448
67.790 19.231737
67.795 19.142956
67.800 19.269859
67.805 18.838308
67.810 17.988924
67.815 17.765657
67.820 18.354673
67.825 18.566526
67.830 18.5585
67.835 18.713701
67.840 18.681128
67.845 18.580158
67.850 18.460323
67.855 18.477219
67.860 18.708279
67.865 19.063286
67.870 18.972586
67.875 18.952028
67.880 19.444809
67.885 19.313471
67.890 19.377672
67.895 19.140228
67.900 19.181282
67.905 19.337351
67.910 19.38776
67.915 19.499203
67.920 20.135611
67.925 19.959358
67.930 19.886328
67.935 19.706287
67.940 19.330217
67.945 19.429401
67.950 20.242414
67.955 20.386538
67.960 20.184332
67.965 20.331091
67.970 20.514473
67.975 20.88014
67.980 20.570431
67.985 19.931973
67.990 20.124147
67.995 20.032705
68.000 19.358282
68.005 19.027697
68.010 19.073271
68.015 19.187088
68.020 19.090425
68.025 19.038723
68.030 19.663206
68.035 20.168783
68.040 20.377121
68.045 20.358219
68.050 20.389742
68.055 20.267691
68.060 19.878845
68.065 19.944084
68.070 20.040653
68.075 20.111759
68.080 20.471111
68.085 20.409697
68.090 19.990265
68.095 19.563251
68.100 19.485571
68.105 19.355526
68.110 19.165737
68.115 19.210585
68.120 19.181463
68.125 19.197058
68.130 20.126356
68.135 20.584591
68.140 20.838255
68.145 20.52813
68.150 20.492548
68.155 20.41687
68.160 20.669613
68.165 19.642759
68.170 18.548265
68.175 18.546024
68.180 19.055712
68.185 19.645046
68.190 20.463287
68.195 20.909073
68.200 21.184734
68.205 21.527613
68.210 21.593937
68.215 21.384209
68.220 21.004503
68.225 20.314226
68.230 20.0742
68.235 19.711143
68.240 19.951138
68.245 19.684118
68.250 19.475132
68.255 19.294785
68.260 19.622229
68.265 19.793634
68.270 20.215048
68.275 20.623667
68.280 21.113777
68.285 21.433424
68.290 21.331835
68.295 21.843077
68.300 22.105751
68.305 21.84498
68.310 21.516512
68.315 21.846062
68.320 21.144613
68.325 21.146202
68.330 20.319033
68.335 19.615921
68.340 19.659443
68.345 19.596214
68.350 19.501585
68.355 19.796511
68.360 19.633587
68.365 19.870144
68.370 20.787788
68.375 20.852356
68.380 20.397821
68.385 20.533504
68.390 21.083046
68.395 21.130953
68.400 20.92692
68.405 20.826885
68.410 20.924164
68.415 21.546783
68.420 21.382391
68.425 21.062506
68.430 20.917345
68.435 20.776758
68.440 20.557182
68.445 20.823051
68.450 20.175076
68.455 19.894581
68.460 20.150417
68.465 20.435053
68.470 21.079662
68.475 21.042439
68.480 20.566051
68.485 20.800207
68.490 20.244555
68.495 19.603037
68.500 19.619713
68.505 19.295275
68.510 19.07003
68.515 19.303949
68.520 19.676289
68.525 19.964148
68.530 20.275328
68.535 20.372999
68.540 20.648142
68.545 20.954372
68.550 20.650555
68.555 20.321417
68.560 20.991747
68.565 21.257498
68.570 21.095098
68.575 20.995693
68.580 20.803722
68.585 20.929216
68.590 20.348375
68.595 19.953705
68.600 19.975239
68.605 19.962032
68.610 20.081305
68.615 19.993616
68.620 20.247993
68.625 21.069464
68.630 20.521734
68.635 19.942358
68.640 19.78701
68.645 19.943962
68.650 19.976067
68.655 19.287975
68.660 19.197178
68.665 19.649488
68.670 20.24556
68.675 20.792984
68.680 20.493845
68.685 21.205345
68.690 21.7097
68.695 21.361641
68.700 21.194242
68.705 20.697445
68.710 20.692123
68.715 21.168638
68.720 21.219225
68.725 20.538363
68.730 20.82486
68.735 21.485867
68.740 21.175579
68.745 20.508841
68.750 20.257782
68.755 19.907028
68.760 20.709118
68.765 20.346972
68.770 20.303982
68.775 21.00597
68.780 21.535645
68.785 21.647665
68.790 21.695332
68.795 21.476936
68.800 21.830896
68.805 21.468437
68.810 21.306894
68.815 21.383978
68.820 21.033157
68.825 20.923115
68.830 20.393744
68.835 21.135675
68.840 21.440323
68.845 21.297644
68.850 21.274874
68.855 21.62233
68.860 22.028837
68.865 22.714968
68.870 21.754654
68.875 21.549168
68.880 21.422951
68.885 21.166281
68.890 21.122398
68.895 21.315014
68.900 21.435194
68.905 21.477036
68.910 21.745773
68.915 22.036598
68.920 21.973726
68.925 21.925222
68.930 21.962021
68.935 22.116604
68.940 21.988659
68.945 21.713182
68.950 20.991177
68.955 20.924109
68.960 20.819408
68.965 20.943508
68.970 20.994308
68.975 21.820751
68.980 21.996572
68.985 23.100443
68.990 23.667236
68.995 23.687775
69.000 23.534636
69.005 23.289785
69.010 22.947845
69.015 22.469257
69.020 21.334135
69.025 21.36162
69.030 21.258957
69.035 21.734959
69.040 22.15447
69.045 22.111
69.050 23.169579
69.055 23.881699
69.060 24.033379
69.065 24.159359
69.070 23.989628
69.075 24.263546
69.080 24.829651
69.085 24.240364
69.090 24.812222
69.095 24.702873
69.100 25.35581
69.105 25.368849
69.110 24.805168
69.115 24.790154
69.120 25.13233
69.125 25.097841
69.130 25.028931
69.135 24.248932
69.140 23.9165
69.145 24.485207
69.150 24.178537
69.155 23.926306
69.160 23.769156
69.165 23.9461
69.170 24.493834
69.175 24.831421
69.180 24.749678
69.185 25.209406
69.190 25.418413
69.195 24.888279
69.200 24.636866
69.205 24.924568
69.210 24.549271
69.215 23.687315
69.220 23.203749
69.225 23.503323
69.230 24.031006
69.235 24.04002
69.240 23.727049
69.245 24.156105
69.250 23.871153
69.255 23.798113
69.260 23.689806
69.265 23.698334
69.270 23.882462
69.275 23.57412
69.280 23.605894
69.285 24.614033
69.290 24.925741
69.295 25.197954
69.300 25.113516
69.305 24.940681
69.310 25.671705
69.315 25.706892
69.320 25.998768
69.325 26.039827
69.330 25.826044
69.335 26.041174
69.340 26.577883
69.345 26.677105
69.350 26.226549
69.355 25.900675
69.360 26.150822
69.365 25.923191
69.370 25.491421
69.375 25.930227
69.380 27.069294
69.385 27.541708
69.390 28.138325
69.395 27.665251
69.400 27.680441
69.405 27.36974
69.410 26.798141
69.415 25.964191
69.420 25.122217
69.425 24.459187
69.430 24.881071
69.435 25.34053
69.440 25.849854
69.445 25.693647
69.450 26.038422
69.455 26.542385
69.460 27.201139
69.465 27.517035
69.470 27.120062
69.475 27.239794
69.480 27.779833
69.485 27.746235
69.490 28.058969
69.495 28.220387
69.500 28.565861
69.505 28.766672
69.510 28.908539
69.515 28.737461
69.520 28.891357
69.525 28.300791
69.530 27.433805
69.535 27.027136
69.540 26.817284
69.545 26.736294
69.550 26.750921
69.555 26.949238
69.560 27.265886
69.565 27.192732
69.570 27.582743
69.575 28.474398
69.580 28.228882
69.585 27.686756
69.590 27.895704
69.595 27.241579
69.600 26.794285
69.605 26.122627
69.610 25.691168
69.615 25.57766
69.620 25.532717
69.625 25.340979
69.630 25.811895
69.635 25.549587
69.640 25.378351
69.645 25.296202
69.650 25.524035
69.655 25.829548
69.660 26.319805
69.665 26.58065
69.670 26.915432
69.675 27.125465
69.680 27.28163
69.685 27.220295
69.690 26.562973
69.695 26.233116
69.700 26.270117
69.705 26.337545
69.710 26.904678
69.715 27.417986
69.720 27.202335
69.725 27.263657
69.730 26.793083
69.735 27.029301
69.740 27.173311
69.745 26.311609
69.750 26.049652
69.755 26.581173
69.760 26.713144
69.765 26.743074
69.770 26.234695
69.775 25.45961
69.780 25.224552
69.785 24.865841
69.790 24.102951
69.795 24.411602
69.800 24.673721
69.805 24.841932
69.810 25.494408
69.815 26.24334
69.820 26.278622
69.825 26.466381
69.830 26.866051
69.835 26.458744
69.840 26.211491
69.845 25.451283
69.850 24.450163
69.855 24.419718
69.860 23.820347
69.865 22.772394
69.870 23.244837
69.875 23.628691
69.880 23.892056
69.885 23.954205
69.890 23.683617
69.895 23.768686
69.900 23.611296
69.905 23.196484
69.910 23.146782
69.915 22.692196
69.920 22.487383
69.925 22.655222
69.930 22.333324
69.935 22.502197
69.940 22.201719
69.945 21.801222
69.950 22.006701
69.955 21.622549
69.960 21.754293
69.965 21.849031
69.970 21.849531
69.975 22.244736
69.980 22.298994
69.985 22.26005
69.990 22.991257
69.995 23.095867
70.000 22.4247
70.005 21.374483
70.010 21.052052
70.015 20.975882
70.020 21.280087
70.025 20.68928
70.030 20.317095
70.035 20.955399
70.040 21.286812
70.045 20.4398
70.050 19.897823
70.055 19.699339
70.060 19.658718
70.065 19.57435
70.070 18.669746
70.075 18.793476
70.080 19.576363
70.085 19.625076
70.090 19.566755
70.095 19.537848
70.100 19.115294
70.105 19.377298
70.110 19.289082
70.115 18.875395
70.120 18.670439
70.125 18.519516
70.130 18.648367
70.135 18.676723
70.140 18.920097
70.145 18.792898
70.150 19.263214
70.155 19.063934
70.160 19.134653
70.165 19.302399
70.170 19.401649
70.175 19.062004
70.180 19.399687
70.185 19.292334
70.190 19.352303
70.195 19.632717
70.200 19.757963
70.205 20.19034
70.210 19.560455
70.215 19.432499
70.220 19.499842
70.225 19.875011
70.230 19.289591
70.235 19.423309
70.240 19.933401
70.245 20.446161
70.250 20.319115
70.255 20.292715
70.260 20.158144
70.265 20.13843
70.270 19.69105
70.275 19.493034
70.280 19.765387
70.285 19.421814
70.290 19.523375
70.295 19.522232
70.300 19.490473
70.305 19.711565
70.310 19.286171
70.315 19.234131
70.320 19.258068
70.325 19.225431
70.330 18.981007
70.335 18.993126
70.340 18.541483
70.345 18.579649
70.350 18.880787
70.355 19.283232
70.360 19.139355
70.365 18.959534
70.370 18.718784
70.375 18.493912
70.380 18.386166
70.385 17.646217
70.390 17.370598
70.395 17.725643
70.400 18.011902
70.405 17.959045
70.410 18.085697
70.415 17.943073
70.420 17.755621
70.425 17.473242
70.430 17.086885
70.435 17.10742
70.440 17.390591
70.445 17.54611
70.450 17.51391
70.455 18.56838
70.460 18.912642
70.465 18.920162
70.470 18.714552
70.475 19.127537
70.480 19.345451
70.485 18.98074
70.490 18.192291
70.495 17.639282
70.500 18.308577
70.505 18.511059
70.510 17.959126
70.515 17.9354
70.520 18.936647
70.525 19.658234
70.530 19.526651
70.535 19.049515
70.540 19.116362
70.545 19.678019
70.550 19.593672
70.555 19.162901
70.560 19.266397
70.565 19.896852
70.570 19.53544
70.575 19.30547
70.580 19.307035
70.585 19.234076
70.590 19.378075
70.595 19.962061
70.600 20.089758
70.605 20.302671
70.610 20.652647
70.615 20.924603
70.620 21.670586
70.625 21.337746
70.630 20.353531
70.635 19.66914
70.640 19.2376
70.645 19.099297
70.650 18.942659
70.655 18.661676
70.660 18.611828
70.665 18.769213
70.670 19.083317
70.675 18.891882
70.680 18.274719
70.685 17.488031
70.690 17.751074
70.695 18.027313
70.700 18.511267
70.705 18.431345
70.710 18.410685
70.715 18.508604
70.720 18.661068
70.725 18.116047
70.730 17.333538
70.735 17.247557
70.740 17.793419
70.745 17.971437
70.750 17.839151
70.755 17.899986
70.760 17.615492
70.765 17.793032
70.770 17.400862
70.775 17.678289
70.780 17.917082
70.785 17.559578
70.790 17.334661
70.795 17.4069
70.800 17.655859
70.805 17.981482
70.810 17.3337
70.815 17.760965
70.820 18.579193
70.825 18.181803
70.830 18.257652
70.835 18.235882
70.840 18.00976
70.845 17.916306
70.850 17.211452
70.855 16.751499
70.860 16.952101
70.865 17.386402
70.870 17.644392
70.875 17.489079
70.880 17.521816
70.885 17.42812
70.890 18.092497
70.895 17.604631
70.900 17.240221
70.905 17.193428
70.910 17.656935
70.915 18.404589
70.920 19.096426
70.925 19.780493
70.930 20.958376
70.935 20.983618
70.940 21.047539
70.945 21.059338
70.950 20.763514
70.955 20.215269
70.960 19.822613
70.965 19.375404
70.970 19.422642
70.975 19.085421
70.980 19.234257
70.985 18.927443
70.990 18.874155
70.995 18.723326
71.000 18.550501
71.005 18.135284
71.010 18.208426
71.015 18.469616
71.020 18.814787
71.025 19.25178
71.030 19.49367
71.035 19.76264
71.040 20.150208
71.045 20.195711
71.050 20.227161
71.055 20.604151
71.060 20.623432
71.065 20.307339
71.070 19.817844
71.075 19.355749
71.080 18.450472
71.085 18.533747
71.090 18.194302
71.095 18.297508
71.100 18.595387
71.105 18.834965
71.110 19.857635
71.115 20.174135
71.120 19.553061
71.125 19.256025
71.130 19.053957
71.135 18.766832
71.140 18.509836
71.145 17.890226
71.150 18.229534
71.155 17.942772
71.160 17.390219
71.165 16.637587
71.170 17.05372
71.175 16.943113
71.180 16.692541
71.185 16.389359
71.190 16.863214
71.195 17.588972
71.200 18.709915
71.205 18.469229
71.210 18.983124
71.215 19.241476
71.220 18.945585
71.225 19.291698
71.230 18.870399
71.235 18.42465
71.240 18.312164
71.245 18.235928
71.250 18.907654
71.255 19.240759
71.260 19.047325
71.265 19.101343
71.270 19.290028
71.275 19.262201
71.280 18.828125
71.285 18.455132
71.290 18.535395
71.295 18.536022
71.300 18.823418
71.305 18.965811
71.310 18.699026
71.315 18.639053
71.320 18.616228
71.325 18.553032
71.330 18.177912
71.335 17.94795
71.340 17.843895
71.345 18.523619
71.350 18.792261
71.355 18.436926
71.360 18.092798
71.365 18.925884
71.370 19.2962
71.375 19.728827
71.380 19.725382
71.385 19.789253
71.390 19.813852
71.395 19.77478
71.400 19.570982
71.405 19.365742
71.410 19.558905
71.415 19.717569
71.420 19.554592
71.425 19.264452
71.430 18.8386
71.435 18.380106
71.440 17.615326
71.445 17.237082
71.450 17.420248
71.455 18.032782
71.460 17.907986
71.465 17.880386
71.470 17.703146
71.475 17.89109
71.480 17.343929
71.485 17.151312
71.490 17.087561
71.495 17.655535
71.500 18.128008
71.505 18.060593
71.510 17.92075
71.515 18.084457
71.520 18.454927
71.525 18.390221
71.530 17.981546
71.535 18.386915
71.540 18.067781
71.545 18.608458
71.550 18.291203
71.555 17.645258
71.560 18.053421
71.565 17.754148
71.570 17.762161
71.575 17.664654
71.580 17.769272
71.585 18.071814
71.590 18.336449
71.595 18.218504
71.600 18.142387
71.605 18.782579
71.610 19.130093
71.615 18.989742
71.620 18.954264
71.625 18.521652
71.630 18.920288
71.635 18.859362
71.640 18.414228
71.645 18.380075
71.650 18.130564
71.655 17.669567
71.660 17.819916
71.665 17.661438
71.670 17.645048
71.675 17.948191
71.680 18.134012
71.685 18.424061
71.690 18.796553
71.695 18.604401
71.700 18.789612
71.705 18.145767
71.710 17.322266
71.715 16.425201
71.720 16.18856
71.725 15.565891
71.730 15.75738
71.735 15.674867
71.740 16.600946
71.745 17.590847
71.750 17.964676
71.755 18.360434
71.760 18.773968
71.765 18.208492
71.770 17.891981
71.775 17.12681
71.780 17.341301
71.785 17.913343
71.790 17.835653
71.795 18.234615
71.800 18.773703
71.805 19.330128
71.810 19.285875
71.815 19.167358
71.820 19.226112
71.825 18.704485
71.830 18.668739
71.835 18.350861
71.840 18.409727
71.845 18.102087
71.850 18.0159
71.855 17.778751
71.860 17.797253
71.865 17.989235
71.870 18.298233
71.875 18.784159
71.880 18.559292
71.885 18.117416
71.890 18.066856
71.895 18.06101
71.900 17.850737
71.905 17.730276
71.910 17.486395
71.915 16.972893
71.920 16.68807
71.925 16.505177
71.930 16.278772
71.935 16.184755
71.940 15.505465
71.945 15.797893
71.950 16.431564
71.955 16.680412
71.960 17.278585
71.965 17.560581
71.970 17.379213
71.975 17.710159
71.980 17.905214
71.985 18.138382
71.990 18.15852
71.995 17.535109
72.000 17.145224
72.005 17.184793
72.010 17.280285
72.015 16.698441
72.020 16.951647
72.025 16.675783
72.030 16.309513
72.035 16.764984
72.040 17.062849
72.045 16.74053
72.050 16.948759
72.055 17.078205
72.060 17.798958
72.065 18.480324
72.070 18.114843
72.075 18.147121
72.080 17.674498
72.085 16.895359
72.090 16.307884
72.095 16.133965
72.100 16.306974
72.105 16.555977
72.110 16.474138
72.115 16.799311
72.120 16.906549
72.125 16.823509
72.130 17.14773
72.135 16.623459
72.140 16.375422
72.145 16.316465
72.150 16.346409
72.155 16.392025
72.160 16.560986
72.165 16.632694
72.170 17.144798
72.175 17.568771
72.180 18.266264
72.185 18.665293
72.190 18.56782
72.195 18.307859
72.200 18.188595
72.205 17.792126
72.210 17.234785
72.215 16.049757
72.220 15.871052
72.225 16.180923
72.230 16.615574
72.235 16.653389
72.240 16.373423
72.245 16.952711
72.250 17.89813
72.255 18.573763
72.260 19.018232
72.265 18.740841
72.270 19.026205
72.275 19.435431
72.280 18.891474
72.285 18.517935
72.290 17.789949
72.295 17.201082
72.300 17.266584
72.305 17.413887
72.310 17.358242
72.315 18.124126
72.320 18.009247
72.325 18.022896
72.330 18.278679
72.335 18.481386
72.340 18.846426
72.345 19.109499
72.350 18.778517
72.355 18.705776
72.360 18.903574
72.365 18.777699
72.370 18.682419
72.375 18.905457
72.380 19.18816
72.385 19.655823
72.390 19.618168
72.395 19.54439
72.400 19.062805
72.405 18.587679
72.410 17.917387
72.415 17.786699
72.420 17.991917
72.425 18.162394
72.430 18.048189
72.435 18.201508
72.440 17.853222
72.445 17.544083
72.450 17.361343
72.455 17.373919
72.460 17.502901
72.465 17.638842
72.470 17.479759
72.475 18.169971
72.480 18.182331
72.485 17.240835
72.490 16.638832
72.495 16.031069
72.500 15.460564
72.505 15.381251
72.510 14.728347
72.515 14.770226
72.520 15.602497
72.525 15.586435
72.530 16.077499
72.535 16.950211
72.540 16.966572
72.545 16.924339
72.550 17.059742
72.555 17.405876
72.560 17.607841
72.565 17.575928
72.570 17.410599
72.575 17.647812
72.580 18.033743
72.585 17.123749
72.590 16.714609
72.595 16.796873
72.600 16.950396
72.605 17.096195
72.610 17.223537
72.615 17.351181
72.620 18.067024
72.625 18.264418
72.630 17.979279
72.635 17.50322
72.640 17.185034
72.645 17.200277
72.650 17.35927
72.655 17.109865
72.660 17.156229
72.665 17.48562
72.670 17.445341
72.675 17.327011
72.680 16.559174
72.685 16.453833
72.690 16.773907
72.695 16.830214
72.700 16.678751
72.705 16.383898
72.710 16.048075
72.715 16.341913
72.720 15.545705
72.725 14.946929
72.730 14.975763
72.735 15.095037
72.740 15.08643
72.745 15.449084
72.750 15.660219
72.755 15.960586
72.760 15.932862
72.765 15.839768
72.770 16.014706
72.775 16.609447
72.780 16.355576
72.785 16.518044
72.790 17.26527
72.795 17.11071
72.800 16.842464
72.805 16.8745
72.810 16.834202
72.815 16.641354
72.820 16.087866
72.825 15.755641
72.830 16.144779
72.835 16.151211
72.840 16.019209
72.845 15.892223
72.850 16.215673
72.855 16.337523
72.860 16.027924
72.865 15.652971
72.870 15.997237
72.875 15.745748
72.880 15.47475
72.885 15.466588
72.890 15.347217
72.895 15.851907
72.900 15.813426
72.905 15.521605
72.910 16.121164
72.915 15.921544
72.920 15.879433
72.925 16.345688
72.930 16.710163
72.935 16.759243
72.940 17.178667
72.945 17.089262
72.950 17.26206
72.955 17.487625
72.960 16.698345
72.965 16.682346
72.970 16.8328
72.975 16.640341
72.980 16.988791
72.985 17.221897
72.990 16.552843
72.995 16.473543
73.000 16.030001
