!@!!GADDS PLOTSO FILE: Chi integration type
!@!!Title/SampleName: map-4b
!@!!Comment: ?
!@!!User: Bruker Instrument Administrator
!@!!Site: University of Illinois Chicago
!@!!Frame: map-4b_01_000.gfrm
!@!!Wavelengths    1.54184   1.54056   1.54439
!@!!Frame angles: 2Theta: 63.000 Omega: 50.000 Phi: 0.000 Chi: 90.000
!@!!Integration range: 2Theta: 53.000 to 73.000  Gamma: -105.000 to -75.000
!@!!Integration method: bin normalized
!@!N
!@!SS
!@!M
!@!L 0.0 0.0 0.0 0.0
!@!XDegrees
!@!YCounts
53.000 9.673999
53.005 9.704131
53.010 9.472408
53.015 9.058996
53.020 9.086292
53.025 9.525818
53.030 9.56006
53.035 9.362815
53.040 9.084965
53.045 9.447865
53.050 9.252656
53.055 9.261918
53.060 9.193936
53.065 9.107262
53.070 9.105354
53.075 9.351179
53.080 9.207533
53.085 9.168283
53.090 8.871826
53.095 8.986194
53.100 9.173321
53.105 9.211319
53.110 8.891901
53.115 9.11093
53.120 9.58088
53.125 9.72153
53.130 9.347604
53.135 9.30481
53.140 9.562886
53.145 9.614841
53.150 8.951888
53.155 9.137519
53.160 9.198485
53.165 9.121516
53.170 8.581085
53.175 8.510112
53.180 8.892884
53.185 9.368708
53.190 8.989358
53.195 8.860423
53.200 9.229036
53.205 9.923081
53.210 9.717301
53.215 9.665244
53.220 9.797999
53.225 9.818058
53.230 9.996994
53.235 9.832439
53.240 9.775809
53.245 9.803164
53.250 10.278025
53.255 10.646293
53.260 10.781735
53.265 11.135244
53.270 10.960483
53.275 10.988872
53.280 11.196061
53.285 10.755136
53.290 10.517443
53.295 10.282885
53.300 10.026121
53.305 9.709633
53.310 9.466601
53.315 9.002028
53.320 8.556169
53.325 8.682027
53.330 8.802526
53.335 9.308648
53.340 9.698235
53.345 9.673912
53.350 9.979907
53.355 10.130583
53.360 10.021687
53.365 9.99612
53.370 9.609454
53.375 9.669058
53.380 10.452596
53.385 10.479117
53.390 10.290469
53.395 10.345236
53.400 10.645481
53.405 11.013408
53.410 10.62594
53.415 10.684992
53.420 11.21315
53.425 11.015536
53.430 10.884858
53.435 10.674699
53.440 10.384461
53.445 9.959709
53.450 9.400639
53.455 9.356804
53.460 9.819747
53.465 10.30387
53.470 10.255672
53.475 10.810699
53.480 11.166792
53.485 11.429641
53.490 11.361197
53.495 11.074168
53.500 10.986708
53.505 10.969862
53.510 10.551111
53.515 10.668921
53.520 10.642637
53.525 10.380995
53.530 10.188507
53.535 9.963315
53.540 10.23674
53.545 10.334256
53.550 9.808417
53.555 9.862621
53.560 10.51337
53.565 10.562094
53.570 10.418871
53.575 10.476653
53.580 10.683625
53.585 11.028963
53.590 10.78442
53.595 10.411012
53.600 10.642879
53.605 10.932213
53.610 10.855361
53.615 11.192441
53.620 11.243976
53.625 11.311911
53.630 11.396992
53.635 11.390877
53.640 11.831286
53.645 11.769799
53.650 11.560911
53.655 11.382443
53.660 11.121799
53.665 10.994999
53.670 10.680032
53.675 10.302123
53.680 10.444429
53.685 10.224112
53.690 10.400563
53.695 10.707697
53.700 10.815755
53.705 10.780835
53.710 10.520809
53.715 10.280643
53.720 10.435376
53.725 10.652082
53.730 10.739751
53.735 10.908496
53.740 11.047647
53.745 11.041591
53.750 11.184972
53.755 11.359385
53.760 10.954901
53.765 10.86174
53.770 10.374006
53.775 10.269982
53.780 10.4024
53.785 10.518513
53.790 10.469292
53.795 10.860122
53.800 11.2107
53.805 11.683058
53.810 11.971225
53.815 12.328033
53.820 12.432623
53.825 12.311769
53.830 11.952478
53.835 12.063287
53.840 11.86286
53.845 11.68712
53.850 11.270943
53.855 11.233633
53.860 11.072157
53.865 10.829369
53.870 9.998578
53.875 9.521049
53.880 9.511114
53.885 9.499328
53.890 9.550484
53.895 10.145234
53.900 10.1795
53.905 10.740102
53.910 10.734957
53.915 11.085874
53.920 11.248792
53.925 11.446524
53.930 11.787344
53.935 12.388656
53.940 12.679349
53.945 12.350526
53.950 11.670004
53.955 11.235624
53.960 10.501764
53.965 9.990877
53.970 9.160135
53.975 8.995219
53.980 9.302147
53.985 9.451516
53.990 9.697
53.995 9.763539
54.000 10.190955
54.005 10.363067
54.010 10.449249
54.015 10.254385
54.020 10.379121
54.025 10.534837
54.030 10.296329
54.035 9.968475
54.040 10.103513
54.045 9.928442
54.050 10.267175
54.055 10.019924
54.060 10.322028
54.065 10.966857
54.070 11.259313
54.075 11.248732
54.080 11.466979
54.085 11.622739
54.090 11.867437
54.095 11.612105
54.100 11.206955
54.105 11.402328
54.110 11.506921
54.115 11.352308
54.120 11.140846
54.125 10.53197
54.130 10.172509
54.135 10.287955
54.140 10.50846
54.145 10.731057
54.150 10.976044
54.155 10.634708
54.160 10.887901
54.165 11.154748
54.170 11.185555
54.175 10.810313
54.180 10.886784
54.185 11.111503
54.190 11.608193
54.195 11.566131
54.200 11.43429
54.205 11.331346
54.210 11.2753
54.215 10.849524
54.220 10.524282
54.225 10.559811
54.230 10.865872
54.235 11.024545
54.240 11.072425
54.245 10.753881
54.250 11.28428
54.255 11.419956
54.260 11.413356
54.265 11.329674
54.270 11.332866
54.275 11.380076
54.280 11.35797
54.285 11.025798
54.290 10.880415
54.295 11.016397
54.300 10.892538
54.305 10.921041
54.310 11.207213
54.315 11.150356
54.320 11.233274
54.325 11.146748
54.330 11.316195
54.335 11.565149
54.340 11.543776
54.345 11.767084
54.350 12.314471
54.355 12.613766
54.360 13.00679
54.365 12.922946
54.370 12.868474
54.375 12.459468
54.380 11.911497
54.385 11.311643
54.390 10.699173
54.395 10.341648
54.400 10.22091
54.405 10.448097
54.410 10.580892
54.415 10.440822
54.420 10.631021
54.425 10.806417
54.430 10.839771
54.435 10.762544
54.440 10.594223
54.445 10.733841
54.450 10.983146
54.455 11.277748
54.460 11.494531
54.465 11.60802
54.470 11.577342
54.475 12.084366
54.480 12.568671
54.485 12.707544
54.490 12.518805
54.495 12.264734
54.500 12.28212
54.505 12.481277
54.510 12.3655
54.515 12.685753
54.520 12.890383
54.525 12.994267
54.530 12.635009
54.535 12.663295
54.540 13.436111
54.545 13.138412
54.550 12.16691
54.555 11.7567
54.560 12.165687
54.565 12.322191
54.570 12.212803
54.575 11.424018
54.580 12.125708
54.585 12.643022
54.590 12.46267
54.595 12.216557
54.600 12.419424
54.605 12.124036
54.610 11.768174
54.615 11.751754
54.620 12.19388
54.625 12.656369
54.630 12.976213
54.635 12.550777
54.640 12.288815
54.645 12.144618
54.650 11.449075
54.655 11.03385
54.660 10.601322
54.665 10.728724
54.670 11.429927
54.675 11.525313
54.680 11.815068
54.685 11.951326
54.690 11.928585
54.695 11.814904
54.700 11.234318
54.705 11.052817
54.710 11.45294
54.715 11.687641
54.720 12.128635
54.725 12.197989
54.730 12.221346
54.735 12.116695
54.740 12.034209
54.745 11.645598
54.750 10.769044
54.755 10.266115
54.760 10.284398
54.765 10.67012
54.770 10.84968
54.775 10.761902
54.780 10.773549
54.785 11.4032
54.790 11.594239
54.795 11.510003
54.800 11.638972
54.805 11.614028
54.810 11.905864
54.815 12.001275
54.820 11.925298
54.825 11.834478
54.830 12.170133
54.835 12.098621
54.840 12.088898
54.845 12.480486
54.850 12.65508
54.855 13.292674
54.860 13.339034
54.865 13.306545
54.870 13.402638
54.875 13.573203
54.880 13.229135
54.885 13.1538
54.890 12.557451
54.895 12.671881
54.900 12.586997
54.905 12.60947
54.910 12.369357
54.915 12.449714
54.920 12.859941
54.925 12.866158
54.930 12.950858
54.935 13.289045
54.940 12.991889
54.945 12.810711
54.950 12.572144
54.955 11.988129
54.960 11.687218
54.965 11.495715
54.970 11.386807
54.975 11.976139
54.980 12.493921
54.985 12.557811
54.990 12.840538
54.995 12.877924
55.000 12.223744
55.005 11.853776
55.010 11.210342
55.015 10.395755
55.020 10.218588
55.025 10.334311
55.030 10.609398
55.035 10.90973
55.040 11.09614
55.045 11.516442
55.050 11.361852
55.055 11.639459
55.060 11.965692
55.065 12.281824
55.070 12.285347
55.075 12.029902
55.080 11.868604
55.085 11.896234
55.090 11.208328
55.095 10.321292
55.100 9.909966
55.105 9.608971
55.110 9.85778
55.115 10.220089
55.120 10.736319
55.125 10.795401
55.130 11.199017
55.135 11.520171
55.140 12.248429
55.145 12.367893
55.150 12.041171
55.155 11.936077
55.160 12.269472
55.165 11.885499
55.170 11.847155
55.175 11.432667
55.180 11.489315
55.185 12.100998
55.190 11.918509
55.195 12.441517
55.200 12.971704
55.205 13.117197
55.210 13.786244
55.215 13.608667
55.220 13.096317
55.225 12.922369
55.230 12.818329
55.235 12.548973
55.240 12.150782
55.245 11.610911
55.250 11.637212
55.255 11.99719
55.260 11.985519
55.265 11.997209
55.270 12.198881
55.275 12.00264
55.280 11.682418
55.285 11.669234
55.290 11.807893
55.295 12.190069
55.300 11.315037
55.305 11.158892
55.310 11.374042
55.315 11.450043
55.320 11.477404
55.325 11.706917
55.330 11.49896
55.335 12.196781
55.340 11.917627
55.345 11.819686
55.350 12.331293
55.355 12.372005
55.360 12.178447
55.365 12.474412
55.370 12.276518
55.375 12.555561
55.380 13.142398
55.385 13.017493
55.390 12.810628
55.395 12.675043
55.400 12.493299
55.405 12.695231
55.410 12.882501
55.415 13.071348
55.420 13.092085
55.425 12.827322
55.430 13.008657
55.435 13.233083
55.440 13.243195
55.445 13.187225
55.450 12.956945
55.455 13.27852
55.460 13.748914
55.465 13.420341
55.470 13.158962
55.475 13.47301
55.480 13.475616
55.485 13.351429
55.490 13.334844
55.495 13.6722
55.500 13.914917
55.505 13.946189
55.510 13.702583
55.515 13.61412
55.520 13.930795
55.525 13.810911
55.530 13.301543
55.535 13.011433
55.540 13.026571
55.545 12.962129
55.550 12.875303
55.555 12.447466
55.560 12.639235
55.565 12.685519
55.570 13.060847
55.575 13.08989
55.580 12.538249
55.585 12.03264
55.590 11.834584
55.595 12.236511
55.600 12.348375
55.605 12.004235
55.610 12.075286
55.615 12.522824
55.620 12.766163
55.625 12.527467
55.630 11.921729
55.635 11.912271
55.640 11.819498
55.645 12.179128
55.650 11.72526
55.655 11.513934
55.660 11.455592
55.665 12.102644
55.670 12.296087
55.675 12.023796
55.680 11.287375
55.685 11.97898
55.690 12.321748
55.695 12.248301
55.700 11.820378
55.705 12.216388
55.710 12.927094
55.715 13.372921
55.720 13.636327
55.725 13.735844
55.730 13.62236
55.735 12.921222
55.740 12.052015
55.745 11.197802
55.750 11.076107
55.755 10.459604
55.760 10.313246
55.765 10.838759
55.770 11.735481
55.775 12.296135
55.780 12.347798
55.785 12.285069
55.790 12.190154
55.795 12.038756
55.800 11.51213
55.805 11.421339
55.810 11.879976
55.815 12.28952
55.820 12.411759
55.825 12.695691
55.830 12.859801
55.835 12.957135
55.840 13.60356
55.845 13.484185
55.850 13.989151
55.855 14.175647
55.860 14.312689
55.865 14.139922
55.870 13.405666
55.875 12.513701
55.880 12.252619
55.885 11.732418
55.890 11.330583
55.895 11.68034
55.900 12.361541
55.905 12.337777
55.910 12.677918
55.915 13.082737
55.920 13.093569
55.925 13.326846
55.930 12.739837
55.935 12.627167
55.940 12.774867
55.945 13.091855
55.950 13.294777
55.955 13.529723
55.960 13.489325
55.965 13.981091
55.970 13.918313
55.975 13.529478
55.980 12.700604
55.985 12.62189
55.990 12.859643
55.995 13.117297
56.000 13.039159
56.005 13.06898
56.010 13.615318
56.015 13.534329
56.020 13.262472
56.025 13.138645
56.030 13.051606
56.035 13.154188
56.040 13.299392
56.045 13.182242
56.050 13.358426
56.055 12.764047
56.060 12.522192
56.065 12.470258
56.070 12.263409
56.075 12.681906
56.080 13.644632
56.085 13.971569
56.090 14.17259
56.095 14.725024
56.100 15.314396
56.105 15.131516
56.110 14.285738
56.115 13.730202
56.120 13.536123
56.125 13.564893
56.130 12.650425
56.135 11.947506
56.140 12.52078
56.145 12.687548
56.150 12.31767
56.155 12.036398
56.160 11.9515
56.165 12.306506
56.170 12.760735
56.175 12.852352
56.180 12.911703
56.185 13.08403
56.190 13.360658
56.195 13.611519
56.200 13.452365
56.205 13.844725
56.210 14.007487
56.215 13.647309
56.220 13.003512
56.225 12.907389
56.230 12.70102
56.235 12.596868
56.240 12.463118
56.245 12.531981
56.250 12.758585
56.255 13.702777
56.260 14.283868
56.265 14.891216
56.270 14.597378
56.275 14.43729
56.280 13.857777
56.285 14.062042
56.290 13.936557
56.295 13.768793
56.300 13.481242
56.305 13.756968
56.310 13.985614
56.315 13.880022
56.320 13.780344
56.325 13.53888
56.330 13.289927
56.335 13.566282
56.340 13.239112
56.345 12.805273
56.350 12.91923
56.355 12.393126
56.360 12.477232
56.365 12.36838
56.370 12.393179
56.375 12.738096
56.380 12.990453
56.385 13.518782
56.390 13.733695
56.395 14.026741
56.400 14.525846
56.405 14.626661
56.410 14.647519
56.415 14.34437
56.420 14.039763
56.425 13.75561
56.430 13.534225
56.435 12.994101
56.440 12.832785
56.445 13.14075
56.450 13.216725
56.455 13.226532
56.460 13.521097
56.465 13.603656
56.470 13.510409
56.475 13.211325
56.480 12.335166
56.485 12.497562
56.490 12.999605
56.495 12.746994
56.500 12.058856
56.505 12.643714
56.510 12.995806
56.515 13.524336
56.520 13.42137
56.525 12.83764
56.530 12.628582
56.535 13.011544
56.540 12.613984
56.545 12.38782
56.550 12.220097
56.555 12.98137
56.560 13.602886
56.565 13.928431
56.570 13.780152
56.575 14.017236
56.580 14.008063
56.585 13.934332
56.590 13.11995
56.595 12.64906
56.600 12.637024
56.605 12.421759
56.610 11.97833
56.615 12.470116
56.620 12.54497
56.625 13.170974
56.630 13.161993
56.635 13.012982
56.640 13.061486
56.645 13.111634
56.650 12.922693
56.655 12.935684
56.660 13.577166
56.665 14.205637
56.670 14.21587
56.675 14.453529
56.680 14.655761
56.685 14.745782
56.690 14.76443
56.695 14.243827
56.700 13.976915
56.705 14.078308
56.710 14.156564
56.715 14.108991
56.720 13.959286
56.725 13.973382
56.730 13.571789
56.735 13.560174
56.740 13.689935
56.745 13.22872
56.750 13.266277
56.755 13.469538
56.760 13.579006
56.765 13.469579
56.770 13.790928
56.775 13.509497
56.780 13.56307
56.785 13.430719
56.790 12.917214
56.795 12.683765
56.800 13.225408
56.805 12.990855
56.810 12.752894
56.815 12.926603
56.820 12.797801
56.825 13.088917
56.830 13.250557
56.835 12.923722
56.840 13.223343
56.845 13.828529
56.850 13.576302
56.855 13.481936
56.860 13.429007
56.865 13.721645
56.870 13.681382
56.875 13.606483
56.880 14.08274
56.885 14.538946
56.890 14.800021
56.895 14.61791
56.900 14.6689
56.905 15.225827
56.910 15.374113
56.915 14.786827
56.920 14.500578
56.925 14.657576
56.930 14.706948
56.935 14.534994
56.940 14.370352
56.945 13.990106
56.950 14.492073
56.955 14.499669
56.960 13.991409
56.965 13.506656
56.970 13.049115
56.975 12.940576
56.980 12.681111
56.985 12.540603
56.990 12.733629
56.995 12.679565
57.000 12.973043
57.005 13.128021
57.010 13.515537
57.015 13.840611
57.020 13.457306
57.025 13.397861
57.030 13.836206
57.035 14.719661
57.040 14.799649
57.045 14.354401
57.050 14.052602
57.055 13.87458
57.060 13.691836
57.065 13.627552
57.070 13.114416
57.075 13.057833
57.080 13.54949
57.085 14.112599
57.090 14.656905
57.095 14.747898
57.100 14.390959
57.105 14.386705
57.110 14.542155
57.115 14.515324
57.120 14.48695
57.125 14.262338
57.130 13.907048
57.135 13.837361
57.140 13.704635
57.145 13.153329
57.150 12.646723
57.155 12.72014
57.160 13.237389
57.165 13.864522
57.170 13.950624
57.175 13.679653
57.180 14.084162
57.185 14.326161
57.190 13.926704
57.195 13.678694
57.200 13.678239
57.205 13.348496
57.210 13.609919
57.215 13.455181
57.220 13.097985
57.225 13.529231
57.230 13.458561
57.235 13.750273
57.240 14.043865
57.245 14.167465
57.250 14.509192
57.255 14.9698
57.260 14.864314
57.265 14.913878
57.270 14.995955
57.275 15.314496
57.280 15.728794
57.285 15.528047
57.290 15.44346
57.295 15.527218
57.300 14.912377
57.305 14.733171
57.310 14.589958
57.315 13.998073
57.320 14.155102
57.325 14.932693
57.330 15.212723
57.335 15.353709
57.340 14.653114
57.345 14.351233
57.350 14.456452
57.355 14.164253
57.360 13.60299
57.365 13.509178
57.370 13.669935
57.375 13.899009
57.380 14.105248
57.385 14.124662
57.390 14.49687
57.395 14.231063
57.400 14.565351
57.405 14.845758
57.410 15.5482
57.415 15.830176
57.420 15.96819
57.425 15.424392
57.430 14.999176
57.435 14.676255
57.440 14.155938
57.445 13.934887
57.450 14.123168
57.455 13.929976
57.460 14.013016
57.465 14.054134
57.470 14.140298
57.475 14.34346
57.480 13.974483
57.485 13.819554
57.490 14.115932
57.495 14.227681
57.500 14.331962
57.505 13.955132
57.510 13.818902
57.515 13.477405
57.520 13.630301
57.525 13.329776
57.530 13.161448
57.535 13.241393
57.540 13.250514
57.545 13.297425
57.550 13.621088
57.555 13.693881
57.560 13.900513
57.565 14.563919
57.570 14.765885
57.575 15.063593
57.580 14.963075
57.585 14.667129
57.590 14.829213
57.595 15.271024
57.600 15.185266
57.605 15.371607
57.610 15.831373
57.615 16.37365
57.620 16.744921
57.625 16.40201
57.630 16.255833
57.635 15.846051
57.640 15.172915
57.645 14.798966
57.650 14.469048
57.655 13.979396
57.660 13.130411
57.665 12.718151
57.670 12.884601
57.675 13.476295
57.680 13.843423
57.685 14.446985
57.690 15.063081
57.695 15.742846
57.700 16.141914
57.705 16.681326
57.710 16.656931
57.715 16.251585
57.720 15.951906
57.725 15.501754
57.730 15.501878
57.735 15.529344
57.740 15.13306
57.745 15.109403
57.750 15.519933
57.755 15.406685
57.760 15.541931
57.765 15.869651
57.770 15.534965
57.775 15.415904
57.780 15.381216
57.785 15.065267
57.790 15.448291
57.795 15.436385
57.800 15.085658
57.805 15.000909
57.810 14.799209
57.815 15.045845
57.820 15.010545
57.825 14.521722
57.830 14.270186
57.835 14.62707
57.840 15.077065
57.845 14.917061
57.850 14.792696
57.855 14.808513
57.860 15.533889
57.865 16.427546
57.870 16.341166
57.875 16.588902
57.880 16.393621
57.885 16.5662
57.890 16.394896
57.895 16.147049
57.900 15.569079
57.905 15.382418
57.910 15.31696
57.915 15.988712
57.920 15.85185
57.925 15.95441
57.930 15.664898
57.935 15.868182
57.940 16.002541
57.945 15.884808
57.950 16.107233
57.955 15.926586
57.960 15.545862
57.965 15.806628
57.970 15.645364
57.975 16.176701
57.980 16.469421
57.985 16.143574
57.990 16.314587
57.995 16.643255
58.000 16.836874
58.005 16.776703
58.010 16.362995
58.015 16.178535
58.020 16.393946
58.025 16.640333
58.030 17.076344
58.035 17.337481
58.040 17.558075
58.045 17.546635
58.050 17.435427
58.055 17.089622
58.060 16.601339
58.065 15.561382
58.070 15.334882
58.075 15.518352
58.080 15.289278
58.085 14.972698
58.090 15.316036
58.095 15.770814
58.100 16.423454
58.105 16.289648
58.110 16.40785
58.115 16.543852
58.120 16.684654
58.125 16.452579
58.130 16.286917
58.135 16.799574
58.140 17.231665
58.145 17.006493
58.150 16.662567
58.155 16.279982
58.160 15.922048
58.165 16.223854
58.170 15.480109
58.175 14.652441
58.180 14.299818
58.185 14.997341
58.190 15.882242
58.195 16.613997
58.200 16.482067
58.205 17.107393
58.210 18.213884
58.215 18.651642
58.220 18.81332
58.225 19.210285
58.230 19.345083
58.235 19.290167
58.240 18.771797
58.245 17.955257
58.250 17.92544
58.255 17.403095
58.260 16.73962
58.265 16.215027
58.270 16.303442
58.275 16.481995
58.280 16.532446
58.285 17.124182
58.290 17.242067
58.295 17.839466
58.300 18.293093
58.305 18.243708
58.310 18.151863
58.315 18.319427
58.320 18.243696
58.325 18.499796
58.330 17.987631
58.335 17.914124
58.340 18.486189
58.345 19.35288
58.350 20.075403
58.355 20.349871
58.360 20.182777
58.365 20.992577
58.370 21.202385
58.375 21.068478
58.380 20.934755
58.385 20.718445
58.390 20.892464
58.395 21.211424
58.400 21.460033
58.405 21.638277
58.410 21.709057
58.415 21.912209
58.420 21.938284
58.425 22.147799
58.430 22.271786
58.435 21.634186
58.440 21.733751
58.445 21.933867
58.450 22.779942
58.455 23.720253
58.460 24.17067
58.465 24.973276
58.470 25.30694
58.475 25.762791
58.480 26.396866
58.485 26.247786
58.490 26.41634
58.495 26.876291
58.500 27.111832
58.505 28.096811
58.510 28.196547
58.515 28.956055
58.520 30.037766
58.525 30.9268
58.530 31.031082
58.535 32.068916
58.540 32.132843
58.545 32.521988
58.550 32.373341
58.555 32.045403
58.560 32.557594
58.565 33.16663
58.570 33.953766
58.575 34.838818
58.580 35.250671
58.585 35.158012
58.590 35.602573
58.595 36.35976
58.600 36.665321
58.605 35.942436
58.610 35.844215
58.615 36.052525
58.620 36.547607
58.625 36.619579
58.630 36.627884
58.635 36.359333
58.640 36.554779
58.645 36.71537
58.650 36.568508
58.655 36.464436
58.660 37.449173
58.665 38.114124
58.670 38.674252
58.675 38.48521
58.680 38.287785
58.685 38.598694
58.690 39.587852
58.695 40.126492
58.700 39.495731
58.705 40.14394
58.710 40.135361
58.715 39.505196
58.720 39.666977
58.725 38.717472
58.730 38.211922
58.735 37.627331
58.740 36.887035
58.745 37.04929
58.750 37.456974
58.755 37.282318
58.760 37.049484
58.765 35.554092
58.770 35.655479
58.775 34.693439
58.780 34.213718
58.785 33.14904
58.790 32.080479
58.795 31.45051
58.800 31.0548
58.805 30.65633
58.810 30.857239
58.815 30.562443
58.820 30.029703
58.825 29.799034
58.830 29.738266
58.835 29.509974
58.840 29.067717
58.845 28.675865
58.850 28.678423
58.855 28.724939
58.860 29.227325
58.865 29.354654
58.870 29.200624
58.875 28.787231
58.880 28.24843
58.885 28.044401
58.890 27.689978
58.895 27.033405
58.900 26.508663
58.905 25.434088
58.910 25.123278
58.915 24.523977
58.920 24.07674
58.925 23.612286
58.930 23.345171
58.935 23.285608
58.940 23.156382
58.945 23.306393
58.950 23.492519
58.955 22.735769
58.960 23.025736
58.965 22.405933
58.970 21.582706
58.975 21.124063
58.980 20.459721
58.985 19.817141
58.990 20.546549
58.995 20.519215
59.000 19.968283
59.005 20.040255
59.010 20.004601
59.015 20.017782
59.020 20.296999
59.025 19.246967
59.030 18.659668
59.035 19.405905
59.040 19.326
59.045 19.258554
59.050 18.894426
59.055 18.630577
59.060 19.262236
59.065 19.774546
59.070 19.763779
59.075 19.797079
59.080 19.756575
59.085 19.600033
59.090 19.573235
59.095 19.067865
59.100 18.410683
59.105 17.63743
59.110 17.567629
59.115 17.144562
59.120 16.714834
59.125 16.574799
59.130 16.751299
59.135 17.057428
59.140 17.025442
59.145 16.563929
59.150 16.441351
59.155 16.629295
59.160 16.368128
59.165 16.069069
59.170 16.077545
59.175 16.513811
59.180 16.730724
59.185 16.95668
59.190 16.913038
59.195 16.988726
59.200 17.183365
59.205 16.755339
59.210 16.509619
59.215 15.931018
59.220 15.849969
59.225 16.173265
59.230 16.445297
59.235 16.823519
59.240 17.086618
59.245 17.806538
59.250 18.451063
59.255 18.348776
59.260 17.983093
59.265 17.227491
59.270 16.656837
59.275 16.497866
59.280 15.473145
59.285 15.140556
59.290 15.353869
59.295 15.606322
59.300 15.992998
59.305 16.253078
59.310 16.362719
59.315 16.602039
59.320 16.797115
59.325 16.664324
59.330 16.974365
59.335 17.051046
59.340 16.912172
59.345 16.750805
59.350 16.736753
59.355 16.676725
59.360 16.677588
59.365 15.711925
59.370 15.022689
59.375 14.799777
59.380 14.991649
59.385 15.374636
59.390 15.649496
59.395 15.785383
59.400 16.263155
59.405 16.881153
59.410 16.966488
59.415 16.15263
59.420 15.46592
59.425 15.428435
59.430 15.856444
59.435 15.650395
59.440 15.498173
59.445 15.801003
59.450 16.440203
59.455 16.496141
59.460 16.360933
59.465 16.531126
59.470 17.044775
59.475 17.289701
59.480 17.53179
59.485 17.737597
59.490 18.37426
59.495 18.3197
59.500 17.615454
59.505 17.050472
59.510 16.667271
59.515 16.509689
59.520 16.597416
59.525 16.404089
59.530 16.172451
59.535 16.057493
59.540 16.195881
59.545 16.092691
59.550 15.638094
59.555 15.523259
59.560 15.338078
59.565 15.414818
59.570 15.576595
59.575 15.640146
59.580 15.76396
59.585 15.727963
59.590 15.429645
59.595 15.095593
59.600 15.438648
59.605 15.746537
59.610 15.601125
59.615 15.648816
59.620 15.749372
59.625 16.390268
59.630 16.239445
59.635 16.220869
59.640 16.028193
59.645 16.178936
59.650 16.435236
59.655 16.462337
59.660 16.272018
59.665 16.482838
59.670 15.880839
59.675 15.477376
59.680 14.924364
59.685 14.446186
59.690 13.957922
59.695 13.929304
59.700 14.66894
59.705 14.988566
59.710 15.477197
59.715 16.101412
59.720 16.864069
59.725 17.337957
59.730 16.677673
59.735 16.407629
59.740 16.259598
59.745 16.525171
59.750 16.334373
59.755 15.72379
59.760 15.840564
59.765 16.090488
59.770 15.575322
59.775 15.411888
59.780 15.201362
59.785 15.12426
59.790 15.011095
59.795 14.742195
59.800 14.609235
59.805 14.934269
59.810 15.169211
59.815 15.424237
59.820 15.405977
59.825 15.395934
59.830 15.967311
59.835 16.17255
59.840 16.37331
59.845 16.924982
59.850 16.751026
59.855 16.451841
59.860 16.520226
59.865 15.919839
59.870 15.441582
59.875 15.001941
59.880 14.414457
59.885 14.630445
59.890 15.264569
59.895 15.280193
59.900 16.008142
59.905 16.99892
59.910 17.351635
59.915 17.034678
59.920 16.926048
59.925 16.878893
59.930 17.130901
59.935 17.019554
59.940 16.116282
59.945 16.138613
59.950 16.802246
59.955 16.975246
59.960 17.071564
59.965 16.94956
59.970 16.761349
59.975 17.07213
59.980 16.524714
59.985 16.256264
59.990 15.782717
59.995 15.283031
60.000 15.128164
60.005 14.68111
60.010 14.737796
60.015 15.428596
60.020 15.368343
60.025 15.555272
60.030 15.581321
60.035 15.193595
60.040 15.521957
60.045 16.04348
60.050 16.032785
60.055 16.330227
60.060 16.352448
60.065 16.786806
60.070 17.420958
60.075 17.343037
60.080 16.714224
60.085 16.581882
60.090 16.819059
60.095 16.658413
60.100 16.662178
60.105 16.798004
60.110 16.463837
60.115 16.351582
60.120 15.903282
60.125 15.710691
60.130 16.010248
60.135 15.986727
60.140 15.62841
60.145 15.723488
60.150 15.876872
60.155 16.41256
60.160 16.336224
60.165 16.069027
60.170 16.034819
60.175 15.804307
60.180 16.140833
60.185 16.329399
60.190 16.563606
60.195 15.94875
60.200 15.942314
60.205 16.100065
60.210 16.283113
60.215 16.105276
60.220 15.909381
60.225 15.318328
60.230 15.541465
60.235 15.554723
60.240 15.947998
60.245 16.215862
60.250 16.362011
60.255 16.50873
60.260 16.488316
60.265 16.59009
60.270 16.777983
60.275 16.152216
60.280 16.059185
60.285 15.74845
60.290 15.073397
60.295 15.602623
60.300 15.40461
60.305 15.191465
60.310 15.517504
60.315 15.84696
60.320 16.095427
60.325 16.387001
60.330 16.400387
60.335 16.677532
60.340 16.710037
60.345 16.86783
60.350 16.502363
60.355 16.111746
60.360 16.362787
60.365 16.007257
60.370 15.885537
60.375 15.661509
60.380 15.39257
60.385 15.478031
60.390 15.51963
60.395 15.480474
60.400 15.736456
60.405 15.93811
60.410 16.230631
60.415 16.724087
60.420 17.294168
60.425 17.705582
60.430 17.837427
60.435 17.632149
60.440 17.502064
60.445 17.421898
60.450 16.991543
60.455 16.40423
60.460 16.336174
60.465 16.137476
60.470 16.185516
60.475 16.598236
60.480 16.472055
60.485 16.170105
60.490 16.340147
60.495 16.405987
60.500 16.08839
60.505 15.789615
60.510 15.337905
60.515 15.772907
60.520 15.705516
60.525 15.113897
60.530 14.940439
60.535 15.205946
60.540 15.464019
60.545 15.436298
60.550 14.974896
60.555 15.141967
60.560 15.5971
60.565 15.763937
60.570 15.835552
60.575 15.704119
60.580 16.121767
60.585 16.405752
60.590 16.232876
60.595 16.269186
60.600 16.474003
60.605 16.700115
60.610 17.178909
60.615 17.072552
60.620 17.716261
60.625 18.191399
60.630 17.646936
60.635 17.292339
60.640 17.409433
60.645 17.187376
60.650 16.997658
60.655 16.468111
60.660 16.225027
60.665 16.408865
60.670 16.792467
60.675 17.182611
60.680 16.759171
60.685 16.409216
60.690 16.288935
60.695 16.425409
60.700 16.254972
60.705 15.604105
60.710 15.321493
60.715 15.379822
60.720 15.965947
60.725 15.758402
60.730 15.858147
60.735 16.223841
60.740 16.687906
60.745 16.553841
60.750 16.759521
60.755 16.632765
60.760 17.065371
60.765 17.240679
60.770 17.232798
60.775 16.460588
60.780 16.161245
60.785 16.49317
60.790 16.479191
60.795 16.43047
60.800 16.510036
60.805 16.380821
60.810 16.595261
60.815 16.556658
60.820 16.180111
60.825 15.897655
60.830 15.652171
60.835 15.373631
60.840 14.959455
60.845 15.211746
60.850 15.575734
60.855 15.571544
60.860 15.476797
60.865 15.320917
60.870 15.237966
60.875 15.504824
60.880 15.569571
60.885 15.226027
60.890 15.14971
60.895 15.16526
60.900 15.366828
60.905 15.745667
60.910 15.630485
60.915 15.412528
60.920 15.199549
60.925 15.419219
60.930 15.407148
60.935 15.005434
60.940 15.035888
60.945 14.973535
60.950 15.640254
60.955 16.104692
60.960 16.074331
60.965 16.301521
60.970 16.66905
60.975 16.900589
60.980 17.172895
60.985 16.25458
60.990 15.888522
60.995 15.565073
61.000 15.263363
61.005 15.010387
61.010 14.828151
61.015 15.396781
61.020 16.0532
61.025 16.445097
61.030 16.648096
61.035 16.843521
61.040 16.350853
61.045 15.857439
61.050 15.127948
61.055 15.350829
61.060 15.65846
61.065 15.756946
61.070 15.918086
61.075 16.141632
61.080 16.363903
61.085 16.319208
61.090 15.838791
61.095 15.398683
61.100 15.724145
61.105 15.759341
61.110 16.269083
61.115 16.835247
61.120 17.069901
61.125 16.872505
61.130 17.01622
61.135 16.609545
61.140 16.477947
61.145 16.233791
61.150 16.09473
61.155 15.691189
61.160 15.876755
61.165 15.57457
61.170 15.339543
61.175 15.82193
61.180 15.945979
61.185 15.884121
61.190 16.090221
61.195 15.706893
61.200 15.808311
61.205 16.190556
61.210 15.787345
61.215 15.572979
61.220 15.600759
61.225 15.828383
61.230 16.586899
61.235 16.563189
61.240 16.572521
61.245 16.600048
61.250 16.649361
61.255 16.25905
61.260 16.117144
61.265 15.841593
61.270 16.135626
61.275 15.655626
61.280 15.545185
61.285 16.516216
61.290 16.907385
61.295 16.525494
61.300 16.558008
61.305 16.783167
61.310 17.549984
61.315 17.782639
61.320 17.258812
61.325 17.062397
61.330 17.118021
61.335 17.057413
61.340 16.913824
61.345 16.445787
61.350 15.836513
61.355 15.665682
61.360 15.76226
61.365 15.782803
61.370 15.613534
61.375 15.3722
61.380 15.446488
61.385 15.581254
61.390 15.216339
61.395 14.843038
61.400 15.008434
61.405 15.525145
61.410 15.897764
61.415 16.042782
61.420 16.050362
61.425 16.215982
61.430 17.016661
61.435 17.448259
61.440 16.879419
61.445 16.86083
61.450 17.077101
61.455 17.436552
61.460 18.146711
61.465 17.430624
61.470 16.99811
61.475 16.692425
61.480 16.482405
61.485 16.093678
61.490 15.676869
61.495 15.593902
61.500 15.756483
61.505 15.668556
61.510 15.841596
61.515 16.371397
61.520 16.703762
61.525 17.131983
61.530 17.313175
61.535 17.152403
61.540 16.811909
61.545 17.366678
61.550 17.271931
61.555 17.825878
61.560 17.729439
61.565 16.987907
61.570 17.007084
61.575 18.124033
61.580 17.868616
61.585 17.324739
61.590 16.629864
61.595 16.489328
61.600 16.856001
61.605 16.794308
61.610 16.206068
61.615 15.801234
61.620 15.992687
61.625 16.012341
61.630 15.695061
61.635 15.707417
61.640 15.899753
61.645 15.867914
61.650 16.176178
61.655 16.456959
61.660 16.823589
61.665 16.85149
61.670 17.557274
61.675 17.397865
61.680 17.414646
61.685 17.116562
61.690 16.803467
61.695 16.518623
61.700 16.68082
61.705 16.241226
61.710 16.363125
61.715 16.395407
61.720 16.642527
61.725 16.730736
61.730 16.678347
61.735 16.608259
61.740 16.380713
61.745 16.335443
61.750 15.92785
61.755 16.15803
61.760 16.840326
61.765 17.315456
61.770 17.64201
61.775 18.070278
61.780 18.196444
61.785 17.811588
61.790 17.54233
61.795 16.953133
61.800 16.921537
61.805 16.941179
61.810 16.833462
61.815 16.766212
61.820 17.743965
61.825 18.067226
61.830 18.369223
61.835 18.426771
61.840 18.181032
61.845 18.297487
61.850 18.546329
61.855 18.159449
61.860 18.021133
61.865 17.644611
61.870 17.845179
61.875 17.987722
61.880 18.029158
61.885 18.173504
61.890 18.25161
61.895 18.08704
61.900 18.278875
61.905 17.293816
61.910 16.881275
61.915 16.385746
61.920 16.255459
61.925 16.170444
61.930 16.182514
61.935 15.996158
61.940 15.995972
61.945 15.857994
61.950 15.913744
61.955 15.804146
61.960 15.878284
61.965 15.84472
61.970 16.102613
61.975 16.875998
61.980 16.662031
61.985 16.08703
61.990 16.318577
61.995 16.155783
62.000 15.728438
62.005 15.809606
62.010 15.66536
62.015 16.038507
62.020 16.407286
62.025 15.919194
62.030 16.10244
62.035 15.852377
62.040 15.197892
62.045 14.849521
62.050 15.023343
62.055 14.767435
62.060 15.024706
62.065 15.059799
62.070 15.635051
62.075 16.333187
62.080 16.756435
62.085 16.492844
62.090 16.987289
62.095 16.883741
62.100 16.386656
62.105 16.242676
62.110 15.485121
62.115 15.409106
62.120 15.464989
62.125 14.834528
62.130 15.20533
62.135 15.651846
62.140 15.958543
62.145 16.27076
62.150 15.872102
62.155 16.298666
62.160 16.715527
62.165 16.402113
62.170 16.160185
62.175 15.889492
62.180 16.053337
62.185 16.248116
62.190 16.203138
62.195 16.427145
62.200 16.371552
62.205 16.62319
62.210 17.01663
62.215 16.757004
62.220 16.979492
62.225 16.984356
62.230 16.405512
62.235 16.211233
62.240 15.355239
62.245 14.8792
62.250 14.774461
62.255 14.639048
62.260 14.678819
62.265 15.419232
62.270 16.097231
62.275 16.858938
62.280 16.966286
62.285 16.993828
62.290 17.308533
62.295 17.172552
62.300 16.934908
62.305 16.252094
62.310 16.055429
62.315 16.04467
62.320 16.45429
62.325 15.887038
62.330 15.675476
62.335 15.693178
62.340 15.785701
62.345 15.703456
62.350 15.827408
62.355 16.006844
62.360 16.569994
62.365 17.19973
62.370 17.279417
62.375 17.599598
62.380 18.134378
62.385 17.844124
62.390 17.120007
62.395 17.076218
62.400 16.773998
62.405 16.493008
62.410 16.984348
62.415 17.218096
62.420 17.496437
62.425 17.60367
62.430 17.292475
62.435 17.567009
62.440 17.83877
62.445 17.744303
62.450 17.929096
62.455 18.231607
62.460 18.459742
62.465 18.217354
62.470 18.033546
62.475 18.375631
62.480 18.609201
62.485 18.868689
62.490 19.447718
62.495 19.823872
62.500 20.232889
62.505 19.857109
62.510 19.627846
62.515 18.893084
62.520 18.014254
62.525 17.590519
62.530 17.39134
62.535 17.559797
62.540 17.881462
62.545 17.354908
62.550 17.006945
62.555 16.626259
62.560 16.198986
62.565 15.802137
62.570 15.590511
62.575 15.343185
62.580 15.674637
62.585 16.718353
62.590 17.375801
62.595 17.893234
62.600 18.390871
62.605 18.353609
62.610 17.910898
62.615 17.712843
62.620 16.940996
62.625 17.076349
62.630 16.912167
62.635 16.641148
62.640 16.371788
62.645 16.898031
62.650 17.320572
62.655 17.396257
62.660 16.783464
62.665 16.408224
62.670 16.447172
62.675 16.769592
62.680 16.620871
62.685 17.10743
62.690 18.082232
62.695 18.685823
62.700 19.214306
62.705 19.513241
62.710 19.706713
62.715 20.225494
62.720 19.897692
62.725 19.237143
62.730 19.180126
62.735 18.948219
62.740 18.575539
62.745 18.350471
62.750 17.666136
62.755 17.028419
62.760 16.795393
62.765 16.386114
62.770 15.996455
62.775 16.334408
62.780 15.978742
62.785 15.842881
62.790 16.293997
62.795 16.137327
62.800 16.381334
62.805 16.937567
62.810 17.39155
62.815 17.956057
62.820 17.906374
62.825 16.824894
62.830 16.37126
62.835 16.371689
62.840 16.008198
62.845 16.057373
62.850 15.844734
62.855 15.93558
62.860 16.413193
62.865 16.355194
62.870 16.158739
62.875 15.573797
62.880 14.970905
62.885 14.901279
62.890 15.066522
62.895 15.497172
62.900 15.918129
62.905 15.428904
62.910 15.414314
62.915 15.601827
62.920 16.135971
62.925 16.091448
62.930 16.26568
62.935 16.017586
62.940 16.620598
62.945 17.272776
62.950 16.981102
62.955 16.886978
62.960 17.222878
62.965 17.299707
62.970 17.78787
62.975 18.340456
62.980 18.110624
62.985 18.105255
62.990 18.184198
62.995 17.989058
63.000 17.825956
63.005 17.468439
63.010 17.379147
63.015 17.244989
63.020 17.346325
63.025 16.993504
63.030 16.652491
63.035 16.370909
63.040 16.32725
63.045 15.847919
63.050 16.037373
63.055 16.171829
63.060 16.456022
63.065 16.956348
63.070 17.398949
63.075 17.402304
63.080 17.614939
63.085 17.412573
63.090 17.212673
63.095 17.038162
63.100 16.790552
63.105 16.912003
63.110 16.850382
63.115 16.127428
63.120 16.329584
63.125 16.496542
63.130 16.660267
63.135 16.724781
63.140 16.706251
63.145 17.339457
63.150 17.506678
63.155 17.39481
63.160 17.146296
63.165 17.286142
63.170 16.92873
63.175 16.640123
63.180 16.332659
63.185 17.250751
63.190 17.616455
63.195 17.309301
63.200 17.22529
63.205 17.698149
63.210 17.859066
63.215 17.981319
63.220 16.991806
63.225 16.368353
63.230 16.727392
63.235 16.869999
63.240 16.954954
63.245 16.922941
63.250 17.358324
63.255 18.200352
63.260 18.97076
63.265 19.224634
63.270 18.517618
63.275 18.365759
63.280 18.293591
63.285 17.961994
63.290 17.662653
63.295 17.01125
63.300 16.953131
63.305 17.905914
63.310 18.490274
63.315 18.744247
63.320 18.50984
63.325 18.731579
63.330 19.127491
63.335 19.04829
63.340 18.807316
63.345 17.937281
63.350 17.828011
63.355 18.14217
63.360 18.182682
63.365 18.142319
63.370 18.129433
63.375 18.18819
63.380 18.562233
63.385 18.737408
63.390 18.879402
63.395 18.937832
63.400 19.198044
63.405 18.931051
63.410 18.808764
63.415 18.942076
63.420 18.097538
63.425 17.622049
63.430 17.569897
63.435 17.775831
63.440 17.772478
63.445 17.657724
63.450 17.875118
63.455 18.633873
63.460 17.884243
63.465 17.799322
63.470 17.971916
63.475 18.410362
63.480 18.320486
63.485 18.529358
63.490 19.01392
63.495 20.126194
63.500 20.237848
63.505 20.304453
63.510 19.922213
63.515 19.553225
63.520 18.765421
63.525 18.330004
63.530 18.096992
63.535 17.996586
63.540 17.936153
63.545 18.47735
63.550 18.824432
63.555 18.902884
63.560 18.919117
63.565 19.105467
63.570 18.956999
63.575 18.287331
63.580 18.033606
63.585 18.017275
63.590 17.746393
63.595 18.007965
63.600 18.005362
63.605 18.488359
63.610 18.683456
63.615 18.329489
63.620 18.435505
63.625 18.5485
63.630 18.326794
63.635 18.192492
63.640 18.033369
63.645 18.331646
63.650 18.81284
63.655 18.86537
63.660 19.279922
63.665 18.802263
63.670 18.525866
63.675 18.90641
63.680 18.823793
63.685 18.395796
63.690 18.479277
63.695 18.478912
63.700 18.641605
63.705 18.825958
63.710 18.295986
63.715 18.36837
63.720 18.615839
63.725 18.376406
63.730 18.239038
63.735 18.293139
63.740 17.822701
63.745 18.05068
63.750 18.145597
63.755 17.912388
63.760 17.964239
63.765 17.836805
63.770 18.076069
63.775 18.230303
63.780 18.459957
63.785 18.479843
63.790 18.83284
63.795 18.880705
63.800 18.968037
63.805 18.903133
63.810 19.510445
63.815 19.549686
63.820 19.791821
63.825 19.649189
63.830 19.546717
63.835 19.949539
63.840 20.09239
63.845 19.283869
63.850 18.571236
63.855 18.021198
63.860 17.691961
63.865 18.054724
63.870 18.033062
63.875 18.351629
63.880 18.763037
63.885 19.07699
63.890 18.891418
63.895 19.519501
63.900 19.148415
63.905 18.815969
63.910 18.872849
63.915 18.819967
63.920 19.069645
63.925 19.258596
63.930 19.006859
63.935 19.561247
63.940 19.694654
63.945 19.347767
63.950 19.292646
63.955 19.177691
63.960 19.886309
63.965 19.758274
63.970 19.454353
63.975 19.940119
63.980 20.664621
63.985 21.641088
63.990 22.036678
63.995 21.692656
64.000 21.993299
64.005 22.439283
64.010 22.132402
64.015 22.440786
64.020 22.383385
64.025 22.384571
64.030 23.166874
64.035 23.39411
64.040 23.679323
64.045 23.767469
64.050 22.770443
64.055 22.598179
64.060 23.100744
64.065 23.108097
64.070 22.698282
64.075 22.621181
64.080 22.909538
64.085 22.997822
64.090 22.661806
64.095 22.667366
64.100 22.843952
64.105 23.313675
64.110 23.323004
64.115 24.542015
64.120 25.476095
64.125 26.118967
64.130 26.370689
64.135 26.46225
64.140 26.495846
64.145 27.256798
64.150 26.889217
64.155 28.095718
64.160 29.018349
64.165 28.836294
64.170 29.463135
64.175 29.910311
64.180 29.387394
64.185 29.756786
64.190 30.111233
64.195 30.620991
64.200 31.189812
64.205 31.556028
64.210 32.045078
64.215 32.09341
64.220 31.855421
64.225 32.461655
64.230 33.26223
64.235 34.32357
64.240 34.957283
64.245 35.542007
64.250 36.850842
64.255 38.606361
64.260 38.878761
64.265 39.097244
64.270 39.351219
64.275 39.931396
64.280 40.840034
64.285 42.672791
64.290 44.110237
64.295 45.369148
64.300 46.316246
64.305 46.996899
64.310 47.845657
64.315 48.161659
64.320 48.121437
64.325 47.760105
64.330 47.575577
64.335 47.297123
64.340 47.638622
64.345 48.055092
64.350 49.239586
64.355 49.394806
64.360 49.636505
64.365 49.732719
64.370 50.559998
64.375 51.402267
64.380 51.335636
64.385 50.535885
64.390 50.714237
64.395 51.091087
64.400 52.116577
64.405 52.242023
64.410 52.063248
64.415 52.088558
64.420 51.916004
64.425 51.705761
64.430 51.561329
64.435 50.914143
64.440 51.616314
64.445 52.487545
64.450 53.130417
64.455 53.453747
64.460 53.299866
64.465 53.291767
64.470 52.882271
64.475 51.496967
64.480 50.794525
64.485 49.602367
64.490 48.633228
64.495 48.163372
64.500 47.647652
64.505 47.598747
64.510 47.77647
64.515 47.502663
64.520 47.896156
64.525 47.902504
64.530 47.127728
64.535 46.694313
64.540 46.680073
64.545 45.107018
64.550 44.45871
64.555 43.759392
64.560 43.03828
64.565 43.6544
64.570 43.275696
64.575 41.999027
64.580 42.017048
64.585 40.796753
64.590 40.247234
64.595 39.306515
64.600 37.547031
64.605 36.681412
64.610 36.305809
64.615 36.051506
64.620 36.054249
64.625 36.012894
64.630 36.159531
64.635 36.165821
64.640 36.2187
64.645 35.660046
64.650 35.095425
64.655 34.141022
64.660 33.628834
64.665 33.149513
64.670 32.874718
64.675 31.86791
64.680 31.706263
64.685 31.656963
64.690 31.465326
64.695 31.530941
64.700 31.544487
64.705 31.204044
64.710 30.54985
64.715 29.686745
64.720 29.317169
64.725 29.180237
64.730 28.43771
64.735 27.754374
64.740 27.742687
64.745 27.486946
64.750 26.669292
64.755 25.805468
64.760 25.629662
64.765 26.096092
64.770 26.243906
64.775 25.366009
64.780 25.147226
64.785 25.90066
64.790 25.92561
64.795 25.643145
64.800 25.336145
64.805 25.475496
64.810 25.893162
64.815 26.279966
64.820 26.1504
64.825 26.005583
64.830 25.50658
64.835 25.10281
64.840 24.818502
64.845 24.773207
64.850 23.778021
64.855 23.664701
64.860 24.286861
64.865 24.694141
64.870 24.938808
64.875 24.934845
64.880 24.301832
64.885 24.161589
64.890 24.068298
64.895 23.818838
64.900 23.06883
64.905 22.926929
64.910 22.91736
64.915 23.063148
64.920 23.536818
64.925 23.306126
64.930 23.574093
64.935 24.847061
64.940 25.082951
64.945 25.341721
64.950 25.666664
64.955 26.054256
64.960 26.131533
64.965 25.778837
64.970 25.85166
64.975 26.547092
64.980 26.897758
64.985 27.724487
64.990 27.817524
64.995 27.980499
65.000 28.949196
65.005 28.921957
65.010 28.533035
65.015 27.727781
65.020 28.757158
65.025 29.067516
65.030 29.807777
65.035 29.907536
65.040 29.543636
65.045 29.931746
65.050 31.584934
65.055 31.667198
65.060 33.048508
65.065 33.323925
65.070 33.80439
65.075 34.775658
65.080 35.810143
65.085 35.823196
65.090 35.437084
65.095 34.738968
65.100 34.954674
65.105 35.778305
65.110 36.043724
65.115 35.476692
65.120 35.369926
65.125 35.956867
65.130 36.597889
65.135 36.606655
65.140 36.086281
65.145 35.797096
65.150 35.851582
65.155 36.003349
65.160 36.471081
65.165 37.740135
65.170 38.627773
65.175 38.80064
65.180 39.550575
65.185 39.253288
65.190 39.211533
65.195 38.412582
65.200 37.314804
65.205 37.278111
65.210 36.789127
65.215 36.507126
65.220 37.27615
65.225 37.694115
65.230 37.978058
65.235 38.300941
65.240 38.735783
65.245 39.674538
65.250 39.905804
65.255 39.884693
65.260 40.088402
65.265 41.402435
65.270 41.736088
65.275 41.650757
65.280 41.253887
65.285 41.404163
65.290 41.505253
65.295 41.425343
65.300 41.028931
65.305 40.902752
65.310 40.590385
65.315 40.280975
65.320 39.947578
65.325 40.03553
65.330 39.921116
65.335 39.536339
65.340 39.467472
65.345 39.390377
65.350 40.046795
65.355 40.679466
65.360 40.889763
65.365 40.857441
65.370 41.094357
65.375 41.174641
65.380 41.008678
65.385 40.420513
65.390 40.008774
65.395 39.98838
65.400 40.47303
65.405 40.239685
65.410 39.960938
65.415 39.862301
65.420 39.668758
65.425 39.340305
65.430 38.916748
65.435 38.77079
65.440 39.190369
65.445 39.171539
65.450 39.298565
65.455 39.134308
65.460 39.231403
65.465 39.18145
65.470 38.913898
65.475 37.840332
65.480 37.827824
65.485 37.96574
65.490 38.220276
65.495 38.534729
65.500 38.985207
65.505 39.036201
65.510 39.848148
65.515 39.527573
65.520 40.029457
65.525 40.349636
65.530 39.392197
65.535 39.014629
65.540 38.213188
65.545 37.834145
65.550 37.47691
65.555 36.606365
65.560 36.137783
65.565 36.371029
65.570 36.355949
65.575 36.472618
65.580 36.107635
65.585 36.565266
65.590 37.151039
65.595 37.235008
65.600 36.815147
65.605 36.616417
65.610 37.514736
65.615 37.919746
65.620 37.974049
65.625 37.331161
65.630 37.862278
65.635 37.600319
65.640 37.706448
65.645 36.523415
65.650 36.357655
65.655 36.315666
65.660 36.126003
65.665 36.390324
65.670 36.889507
65.675 36.933308
65.680 37.274708
65.685 36.535889
65.690 35.476925
65.695 34.948963
65.700 34.449673
65.705 34.003513
65.710 33.991581
65.715 34.52879
65.720 34.78614
65.725 35.164135
65.730 35.00024
65.735 34.053722
65.740 33.85033
65.745 32.805866
65.750 31.111073
65.755 31.226627
65.760 31.348017
65.765 31.827099
65.770 32.579075
65.775 32.346909
65.780 32.650913
65.785 33.122059
65.790 32.50259
65.795 32.599159
65.800 32.474567
65.805 31.803892
65.810 31.75456
65.815 31.685055
65.820 31.329355
65.825 31.72192
65.830 30.721636
65.835 29.641285
65.840 29.27981
65.845 28.915339
65.850 28.241117
65.855 28.046886
65.860 27.785013
65.865 27.531742
65.870 27.896109
65.875 28.340738
65.880 28.165991
65.885 28.31608
65.890 28.344278
65.895 27.797121
65.900 27.919043
65.905 27.513224
65.910 27.26927
65.915 27.292009
65.920 26.95562
65.925 26.343277
65.930 26.824764
65.935 26.633768
65.940 26.52664
65.945 25.93379
65.950 25.881298
65.955 25.407223
65.960 24.879456
65.965 24.4823
65.970 24.632666
65.975 24.077398
65.980 23.736931
65.985 23.424423
65.990 22.668085
65.995 21.889076
66.000 21.158995
66.005 20.901917
66.010 21.302267
66.015 21.184044
66.020 21.315077
66.025 21.448206
66.030 21.480787
66.035 21.716177
66.040 21.499949
66.045 21.304728
66.050 21.120621
66.055 21.0277
66.060 20.983337
66.065 21.013714
66.070 20.696762
66.075 20.439871
66.080 20.695148
66.085 20.620922
66.090 20.659847
66.095 20.878138
66.100 20.147058
66.105 20.517105
66.110 20.344742
66.115 20.463396
66.120 20.885727
66.125 20.774546
66.130 20.29134
66.135 20.511913
66.140 20.05724
66.145 20.24156
66.150 19.690823
66.155 19.352522
66.160 19.32453
66.165 18.700077
66.170 18.245323
66.175 18.333929
66.180 18.132704
66.185 17.9062
66.190 18.117968
66.195 18.187918
66.200 18.668379
66.205 18.621519
66.210 18.111078
66.215 17.715233
66.220 17.934481
66.225 17.535429
66.230 17.790375
66.235 18.312456
66.240 18.823799
66.245 19.440435
66.250 19.710045
66.255 20.215534
66.260 20.890549
66.265 20.623753
66.270 21.078501
66.275 20.869116
66.280 20.651226
66.285 20.586542
66.290 20.347326
66.295 20.927963
66.300 20.882055
66.305 20.328236
66.310 20.337805
66.315 20.21833
66.320 20.757479
66.325 20.586781
66.330 19.934334
66.335 20.33392
66.340 20.250425
66.345 20.379318
66.350 20.20122
66.355 19.623072
66.360 19.078516
66.365 18.35339
66.370 18.097681
66.375 18.207815
66.380 17.677843
66.385 17.854879
66.390 17.732155
66.395 17.943264
66.400 18.206673
66.405 18.209505
66.410 18.45904
66.415 18.642267
66.420 19.1882
66.425 19.895926
66.430 20.048374
66.435 20.087185
66.440 19.894421
66.445 19.766403
66.450 20.485285
66.455 20.150343
66.460 19.799417
66.465 20.058855
66.470 20.301941
66.475 20.327145
66.480 19.894361
66.485 19.315882
66.490 19.011505
66.495 19.451796
66.500 19.416351
66.505 19.237385
66.510 19.459858
66.515 19.862314
66.520 18.988293
66.525 18.469599
66.530 18.044189
66.535 18.068678
66.540 17.878273
66.545 17.402483
66.550 17.339157
66.555 18.02206
66.560 18.338608
66.565 18.191347
66.570 18.159824
66.575 18.289442
66.580 18.351984
66.585 18.135286
66.590 18.067053
66.595 18.52939
66.600 18.95986
66.605 19.169628
66.610 19.250238
66.615 19.5588
66.620 19.941916
66.625 19.924881
66.630 19.472553
66.635 18.867516
66.640 18.939152
66.645 18.896738
66.650 18.363977
66.655 18.169058
66.660 18.570269
66.665 18.686594
66.670 18.662603
66.675 17.963366
66.680 18.301722
66.685 18.466267
66.690 18.387932
66.695 17.899548
66.700 17.610348
66.705 17.533924
66.710 17.883291
66.715 18.048832
66.720 18.483208
66.725 18.061096
66.730 17.993982
66.735 17.787415
66.740 17.669788
66.745 17.07122
66.750 16.730576
66.755 16.164404
66.760 16.027596
66.765 16.125574
66.770 16.329784
66.775 16.294626
66.780 16.527464
66.785 16.371973
66.790 16.940519
66.795 17.184635
66.800 17.800964
66.805 17.81027
66.810 18.321239
66.815 18.712997
66.820 18.876917
66.825 18.786896
66.830 18.332766
66.835 17.636118
66.840 17.62237
66.845 17.4988
66.850 17.376257
66.855 17.312527
66.860 17.294456
66.865 17.576372
66.870 17.598618
66.875 17.726862
66.880 17.842949
66.885 18.137697
66.890 17.951994
66.895 18.893911
66.900 18.791428
66.905 19.110842
66.910 19.351761
66.915 19.134356
66.920 18.644733
66.925 18.896952
66.930 18.354641
66.935 18.926933
66.940 19.30801
66.945 18.831379
66.950 18.839212
66.955 19.031565
66.960 19.085058
66.965 19.749655
66.970 19.242296
66.975 18.858709
66.980 18.97253
66.985 19.20882
66.990 18.807877
66.995 18.838861
67.000 18.209431
67.005 18.333748
67.010 18.202868
67.015 17.796328
67.020 17.228821
67.025 17.458309
67.030 17.249142
67.035 17.933016
67.040 18.003538
67.045 18.355974
67.050 18.890446
67.055 19.225271
67.060 19.319082
67.065 19.587439
67.070 19.046677
67.075 19.184877
67.080 19.312073
67.085 19.067457
67.090 19.530254
67.095 19.079266
67.100 18.37892
67.105 18.486404
67.110 17.863501
67.115 17.485445
67.120 17.942371
67.125 17.414806
67.130 17.722357
67.135 17.915909
67.140 17.927814
67.145 18.487324
67.150 18.849405
67.155 18.913809
67.160 19.371147
67.165 19.846346
67.170 19.653614
67.175 19.561213
67.180 19.345205
67.185 19.54191
67.190 19.803768
67.195 19.508841
67.200 18.907078
67.205 19.507919
67.210 19.744318
67.215 19.564943
67.220 19.167347
67.225 18.843294
67.230 18.93215
67.235 18.847916
67.240 17.897272
67.245 17.828379
67.250 18.343655
67.255 17.852282
67.260 18.107729
67.265 18.09486
67.270 18.453609
67.275 18.767185
67.280 18.901123
67.285 18.942568
67.290 19.425125
67.295 19.185173
67.300 19.240957
67.305 19.258028
67.310 18.899185
67.315 18.496881
67.320 17.95841
67.325 17.528391
67.330 17.081081
67.335 17.058126
67.340 16.811394
67.345 17.184305
67.350 17.132797
67.355 16.983749
67.360 16.998785
67.365 17.535378
67.370 17.562151
67.375 17.807373
67.380 17.906521
67.385 17.808661
67.390 17.304213
67.395 16.937771
67.400 16.705887
67.405 16.622053
67.410 16.292465
67.415 16.383734
67.420 17.016478
67.425 17.556107
67.430 17.808153
67.435 17.752943
67.440 18.280855
67.445 18.268682
67.450 18.275925
67.455 18.875572
67.460 19.459166
67.465 19.339987
67.470 18.866945
67.475 18.490089
67.480 19.029112
67.485 19.147034
67.490 18.61817
67.495 18.842979
67.500 19.193745
67.505 19.333433
67.510 19.507517
67.515 19.266857
67.520 18.883741
67.525 18.64427
67.530 18.224186
67.535 18.309443
67.540 18.48934
67.545 18.621561
67.550 18.627729
67.555 18.015614
67.560 17.833771
67.565 18.103975
67.570 17.991556
67.575 17.872755
67.580 17.838402
67.585 18.37104
67.590 18.960915
67.595 19.236301
67.600 19.25473
67.605 19.727409
67.610 19.457199
67.615 18.934536
67.620 18.76783
67.625 19.101601
67.630 19.490156
67.635 19.406219
67.640 18.725956
67.645 18.96553
67.650 19.526489
67.655 19.193222
67.660 18.946091
67.665 18.669216
67.670 18.889471
67.675 19.172541
67.680 19.468405
67.685 19.561045
67.690 20.711187
67.695 20.372231
67.700 20.320923
67.705 19.974766
67.710 19.900692
67.715 19.983498
67.720 19.988386
67.725 19.618151
67.730 20.080812
67.735 19.762766
67.740 19.731501
67.745 19.615131
67.750 19.30039
67.755 18.90427
67.760 17.833246
67.765 18.091352
67.770 17.904081
67.775 18.215897
67.780 18.472694
67.785 18.437645
67.790 18.254843
67.795 18.88534
67.800 18.996883
67.805 19.150682
67.810 18.75453
67.815 18.301291
67.820 17.837004
67.825 17.785702
67.830 16.897955
67.835 16.70112
67.840 16.937803
67.845 16.922159
67.850 16.974909
67.855 17.342382
67.860 18.179195
67.865 18.483318
67.870 18.014404
67.875 17.79756
67.880 18.072283
67.885 18.244497
67.890 17.836336
67.895 17.675158
67.900 18.448256
67.905 19.11853
67.910 19.12969
67.915 18.737837
67.920 18.813108
67.925 19.195604
67.930 19.177805
67.935 19.37866
67.940 19.66153
67.945 19.926497
67.950 20.478233
67.955 20.639357
67.960 20.613951
67.965 20.437075
67.970 20.115824
67.975 20.428274
67.980 20.571522
67.985 20.088167
67.990 19.54377
67.995 19.528603
68.000 18.995495
68.005 18.177149
68.010 17.84927
68.015 17.754654
68.020 18.52807
68.025 19.271959
68.030 19.4482
68.035 19.995045
68.040 19.711878
68.045 19.66901
68.050 19.749866
68.055 20.126389
68.060 19.571939
68.065 19.181854
68.070 19.806559
68.075 20.935318
68.080 21.407387
68.085 21.199602
68.090 20.540247
68.095 21.111351
68.100 21.219854
68.105 20.845545
68.110 20.676338
68.115 20.396313
68.120 20.513102
68.125 20.75514
68.130 20.697727
68.135 20.910999
68.140 20.694223
68.145 21.212347
68.150 20.775057
68.155 20.595896
68.160 20.602505
68.165 20.801849
68.170 20.967543
68.175 20.857023
68.180 20.193253
68.185 20.444229
68.190 20.929281
68.195 21.078342
68.200 21.025238
68.205 21.027584
68.210 21.525591
68.215 21.598524
68.220 21.800781
68.225 21.919151
68.230 21.906204
68.235 21.771452
68.240 22.37603
68.245 22.890772
68.250 23.215618
68.255 23.191135
68.260 23.661598
68.265 24.202967
68.270 23.96217
68.275 23.2404
68.280 23.195026
68.285 23.203423
68.290 23.221869
68.295 22.960094
68.300 23.274452
68.305 23.883169
68.310 24.332645
68.315 24.274599
68.320 24.950846
68.325 25.133802
68.330 25.395214
68.335 24.788116
68.340 24.844212
68.345 24.687386
68.350 25.821346
68.355 26.135233
68.360 26.727476
68.365 26.831783
68.370 27.914577
68.375 28.044214
68.380 28.595747
68.385 28.744164
68.390 28.971426
68.395 29.572706
68.400 29.816164
68.405 29.588055
68.410 29.562695
68.415 29.02253
68.420 29.122715
68.425 28.42441
68.430 27.999233
68.435 27.989197
68.440 28.53418
68.445 29.272182
68.450 30.35265
68.455 30.758827
68.460 31.080275
68.465 31.736277
68.470 31.641817
68.475 31.913391
68.480 31.749794
68.485 32.066689
68.490 32.485149
68.495 33.057545
68.500 33.849918
68.505 33.861263
68.510 33.512196
68.515 33.89983
68.520 33.090458
68.525 32.460777
68.530 32.367992
68.535 32.009102
68.540 32.560307
68.545 33.20607
68.550 33.583847
68.555 34.750549
68.560 35.140575
68.565 35.113262
68.570 34.791573
68.575 34.952763
68.580 34.840237
68.585 34.951187
68.590 35.517178
68.595 36.317673
68.600 36.804317
68.605 36.912132
68.610 37.364208
68.615 37.620068
68.620 37.510456
68.625 36.856857
68.630 36.660076
68.635 36.471329
68.640 36.631218
68.645 36.111561
68.650 35.60936
68.655 35.450546
68.660 36.071686
68.665 36.249577
68.670 36.63155
68.675 36.663788
68.680 36.778843
68.685 36.494034
68.690 36.482159
68.695 35.826015
68.700 35.777111
68.705 35.93441
68.710 35.81345
68.715 35.84325
68.720 35.919468
68.725 36.431797
68.730 36.844566
68.735 37.2117
68.740 36.91584
68.745 36.671299
68.750 36.821461
68.755 37.275581
68.760 36.914013
68.765 36.727947
68.770 35.939735
68.775 36.251816
68.780 36.807949
68.785 36.473183
68.790 35.740864
68.795 35.332951
68.800 34.869068
68.805 34.582745
68.810 34.794411
68.815 35.133114
68.820 35.679905
68.825 36.566525
68.830 36.761986
68.835 37.485451
68.840 37.424339
68.845 36.882954
68.850 37.079117
68.855 36.788044
68.860 36.169395
68.865 36.059319
68.870 35.513901
68.875 35.556675
68.880 35.318939
68.885 34.394024
68.890 34.386414
68.895 34.458752
68.900 34.384769
68.905 34.284039
68.910 34.041584
68.915 33.732876
68.920 33.32975
68.925 32.612392
68.930 32.612175
68.935 31.735962
68.940 30.856939
68.945 30.403862
68.950 30.582672
68.955 30.896852
68.960 30.86063
68.965 30.354744
68.970 30.611942
68.975 31.289562
68.980 31.153011
68.985 30.455252
68.990 30.498022
68.995 30.561705
69.000 30.664753
69.005 30.5924
69.010 29.597208
69.015 29.626013
69.020 30.116262
69.025 30.454529
69.030 29.978212
69.035 29.621635
69.040 29.57765
69.045 30.133224
69.050 29.505823
69.055 29.16506
69.060 29.015757
69.065 29.238096
69.070 29.069151
69.075 28.871006
69.080 28.66711
69.085 28.91618
69.090 29.324663
69.095 28.571112
69.100 28.367825
69.105 27.819096
69.110 27.305075
69.115 27.040377
69.120 26.760746
69.125 26.11429
69.130 26.005968
69.135 25.778419
69.140 25.778868
69.145 25.436604
69.150 25.163555
69.155 24.976301
69.160 25.088556
69.165 25.3482
69.170 25.22143
69.175 25.156397
69.180 25.295649
69.185 25.863283
69.190 25.514
69.195 25.165834
69.200 25.097691
69.205 25.212936
69.210 25.846601
69.215 26.112762
69.220 25.551619
69.225 25.468681
69.230 25.733208
69.235 25.269318
69.240 24.536133
69.245 23.216984
69.250 22.615095
69.255 23.24247
69.260 23.256622
69.265 22.822256
69.270 22.635504
69.275 22.607298
69.280 22.244486
69.285 22.002272
69.290 21.392542
69.295 20.925993
69.300 21.043114
69.305 21.358704
69.310 21.833353
69.315 21.947557
69.320 21.554953
69.325 21.423534
69.330 21.191544
69.335 20.493042
69.340 20.118486
69.345 19.916815
69.350 20.565588
69.355 21.191132
69.360 21.646587
69.365 21.878275
69.370 22.206852
69.375 22.148224
69.380 21.990755
69.385 20.777777
69.390 19.994219
69.395 19.328876
69.400 19.997198
69.405 20.211891
69.410 20.050486
69.415 19.834185
69.420 19.972441
69.425 20.523239
69.430 20.327517
69.435 20.218634
69.440 20.141384
69.445 20.223845
69.450 21.108648
69.455 21.025341
69.460 20.262268
69.465 19.829456
69.470 19.229568
69.475 18.957081
69.480 18.327387
69.485 17.970407
69.490 18.437845
69.495 18.762234
69.500 19.429663
69.505 19.16398
69.510 19.067184
69.515 19.245344
69.520 18.718699
69.525 19.07769
69.530 19.078808
69.535 18.760241
69.540 19.265057
69.545 19.312313
69.550 19.30508
69.555 19.889812
69.560 19.714144
69.565 20.223373
69.570 19.975029
69.575 19.541553
69.580 19.532133
69.585 19.105701
69.590 18.356867
69.595 17.852737
69.600 17.773409
69.605 17.915846
69.610 18.332912
69.615 17.917894
69.620 17.891909
69.625 18.53297
69.630 18.953966
69.635 18.687746
69.640 18.711977
69.645 19.888855
69.650 20.408092
69.655 20.528713
69.660 19.999468
69.665 20.183153
69.670 20.101583
69.675 19.905115
69.680 19.129173
69.685 19.123728
69.690 19.20133
69.695 19.186012
69.700 18.660265
69.705 18.378435
69.710 17.830963
69.715 17.48135
69.720 17.638147
69.725 17.382183
69.730 18.106533
69.735 19.068914
69.740 19.773003
69.745 20.28994
69.750 20.423323
69.755 20.597223
69.760 20.194075
69.765 19.3878
69.770 18.793449
69.775 18.436092
69.780 18.687933
69.785 19.040768
69.790 19.184174
69.795 19.912067
69.800 20.087339
69.805 19.809151
69.810 19.444426
69.815 19.24884
69.820 18.896053
69.825 18.897705
69.830 18.219431
69.835 18.05052
69.840 17.742741
69.845 17.680984
69.850 17.528706
69.855 17.267555
69.860 16.538147
69.865 16.902567
69.870 17.366043
69.875 18.127388
69.880 18.396231
69.885 18.356462
69.890 18.179483
69.895 18.604921
69.900 17.951414
69.905 17.88822
69.910 17.832769
69.915 17.731581
69.920 17.756451
69.925 18.10445
69.930 17.878815
69.935 18.070555
69.940 17.811701
69.945 17.409861
69.950 17.535563
69.955 17.614534
69.960 17.683369
69.965 17.745003
69.970 18.054153
69.975 17.888342
69.980 18.130075
69.985 17.967422
69.990 17.581089
69.995 17.491615
70.000 17.411125
70.005 17.340374
70.010 17.326269
70.015 16.880314
70.020 17.252308
70.025 17.962374
70.030 18.029835
70.035 18.878586
70.040 19.314165
70.045 20.079868
70.050 19.929852
70.055 19.238081
70.060 19.079971
70.065 19.719069
70.070 19.380709
70.075 19.275576
70.080 19.065477
70.085 19.591581
70.090 19.89603
70.095 19.570776
70.100 19.068014
70.105 18.966797
70.110 18.727644
70.115 19.258841
70.120 19.570473
70.125 20.013523
70.130 20.359306
70.135 20.91205
70.140 21.069912
70.145 21.126534
70.150 20.342907
70.155 19.972727
70.160 19.269661
70.165 18.463123
70.170 17.367989
70.175 17.020254
70.180 16.321909
70.185 16.770325
70.190 17.418827
70.195 17.525696
70.200 18.361778
70.205 18.669636
70.210 18.542381
70.215 18.843475
70.220 18.530361
70.225 18.159584
70.230 17.987694
70.235 17.351704
70.240 16.852129
70.245 17.29586
70.250 17.262007
70.255 17.352533
70.260 17.70672
70.265 17.773811
70.270 17.548584
70.275 17.915838
70.280 18.447018
70.285 19.070396
70.290 18.527235
70.295 18.15284
70.300 18.201401
70.305 19.217365
70.310 19.647501
70.315 19.259666
70.320 19.312834
70.325 19.468254
70.330 19.614088
70.335 20.088366
70.340 18.785355
70.345 18.377197
70.350 18.063955
70.355 18.043951
70.360 17.570375
70.365 17.285131
70.370 17.267017
70.375 18.065866
70.380 18.100756
70.385 17.740345
70.390 17.220966
70.395 17.752117
70.400 17.760948
70.405 17.515957
70.410 17.497749
70.415 17.835697
70.420 18.031898
70.425 18.411411
70.430 18.645405
70.435 18.828373
70.440 18.794828
70.445 18.577585
70.450 18.119799
70.455 18.261755
70.460 18.456707
70.465 18.673765
70.470 18.702868
70.475 18.826754
70.480 18.867043
70.485 18.309458
70.490 17.727345
70.495 17.484158
70.500 17.375721
70.505 17.429667
70.510 17.821543
70.515 17.695398
70.520 18.068617
70.525 18.525501
70.530 18.594662
70.535 18.154369
70.540 17.989525
70.545 18.09651
70.550 18.076683
70.555 18.11294
70.560 17.486797
70.565 17.458807
70.570 17.929859
70.575 17.776691
70.580 17.612366
70.585 17.95949
70.590 18.288467
70.595 18.199184
70.600 17.722652
70.605 17.800322
70.610 18.284504
70.615 18.315662
70.620 18.414278
70.625 18.367155
70.630 18.823465
70.635 18.771042
70.640 18.604437
70.645 18.25539
70.650 17.867981
70.655 17.642015
70.660 17.312777
70.665 17.287977
70.670 17.527096
70.675 17.180857
70.680 17.462496
70.685 18.442312
70.690 18.692532
70.695 18.978933
70.700 18.812536
70.705 19.043449
70.710 19.050276
70.715 18.68276
70.720 18.060829
70.725 17.857296
70.730 17.895058
70.735 18.582756
70.740 18.106508
70.745 18.057783
70.750 18.843798
70.755 19.423525
70.760 20.078299
70.765 19.709202
70.770 19.439789
70.775 19.624025
70.780 19.487871
70.785 18.673134
70.790 18.136656
70.795 17.553421
70.800 17.593184
70.805 17.399487
70.810 17.841137
70.815 17.682709
70.820 17.491926
70.825 17.548613
70.830 17.64134
70.835 17.778957
70.840 17.543373
70.845 17.109961
70.850 17.131371
70.855 17.063559
70.860 16.992178
70.865 16.950907
70.870 16.742628
70.875 16.773506
70.880 17.086899
70.885 17.670452
70.890 19.036997
70.895 18.877493
70.900 18.818878
70.905 18.833326
70.910 19.255314
70.915 18.875708
70.920 17.937403
70.925 17.462198
70.930 17.701756
70.935 18.555426
70.940 19.231674
70.945 19.299799
70.950 19.550459
70.955 19.939068
70.960 19.541626
70.965 19.108418
70.970 18.696535
70.975 18.289333
70.980 18.450459
70.985 19.008505
70.990 19.257845
70.995 19.495697
71.000 19.621729
71.005 19.986042
71.010 19.934193
71.015 19.858812
71.020 19.187992
71.025 18.884771
71.030 18.600279
71.035 18.341972
71.040 17.413805
71.045 17.373922
71.050 17.052521
71.055 17.277613
71.060 16.682646
71.065 16.819098
71.070 17.142605
71.075 17.825272
71.080 18.058249
71.085 18.152712
71.090 18.542379
71.095 19.118628
71.100 19.097639
71.105 19.334576
71.110 18.57407
71.115 18.235712
71.120 17.969374
71.125 17.649313
71.130 17.778442
71.135 17.93471
71.140 17.463501
71.145 18.096073
71.150 18.567499
71.155 18.40514
71.160 18.086637
71.165 18.001064
71.170 18.464331
71.175 18.359171
71.180 18.360231
71.185 18.400579
71.190 19.276463
71.195 19.658043
71.200 19.751511
71.205 19.648785
71.210 19.930206
71.215 19.806231
71.220 19.507578
71.225 19.109661
71.230 18.805912
71.235 19.388611
71.240 19.776316
71.245 19.722446
71.250 19.580153
71.255 19.434744
71.260 19.522007
71.265 19.647833
71.270 19.185017
71.275 18.615368
71.280 18.573593
71.285 18.629467
71.290 19.152033
71.295 19.512085
71.300 19.032816
71.305 18.822212
71.310 19.197609
71.315 19.358017
71.320 19.466825
71.325 19.064739
71.330 19.056486
71.335 19.254662
71.340 19.578129
71.345 19.580248
71.350 19.389708
71.355 19.058632
71.360 19.200687
71.365 19.032074
71.370 18.606441
71.375 17.99703
71.380 17.769791
71.385 17.859507
71.390 17.869925
71.395 17.5998
71.400 18.3995
71.405 18.648727
71.410 19.065474
71.415 19.622934
71.420 19.981153
71.425 20.202955
71.430 20.54954
71.435 20.548344
71.440 20.395584
71.445 20.071005
71.450 19.543919
71.455 19.636559
71.460 19.191908
71.465 19.226244
71.470 19.447849
71.475 19.734961
71.480 20.106289
71.485 20.318825
71.490 20.430407
71.495 20.772238
71.500 20.393824
71.505 19.773409
71.510 20.128231
71.515 19.822206
71.520 19.695654
71.525 19.278639
71.530 18.658506
71.535 18.009132
71.540 17.743145
71.545 17.261438
71.550 17.102781
71.555 16.858431
71.560 16.84189
71.565 17.622774
71.570 18.179758
71.575 17.579891
71.580 17.062258
71.585 16.762209
71.590 17.074509
71.595 17.550451
71.600 17.458023
71.605 18.073181
71.610 19.050123
71.615 19.851826
71.620 19.559843
71.625 18.967754
71.630 18.327629
71.635 18.442917
71.640 18.0282
71.645 18.21335
71.650 17.944918
71.655 18.208504
71.660 18.596672
71.665 18.891413
71.670 18.853397
71.675 18.298508
71.680 18.332209
71.685 19.128223
71.690 19.035559
71.695 19.323156
71.700 19.363321
71.705 19.499592
71.710 19.718435
71.715 18.685532
71.720 18.211447
71.725 17.887346
71.730 17.226454
71.735 16.653177
71.740 16.139725
71.745 16.628141
71.750 16.648827
71.755 17.124554
71.760 18.158815
71.765 18.152061
71.770 17.849308
71.775 17.800728
71.780 17.960926
71.785 17.914968
71.790 17.51372
71.795 17.21319
71.800 17.478174
71.805 17.837072
71.810 17.969637
71.815 18.190195
71.820 18.587223
71.825 18.603167
71.830 18.702854
71.835 18.759319
71.840 19.223442
71.845 19.467768
71.850 19.095621
71.855 19.117533
71.860 18.742418
71.865 19.050171
71.870 18.947634
71.875 18.739943
71.880 18.683882
71.885 18.593767
71.890 19.024166
71.895 19.134184
71.900 18.84737
71.905 18.92815
71.910 18.780445
71.915 19.21995
71.920 19.559109
71.925 18.894508
71.930 18.509926
71.935 18.568316
71.940 18.887255
71.945 18.857412
71.950 18.452168
71.955 18.367603
71.960 18.585461
71.965 18.355812
71.970 18.071642
71.975 18.278242
71.980 17.825649
71.985 17.477148
71.990 17.361134
71.995 17.998409
72.000 18.465191
72.005 18.387821
72.010 17.409235
72.015 17.503588
72.020 17.808424
72.025 18.000675
72.030 17.77256
72.035 17.261755
72.040 17.004435
72.045 17.667301
72.050 17.481525
72.055 17.650059
72.060 17.320105
72.065 17.081566
72.070 17.421022
72.075 17.387276
72.080 17.436682
72.085 17.176565
72.090 16.983988
72.095 16.668245
72.100 16.417923
72.105 16.392593
72.110 16.219902
72.115 16.272871
72.120 16.874355
72.125 16.940176
72.130 17.452091
72.135 17.57785
72.140 17.675076
72.145 17.473734
72.150 17.503798
72.155 17.337538
72.160 17.12842
72.165 17.303001
72.170 17.289539
72.175 17.845121
72.180 18.839184
72.185 18.107212
72.190 18.00885
72.195 18.481155
72.200 18.614376
72.205 18.577484
72.210 18.101254
72.215 17.918722
72.220 17.835672
72.225 17.71859
72.230 17.081583
72.235 16.841341
72.240 16.90654
72.245 16.957554
72.250 16.48925
72.255 16.447205
72.260 16.430227
72.265 16.733927
72.270 16.413046
72.275 16.786917
72.280 16.653488
72.285 17.38158
72.290 17.826935
72.295 17.37224
72.300 17.668961
72.305 18.194777
72.310 17.955801
72.315 18.262672
72.320 18.05505
72.325 17.812185
72.330 18.295994
72.335 18.509251
72.340 18.835382
72.345 19.334482
72.350 19.054123
72.355 18.922636
72.360 19.232832
72.365 19.291477
72.370 19.021315
72.375 18.492668
72.380 17.719053
72.385 17.918417
72.390 17.847082
72.395 17.406918
72.400 17.12261
72.405 17.075111
72.410 17.223886
72.415 17.191628
72.420 16.773312
72.425 16.588869
72.430 16.646
72.435 16.285076
72.440 16.017643
72.445 16.27401
72.450 16.710035
72.455 17.215063
72.460 17.520548
72.465 18.062492
72.470 18.654926
72.475 18.637131
72.480 18.263136
72.485 18.904648
72.490 19.216799
72.495 19.451134
72.500 19.140753
72.505 18.44533
72.510 18.822721
72.515 18.864824
72.520 18.68856
72.525 18.570026
72.530 18.169403
72.535 18.2586
72.540 18.244848
72.545 17.898109
72.550 17.633987
72.555 17.50211
72.560 17.732965
72.565 17.878471
72.570 18.24577
72.575 18.546181
72.580 18.233122
72.585 18.713478
72.590 19.08956
72.595 19.363739
72.600 19.306211
72.605 19.20929
72.610 19.092001
72.615 18.766525
72.620 18.337133
72.625 18.102276
72.630 17.818512
72.635 17.494509
72.640 17.359955
72.645 17.666325
72.650 18.035583
72.655 17.543358
72.660 17.410065
72.665 17.094084
72.670 17.533161
72.675 18.044741
72.680 18.261496
72.685 18.316919
72.690 18.679262
72.695 18.800707
72.700 18.72452
72.705 18.409864
72.710 17.740246
72.715 17.79339
72.720 17.47184
72.725 16.526417
72.730 16.698013
72.735 16.766617
72.740 16.802443
72.745 17.647594
72.750 17.273106
72.755 17.24831
72.760 17.087484
72.765 16.980587
72.770 17.332731
72.775 17.296185
72.780 16.92679
72.785 16.950945
72.790 17.577051
72.795 17.7992
72.800 17.953777
72.805 17.563486
72.810 17.191843
72.815 17.248341
72.820 17.715092
72.825 17.678185
72.830 18.191441
72.835 17.871565
72.840 18.106955
72.845 17.768156
72.850 17.596985
72.855 17.179243
72.860 15.999459
72.865 15.57297
72.870 15.667462
72.875 15.732284
72.880 15.808763
72.885 15.752788
72.890 16.309864
72.895 16.934364
72.900 16.712236
72.905 16.216967
72.910 16.295063
72.915 16.289747
72.920 16.146799
72.925 16.410297
72.930 15.910414
72.935 16.105404
72.940 16.15307
72.945 16.364882
72.950 16.597645
72.955 16.909979
72.960 16.84395
72.965 17.050825
72.970 17.295519
72.975 17.520811
72.980 17.175657
72.985 16.855074
72.990 16.394224
72.995 16.18738
73.000 15.786461
