!@!!GADDS PLOTSO FILE: Chi integration type
!@!!Title/SampleName: map-127
!@!!Comment: ?
!@!!User: Bruker Instrument Administrator
!@!!Site: University of Illinois Chicago
!@!!Frame: map-127_01_000.gfrm
!@!!Wavelengths    1.54184   1.54056   1.54439
!@!!Frame angles: 2Theta: 63.000 Omega: 50.000 Phi: 0.000 Chi: 90.000
!@!!Integration range: 2Theta: 53.000 to 73.000  Gamma: -105.000 to -75.000
!@!!Integration method: bin normalized
!@!N
!@!SS
!@!M
!@!L 0.0 0.0 0.0 0.0
!@!XDegrees
!@!YCounts
53.000 3.456956
53.005 3.62628
53.010 3.748888
53.015 3.605169
53.020 3.772883
53.025 4.126636
53.030 4.524483
53.035 4.731547
53.040 4.585868
53.045 4.564011
53.050 4.463791
53.055 4.219737
53.060 4.120472
53.065 3.882372
53.070 3.975161
53.075 4.02038
53.080 4.381869
53.085 4.79811
53.090 4.839091
53.095 4.847809
53.100 4.727867
53.105 4.645502
53.110 4.844543
53.115 4.545821
53.120 4.580997
53.125 4.731196
53.130 5.154007
53.135 5.428266
53.140 5.322122
53.145 5.186362
53.150 5.114558
53.155 4.630579
53.160 4.342046
53.165 4.339362
53.170 4.157955
53.175 4.376286
53.180 4.128825
53.185 4.200346
53.190 4.662633
53.195 4.399907
53.200 4.270586
53.205 4.147621
53.210 3.824722
53.215 3.969131
53.220 4.098286
53.225 3.961179
53.230 4.012259
53.235 4.061648
53.240 4.248651
53.245 4.630244
53.250 4.842201
53.255 5.186251
53.260 5.338977
53.265 5.070107
53.270 4.833726
53.275 4.81643
53.280 4.242142
53.285 3.938277
53.290 3.453244
53.295 3.796858
53.300 4.131343
53.305 4.325668
53.310 4.921844
53.315 5.564248
53.320 6.268844
53.325 6.226537
53.330 6.03836
53.335 5.697441
53.340 5.499552
53.345 5.023178
53.350 4.22418
53.355 3.676856
53.360 3.836069
53.365 4.112803
53.370 4.427231
53.375 4.629258
53.380 4.722072
53.385 5.26574
53.390 5.548613
53.395 5.570145
53.400 5.587811
53.405 5.456348
53.410 5.313129
53.415 5.306532
53.420 5.159111
53.425 5.280323
53.430 5.196524
53.435 5.048151
53.440 5.252958
53.445 5.462364
53.450 5.448672
53.455 5.420329
53.460 5.255923
53.465 5.434721
53.470 5.42683
53.475 5.135054
53.480 5.080207
53.485 5.195241
53.490 5.040753
53.495 5.022598
53.500 5.081946
53.505 5.0435
53.510 5.279416
53.515 5.457456
53.520 5.86745
53.525 5.904291
53.530 5.856468
53.535 5.788154
53.540 5.959671
53.545 5.901308
53.550 5.716393
53.555 5.351962
53.560 5.286662
53.565 5.107125
53.570 4.738207
53.575 4.512459
53.580 4.266443
53.585 4.321521
53.590 4.559784
53.595 4.755486
53.600 5.185932
53.605 5.325331
53.610 5.551641
53.615 5.666648
53.620 5.566827
53.625 5.430941
53.630 5.33876
53.635 5.17327
53.640 5.203067
53.645 4.956729
53.650 4.717189
53.655 4.856823
53.660 4.720924
53.665 4.649574
53.670 4.832119
53.675 4.865626
53.680 5.096775
53.685 5.023695
53.690 5.185098
53.695 5.436084
53.700 5.074196
53.705 4.996018
53.710 4.962284
53.715 5.065366
53.720 5.099989
53.725 4.700627
53.730 4.766807
53.735 5.252519
53.740 5.448358
53.745 5.158699
53.750 4.888454
53.755 4.901657
53.760 4.928717
53.765 4.85136
53.770 4.668573
53.775 4.837914
53.780 5.266404
53.785 5.607136
53.790 5.805804
53.795 6.250034
53.800 6.053237
53.805 5.888731
53.810 5.639052
53.815 5.555174
53.820 5.301627
53.825 5.439554
53.830 5.263175
53.835 5.822617
53.840 6.10353
53.845 5.958345
53.850 6.035668
53.855 5.771018
53.860 5.329347
53.865 5.180061
53.870 4.850873
53.875 4.667768
53.880 4.870234
53.885 4.875468
53.890 4.975866
53.895 5.41079
53.900 5.209011
53.905 5.118279
53.910 5.133274
53.915 5.216983
53.920 5.260858
53.925 5.492126
53.930 5.38971
53.935 5.759176
53.940 6.271475
53.945 6.267564
53.950 6.02473
53.955 6.082398
53.960 5.84566
53.965 5.406786
53.970 5.150815
53.975 4.927273
53.980 5.25318
53.985 5.23505
53.990 5.243665
53.995 5.489782
54.000 5.712361
54.005 5.729932
54.010 5.891327
54.015 5.643857
54.020 5.684867
54.025 5.92163
54.030 5.894363
54.035 5.922388
54.040 5.864047
54.045 5.740083
54.050 5.847004
54.055 5.665918
54.060 5.346241
54.065 5.70579
54.070 5.803535
54.075 5.804173
54.080 5.743783
54.085 5.53818
54.090 5.444025
54.095 5.459125
54.100 5.387791
54.105 5.495276
54.110 5.516367
54.115 5.298693
54.120 5.577227
54.125 5.696158
54.130 5.884299
54.135 5.605237
54.140 5.277473
54.145 5.17609
54.150 5.495039
54.155 5.515485
54.160 5.475452
54.165 5.049745
54.170 5.017372
54.175 5.139076
54.180 4.954229
54.185 4.652394
54.190 4.860371
54.195 4.979246
54.200 5.093582
54.205 5.098923
54.210 5.318505
54.215 5.866213
54.220 6.142392
54.225 5.58145
54.230 5.777989
54.235 6.043895
54.240 6.148026
54.245 5.766071
54.250 5.342892
54.255 5.598727
54.260 5.770858
54.265 5.369988
54.270 5.183797
54.275 5.333356
54.280 6.028917
54.285 6.108414
54.290 5.813023
54.295 6.146012
54.300 6.081211
54.305 6.178351
54.310 5.84858
54.315 5.535534
54.320 5.506605
54.325 5.774596
54.330 5.45639
54.335 5.770747
54.340 5.549072
54.345 5.409799
54.350 5.170719
54.355 5.279118
54.360 5.215555
54.365 5.483346
54.370 5.688025
54.375 5.958855
54.380 6.128278
54.385 6.129089
54.390 6.204025
54.395 6.449667
54.400 6.211136
54.405 6.123032
54.410 6.019822
54.415 5.917498
54.420 5.685606
54.425 5.605985
54.430 5.116262
54.435 4.934992
54.440 5.18119
54.445 5.468032
54.450 5.663155
54.455 5.829668
54.460 5.72601
54.465 6.047904
54.470 6.280703
54.475 6.207895
54.480 6.158388
54.485 6.137187
54.490 5.869009
54.495 5.954672
54.500 5.858948
54.505 5.770227
54.510 5.874371
54.515 5.948152
54.520 6.044116
54.525 6.128368
54.530 6.030738
54.535 5.971575
54.540 6.032143
54.545 5.756347
54.550 5.53125
54.555 5.347314
54.560 5.212361
54.565 5.080434
54.570 5.11154
54.575 5.102464
54.580 5.349938
54.585 5.577998
54.590 5.701655
54.595 6.008015
54.600 6.0686
54.605 6.061999
54.610 6.381805
54.615 6.629195
54.620 6.615866
54.625 6.72011
54.630 6.636694
54.635 6.873495
54.640 6.325699
54.645 5.45149
54.650 5.01085
54.655 5.018622
54.660 5.053005
54.665 4.828085
54.670 4.905446
54.675 5.557418
54.680 5.988307
54.685 5.989284
54.690 5.730162
54.695 5.619999
54.700 5.681079
54.705 5.798378
54.710 5.461299
54.715 5.408607
54.720 5.516357
54.725 5.656934
54.730 5.649042
54.735 5.55602
54.740 5.388304
54.745 5.752192
54.750 5.562632
54.755 5.51815
54.760 5.556243
54.765 5.391007
54.770 5.481853
54.775 5.711692
54.780 5.61856
54.785 6.288691
54.790 6.324512
54.795 6.426819
54.800 6.691125
54.805 6.852549
54.810 6.242731
54.815 5.955566
54.820 5.843213
54.825 5.917054
54.830 5.563814
54.835 5.548714
54.840 5.625679
54.845 6.113159
54.850 6.378808
54.855 6.104661
54.860 6.141094
54.865 6.38098
54.870 6.300198
54.875 6.058813
54.880 6.142009
54.885 5.924057
54.890 6.132767
54.895 6.113531
54.900 6.102432
54.905 6.141034
54.910 6.051051
54.915 5.995292
54.920 6.120526
54.925 6.298275
54.930 6.65924
54.935 7.121047
54.940 7.455869
54.945 7.809216
54.950 8.183055
54.955 8.256512
54.960 7.979162
54.965 7.432884
54.970 6.88485
54.975 6.492812
54.980 6.148135
54.985 5.62235
54.990 5.424984
54.995 5.287866
55.000 5.200838
55.005 5.043903
55.010 5.086247
55.015 5.249569
55.020 5.473558
55.025 5.67737
55.030 5.988688
55.035 6.266905
55.040 6.388462
55.045 6.527478
55.050 6.73884
55.055 6.762683
55.060 6.733961
55.065 6.634725
55.070 6.738266
55.075 6.630811
55.080 6.541068
55.085 6.009302
55.090 5.760067
55.095 5.504581
55.100 5.568068
55.105 5.831606
55.110 6.229635
55.115 6.268405
55.120 6.263341
55.125 6.35119
55.130 6.723215
55.135 6.722787
55.140 6.31386
55.145 5.91885
55.150 5.788528
55.155 5.845901
55.160 6.403625
55.165 6.477168
55.170 6.618983
55.175 7.04057
55.180 7.663708
55.185 8.151752
55.190 8.283431
55.195 7.861389
55.200 7.710018
55.205 7.652808
55.210 7.380917
55.215 7.087518
55.220 7.027506
55.225 6.796528
55.230 6.678134
55.235 6.69298
55.240 6.669223
55.245 6.791118
55.250 7.0577
55.255 6.848085
55.260 6.615788
55.265 6.713705
55.270 6.679806
55.275 6.324951
55.280 6.030409
55.285 6.125345
55.290 6.152225
55.295 5.975948
55.300 5.85147
55.305 5.846597
55.310 6.039333
55.315 6.140663
55.320 6.437313
55.325 7.051761
55.330 7.42134
55.335 7.543239
55.340 7.383466
55.345 7.370344
55.350 6.907567
55.355 6.339684
55.360 6.458991
55.365 6.279276
55.370 6.221742
55.375 6.312046
55.380 6.754652
55.385 6.769314
55.390 6.531236
55.395 6.560478
55.400 6.705488
55.405 6.731101
55.410 6.570074
55.415 6.173111
55.420 6.254616
55.425 6.340996
55.430 5.938037
55.435 5.846037
55.440 6.337791
55.445 6.628195
55.450 6.843888
55.455 7.020818
55.460 7.161823
55.465 7.253599
55.470 7.078333
55.475 6.775558
55.480 6.532169
55.485 6.441908
55.490 6.420542
55.495 6.448701
55.500 6.8742
55.505 7.258275
55.510 7.395525
55.515 7.550982
55.520 7.481309
55.525 7.558079
55.530 7.596836
55.535 7.70537
55.540 7.364582
55.545 7.234311
55.550 7.827859
55.555 8.028604
55.560 8.026778
55.565 8.109516
55.570 7.779624
55.575 8.022185
55.580 7.966365
55.585 7.368472
55.590 7.430497
55.595 7.245012
55.600 6.993159
55.605 7.007679
55.610 6.754225
55.615 6.745204
55.620 7.061578
55.625 7.367315
55.630 7.340273
55.635 7.335436
55.640 7.140313
55.645 7.271295
55.650 7.231713
55.655 6.789966
55.660 6.340405
55.665 6.524798
55.670 6.378231
55.675 6.89182
55.680 7.155822
55.685 7.176861
55.690 7.578898
55.695 7.640403
55.700 7.850801
55.705 8.173545
55.710 7.710545
55.715 7.378465
55.720 7.173804
55.725 7.04953
55.730 6.884887
55.735 7.121942
55.740 6.809118
55.745 7.21102
55.750 7.275111
55.755 7.193867
55.760 7.21519
55.765 7.104622
55.770 6.868851
55.775 6.841396
55.780 6.552133
55.785 6.501429
55.790 6.206713
55.795 6.49166
55.800 6.622507
55.805 6.251895
55.810 6.152691
55.815 6.496933
55.820 6.607204
55.825 6.635323
55.830 6.145174
55.835 6.120157
55.840 6.481176
55.845 6.763391
55.850 6.613025
55.855 6.594914
55.860 6.515505
55.865 6.570036
55.870 6.628954
55.875 6.412477
55.880 6.023945
55.885 5.988382
55.890 6.29057
55.895 6.728314
55.900 6.601558
55.905 6.474549
55.910 6.944573
55.915 7.213728
55.920 7.297817
55.925 7.25794
55.930 7.216882
55.935 7.525921
55.940 7.542571
55.945 7.028505
55.950 6.975976
55.955 7.118427
55.960 6.936023
55.965 6.746989
55.970 6.665252
55.975 6.916525
55.980 6.934591
55.985 7.001061
55.990 6.971593
55.995 7.086268
56.000 7.594758
56.005 7.512092
56.010 7.473992
56.015 7.291582
56.020 7.006258
56.025 6.891028
56.030 6.764098
56.035 6.372255
56.040 6.298975
56.045 6.400545
56.050 6.382379
56.055 6.228562
56.060 6.096697
56.065 6.132463
56.070 6.098778
56.075 6.233427
56.080 6.672044
56.085 7.092531
56.090 7.24652
56.095 7.514996
56.100 7.374103
56.105 7.568677
56.110 7.724926
56.115 7.768947
56.120 7.90787
56.125 7.77756
56.130 7.572647
56.135 7.505476
56.140 7.548351
56.145 7.001319
56.150 6.661129
56.155 6.153121
56.160 6.296557
56.165 6.67246
56.170 6.804495
56.175 6.698171
56.180 6.824247
56.185 7.01591
56.190 7.271214
56.195 6.996132
56.200 6.764069
56.205 6.660846
56.210 6.646244
56.215 6.762626
56.220 6.667307
56.225 6.819187
56.230 7.128403
56.235 7.368948
56.240 7.804243
56.245 8.01706
56.250 7.748964
56.255 7.667222
56.260 7.297608
56.265 7.646487
56.270 7.747754
56.275 7.590265
56.280 7.723131
56.285 7.974331
56.290 8.327221
56.295 8.860706
56.300 8.543114
56.305 8.260897
56.310 8.361614
56.315 8.37821
56.320 8.109062
56.325 8.135683
56.330 8.104413
56.335 8.008359
56.340 8.199366
56.345 8.120779
56.350 7.800184
56.355 7.898754
56.360 8.170924
56.365 7.838488
56.370 7.858439
56.375 7.711068
56.380 7.672444
56.385 7.833357
56.390 7.672698
56.395 6.935687
56.400 6.909291
56.405 6.666912
56.410 6.506929
56.415 6.960199
56.420 7.338866
56.425 7.507856
56.430 8.268994
56.435 8.319854
56.440 8.350142
56.445 8.220651
56.450 7.604172
56.455 7.259994
56.460 7.100911
56.465 6.371903
56.470 6.768446
56.475 6.996254
56.480 6.90749
56.485 6.673768
56.490 7.134823
56.495 7.026608
56.500 7.044632
56.505 6.811448
56.510 6.733026
56.515 6.806135
56.520 6.917944
56.525 6.701299
56.530 7.072084
56.535 7.407215
56.540 7.135741
56.545 6.881404
56.550 6.97658
56.555 7.020917
56.560 6.821836
56.565 6.829713
56.570 6.524902
56.575 6.925262
56.580 7.147601
56.585 7.057123
56.590 7.076028
56.595 7.260688
56.600 7.522808
56.605 7.612789
56.610 7.263004
56.615 7.425314
56.620 7.794932
56.625 8.045915
56.630 7.650732
56.635 7.032119
56.640 6.976968
56.645 6.939115
56.650 6.765002
56.655 6.399614
56.660 6.189305
56.665 6.173421
56.670 6.419086
56.675 6.512452
56.680 6.83261
56.685 6.661042
56.690 6.712738
56.695 6.530769
56.700 6.380702
56.705 6.335293
56.710 6.513778
56.715 6.597672
56.720 6.732946
56.725 7.04705
56.730 7.308957
56.735 7.452764
56.740 7.430378
56.745 7.38243
56.750 7.525867
56.755 7.403306
56.760 7.4097
56.765 7.462324
56.770 7.863165
56.775 8.25787
56.780 8.173324
56.785 8.051881
56.790 8.327141
56.795 8.392981
56.800 8.267614
56.805 8.119815
56.810 8.060702
56.815 8.09968
56.820 8.315161
56.825 7.947664
56.830 7.766681
56.835 8.162766
56.840 8.256884
56.845 8.182933
56.850 7.923344
56.855 7.912208
56.860 8.255216
56.865 8.314408
56.870 8.159831
56.875 7.938698
56.880 7.861423
56.885 7.809395
56.890 7.402613
56.895 7.049757
56.900 7.041842
56.905 7.478572
56.910 7.518588
56.915 7.499295
56.920 7.870489
56.925 7.941015
56.930 7.984299
56.935 7.586625
56.940 6.963498
56.945 6.830333
56.950 6.653152
56.955 6.321651
56.960 6.696565
56.965 6.634984
56.970 6.643484
56.975 6.911892
56.980 7.087929
56.985 7.363234
56.990 7.175863
56.995 6.967122
57.000 7.006215
57.005 6.862938
57.010 6.651698
57.015 6.510491
57.020 6.607123
57.025 6.828253
57.030 6.617941
57.035 6.757715
57.040 7.048109
57.045 7.249757
57.050 7.568651
57.055 7.651194
57.060 7.813309
57.065 7.992443
57.070 8.236956
57.075 8.19109
57.080 8.38505
57.085 8.099578
57.090 7.950816
57.095 7.858793
57.100 7.759616
57.105 7.764285
57.110 7.518034
57.115 6.964976
57.120 6.904921
57.125 6.757382
57.130 6.745594
57.135 6.436013
57.140 6.473951
57.145 7.210059
57.150 7.607361
57.155 7.749545
57.160 7.574066
57.165 7.585352
57.170 7.892838
57.175 7.7809
57.180 7.441213
57.185 7.468187
57.190 7.733249
57.195 8.080538
57.200 8.378379
57.205 8.430971
57.210 8.798156
57.215 8.870935
57.220 8.757384
57.225 8.849463
57.230 8.753156
57.235 8.504554
57.240 8.289824
57.245 8.198095
57.250 7.90512
57.255 7.994789
57.260 8.167807
57.265 8.378095
57.270 8.454975
57.275 8.864437
57.280 8.691213
57.285 8.895759
57.290 8.632485
57.295 8.447372
57.300 8.39485
57.305 8.566389
57.310 7.926584
57.315 8.201281
57.320 8.153201
57.325 8.2664
57.330 7.875659
57.335 7.575149
57.340 7.770179
57.345 8.222241
57.350 8.3325
57.355 8.532744
57.360 8.529223
57.365 8.94208
57.370 9.401377
57.375 9.255085
57.380 9.050587
57.385 9.060226
57.390 8.898598
57.395 8.965666
57.400 8.491282
57.405 8.159835
57.410 8.257171
57.415 8.116716
57.420 8.054191
57.425 8.164752
57.430 8.236401
57.435 8.50668
57.440 8.083031
57.445 7.681779
57.450 7.458505
57.455 7.306885
57.460 7.187308
57.465 7.215378
57.470 7.539591
57.475 8.326677
57.480 8.528468
57.485 8.671104
57.490 8.819382
57.495 8.82554
57.500 8.607644
57.505 8.234012
57.510 7.861005
57.515 8.364819
57.520 8.446159
57.525 8.252091
57.530 8.184432
57.535 7.94438
57.540 7.533226
57.545 7.046837
57.550 6.62353
57.555 6.766485
57.560 6.74994
57.565 7.014484
57.570 7.330673
57.575 7.852738
57.580 8.426543
57.585 8.500793
57.590 8.845594
57.595 8.950871
57.600 8.905629
57.605 8.690744
57.610 8.781036
57.615 8.599813
57.620 8.366934
57.625 8.147453
57.630 8.008019
57.635 8.314458
57.640 8.834933
57.645 8.976213
57.650 9.163388
57.655 9.575551
57.660 9.858549
57.665 10.158138
57.670 9.708507
57.675 9.301778
57.680 9.267347
57.685 9.257006
57.690 9.194901
57.695 8.876067
57.700 8.526456
57.705 8.575821
57.710 8.570924
57.715 8.493941
57.720 8.10988
57.725 7.720298
57.730 7.690538
57.735 7.916427
57.740 8.28586
57.745 8.344355
57.750 7.99381
57.755 8.448073
57.760 8.567504
57.765 8.348202
57.770 8.327876
57.775 8.423385
57.780 8.648945
57.785 8.855197
57.790 8.899307
57.795 9.096889
57.800 9.264626
57.805 9.182585
57.810 9.29593
57.815 9.51405
57.820 9.62251
57.825 9.576501
57.830 9.621285
57.835 9.475017
57.840 9.348621
57.845 8.720787
57.850 8.276935
57.855 8.123721
57.860 8.263431
57.865 7.926886
57.870 7.930933
57.875 8.243434
57.880 8.499914
57.885 9.036091
57.890 9.171035
57.895 9.164386
57.900 9.614394
57.905 9.809731
57.910 9.662936
57.915 9.609529
57.920 9.275003
57.925 8.865253
57.930 8.857058
57.935 8.581703
57.940 8.332594
57.945 8.368037
57.950 8.613736
57.955 8.670296
57.960 8.848093
57.965 8.536409
57.970 8.50964
57.975 8.486793
57.980 8.573317
57.985 8.765699
57.990 8.790066
57.995 8.64288
58.000 8.833596
58.005 8.841013
58.010 8.825627
58.015 8.739781
58.020 8.270439
58.025 8.00324
58.030 8.192461
58.035 8.562798
58.040 9.29442
58.045 9.482718
58.050 9.604632
58.055 9.879572
58.060 9.98663
58.065 9.906143
58.070 9.663974
58.075 9.621168
58.080 10.010852
58.085 9.680783
58.090 9.569379
58.095 9.733609
58.100 10.078414
58.105 10.417542
58.110 10.200146
58.115 9.847294
58.120 9.973136
58.125 9.905951
58.130 9.813525
58.135 9.461377
58.140 9.226023
58.145 9.577652
58.150 9.643837
58.155 9.626279
58.160 9.836758
58.165 9.707256
58.170 9.893142
58.175 9.511091
58.180 9.185016
58.185 9.392097
58.190 9.321312
58.195 9.134561
58.200 9.604806
58.205 9.326888
58.210 9.256205
58.215 9.007833
58.220 8.917332
58.225 9.063486
58.230 9.136362
58.235 9.313148
58.240 9.656984
58.245 9.854446
58.250 9.660407
58.255 9.693296
58.260 9.468648
58.265 9.462005
58.270 9.347692
58.275 9.73041
58.280 10.147948
58.285 10.654859
58.290 10.457091
58.295 10.872869
58.300 11.066678
58.305 11.411497
58.310 11.481831
58.315 11.387913
58.320 11.340653
58.325 11.463372
58.330 11.048721
58.335 10.826801
58.340 10.464871
58.345 10.70307
58.350 10.461399
58.355 10.575493
58.360 10.911076
58.365 11.442056
58.370 11.603662
58.375 11.141403
58.380 10.879258
58.385 10.878131
58.390 10.926806
58.395 11.001045
58.400 10.817324
58.405 11.012741
58.410 11.202102
58.415 11.118227
58.420 11.635355
58.425 12.04858
58.430 12.287646
58.435 12.28527
58.440 12.562906
58.445 12.677242
58.450 13.056543
58.455 13.124253
58.460 13.442407
58.465 13.319423
58.470 13.912388
58.475 13.869243
58.480 13.9495
58.485 14.267862
58.490 14.234369
58.495 14.257413
58.500 14.832549
58.505 14.440368
58.510 14.573537
58.515 14.793356
58.520 14.946137
58.525 15.136467
58.530 14.425967
58.535 14.006561
58.540 14.3314
58.545 14.597301
58.550 14.58107
58.555 13.87513
58.560 14.523363
58.565 15.36679
58.570 15.514268
58.575 15.811798
58.580 15.781652
58.585 16.038265
58.590 17.353907
58.595 17.472204
58.600 17.493679
58.605 17.551645
58.610 17.35253
58.615 17.121696
58.620 16.594215
58.625 16.487841
58.630 16.239613
58.635 16.192867
58.640 16.690319
58.645 16.9923
58.650 17.694515
58.655 18.231691
58.660 18.099291
58.665 18.241318
58.670 18.504128
58.675 18.659189
58.680 18.773792
58.685 19.1854
58.690 19.557453
58.695 19.748411
58.700 19.94812
58.705 19.682995
58.710 19.932541
58.715 19.75913
58.720 19.321707
58.725 18.675814
58.730 17.961178
58.735 17.733269
58.740 17.675447
58.745 17.394129
58.750 17.258972
58.755 17.593695
58.760 17.86511
58.765 17.502907
58.770 17.511648
58.775 17.457172
58.780 17.638649
58.785 17.529932
58.790 16.674194
58.795 16.092899
58.800 15.727687
58.805 15.452274
58.810 15.467836
58.815 14.726768
58.820 14.775321
58.825 15.087019
58.830 15.803221
58.835 16.388798
58.840 16.73246
58.845 16.7969
58.850 17.032478
58.855 16.690508
58.860 16.289864
58.865 15.781411
58.870 14.968941
58.875 14.038501
58.880 13.091523
58.885 12.821964
58.890 13.055545
58.895 12.838833
58.900 12.846052
58.905 13.410237
58.910 13.593142
58.915 13.82459
58.920 13.226567
58.925 12.788114
58.930 12.792832
58.935 12.884772
58.940 12.880691
58.945 12.635687
58.950 12.074697
58.955 12.237075
58.960 12.381712
58.965 12.348862
58.970 12.52438
58.975 11.972591
58.980 12.022672
58.985 12.756678
58.990 13.071999
58.995 12.850291
59.000 13.035161
59.005 12.454684
59.010 12.39829
59.015 12.821688
59.020 12.62309
59.025 12.545157
59.030 12.439858
59.035 12.116819
59.040 12.096223
59.045 11.909869
59.050 11.567731
59.055 10.782742
59.060 10.214124
59.065 10.048035
59.070 9.903563
59.075 9.733449
59.080 9.365017
59.085 8.737923
59.090 8.854519
59.095 9.179233
59.100 9.291471
59.105 9.352548
59.110 9.800982
59.115 9.984207
59.120 10.307886
59.125 10.650606
59.130 10.778126
59.135 10.874842
59.140 10.860476
59.145 10.389446
59.150 10.156424
59.155 9.902623
59.160 9.74651
59.165 9.544589
59.170 9.69911
59.175 9.895319
59.180 9.599852
59.185 9.694715
59.190 9.835085
59.195 9.555896
59.200 9.404525
59.205 9.422625
59.210 9.831043
59.215 9.953076
59.220 10.357526
59.225 10.442084
59.230 10.936506
59.235 11.317555
59.240 10.967521
59.245 11.093369
59.250 11.225956
59.255 10.951439
59.260 10.637757
59.265 10.726543
59.270 10.365536
59.275 9.682527
59.280 8.802231
59.285 8.678422
59.290 9.044676
59.295 9.22572
59.300 8.439289
59.305 8.059822
59.310 8.256067
59.315 8.888227
59.320 9.479717
59.325 8.989331
59.330 9.031199
59.335 9.493365
59.340 10.03212
59.345 10.108936
59.350 9.429526
59.355 8.90656
59.360 9.440974
59.365 9.158768
59.370 9.117789
59.375 9.021274
59.380 9.056133
59.385 9.63205
59.390 9.610465
59.395 9.540289
59.400 9.456213
59.405 9.018682
59.410 9.248815
59.415 9.067279
59.420 8.802976
59.425 8.672916
59.430 8.553644
59.435 8.870014
59.440 9.218555
59.445 9.502356
59.450 9.529878
59.455 9.58249
59.460 9.765746
59.465 9.849767
59.470 9.623868
59.475 9.352502
59.480 8.888081
59.485 8.956018
59.490 8.896002
59.495 9.136266
59.500 8.986046
59.505 8.953927
59.510 9.004839
59.515 9.11522
59.520 9.448317
59.525 9.424202
59.530 8.956041
59.535 8.396214
59.540 8.663925
59.545 8.535
59.550 8.486825
59.555 8.401267
59.560 8.783324
59.565 9.2025
59.570 9.939328
59.575 9.721018
59.580 9.607792
59.585 9.548126
59.590 9.395768
59.595 9.13681
59.600 8.987954
59.605 8.630639
59.610 8.857015
59.615 9.381232
59.620 9.496343
59.625 10.030097
59.630 9.951215
59.635 10.224132
59.640 10.504708
59.645 10.533637
59.650 10.464294
59.655 9.913116
59.660 9.545235
59.665 9.231503
59.670 9.264946
59.675 8.7844
59.680 8.545744
59.685 8.424546
59.690 8.940824
59.695 9.064647
59.700 9.512229
59.705 9.215778
59.710 9.311063
59.715 9.409324
59.720 9.310136
59.725 8.979699
59.730 8.816721
59.735 8.398591
59.740 8.943351
59.745 9.245269
59.750 9.229699
59.755 9.492467
59.760 9.709298
59.765 9.985546
59.770 10.111179
59.775 9.91726
59.780 10.087908
59.785 10.149553
59.790 10.137815
59.795 10.325079
59.800 10.335471
59.805 10.542723
59.810 10.175152
59.815 9.857027
59.820 9.883263
59.825 10.258307
59.830 9.992793
59.835 9.599941
59.840 9.098455
59.845 9.470767
59.850 9.607086
59.855 9.958316
59.860 9.674692
59.865 9.889451
59.870 10.173821
59.875 10.108272
59.880 10.004181
59.885 10.164799
59.890 9.905424
59.895 9.969552
59.900 9.34911
59.905 9.085113
59.910 9.450538
59.915 9.590992
59.920 9.180616
59.925 9.343087
59.930 9.116669
59.935 9.125702
59.940 9.106739
59.945 8.694376
59.950 8.821929
59.955 9.194304
59.960 9.19199
59.965 9.810185
59.970 9.805155
59.975 10.116311
59.980 10.201015
59.985 9.833247
59.990 10.276072
59.995 10.755566
60.000 10.566532
60.005 11.056091
60.010 11.037648
60.015 11.382139
60.020 11.833032
60.025 11.058096
60.030 10.7808
60.035 10.991805
60.040 11.001583
60.045 11.254529
60.050 10.932378
60.055 10.356099
60.060 10.189714
60.065 9.827594
60.070 9.57849
60.075 9.638802
60.080 9.6064
60.085 9.95512
60.090 10.233292
60.095 10.595782
60.100 10.5515
60.105 10.454686
60.110 10.424321
60.115 10.579171
60.120 10.22018
60.125 9.628258
60.130 9.626494
60.135 9.650989
60.140 9.635674
60.145 9.494241
60.150 9.09273
60.155 9.345623
60.160 9.604006
60.165 9.224594
60.170 9.32079
60.175 9.472866
60.180 9.09966
60.185 9.455335
60.190 9.650109
60.195 9.998477
60.200 10.312496
60.205 10.007316
60.210 9.967553
60.215 9.900863
60.220 9.34016
60.225 9.143481
60.230 8.739945
60.235 8.434759
60.240 8.751516
60.245 8.545502
60.250 8.826611
60.255 8.811031
60.260 8.972466
60.265 9.162103
60.270 9.077292
60.275 8.823752
60.280 9.139713
60.285 9.231652
60.290 9.319833
60.295 9.279186
60.300 9.354504
60.305 9.340975
60.310 9.472719
60.315 9.444839
60.320 9.38641
60.325 9.5587
60.330 9.5199
60.335 9.605099
60.340 9.915773
60.345 10.156154
60.350 10.127298
60.355 9.950858
60.360 9.49596
60.365 9.158276
60.370 9.301962
60.375 9.266129
60.380 9.122478
60.385 9.244834
60.390 9.544747
60.395 9.885635
60.400 10.118693
60.405 9.733356
60.410 9.425044
60.415 9.021977
60.420 8.612954
60.425 8.890687
60.430 9.213206
60.435 9.347982
60.440 9.506672
60.445 9.347768
60.450 9.560207
60.455 9.889274
60.460 9.411582
60.465 9.272534
60.470 9.015136
60.475 9.291961
60.480 9.914645
60.485 9.780935
60.490 10.140863
60.495 10.401114
60.500 10.027304
60.505 10.499425
60.510 10.250409
60.515 10.182579
60.520 10.074796
60.525 9.434198
60.530 9.460999
60.535 9.486937
60.540 9.325219
60.545 9.244358
60.550 9.366876
60.555 10.031425
60.560 10.081088
60.565 9.936177
60.570 9.774127
60.575 9.651816
60.580 9.78966
60.585 9.578313
60.590 9.014851
60.595 8.963953
60.600 9.250455
60.605 8.961586
60.610 8.701766
60.615 8.642937
60.620 8.837067
60.625 9.083157
60.630 9.197402
60.635 9.299263
60.640 9.697222
60.645 10.05455
60.650 9.987337
60.655 9.621503
60.660 9.639311
60.665 9.746987
60.670 9.601164
60.675 9.25384
60.680 9.002418
60.685 8.911621
60.690 8.695856
60.695 8.833284
60.700 8.787881
60.705 8.983216
60.710 9.571852
60.715 9.752815
60.720 9.533689
60.725 9.88569
60.730 9.891778
60.735 10.048016
60.740 10.174225
60.745 10.431318
60.750 10.71203
60.755 11.211386
60.760 11.449993
60.765 11.402399
60.770 11.047791
60.775 11.012091
60.780 10.473229
60.785 10.096899
60.790 9.460838
60.795 9.360785
60.800 9.319329
60.805 9.115959
60.810 9.046088
60.815 9.15834
60.820 8.872912
60.825 9.322335
60.830 9.155632
60.835 9.538593
60.840 9.875432
60.845 9.369689
60.850 9.444937
60.855 10.401229
60.860 10.505558
60.865 10.248233
60.870 9.770924
60.875 9.89727
60.880 9.972325
60.885 9.730437
60.890 9.324457
60.895 9.004683
60.900 9.12817
60.905 9.465373
60.910 9.425039
60.915 9.565287
60.920 9.578045
60.925 9.547411
60.930 9.570993
60.935 9.50682
60.940 9.257346
60.945 9.049513
60.950 8.704161
60.955 8.972988
60.960 8.944226
60.965 9.029147
60.970 9.490462
60.975 9.519145
60.980 9.691118
60.985 9.717469
60.990 9.204989
60.995 9.292015
61.000 9.410743
61.005 9.256412
61.010 9.002179
61.015 9.007858
61.020 9.227975
61.025 9.554954
61.030 9.515607
61.035 9.257516
61.040 9.493032
61.045 9.915632
61.050 10.382596
61.055 10.768291
61.060 10.994167
61.065 11.331985
61.070 11.283287
61.075 11.036606
61.080 11.265569
61.085 10.837797
61.090 10.423431
61.095 10.412574
61.100 10.510867
61.105 10.504391
61.110 10.213721
61.115 10.177319
61.120 10.357238
61.125 10.382601
61.130 9.551469
61.135 8.930415
61.140 9.247435
61.145 9.104533
61.150 8.960959
61.155 8.872977
61.160 8.808533
61.165 8.994243
61.170 9.057332
61.175 8.822068
61.180 8.809108
61.185 8.281904
61.190 8.560159
61.195 9.04734
61.200 9.592435
61.205 10.302798
61.210 10.495539
61.215 10.975719
61.220 11.911441
61.225 11.944393
61.230 11.725336
61.235 11.963987
61.240 11.527625
61.245 11.519174
61.250 11.352462
61.255 11.055398
61.260 11.272195
61.265 11.665859
61.270 11.333052
61.275 11.493834
61.280 11.516351
61.285 11.418776
61.290 11.012894
61.295 10.441965
61.300 10.235639
61.305 9.906488
61.310 9.604111
61.315 9.631948
61.320 9.81762
61.325 9.471676
61.330 9.278961
61.335 9.128977
61.340 9.549168
61.345 9.873305
61.350 9.629628
61.355 9.739432
61.360 9.913774
61.365 10.42253
61.370 10.656907
61.375 10.418531
61.380 10.600756
61.385 10.679312
61.390 10.578162
61.395 10.276922
61.400 9.755379
61.405 9.519821
61.410 9.541964
61.415 8.802783
61.420 8.909791
61.425 9.229733
61.430 9.630291
61.435 9.951111
61.440 10.221824
61.445 10.172973
61.450 10.409781
61.455 10.708022
61.460 10.417584
61.465 10.577446
61.470 10.406562
61.475 10.392783
61.480 10.591927
61.485 10.878558
61.490 10.158909
61.495 10.191361
61.500 9.855428
61.505 9.984138
61.510 10.066816
61.515 10.059804
61.520 9.879054
61.525 9.908769
61.530 10.402609
61.535 11.038731
61.540 11.232749
61.545 11.515288
61.550 11.641232
61.555 11.792093
61.560 11.782356
61.565 11.480469
61.570 11.37426
61.575 11.485382
61.580 11.495488
61.585 12.168856
61.590 12.183424
61.595 12.208947
61.600 12.097003
61.605 11.535946
61.610 11.566838
61.615 10.791067
61.620 9.999707
61.625 9.66277
61.630 9.87009
61.635 9.775843
61.640 10.156119
61.645 10.156589
61.650 10.438636
61.655 10.568419
61.660 10.973414
61.665 10.645666
61.670 11.176836
61.675 11.387989
61.680 11.579045
61.685 11.646619
61.690 11.4815
61.695 11.546084
61.700 12.018741
61.705 12.23192
61.710 12.105803
61.715 11.590684
61.720 11.245378
61.725 11.445755
61.730 11.541185
61.735 11.365824
61.740 10.763653
61.745 10.471846
61.750 10.709433
61.755 10.88581
61.760 11.025308
61.765 10.94251
61.770 11.111858
61.775 11.272108
61.780 10.844062
61.785 10.664166
61.790 10.815368
61.795 10.412495
61.800 10.223119
61.805 9.687818
61.810 9.848838
61.815 10.530768
61.820 10.109003
61.825 10.170798
61.830 10.437501
61.835 10.598755
61.840 11.079105
61.845 10.70892
61.850 10.227392
61.855 10.830723
61.860 10.66892
61.865 10.56947
61.870 10.693531
61.875 10.603304
61.880 10.83838
61.885 10.994983
61.890 10.769713
61.895 10.827041
61.900 10.926155
61.905 10.658026
61.910 10.308917
61.915 10.038479
61.920 10.135146
61.925 10.171847
61.930 9.668491
61.935 9.557561
61.940 9.564797
61.945 9.95971
61.950 10.096969
61.955 10.038302
61.960 9.924928
61.965 10.334764
61.970 10.361799
61.975 10.399898
61.980 10.692557
61.985 10.997687
61.990 11.304896
61.995 11.510281
62.000 11.589044
62.005 11.559377
62.010 11.428719
62.015 10.993086
62.020 10.946595
62.025 11.228273
62.030 11.526921
62.035 11.470205
62.040 11.514757
62.045 11.613436
62.050 11.778907
62.055 11.380892
62.060 10.549045
62.065 10.246012
62.070 10.336027
62.075 10.405922
62.080 9.863673
62.085 9.92047
62.090 10.288331
62.095 10.629831
62.100 10.633425
62.105 10.366029
62.110 10.191504
62.115 10.615174
62.120 10.49313
62.125 10.357105
62.130 10.302708
62.135 10.213278
62.140 10.253189
62.145 10.339135
62.150 10.080131
62.155 10.098806
62.160 10.517214
62.165 10.762606
62.170 10.929652
62.175 11.314487
62.180 11.289811
62.185 11.257787
62.190 11.242615
62.195 11.044477
62.200 10.620517
62.205 10.576053
62.210 10.101649
62.215 10.50812
62.220 10.761015
62.225 10.61104
62.230 10.75647
62.235 10.90875
62.240 10.533311
62.245 10.60643
62.250 10.58994
62.255 10.331506
62.260 10.133737
62.265 9.772609
62.270 9.766886
62.275 9.745454
62.280 9.670083
62.285 9.709657
62.290 10.302329
62.295 10.601113
62.300 10.50482
62.305 10.494832
62.310 11.063383
62.315 11.317726
62.320 11.470151
62.325 11.039842
62.330 10.70717
62.335 10.840289
62.340 10.784106
62.345 10.727479
62.350 10.389503
62.355 10.358501
62.360 10.703461
62.365 10.672019
62.370 10.6715
62.375 10.822659
62.380 10.910417
62.385 10.852672
62.390 10.577394
62.395 10.654603
62.400 10.986025
62.405 11.223794
62.410 11.030777
62.415 10.917731
62.420 10.942277
62.425 10.900304
62.430 10.716999
62.435 10.705422
62.440 10.781992
62.445 10.67955
62.450 10.693441
62.455 11.234638
62.460 11.527262
62.465 11.611753
62.470 11.864769
62.475 12.185368
62.480 12.5851
62.485 12.821484
62.490 12.625056
62.495 12.357803
62.500 12.265819
62.505 11.857545
62.510 11.624997
62.515 11.717216
62.520 11.186739
62.525 11.178558
62.530 11.213338
62.535 10.991853
62.540 11.345986
62.545 11.403825
62.550 10.884851
62.555 10.89149
62.560 10.632077
62.565 10.643976
62.570 10.468698
62.575 10.378316
62.580 10.500808
62.585 10.421551
62.590 10.19535
62.595 9.857077
62.600 9.648154
62.605 9.560934
62.610 9.392152
62.615 9.176842
62.620 9.290213
62.625 9.835828
62.630 9.797752
62.635 10.048173
62.640 10.216264
62.645 10.028859
62.650 9.934899
62.655 9.947077
62.660 9.956627
62.665 10.474179
62.670 10.749361
62.675 11.056653
62.680 11.734396
62.685 11.951971
62.690 12.25489
62.695 11.95108
62.700 11.546239
62.705 11.191624
62.710 10.652208
62.715 10.004083
62.720 10.526605
62.725 10.440554
62.730 10.900374
62.735 11.510913
62.740 11.852449
62.745 12.271185
62.750 12.154745
62.755 11.881839
62.760 12.34768
62.765 12.337836
62.770 11.644858
62.775 11.281579
62.780 11.047505
62.785 11.170621
62.790 11.091686
62.795 10.984386
62.800 10.531218
62.805 10.850351
62.810 11.334521
62.815 11.5141
62.820 11.624415
62.825 11.315521
62.830 11.497259
62.835 11.761973
62.840 12.045948
62.845 11.854017
62.850 11.97059
62.855 11.759676
62.860 11.741861
62.865 11.409417
62.870 11.623734
62.875 11.276816
62.880 11.44288
62.885 10.870053
62.890 10.889058
62.895 11.515146
62.900 11.701735
62.905 11.87296
62.910 11.627984
62.915 11.194823
62.920 11.57875
62.925 11.588449
62.930 11.047748
62.935 10.475707
62.940 10.416389
62.945 10.67452
62.950 10.670376
62.955 10.731084
62.960 10.412956
62.965 10.194441
62.970 10.563733
62.975 10.039822
62.980 9.989618
62.985 10.37178
62.990 10.499577
62.995 10.790753
63.000 10.996181
63.005 11.509304
63.010 12.131291
63.015 12.232864
63.020 12.600339
63.025 12.385591
63.030 12.51341
63.035 12.57115
63.040 12.241277
63.045 12.32169
63.050 12.230268
63.055 11.851277
63.060 12.099315
63.065 12.094122
63.070 11.812757
63.075 11.212049
63.080 10.738525
63.085 10.497281
63.090 10.359698
63.095 10.354039
63.100 10.298644
63.105 10.922097
63.110 11.270459
63.115 11.187727
63.120 11.325005
63.125 11.529665
63.130 11.740831
63.135 11.550205
63.140 11.390884
63.145 11.419017
63.150 11.470738
63.155 11.421882
63.160 11.386352
63.165 11.052121
63.170 11.075571
63.175 10.785855
63.180 10.630183
63.185 10.858942
63.190 10.867348
63.195 10.528092
63.200 10.705294
63.205 10.460101
63.210 10.404406
63.215 10.66028
63.220 10.347265
63.225 10.324679
63.230 10.297316
63.235 10.171878
63.240 10.660471
63.245 10.307385
63.250 10.368095
63.255 10.344705
63.260 10.092507
63.265 10.218824
63.270 10.834391
63.275 10.808211
63.280 11.263698
63.285 10.992261
63.290 11.094352
63.295 10.984734
63.300 10.661651
63.305 10.053744
63.310 9.828445
63.315 9.821266
63.320 10.180295
63.325 10.60073
63.330 11.224042
63.335 11.592159
63.340 11.784752
63.345 11.895435
63.350 12.025042
63.355 11.925159
63.360 11.752806
63.365 11.449228
63.370 11.394791
63.375 11.719637
63.380 12.012671
63.385 12.320224
63.390 12.127074
63.395 12.414389
63.400 12.59694
63.405 12.389443
63.410 11.846764
63.415 11.633469
63.420 11.614701
63.425 12.04516
63.430 12.16785
63.435 12.462132
63.440 12.623979
63.445 12.923294
63.450 13.03423
63.455 12.967758
63.460 12.829
63.465 12.44826
63.470 12.288915
63.475 12.173446
63.480 12.163957
63.485 12.273327
63.490 11.964589
63.495 12.034137
63.500 12.350293
63.505 12.070357
63.510 12.124981
63.515 11.697794
63.520 11.334791
63.525 11.388074
63.530 11.294272
63.535 10.963694
63.540 10.60743
63.545 10.241277
63.550 10.186122
63.555 10.498082
63.560 10.414409
63.565 10.001287
63.570 10.315625
63.575 10.945738
63.580 11.276919
63.585 11.374623
63.590 11.656266
63.595 11.951618
63.600 11.983714
63.605 11.668906
63.610 11.781518
63.615 11.7946
63.620 11.87211
63.625 11.250979
63.630 11.138677
63.635 11.269101
63.640 11.064664
63.645 10.539368
63.650 10.71727
63.655 10.821002
63.660 10.875783
63.665 10.881215
63.670 10.705258
63.675 10.641986
63.680 10.868764
63.685 10.462868
63.690 10.643725
63.695 11.038528
63.700 11.387976
63.705 11.579406
63.710 12.141649
63.715 12.211298
63.720 12.506219
63.725 12.172625
63.730 11.842578
63.735 11.818025
63.740 12.234591
63.745 12.20407
63.750 12.421689
63.755 12.523242
63.760 12.549859
63.765 12.566633
63.770 12.366961
63.775 12.039091
63.780 12.013317
63.785 12.077346
63.790 12.00064
63.795 11.915453
63.800 11.540266
63.805 11.695901
63.810 11.654737
63.815 11.054993
63.820 10.39437
63.825 10.293101
63.830 10.913532
63.835 10.948898
63.840 10.655125
63.845 10.696436
63.850 11.536497
63.855 12.068804
63.860 12.150214
63.865 11.791566
63.870 11.997686
63.875 12.306087
63.880 12.344973
63.885 12.43843
63.890 12.836359
63.895 13.213232
63.900 13.75949
63.905 14.054064
63.910 13.991655
63.915 13.566194
63.920 13.364374
63.925 13.09783
63.930 12.721093
63.935 12.66717
63.940 12.6582
63.945 13.375309
63.950 13.703474
63.955 13.847775
63.960 13.978851
63.965 14.211138
63.970 14.04003
63.975 13.687407
63.980 13.187307
63.985 13.043443
63.990 12.872655
63.995 12.74897
64.000 12.427707
64.005 12.412379
64.010 12.48466
64.015 12.674128
64.020 13.297255
64.025 13.598392
64.030 13.874968
64.035 14.139963
64.040 14.247951
64.045 14.738006
64.050 15.445215
64.055 14.787145
64.060 14.752964
64.065 14.22783
64.070 14.406237
64.075 14.628654
64.080 14.980706
64.085 15.439343
64.090 16.22555
64.095 15.844962
64.100 15.704388
64.105 15.698277
64.110 15.418633
64.115 14.917294
64.120 14.459471
64.125 14.495029
64.130 15.166233
64.135 15.741015
64.140 16.060871
64.145 16.681501
64.150 16.4862
64.155 16.414829
64.160 16.716228
64.165 16.815554
64.170 16.985971
64.175 17.017025
64.180 17.53392
64.185 18.003674
64.190 18.407251
64.195 18.586267
64.200 18.416079
64.205 18.729748
64.210 18.602112
64.215 18.291317
64.220 18.459145
64.225 18.540838
64.230 18.687592
64.235 19.550407
64.240 19.608164
64.245 19.66168
64.250 19.918301
64.255 20.459642
64.260 20.665028
64.265 20.718657
64.270 20.251919
64.275 20.42205
64.280 21.452105
64.285 21.265675
64.290 21.808142
64.295 22.002476
64.300 22.334562
64.305 22.720688
64.310 23.188702
64.315 23.383211
64.320 24.318375
64.325 24.798119
64.330 25.770359
64.335 26.522625
64.340 26.588591
64.345 26.556234
64.350 26.518854
64.355 27.029928
64.360 27.098394
64.365 27.067465
64.370 27.413599
64.375 28.328465
64.380 28.659777
64.385 28.985264
64.390 28.96286
64.395 28.876633
64.400 28.574173
64.405 28.680769
64.410 28.61875
64.415 28.845972
64.420 28.277695
64.425 27.880707
64.430 28.628897
64.435 28.897461
64.440 28.709375
64.445 28.686073
64.450 28.443354
64.455 28.77582
64.460 28.801828
64.465 28.523031
64.470 28.488283
64.475 28.874567
64.480 29.059633
64.485 29.506422
64.490 29.452332
64.495 29.59119
64.500 29.593822
64.505 30.210922
64.510 30.1406
64.515 30.166574
64.520 29.479338
64.525 29.589695
64.530 29.294201
64.535 29.298157
64.540 28.524887
64.545 27.958645
64.550 27.808222
64.555 27.664677
64.560 26.65667
64.565 26.204527
64.570 25.175766
64.575 24.583757
64.580 24.478617
64.585 23.807899
64.590 24.128273
64.595 24.155125
64.600 23.134184
64.605 23.103973
64.610 23.55493
64.615 23.593901
64.620 23.328611
64.625 22.504732
64.630 22.119804
64.635 22.789682
64.640 22.355949
64.645 21.904373
64.650 21.509672
64.655 21.486902
64.660 21.653034
64.665 21.917271
64.670 22.196709
64.675 22.176632
64.680 21.225744
64.685 20.4314
64.690 20.180319
64.695 19.750187
64.700 19.243496
64.705 18.432859
64.710 17.88184
64.715 18.615807
64.720 19.538927
64.725 19.428917
64.730 19.406094
64.735 19.494022
64.740 18.895397
64.745 18.153725
64.750 17.68412
64.755 16.368841
64.760 15.644841
64.765 15.344337
64.770 15.46978
64.775 15.858199
64.780 16.180117
64.785 15.596158
64.790 15.728559
64.795 15.763294
64.800 15.538144
64.805 15.015222
64.810 14.93421
64.815 15.082665
64.820 15.361826
64.825 15.156367
64.830 15.61335
64.835 15.776196
64.840 15.6928
64.845 15.732792
64.850 15.309813
64.855 14.970955
64.860 15.202159
64.865 15.13443
64.870 14.698711
64.875 14.624958
64.880 14.467478
64.885 14.010542
64.890 13.923541
64.895 13.650967
64.900 13.272366
64.905 14.190325
64.910 14.517204
64.915 14.313359
64.920 14.631836
64.925 14.405546
64.930 14.427325
64.935 14.72318
64.940 14.468013
64.945 14.339533
64.950 14.348175
64.955 14.415702
64.960 14.908659
64.965 15.058985
64.970 15.260061
64.975 15.012666
64.980 15.137607
64.985 15.993433
64.990 16.802567
64.995 17.111052
65.000 17.032436
65.005 16.480751
65.010 16.45277
65.015 16.285501
65.020 16.47464
65.025 16.171812
65.030 16.285952
65.035 17.215935
65.040 18.059275
65.045 18.817947
65.050 19.774622
65.055 19.96714
65.060 20.723516
65.065 21.338129
65.070 21.529627
65.075 21.699505
65.080 22.063051
65.085 21.879454
65.090 22.326565
65.095 22.57202
65.100 22.705393
65.105 23.051895
65.110 23.526548
65.115 23.764893
65.120 23.67131
65.125 23.175953
65.130 23.070873
65.135 23.345869
65.140 23.185186
65.145 23.083015
65.150 22.877983
65.155 23.251266
65.160 22.826748
65.165 22.586321
65.170 22.161308
65.175 21.795206
65.180 21.971937
65.185 21.883274
65.190 21.732311
65.195 22.681381
65.200 23.352274
65.205 23.133854
65.210 23.462086
65.215 23.151379
65.220 22.93277
65.225 22.837406
65.230 22.863214
65.235 22.297922
65.240 22.739458
65.245 23.100849
65.250 22.912495
65.255 22.777269
65.260 23.194927
65.265 22.586098
65.270 23.056404
65.275 23.110352
65.280 22.65274
65.285 22.841457
65.290 23.367203
65.295 23.61721
65.300 24.536156
65.305 24.514809
65.310 24.502356
65.315 24.697708
65.320 24.530718
65.325 24.245041
65.330 23.548616
65.335 22.841253
65.340 23.073233
65.345 23.101328
65.350 23.046736
65.355 23.12738
65.360 23.116791
65.365 23.249954
65.370 22.537672
65.375 22.132061
65.380 21.86697
65.385 21.694633
65.390 22.13925
65.395 21.890619
65.400 22.272032
65.405 22.859976
65.410 22.463181
65.415 21.754856
65.420 21.554369
65.425 21.520496
65.430 22.074045
65.435 22.208229
65.440 22.009239
65.445 21.717237
65.450 21.668222
65.455 21.284916
65.460 20.606323
65.465 19.572731
65.470 18.629129
65.475 18.30731
65.480 18.484589
65.485 18.660608
65.490 19.275995
65.495 20.057732
65.500 20.566803
65.505 20.990459
65.510 21.610228
65.515 21.734985
65.520 21.987202
65.525 21.851599
65.530 21.628229
65.535 21.774988
65.540 21.860138
65.545 21.937759
65.550 22.15435
65.555 21.868561
65.560 21.41226
65.565 20.996855
65.570 20.405649
65.575 20.329252
65.580 20.731049
65.585 20.99576
65.590 21.646173
65.595 22.18557
65.600 22.273544
65.605 23.018234
65.610 23.11097
65.615 23.029047
65.620 23.030598
65.625 22.508869
65.630 22.461752
65.635 22.641607
65.640 22.199251
65.645 21.544851
65.650 20.672066
65.655 20.421139
65.660 20.553627
65.665 20.418772
65.670 20.543346
65.675 20.516092
65.680 20.798862
65.685 20.787212
65.690 20.526474
65.695 20.821302
65.700 20.970053
65.705 20.679358
65.710 20.941549
65.715 20.6852
65.720 20.946199
65.725 21.341114
65.730 21.30365
65.735 21.163683
65.740 21.22164
65.745 20.928432
65.750 21.268946
65.755 21.144741
65.760 20.906212
65.765 20.977448
65.770 20.653118
65.775 20.248667
65.780 20.413559
65.785 20.260765
65.790 20.040871
65.795 19.764805
65.800 19.287663
65.805 19.52812
65.810 19.438414
65.815 18.882961
65.820 18.360611
65.825 18.28083
65.830 18.51729
65.835 18.715958
65.840 18.748451
65.845 19.225056
65.850 19.783373
65.855 19.483971
65.860 19.368813
65.865 18.834236
65.870 18.758869
65.875 18.082041
65.880 17.864624
65.885 17.944338
65.890 18.707754
65.895 18.92281
65.900 18.764662
65.905 18.809349
65.910 19.378271
65.915 19.015682
65.920 18.906578
65.925 18.988752
65.930 19.387329
65.935 19.565605
65.940 20.226402
65.945 20.057444
65.950 20.306906
65.955 20.473722
65.960 20.136702
65.965 20.402298
65.970 20.919546
65.975 20.022013
65.980 20.226061
65.985 19.557907
65.990 19.146072
65.995 18.396559
66.000 17.673317
66.005 16.524141
66.010 16.0315
66.015 16.024931
66.020 16.004707
66.025 16.122972
66.030 15.911201
66.035 15.2074
66.040 15.660681
66.045 15.473194
66.050 15.00332
66.055 15.031447
66.060 14.942156
66.065 15.233806
66.070 15.588978
66.075 15.557435
66.080 16.164299
66.085 16.377369
66.090 16.566677
66.095 16.919979
66.100 16.933655
66.105 16.779573
66.110 16.439384
66.115 15.739477
66.120 15.660332
66.125 15.19599
66.130 14.885564
66.135 14.13649
66.140 13.896763
66.145 14.434444
66.150 14.638964
66.155 14.568224
66.160 14.443654
66.165 13.992262
66.170 14.539465
66.175 14.885663
66.180 14.71558
66.185 15.04488
66.190 15.008588
66.195 15.15594
66.200 15.272162
66.205 15.011264
66.210 14.6889
66.215 14.799187
66.220 14.435039
66.225 14.549157
66.230 14.662652
66.235 14.835684
66.240 14.421568
66.245 14.196831
66.250 13.775159
66.255 13.684709
66.260 13.556815
66.265 13.023088
66.270 12.84367
66.275 13.095757
66.280 13.289213
66.285 13.292183
66.290 13.078245
66.295 13.063263
66.300 13.085352
66.305 13.193364
66.310 13.484105
66.315 13.694582
66.320 13.381097
66.325 13.424086
66.330 13.338766
66.335 13.596908
66.340 13.385996
66.345 13.172636
66.350 13.112133
66.355 13.577771
66.360 13.735315
66.365 13.765908
66.370 14.272046
66.375 14.475924
66.380 14.557281
66.385 14.253216
66.390 14.224541
66.395 14.271096
66.400 14.104776
66.405 13.999954
66.410 14.064199
66.415 14.422519
66.420 14.804527
66.425 14.691784
66.430 14.399938
66.435 14.350174
66.440 13.962543
66.445 13.021946
66.450 12.264391
66.455 11.76082
66.460 11.640904
66.465 11.906471
66.470 11.745656
66.475 11.449965
66.480 11.80799
66.485 11.937838
66.490 11.824468
66.495 11.657803
66.500 11.272459
66.505 11.452356
66.510 11.739321
66.515 11.717092
66.520 11.57505
66.525 11.420522
66.530 11.592099
66.535 12.077827
66.540 12.56003
66.545 12.692513
66.550 13.352339
66.555 13.99628
66.560 14.197868
66.565 14.011313
66.570 13.55694
66.575 12.917361
66.580 12.566955
66.585 12.128325
66.590 12.120154
66.595 12.424886
66.600 12.527239
66.605 12.450577
66.610 12.445952
66.615 12.358725
66.620 11.663861
66.625 11.213791
66.630 11.328955
66.635 11.492814
66.640 11.652411
66.645 11.687522
66.650 12.229056
66.655 12.784708
66.660 12.73582
66.665 12.696358
66.670 12.729653
66.675 12.632594
66.680 12.464066
66.685 12.45345
66.690 12.561886
66.695 12.699238
66.700 12.219342
66.705 11.748561
66.710 11.704561
66.715 12.099257
66.720 12.621954
66.725 12.794092
66.730 13.085037
66.735 13.455921
66.740 14.007046
66.745 14.389354
66.750 14.332737
66.755 14.132169
66.760 14.038915
66.765 13.583577
66.770 13.797081
66.775 13.609289
66.780 13.57525
66.785 13.079861
66.790 12.49904
66.795 12.366584
66.800 12.615856
66.805 12.806458
66.810 12.464212
66.815 12.277547
66.820 12.788869
66.825 12.71506
66.830 12.796373
66.835 12.712215
66.840 12.504009
66.845 12.66559
66.850 12.317876
66.855 12.40078
66.860 12.756269
66.865 12.403558
66.870 11.923316
66.875 12.198396
66.880 12.276766
66.885 12.299632
66.890 11.749423
66.895 11.143723
66.900 11.250368
66.905 11.415381
66.910 10.906857
66.915 11.34137
66.920 11.495658
66.925 11.614197
66.930 11.760214
66.935 11.549573
66.940 11.359904
66.945 11.466571
66.950 11.329983
66.955 11.688713
66.960 12.291581
66.965 12.39733
66.970 12.665276
66.975 12.787043
66.980 12.780674
66.985 12.466778
66.990 12.084878
66.995 11.564306
67.000 11.20424
67.005 11.36997
67.010 11.473512
67.015 11.582167
67.020 11.643916
67.025 12.229124
67.030 12.17749
67.035 12.486789
67.040 12.281701
67.045 12.587721
67.050 13.294162
67.055 13.711891
67.060 13.323059
67.065 13.640197
67.070 13.631184
67.075 13.608316
67.080 13.866662
67.085 13.238423
67.090 12.904674
67.095 12.549375
67.100 12.139071
67.105 11.874834
67.110 11.973378
67.115 11.646962
67.120 11.403524
67.125 11.201959
67.130 11.430671
67.135 12.02704
67.140 12.262892
67.145 12.006178
67.150 11.890005
67.155 11.890602
67.160 12.13248
67.165 12.102796
67.170 11.906886
67.175 12.074595
67.180 12.138687
67.185 11.841858
67.190 11.756035
67.195 11.827101
67.200 11.703115
67.205 11.735359
67.210 11.775124
67.215 12.293883
67.220 12.702597
67.225 12.727737
67.230 12.506731
67.235 12.435342
67.240 12.118208
67.245 11.124541
67.250 10.705128
67.255 10.989042
67.260 11.191941
67.265 11.0837
67.270 11.059928
67.275 11.549439
67.280 12.595743
67.285 12.889792
67.290 12.785816
67.295 12.777811
67.300 12.964923
67.305 12.737606
67.310 12.497114
67.315 12.001183
67.320 11.36786
67.325 11.038645
67.330 11.111429
67.335 11.059768
67.340 11.528711
67.345 11.528625
67.350 11.553664
67.355 11.442083
67.360 11.502482
67.365 11.694818
67.370 12.15628
67.375 12.344158
67.380 12.607692
67.385 12.394794
67.390 12.87486
67.395 12.964871
67.400 12.727331
67.405 12.391406
67.410 11.967997
67.415 11.898829
67.420 12.375259
67.425 11.820463
67.430 11.511676
67.435 11.621098
67.440 11.66424
67.445 11.917285
67.450 11.9689
67.455 11.811749
67.460 12.294338
67.465 12.059459
67.470 11.963939
67.475 11.700075
67.480 11.794538
67.485 11.991858
67.490 12.304575
67.495 12.461789
67.500 13.0654
67.505 13.163647
67.510 13.189087
67.515 13.326419
67.520 13.086839
67.525 12.595814
67.530 13.004065
67.535 13.373135
67.540 13.597696
67.545 13.991929
67.550 13.770223
67.555 13.759366
67.560 14.020028
67.565 13.705336
67.570 13.433343
67.575 13.332329
67.580 12.960901
67.585 12.521871
67.590 12.491988
67.595 12.621972
67.600 12.801643
67.605 12.619591
67.610 12.458041
67.615 12.837223
67.620 13.191991
67.625 12.978409
67.630 12.646983
67.635 12.545663
67.640 12.477585
67.645 13.017293
67.650 12.859636
67.655 13.486449
67.660 14.640784
67.665 15.095923
67.670 14.671138
67.675 14.694427
67.680 14.266037
67.685 14.499462
67.690 14.045935
67.695 13.18407
67.700 13.124899
67.705 13.244395
67.710 13.026962
67.715 13.008915
67.720 12.766171
67.725 12.82532
67.730 12.996019
67.735 12.669787
67.740 13.061505
67.745 13.482867
67.750 13.502266
67.755 13.145932
67.760 12.919535
67.765 13.243405
67.770 13.202301
67.775 13.052313
67.780 12.918362
67.785 13.203089
67.790 13.524803
67.795 13.518674
67.800 13.062101
67.805 12.943546
67.810 12.614183
67.815 12.450302
67.820 12.684158
67.825 12.863786
67.830 12.910282
67.835 12.848087
67.840 12.75192
67.845 13.355036
67.850 13.533804
67.855 13.026077
67.860 12.871229
67.865 12.804747
67.870 13.076941
67.875 13.173589
67.880 13.11132
67.885 13.23799
67.890 13.128648
67.895 13.092505
67.900 13.511034
67.905 13.434158
67.910 13.221745
67.915 12.858255
67.920 12.812067
67.925 12.726048
67.930 12.506109
67.935 12.325124
67.940 12.159062
67.945 12.669663
67.950 12.523349
67.955 12.516006
67.960 12.640527
67.965 12.666278
67.970 13.370657
67.975 13.7509
67.980 13.749716
67.985 13.87631
67.990 13.625792
67.995 13.734167
68.000 13.606691
68.005 13.161177
68.010 13.283152
68.015 13.234511
68.020 13.539232
68.025 13.739841
68.030 14.099283
68.035 14.56712
68.040 14.372517
68.045 14.678788
68.050 14.791979
68.055 14.819782
68.060 14.713921
68.065 14.147229
68.070 14.447587
68.075 14.442412
68.080 14.610475
68.085 14.530943
68.090 14.265563
68.095 14.800757
68.100 14.92592
68.105 14.643238
68.110 14.427481
68.115 13.863129
68.120 13.658697
68.125 13.634572
68.130 13.412764
68.135 13.734591
68.140 13.906267
68.145 14.335383
68.150 14.674927
68.155 14.81277
68.160 15.044055
68.165 14.903753
68.170 14.55909
68.175 14.371103
68.180 13.87175
68.185 13.594127
68.190 13.915075
68.195 13.774883
68.200 13.644874
68.205 13.354042
68.210 13.657965
68.215 14.066359
68.220 14.182851
68.225 14.00944
68.230 14.193707
68.235 14.399911
68.240 14.550144
68.245 14.336383
68.250 14.154088
68.255 14.551699
68.260 14.590877
68.265 15.042947
68.270 15.880684
68.275 16.597446
68.280 16.663824
68.285 16.599678
68.290 16.650501
68.295 17.090891
68.300 17.024843
68.305 16.605564
68.310 15.919015
68.315 15.393249
68.320 15.370509
68.325 15.768041
68.330 16.206884
68.335 16.362234
68.340 16.212635
68.345 16.614582
68.350 17.593334
68.355 17.825491
68.360 17.328005
68.365 16.21043
68.370 16.029892
68.375 16.53104
68.380 16.278053
68.385 15.955997
68.390 15.708868
68.395 15.906703
68.400 16.645584
68.405 17.558611
68.410 18.442488
68.415 19.620399
68.420 21.125956
68.425 22.211851
68.430 22.804466
68.435 22.572989
68.440 21.539988
68.445 21.25894
68.450 20.984377
68.455 20.303921
68.460 20.010338
68.465 19.990677
68.470 20.183876
68.475 20.875311
68.480 20.875229
68.485 21.327593
68.490 21.71945
68.495 21.789408
68.500 21.729414
68.505 22.024717
68.510 21.6703
68.515 21.722094
68.520 21.483868
68.525 21.093397
68.530 21.979275
68.535 21.716532
68.540 21.587254
68.545 21.858479
68.550 22.396723
68.555 22.891253
68.560 22.799086
68.565 21.854973
68.570 22.26816
68.575 22.741665
68.580 22.787971
68.585 22.659296
68.590 23.048527
68.595 23.473368
68.600 23.480717
68.605 23.42951
68.610 22.775246
68.615 22.704714
68.620 22.101322
68.625 21.241024
68.630 21.012985
68.635 21.201883
68.640 21.390785
68.645 21.532612
68.650 21.498886
68.655 22.032032
68.660 22.27409
68.665 22.694305
68.670 22.920584
68.675 22.755999
68.680 22.682165
68.685 22.667971
68.690 22.95785
68.695 23.323051
68.700 22.878944
68.705 22.779625
68.710 22.727171
68.715 22.384075
68.720 21.860218
68.725 21.516281
68.730 21.743385
68.735 21.53994
68.740 20.934734
68.745 20.451431
68.750 20.771416
68.755 20.76104
68.760 20.52351
68.765 19.615353
68.770 19.968718
68.775 20.013149
68.780 20.197762
68.785 19.747667
68.790 19.328756
68.795 19.637133
68.800 19.857054
68.805 19.912977
68.810 19.658382
68.815 19.670555
68.820 20.032066
68.825 20.422466
68.830 20.385115
68.835 20.65123
68.840 20.626102
68.845 21.766111
68.850 22.442045
68.855 22.414635
68.860 22.388206
68.865 22.314159
68.870 22.235952
68.875 22.501829
68.880 21.292063
68.885 20.919804
68.890 21.064533
68.895 21.51104
68.900 21.54113
68.905 21.072721
68.910 20.326454
68.915 21.34181
68.920 21.270369
68.925 21.127417
68.930 20.690735
68.935 19.984915
68.940 19.947258
68.945 20.068529
68.950 19.567587
68.955 19.609243
68.960 19.208824
68.965 19.279234
68.970 19.35358
68.975 19.921152
68.980 20.051815
68.985 19.565149
68.990 19.121777
68.995 18.828529
69.000 18.505848
69.005 18.202698
69.010 18.374083
69.015 18.129335
69.020 18.247509
69.025 18.238354
69.030 18.495514
69.035 18.062859
69.040 17.811218
69.045 17.479589
69.050 17.860695
69.055 18.691172
69.060 18.666361
69.065 18.923553
69.070 19.485559
69.075 19.96044
69.080 19.950542
69.085 19.000628
69.090 18.51491
69.095 18.951998
69.100 19.391758
69.105 19.520668
69.110 19.266022
69.115 19.546326
69.120 20.32382
69.125 20.088396
69.130 19.550961
69.135 18.601181
69.140 17.650057
69.145 17.311363
69.150 17.36883
69.155 17.108883
69.160 16.917923
69.165 17.086828
69.170 17.848776
69.175 18.900713
69.180 19.159166
69.185 18.91995
69.190 18.608095
69.195 18.399975
69.200 18.289505
69.205 17.964602
69.210 17.706676
69.215 17.694908
69.220 17.631416
69.225 17.532845
69.230 17.549213
69.235 17.213396
69.240 16.861469
69.245 16.746912
69.250 16.146093
69.255 16.4081
69.260 16.520344
69.265 16.200756
69.270 16.383535
69.275 16.493925
69.280 16.403158
69.285 16.064964
69.290 15.583633
69.295 15.687052
69.300 15.824632
69.305 15.640522
69.310 15.458664
69.315 15.238729
69.320 15.672433
69.325 15.597605
69.330 15.366029
69.335 15.137628
69.340 14.881388
69.345 14.447294
69.350 14.109921
69.355 14.064677
69.360 13.820402
69.365 13.998837
69.370 14.466435
69.375 14.850159
69.380 15.35831
69.385 15.294338
69.390 14.946758
69.395 15.455512
69.400 15.440049
69.405 15.136188
69.410 15.053408
69.415 14.601549
69.420 14.815705
69.425 15.073479
69.430 14.525087
69.435 14.283228
69.440 13.996606
69.445 13.830181
69.450 14.542119
69.455 14.3234
69.460 14.374535
69.465 14.521408
69.470 14.62872
69.475 14.987293
69.480 14.631828
69.485 13.879827
69.490 13.755897
69.495 13.329302
69.500 13.285551
69.505 13.201206
69.510 12.987285
69.515 12.628826
69.520 12.653716
69.525 12.148719
69.530 12.155936
69.535 12.007955
69.540 12.171938
69.545 12.626879
69.550 13.65706
69.555 13.956987
69.560 14.280774
69.565 14.057613
69.570 13.698237
69.575 13.420795
69.580 12.789092
69.585 11.961799
69.590 11.689569
69.595 11.476343
69.600 12.097173
69.605 12.455724
69.610 12.434037
69.615 12.539671
69.620 12.626592
69.625 12.900105
69.630 13.3889
69.635 12.754858
69.640 12.835808
69.645 12.886551
69.650 13.198876
69.655 13.269518
69.660 13.55162
69.665 13.504443
69.670 13.662359
69.675 13.387387
69.680 13.857642
69.685 13.752407
69.690 13.215641
69.695 12.725467
69.700 12.983052
69.705 13.352648
69.710 13.366755
69.715 12.973233
69.720 13.130742
69.725 12.493697
69.730 12.218044
69.735 12.11367
69.740 11.957987
69.745 11.957269
69.750 11.681264
69.755 11.741612
69.760 12.636697
69.765 13.156766
69.770 13.290124
69.775 13.419998
69.780 14.029627
69.785 14.446996
69.790 14.452456
69.795 14.210624
69.800 13.688508
69.805 13.249852
69.810 13.001153
69.815 12.793483
69.820 12.74408
69.825 12.955745
69.830 13.193172
69.835 13.669917
69.840 13.98083
69.845 13.606939
69.850 13.322165
69.855 13.171521
69.860 13.650165
69.865 13.845222
69.870 13.630517
69.875 13.700072
69.880 13.92122
69.885 14.035658
69.890 14.027672
69.895 13.482903
69.900 13.038864
69.905 12.607563
69.910 12.249312
69.915 12.069927
69.920 11.915423
69.925 12.163423
69.930 11.687791
69.935 11.273692
69.940 11.739965
69.945 11.764341
69.950 11.789212
69.955 11.579111
69.960 11.390096
69.965 12.264911
69.970 12.659347
69.975 12.195819
69.980 12.072565
69.985 12.174256
69.990 12.30661
69.995 12.228763
70.000 12.125342
70.005 11.982114
70.010 12.157045
70.015 12.149699
70.020 12.230148
70.025 12.709316
70.030 12.701096
70.035 12.705878
70.040 13.096344
70.045 13.260649
70.050 12.823236
70.055 12.712558
70.060 12.427599
70.065 12.851453
70.070 12.949196
70.075 13.151524
70.080 13.545948
70.085 14.003392
70.090 13.722122
70.095 13.26004
70.100 12.60259
70.105 13.125226
70.110 13.095121
70.115 13.039907
70.120 12.853497
70.125 12.828326
70.130 12.956457
70.135 13.041266
70.140 12.669798
70.145 12.772932
70.150 13.088384
70.155 13.483829
70.160 13.779137
70.165 13.976783
70.170 14.253333
70.175 14.019606
70.180 13.854804
70.185 13.867218
70.190 13.843854
70.195 14.210077
70.200 14.401683
70.205 15.037171
70.210 15.247103
70.215 15.257814
70.220 14.625079
70.225 14.335881
70.230 13.89876
70.235 13.349126
70.240 12.104057
70.245 11.782148
70.250 11.944493
70.255 12.417438
70.260 12.492013
70.265 12.793453
70.270 12.947096
70.275 12.921543
70.280 13.005171
70.285 12.851459
70.290 12.894374
70.295 12.9797
70.300 12.877861
70.305 12.908172
70.310 13.357897
70.315 13.07751
70.320 13.14357
70.325 12.640323
70.330 12.428618
70.335 12.362976
70.340 12.095836
70.345 11.708297
70.350 11.765036
70.355 12.051551
70.360 12.289464
70.365 12.224534
70.370 11.969258
70.375 11.75315
70.380 11.661856
70.385 11.738063
70.390 11.976813
70.395 12.387964
70.400 12.609042
70.405 13.007053
70.410 13.66322
70.415 14.08993
70.420 13.913352
70.425 13.323939
70.430 13.20982
70.435 13.133876
70.440 12.814366
70.445 12.302262
70.450 11.681552
70.455 11.694125
70.460 11.904144
70.465 11.84146
70.470 12.003382
70.475 12.636686
70.480 12.878452
70.485 12.893979
70.490 12.544948
70.495 12.438891
70.500 12.379368
70.505 12.255466
70.510 11.993237
70.515 12.304512
70.520 12.648664
70.525 13.171513
70.530 13.169477
70.535 13.274026
70.540 13.145313
70.545 13.048192
70.550 12.684907
70.555 12.610497
70.560 12.20263
70.565 11.785701
70.570 11.459168
70.575 11.666723
70.580 11.858242
70.585 12.562111
70.590 12.710722
70.595 12.970448
70.600 13.400073
70.605 13.816577
70.610 13.107804
70.615 12.690628
70.620 11.977832
70.625 12.031605
70.630 12.478152
70.635 12.713937
70.640 12.676437
70.645 12.854544
70.650 13.191686
70.655 13.454324
70.660 12.805964
70.665 12.185436
70.670 11.687342
70.675 11.804551
70.680 12.19721
70.685 11.704268
70.690 12.049166
70.695 11.640925
70.700 11.373671
70.705 11.325531
70.710 11.037592
70.715 10.491069
70.720 10.234007
70.725 10.023198
70.730 10.459213
70.735 11.143346
70.740 11.428478
70.745 11.48403
70.750 11.749095
70.755 12.001973
70.760 12.46258
70.765 12.716872
70.770 12.571281
70.775 12.6338
70.780 12.705906
70.785 13.409097
70.790 13.637066
70.795 13.290669
70.800 12.886085
70.805 12.801771
70.810 12.837241
70.815 13.037038
70.820 13.777822
70.825 14.157842
70.830 14.395284
70.835 14.655241
70.840 14.583953
70.845 14.663499
70.850 14.003176
70.855 12.551674
70.860 12.157339
70.865 11.665545
70.870 12.067014
70.875 11.782772
70.880 11.782502
70.885 12.165161
70.890 12.274076
70.895 11.966959
70.900 12.359694
70.905 12.073683
70.910 11.916668
70.915 11.837579
70.920 11.669235
70.925 11.624318
70.930 11.444552
70.935 11.216592
70.940 11.096646
70.945 11.606947
70.950 11.675102
70.955 12.244738
70.960 13.14285
70.965 13.516596
70.970 13.354375
70.975 13.302931
70.980 12.821036
70.985 12.691769
70.990 11.807818
70.995 11.086883
71.000 11.097976
71.005 11.479095
71.010 11.675604
71.015 11.928844
71.020 11.71614
71.025 11.843422
71.030 12.205424
71.035 12.086277
71.040 11.859264
71.045 12.104691
71.050 12.363378
71.055 12.65976
71.060 12.844876
71.065 12.861564
71.070 12.421356
71.075 12.124615
71.080 11.958131
71.085 12.53767
71.090 12.62904
71.095 12.916399
71.100 12.868702
71.105 12.745013
71.110 12.604609
71.115 12.307755
71.120 12.084394
71.125 11.781038
71.130 10.883986
71.135 11.097308
71.140 11.635255
71.145 12.030772
71.150 12.254463
71.155 12.511089
71.160 13.147281
71.165 13.66484
71.170 13.637308
71.175 13.319284
71.180 13.37459
71.185 12.70183
71.190 12.380222
71.195 12.133075
71.200 12.217681
71.205 12.341508
71.210 12.726841
71.215 12.875742
71.220 12.997356
71.225 13.126727
71.230 13.180087
71.235 13.484429
71.240 13.27112
71.245 12.757961
71.250 12.866167
71.255 12.88511
71.260 12.286915
71.265 12.701823
71.270 12.164935
71.275 12.464059
71.280 12.605036
71.285 12.625833
71.290 12.493697
71.295 12.507583
71.300 12.345743
71.305 12.728247
71.310 13.149168
71.315 13.099739
71.320 12.81423
71.325 12.939731
71.330 13.105027
71.335 13.251724
71.340 13.050064
71.345 12.523333
71.350 12.916751
71.355 13.033825
71.360 13.200709
71.365 13.00878
71.370 12.869429
71.375 12.633062
71.380 12.082941
71.385 12.053642
71.390 12.475065
71.395 12.815179
71.400 12.587935
71.405 12.512232
71.410 13.106972
71.415 13.589931
71.420 13.749709
71.425 13.207553
71.430 13.590624
71.435 13.890226
71.440 13.614329
71.445 13.177974
71.450 12.677582
71.455 12.889518
71.460 12.845558
71.465 11.942445
71.470 11.508093
71.475 11.803633
71.480 11.973453
71.485 12.026634
71.490 11.64817
71.495 11.738153
71.500 12.303776
71.505 13.309801
71.510 13.205794
71.515 13.119913
71.520 13.277881
71.525 13.432715
71.530 13.564435
71.535 13.370496
71.540 13.159388
71.545 13.211414
71.550 13.112306
71.555 13.009524
71.560 12.936178
71.565 12.749285
71.570 12.731606
71.575 12.735001
71.580 12.352826
71.585 12.069205
71.590 12.171873
71.595 12.503415
71.600 12.894541
71.605 12.723294
71.610 12.131083
71.615 12.100883
71.620 12.400332
71.625 12.463744
71.630 11.833375
71.635 11.347836
71.640 11.154056
71.645 11.361107
71.650 11.581648
71.655 11.631518
71.660 11.375159
71.665 11.420385
71.670 11.616086
71.675 12.234084
71.680 12.740853
71.685 12.511194
71.690 12.653695
71.695 12.963546
71.700 13.452163
71.705 13.198571
71.710 12.474392
71.715 12.627212
71.720 13.269012
71.725 13.083012
71.730 12.822363
71.735 12.340697
71.740 12.678692
71.745 13.486241
71.750 12.91863
71.755 12.834721
71.760 13.500031
71.765 13.593812
71.770 14.123855
71.775 14.189583
71.780 13.851634
71.785 13.51313
71.790 12.978013
71.795 12.833076
71.800 12.602576
71.805 12.449255
71.810 12.17236
71.815 12.024635
71.820 11.699519
71.825 11.224331
71.830 10.99528
71.835 11.569011
71.840 11.752522
71.845 11.855464
71.850 11.459231
71.855 11.781878
71.860 11.856899
71.865 11.51563
71.870 11.157681
71.875 10.949533
71.880 11.161032
71.885 11.927748
71.890 12.282517
71.895 12.653584
71.900 12.772709
71.905 12.583004
71.910 12.585659
71.915 12.825289
71.920 13.034534
71.925 13.076949
71.930 13.067164
71.935 13.144961
71.940 12.877868
71.945 12.805743
71.950 12.427341
71.955 12.107113
71.960 12.223016
71.965 12.29516
71.970 12.99352
71.975 13.243372
71.980 13.305112
71.985 13.383322
71.990 13.177818
71.995 13.199122
72.000 12.884509
72.005 12.347492
72.010 12.433811
72.015 12.620174
72.020 12.725899
72.025 12.533615
72.030 12.805764
72.035 12.867268
72.040 12.755985
72.045 12.446933
72.050 12.253477
72.055 12.643207
72.060 12.618757
72.065 12.638738
72.070 12.814453
72.075 13.005589
72.080 12.912198
72.085 12.381759
72.090 11.986836
72.095 11.857957
72.100 11.394111
72.105 11.454529
72.110 11.434775
72.115 12.026567
72.120 12.796574
72.125 12.736227
72.130 12.941804
72.135 13.123874
72.140 13.247333
72.145 13.251588
72.150 12.542392
72.155 12.452913
72.160 12.963508
72.165 12.533029
72.170 12.508878
72.175 12.456645
72.180 13.144859
72.185 13.513143
72.190 12.75577
72.195 12.505493
72.200 12.272308
72.205 12.05313
72.210 11.740591
72.215 10.554696
72.220 10.58126
72.225 11.124813
72.230 11.601391
72.235 11.557887
72.240 11.92459
72.245 12.128613
72.250 12.865873
72.255 12.797219
72.260 12.489215
72.265 12.435704
72.270 12.580939
72.275 13.080551
72.280 13.230245
72.285 13.204736
72.290 13.664282
72.295 13.417206
72.300 13.749565
72.305 13.37814
72.310 12.765325
72.315 12.495828
72.320 12.360051
72.325 12.388119
72.330 12.667864
72.335 12.494836
72.340 13.178116
72.345 13.219528
72.350 13.173493
72.355 13.104863
72.360 12.824935
72.365 12.616044
72.370 12.576941
72.375 12.194251
72.380 12.450559
72.385 12.294664
72.390 12.267291
72.395 12.4372
72.400 12.519984
72.405 12.216418
72.410 12.076612
72.415 12.319828
72.420 12.315784
72.425 11.841938
72.430 11.733485
72.435 11.880573
72.440 12.401683
72.445 12.018888
72.450 11.983917
72.455 12.516767
72.460 13.088228
72.465 13.405509
72.470 13.6288
72.475 13.789734
72.480 14.325762
72.485 14.35943
72.490 14.329892
72.495 13.7904
72.500 12.851091
72.505 12.462117
72.510 12.321547
72.515 11.873794
72.520 11.856833
72.525 12.054499
72.530 12.366879
72.535 12.799872
72.540 12.633455
72.545 12.663215
72.550 13.068797
72.555 12.981839
72.560 12.745917
72.565 12.70898
72.570 12.882807
72.575 12.788423
72.580 12.713814
72.585 12.753956
72.590 12.196999
72.595 12.253592
72.600 11.992229
72.605 11.724989
72.610 11.828482
72.615 11.445724
72.620 10.894271
72.625 11.515646
72.630 11.417135
72.635 12.00192
72.640 12.104903
72.645 12.130651
72.650 12.310986
72.655 12.594432
72.660 12.309861
72.665 12.294587
72.670 11.503462
72.675 11.355692
72.680 11.611381
72.685 11.580956
72.690 11.456879
72.695 11.430932
72.700 11.518391
72.705 11.969408
72.710 12.140628
72.715 12.184724
72.720 12.273576
72.725 11.885386
72.730 11.987914
72.735 12.026423
72.740 11.972833
72.745 11.561592
72.750 11.14306
72.755 11.004329
72.760 11.211618
72.765 11.114684
72.770 11.223459
72.775 11.445008
72.780 11.904498
72.785 12.426328
72.790 12.605204
72.795 12.796338
72.800 12.471897
72.805 11.823051
72.810 11.500169
72.815 11.262006
72.820 11.091837
72.825 11.181725
72.830 11.398045
72.835 11.78756
72.840 11.748271
72.845 11.539991
72.850 11.1317
72.855 11.138976
72.860 11.818499
72.865 11.90777
72.870 12.462454
72.875 12.997337
72.880 13.521241
72.885 13.916451
72.890 13.201883
72.895 12.669782
72.900 12.567972
72.905 11.836072
72.910 11.423188
72.915 10.933393
72.920 10.82056
72.925 11.213738
72.930 10.930735
72.935 10.859578
72.940 10.873654
72.945 10.987833
72.950 11.327539
72.955 11.166989
72.960 11.068217
72.965 11.030628
72.970 11.337029
72.975 11.609445
72.980 11.586122
72.985 10.950105
72.990 10.781464
72.995 10.402107
73.000 10.636116
