!@!!GADDS PLOTSO FILE: Chi integration type
!@!!Title/SampleName: map-70
!@!!Comment: ?
!@!!User: Bruker Instrument Administrator
!@!!Site: University of Illinois Chicago
!@!!Frame: map-70_01_000.gfrm
!@!!Wavelengths    1.54184   1.54056   1.54439
!@!!Frame angles: 2Theta: 63.000 Omega: 50.000 Phi: 0.000 Chi: 90.000
!@!!Integration range: 2Theta: 53.000 to 73.000  Gamma: -105.000 to -75.000
!@!!Integration method: bin normalized
!@!N
!@!SS
!@!M
!@!L 0.0 0.0 0.0 0.0
!@!XDegrees
!@!YCounts
53.000 8.583641
53.005 8.738403
53.010 9.04631
53.015 9.251556
53.020 9.49418
53.025 9.831813
53.030 9.757579
53.035 9.536375
53.040 9.660709
53.045 9.622252
53.050 9.945839
53.055 9.834176
53.060 9.748316
53.065 10.283281
53.070 10.431455
53.075 10.041352
53.080 9.861804
53.085 9.514791
53.090 9.824725
53.095 9.745029
53.100 9.487492
53.105 9.631502
53.110 9.7356
53.115 9.664046
53.120 9.72284
53.125 9.008733
53.130 8.656244
53.135 8.427338
53.140 8.435354
53.145 8.237948
53.150 8.188125
53.155 8.415633
53.160 9.103204
53.165 9.531201
53.170 9.178929
53.175 8.69036
53.180 9.084528
53.185 8.999078
53.190 9.187097
53.195 9.393862
53.200 9.4012
53.205 9.655811
53.210 9.875422
53.215 9.615288
53.220 9.803966
53.225 9.22817
53.230 9.110698
53.235 9.344181
53.240 9.175461
53.245 9.161949
53.250 9.373476
53.255 9.520541
53.260 9.850019
53.265 9.563675
53.270 9.566597
53.275 9.848804
53.280 9.849742
53.285 9.44358
53.290 8.922678
53.295 8.444171
53.300 8.239173
53.305 8.092865
53.310 7.522744
53.315 7.697801
53.320 7.873359
53.325 8.314067
53.330 8.875254
53.335 9.079199
53.340 9.776278
53.345 9.925817
53.350 10.213966
53.355 10.410067
53.360 10.551766
53.365 10.176747
53.370 9.742633
53.375 9.574825
53.380 9.748631
53.385 9.5677
53.390 9.259824
53.395 9.172496
53.400 9.7267
53.405 9.885509
53.410 9.729605
53.415 9.330055
53.420 9.213511
53.425 9.340192
53.430 9.365797
53.435 9.588595
53.440 9.536017
53.445 9.531741
53.450 9.719995
53.455 9.627737
53.460 10.185966
53.465 10.385426
53.470 10.059254
53.475 10.175937
53.480 9.92628
53.485 9.83122
53.490 9.614432
53.495 8.916373
53.500 8.695434
53.505 9.073994
53.510 9.351961
53.515 9.486822
53.520 9.785012
53.525 10.253317
53.530 10.300296
53.535 10.290554
53.540 9.906431
53.545 9.952223
53.550 10.059132
53.555 9.882177
53.560 9.762621
53.565 9.582625
53.570 9.435637
53.575 9.293591
53.580 9.308654
53.585 9.548372
53.590 10.078237
53.595 10.561114
53.600 10.796679
53.605 10.847092
53.610 10.901289
53.615 10.616564
53.620 10.357318
53.625 10.145724
53.630 9.913426
53.635 10.434899
53.640 10.640275
53.645 10.705991
53.650 11.158018
53.655 11.155649
53.660 11.000567
53.665 10.391802
53.670 10.454583
53.675 10.754435
53.680 11.065503
53.685 10.826097
53.690 10.30184
53.695 10.747748
53.700 11.27133
53.705 10.967832
53.710 10.924453
53.715 11.056705
53.720 11.215671
53.725 11.185642
53.730 10.884029
53.735 10.419645
53.740 10.264414
53.745 9.840202
53.750 9.474298
53.755 9.499007
53.760 9.836428
53.765 9.549635
53.770 9.809867
53.775 9.821863
53.780 10.175757
53.785 10.486928
53.790 10.63386
53.795 10.558002
53.800 10.844166
53.805 10.710119
53.810 10.323966
53.815 9.798525
53.820 9.254986
53.825 8.766817
53.830 8.636163
53.835 8.485353
53.840 8.527205
53.845 8.847915
53.850 9.525194
53.855 9.487767
53.860 9.975409
53.865 10.064198
53.870 10.159875
53.875 10.460507
53.880 10.267226
53.885 10.192745
53.890 10.62827
53.895 10.308712
53.900 10.47081
53.905 10.428593
53.910 10.222801
53.915 10.512445
53.920 10.514309
53.925 10.325097
53.930 10.561586
53.935 10.368895
53.940 10.165107
53.945 10.297996
53.950 10.096845
53.955 9.896607
53.960 10.691174
53.965 10.675181
53.970 10.962735
53.975 11.172496
53.980 11.255116
53.985 11.965856
53.990 12.183626
53.995 11.346082
54.000 11.804974
54.005 11.542879
54.010 11.554684
54.015 11.239966
54.020 10.459371
54.025 10.567646
54.030 10.616091
54.035 10.343769
54.040 10.413656
54.045 9.940676
54.050 9.801568
54.055 9.937551
54.060 10.343072
54.065 9.919896
54.070 9.97727
54.075 10.250246
54.080 10.690816
54.085 10.857608
54.090 10.582197
54.095 10.273496
54.100 10.518115
54.105 10.133085
54.110 9.980543
54.115 10.123526
54.120 10.059419
54.125 10.355491
54.130 10.240559
54.135 10.507949
54.140 10.805808
54.145 11.007977
54.150 10.9184
54.155 10.610625
54.160 10.247633
54.165 10.301627
54.170 10.186061
54.175 9.953289
54.180 9.445402
54.185 9.460609
54.190 10.077306
54.195 10.239056
54.200 10.838107
54.205 11.465435
54.210 11.825263
54.215 11.89604
54.220 11.570452
54.225 11.606753
54.230 11.646696
54.235 10.73225
54.240 10.524243
54.245 10.683103
54.250 10.887988
54.255 11.145477
54.260 11.161144
54.265 11.360307
54.270 12.122019
54.275 11.677482
54.280 11.64044
54.285 11.681636
54.290 11.967973
54.295 12.058679
54.300 11.994903
54.305 11.843868
54.310 11.859161
54.315 11.812865
54.320 11.860794
54.325 11.725064
54.330 11.133677
54.335 11.009491
54.340 11.114466
54.345 10.894881
54.350 10.495445
54.355 10.039557
54.360 9.954399
54.365 10.465177
54.370 10.325624
54.375 9.938759
54.380 10.344428
54.385 10.44747
54.390 10.206412
54.395 9.870583
54.400 9.175593
54.405 9.298046
54.410 9.391527
54.415 9.344803
54.420 9.498543
54.425 9.83414
54.430 9.992666
54.435 10.101148
54.440 9.935162
54.445 10.074528
54.450 10.419565
54.455 10.680767
54.460 11.121604
54.465 11.632517
54.470 12.302344
54.475 12.210823
54.480 11.948302
54.485 11.053523
54.490 10.771038
54.495 10.612384
54.500 10.158298
54.505 9.892904
54.510 10.14115
54.515 10.585137
54.520 11.068655
54.525 10.99344
54.530 11.272005
54.535 11.359168
54.540 11.002038
54.545 10.687316
54.550 10.62825
54.555 10.586759
54.560 10.364041
54.565 10.196219
54.570 10.238545
54.575 10.480858
54.580 10.441722
54.585 10.432256
54.590 10.566256
54.595 10.53585
54.600 10.650482
54.605 10.63799
54.610 10.838483
54.615 11.293812
54.620 11.19285
54.625 10.640373
54.630 10.188773
54.635 10.000168
54.640 10.314314
54.645 10.197775
54.650 9.6205
54.655 10.058456
54.660 10.86364
54.665 11.420465
54.670 11.549958
54.675 10.820369
54.680 11.119373
54.685 11.207346
54.690 10.51616
54.695 10.381556
54.700 10.720601
54.705 11.300122
54.710 11.643424
54.715 11.385932
54.720 11.629127
54.725 11.523924
54.730 11.246637
54.735 10.651536
54.740 9.88525
54.745 9.579926
54.750 9.48904
54.755 9.589902
54.760 10.637207
54.765 11.418946
54.770 11.541734
54.775 12.166717
54.780 12.961011
54.785 13.065619
54.790 12.715023
54.795 11.937536
54.800 11.320415
54.805 11.318337
54.810 11.322446
54.815 10.922561
54.820 10.964829
54.825 11.204277
54.830 11.1148
54.835 11.473223
54.840 12.038695
54.845 11.217434
54.850 11.24949
54.855 11.232417
54.860 11.316412
54.865 11.23931
54.870 10.499157
54.875 9.634207
54.880 9.663002
54.885 9.729498
54.890 10.000018
54.895 9.951792
54.900 9.903906
54.905 10.246575
54.910 10.973147
54.915 11.270766
54.920 11.297997
54.925 11.203144
54.930 11.365682
54.935 11.659862
54.940 11.909259
54.945 12.187054
54.950 12.410581
54.955 12.123589
54.960 11.940243
54.965 11.87925
54.970 11.878726
54.975 11.708658
54.980 11.486036
54.985 11.320621
54.990 11.482634
54.995 11.536247
55.000 11.39019
55.005 11.310273
55.010 10.884289
55.015 10.815663
55.020 10.927185
55.025 11.375671
55.030 11.470314
55.035 11.588203
55.040 11.522517
55.045 11.800926
55.050 11.863739
55.055 12.020469
55.060 11.819411
55.065 11.500403
55.070 11.304711
55.075 11.195765
55.080 11.18115
55.085 11.355176
55.090 11.068802
55.095 10.655571
55.100 10.743097
55.105 11.178154
55.110 11.230896
55.115 10.873465
55.120 10.439823
55.125 10.488174
55.130 10.667065
55.135 10.626066
55.140 10.626569
55.145 11.14
55.150 12.078271
55.155 12.166101
55.160 11.937121
55.165 11.90383
55.170 11.686026
55.175 11.195467
55.180 10.528542
55.185 9.901623
55.190 10.436396
55.195 10.933823
55.200 11.490452
55.205 11.817925
55.210 12.258096
55.215 12.376821
55.220 12.143528
55.225 12.243601
55.230 12.058917
55.235 11.656972
55.240 11.560582
55.245 11.921447
55.250 11.973296
55.255 11.698189
55.260 11.269145
55.265 11.159785
55.270 11.872488
55.275 12.180123
55.280 11.783858
55.285 11.534214
55.290 12.227806
55.295 12.474034
55.300 12.839628
55.305 12.81797
55.310 12.514701
55.315 12.572255
55.320 12.797462
55.325 12.589528
55.330 12.445838
55.335 12.337222
55.340 12.070823
55.345 12.201577
55.350 12.406564
55.355 12.45073
55.360 12.544644
55.365 12.284431
55.370 11.90225
55.375 11.487672
55.380 11.557044
55.385 11.486531
55.390 11.420156
55.395 11.892994
55.400 12.034852
55.405 12.554818
55.410 13.18144
55.415 13.177444
55.420 13.222754
55.425 13.063604
55.430 12.554932
55.435 12.456578
55.440 12.442571
55.445 12.738028
55.450 13.142616
55.455 13.077179
55.460 12.899192
55.465 12.968746
55.470 12.490777
55.475 11.739838
55.480 11.008341
55.485 10.810111
55.490 10.825321
55.495 10.699263
55.500 10.842817
55.505 11.295823
55.510 12.098973
55.515 12.520308
55.520 12.442424
55.525 12.732201
55.530 12.763459
55.535 12.806602
55.540 12.661844
55.545 12.357574
55.550 11.905079
55.555 11.863772
55.560 12.282746
55.565 12.722416
55.570 12.802023
55.575 12.733263
55.580 12.407781
55.585 12.035118
55.590 12.363452
55.595 12.292299
55.600 11.956631
55.605 11.924319
55.610 12.254307
55.615 12.576204
55.620 12.708996
55.625 12.41012
55.630 12.058718
55.635 12.117789
55.640 12.248393
55.645 11.850245
55.650 11.918766
55.655 11.970177
55.660 11.897482
55.665 12.300547
55.670 12.241174
55.675 11.952638
55.680 11.347878
55.685 11.04744
55.690 11.064777
55.695 11.159707
55.700 11.165433
55.705 11.21562
55.710 11.56095
55.715 12.086419
55.720 12.987946
55.725 13.566375
55.730 13.109159
55.735 13.287916
55.740 13.178739
55.745 13.158369
55.750 13.435481
55.755 12.930006
55.760 12.289212
55.765 12.025852
55.770 11.71417
55.775 11.76862
55.780 11.441809
55.785 11.236475
55.790 10.752364
55.795 10.772813
55.800 10.669021
55.805 10.818059
55.810 10.649925
55.815 10.456394
55.820 10.710646
55.825 11.520851
55.830 11.76401
55.835 11.951244
55.840 12.582687
55.845 13.131363
55.850 13.379617
55.855 13.543213
55.860 13.592147
55.865 14.165547
55.870 14.830781
55.875 14.779636
55.880 14.721104
55.885 14.891204
55.890 14.362736
55.895 13.819674
55.900 13.126138
55.905 12.326035
55.910 12.148794
55.915 12.448411
55.920 12.550467
55.925 12.751001
55.930 12.881787
55.935 12.774991
55.940 13.100794
55.945 13.194401
55.950 13.01015
55.955 12.696395
55.960 12.580437
55.965 12.470685
55.970 12.597174
55.975 12.349134
55.980 11.944859
55.985 11.76773
55.990 11.599938
55.995 11.60314
56.000 11.773314
56.005 11.601846
56.010 11.687887
56.015 11.767303
56.020 11.796602
56.025 11.566046
56.030 11.309695
56.035 11.15883
56.040 11.455311
56.045 11.620908
56.050 11.734963
56.055 11.550597
56.060 11.511046
56.065 12.086766
56.070 12.308608
56.075 12.421859
56.080 12.561947
56.085 12.654458
56.090 13.105693
56.095 13.756926
56.100 13.860414
56.105 13.793289
56.110 13.644764
56.115 13.182382
56.120 13.012666
56.125 12.89288
56.130 12.623827
56.135 12.276254
56.140 12.386843
56.145 12.414737
56.150 12.767489
56.155 12.683722
56.160 13.175834
56.165 13.798046
56.170 13.854099
56.175 13.818157
56.180 13.528523
56.185 13.415305
56.190 14.054161
56.195 13.796935
56.200 13.452841
56.205 13.445208
56.210 13.162905
56.215 13.270755
56.220 12.790993
56.225 12.402514
56.230 12.350928
56.235 12.496448
56.240 12.652029
56.245 12.67659
56.250 12.44214
56.255 12.435326
56.260 12.47747
56.265 12.408488
56.270 12.06108
56.275 12.047297
56.280 12.28061
56.285 12.767239
56.290 13.617747
56.295 13.318542
56.300 13.438822
56.305 13.392282
56.310 13.413715
56.315 13.769108
56.320 13.338701
56.325 12.852615
56.330 13.137031
56.335 12.995804
56.340 13.091233
56.345 13.227622
56.350 13.205538
56.355 13.446181
56.360 13.336771
56.365 13.129126
56.370 13.113284
56.375 13.294978
56.380 13.237236
56.385 12.736807
56.390 12.870914
56.395 12.961892
56.400 12.726691
56.405 12.110544
56.410 11.585187
56.415 11.69237
56.420 12.165862
56.425 12.198004
56.430 12.103699
56.435 12.268131
56.440 12.884398
56.445 12.777618
56.450 12.498468
56.455 12.122863
56.460 12.764668
56.465 13.199541
56.470 13.423801
56.475 13.255723
56.480 13.791257
56.485 14.286455
56.490 14.474056
56.495 13.995627
56.500 13.681071
56.505 13.848026
56.510 14.390398
56.515 14.475528
56.520 14.534035
56.525 14.314466
56.530 14.396972
56.535 14.556657
56.540 14.465621
56.545 13.946463
56.550 13.464353
56.555 13.325135
56.560 13.499401
56.565 13.624099
56.570 13.653358
56.575 13.722298
56.580 14.084241
56.585 13.917393
56.590 13.995966
56.595 14.18832
56.600 13.958473
56.605 13.690303
56.610 13.399682
56.615 13.02136
56.620 13.427686
56.625 13.706739
56.630 13.114682
56.635 13.092909
56.640 13.210493
56.645 13.092413
56.650 13.093752
56.655 12.517907
56.660 11.961364
56.665 12.335016
56.670 12.406173
56.675 12.539417
56.680 12.415242
56.685 12.184455
56.690 12.447396
56.695 12.493212
56.700 12.532739
56.705 12.180336
56.710 12.193078
56.715 12.833787
56.720 13.274817
56.725 13.275113
56.730 13.693065
56.735 13.459877
56.740 13.619598
56.745 13.721106
56.750 13.558529
56.755 13.726161
56.760 13.429178
56.765 12.863999
56.770 13.574961
56.775 14.083911
56.780 14.311827
56.785 14.440203
56.790 15.095009
56.795 15.569207
56.800 15.686869
56.805 15.52597
56.810 14.929221
56.815 14.563081
56.820 14.376691
56.825 14.003718
56.830 13.755736
56.835 13.176634
56.840 13.154032
56.845 13.413685
56.850 13.40459
56.855 13.407063
56.860 13.203263
56.865 13.123578
56.870 13.46687
56.875 13.189369
56.880 13.339038
56.885 13.76504
56.890 13.480991
56.895 13.609015
56.900 14.425901
56.905 14.712444
56.910 14.906743
56.915 14.609913
56.920 14.144925
56.925 14.201773
56.930 14.111473
56.935 13.527173
56.940 13.569155
56.945 13.628779
56.950 13.588433
56.955 13.814902
56.960 14.017605
56.965 14.01463
56.970 15.018242
56.975 14.931165
56.980 14.690862
56.985 14.775006
56.990 14.680847
56.995 14.439171
57.000 14.33972
57.005 13.408942
57.010 13.326285
57.015 13.549002
57.020 13.592421
57.025 13.51517
57.030 13.443325
57.035 13.223403
57.040 13.187108
57.045 12.68583
57.050 12.451614
57.055 12.287601
57.060 12.380917
57.065 12.681894
57.070 12.721741
57.075 13.532647
57.080 14.100237
57.085 14.098959
57.090 14.03714
57.095 13.967185
57.100 13.900991
57.105 13.346853
57.110 12.809355
57.115 12.828098
57.120 12.968559
57.125 13.127665
57.130 13.173799
57.135 13.192589
57.140 13.541758
57.145 13.388094
57.150 13.640333
57.155 14.000057
57.160 13.706775
57.165 13.384821
57.170 13.472135
57.175 13.502524
57.180 13.550314
57.185 13.446466
57.190 13.333363
57.195 13.634629
57.200 14.251828
57.205 14.359462
57.210 14.680561
57.215 14.668596
57.220 14.607831
57.225 14.693039
57.230 14.567553
57.235 13.961052
57.240 13.765417
57.245 14.015909
57.250 14.218021
57.255 13.710119
57.260 13.879494
57.265 14.251369
57.270 14.393114
57.275 14.53805
57.280 13.741161
57.285 13.586308
57.290 13.348651
57.295 13.234377
57.300 13.134208
57.305 12.735273
57.310 12.442255
57.315 12.743271
57.320 12.792727
57.325 13.511499
57.330 13.199543
57.335 13.169262
57.340 13.930851
57.345 14.148272
57.350 14.896788
57.355 14.879759
57.360 14.383105
57.365 14.549271
57.370 14.29309
57.375 14.122503
57.380 14.274791
57.385 13.120343
57.390 12.948758
57.395 13.389133
57.400 12.99576
57.405 13.304542
57.410 13.515473
57.415 13.609178
57.420 14.047128
57.425 14.10192
57.430 14.00622
57.435 14.326203
57.440 13.95007
57.445 13.710502
57.450 13.389535
57.455 13.382448
57.460 13.80678
57.465 13.765617
57.470 14.10991
57.475 14.476949
57.480 14.587533
57.485 14.997672
57.490 15.563153
57.495 15.720958
57.500 16.088896
57.505 15.915474
57.510 15.445585
57.515 15.122331
57.520 14.772957
57.525 13.97719
57.530 13.186423
57.535 13.393458
57.540 13.651807
57.545 14.136139
57.550 14.470703
57.555 14.365087
57.560 14.564219
57.565 14.946325
57.570 14.387732
57.575 14.046438
57.580 14.432752
57.585 14.599919
57.590 15.08407
57.595 15.52834
57.600 15.617505
57.605 16.33551
57.610 16.490746
57.615 16.327349
57.620 16.485903
57.625 16.733372
57.630 16.324091
57.635 15.484526
57.640 14.748631
57.645 14.624972
57.650 14.034107
57.655 13.625539
57.660 13.282078
57.665 13.516629
57.670 14.057234
57.675 14.610171
57.680 14.875773
57.685 15.198935
57.690 15.254399
57.695 15.548167
57.700 15.491135
57.705 15.577906
57.710 15.873476
57.715 16.108774
57.720 15.789653
57.725 15.796918
57.730 15.74966
57.735 15.44674
57.740 15.288146
57.745 14.792181
57.750 14.861662
57.755 14.890178
57.760 14.216483
57.765 14.639293
57.770 14.976587
57.775 15.096964
57.780 14.422892
57.785 14.294574
57.790 14.807061
57.795 15.271086
57.800 14.654292
57.805 14.596291
57.810 15.241531
57.815 15.991009
57.820 15.456806
57.825 15.269407
57.830 14.82258
57.835 14.93229
57.840 14.912806
57.845 14.922688
57.850 14.995905
57.855 15.480273
57.860 15.684897
57.865 16.332731
57.870 16.495342
57.875 16.605465
57.880 15.909958
57.885 15.642128
57.890 15.589445
57.895 15.866758
57.900 16.053183
57.905 15.750445
57.910 15.545773
57.915 15.695416
57.920 15.686279
57.925 15.295028
57.930 15.191483
57.935 15.070835
57.940 15.229955
57.945 15.4209
57.950 15.354948
57.955 15.75883
57.960 16.267302
57.965 15.989629
57.970 16.139362
57.975 16.18351
57.980 16.550125
57.985 16.668354
57.990 16.774199
57.995 16.616436
58.000 16.715258
58.005 16.629208
58.010 17.527637
58.015 17.458714
58.020 17.539528
58.025 17.877512
58.030 18.239393
58.035 18.437654
58.040 18.58408
58.045 17.74873
58.050 17.911985
58.055 18.126863
58.060 17.797178
58.065 17.605118
58.070 17.44146
58.075 17.177443
58.080 17.180908
58.085 16.503056
58.090 15.867293
58.095 15.476222
58.100 15.273318
58.105 15.331182
58.110 15.216105
58.115 15.095718
58.120 15.002499
58.125 15.055268
58.130 15.313463
58.135 15.716834
58.140 15.90238
58.145 16.111303
58.150 16.43568
58.155 16.714767
58.160 17.066792
58.165 17.0721
58.170 16.845604
58.175 16.766161
58.180 16.916323
58.185 17.33934
58.190 17.072628
58.195 16.798071
58.200 16.219515
58.205 16.503918
58.210 16.604713
58.215 16.95417
58.220 16.936886
58.225 17.580175
58.230 18.060221
58.235 18.102568
58.240 17.586454
58.245 17.611572
58.250 17.244783
58.255 17.487047
58.260 17.303629
58.265 17.178503
58.270 17.932741
58.275 18.253805
58.280 18.855604
58.285 19.550184
58.290 19.669067
58.295 20.193403
58.300 20.325439
58.305 20.131641
58.310 20.264713
58.315 19.96817
58.320 19.3197
58.325 18.864655
58.330 18.728836
58.335 19.341673
58.340 19.679533
58.345 19.814592
58.350 20.085661
58.355 20.691357
58.360 20.929001
58.365 20.753529
58.370 20.620302
58.375 20.961679
58.380 20.953648
58.385 21.277695
58.390 22.301695
58.395 22.642843
58.400 22.953823
58.405 22.663191
58.410 22.6409
58.415 22.792612
58.420 22.441799
58.425 22.241119
58.430 22.560436
58.435 22.335653
58.440 22.681393
58.445 22.962372
58.450 23.725733
58.455 24.210358
58.460 24.986313
58.465 25.651432
58.470 26.460936
58.475 27.008448
58.480 27.076645
58.485 28.125818
58.490 29.649807
58.495 29.270557
58.500 29.112438
58.505 29.479706
58.510 30.213581
58.515 30.626728
58.520 30.25388
58.525 30.386211
58.530 31.621433
58.535 32.148312
58.540 32.125721
58.545 32.040493
58.550 32.116276
58.555 31.96937
58.560 32.923668
58.565 32.907604
58.570 32.664692
58.575 32.410957
58.580 32.689682
58.585 32.843742
58.590 32.880806
58.595 32.670757
58.600 33.388474
58.605 34.249294
58.610 35.021072
58.615 34.421177
58.620 34.912167
58.625 35.69212
58.630 35.824673
58.635 35.857399
58.640 36.074238
58.645 36.372124
58.650 37.474056
58.655 37.432041
58.660 36.700413
58.665 36.308899
58.670 36.542004
58.675 36.76963
58.680 36.518421
58.685 35.810814
58.690 35.932152
58.695 36.846462
58.700 36.202564
58.705 35.9133
58.710 35.285244
58.715 34.857037
58.720 35.158596
58.725 35.475296
58.730 35.064518
58.735 35.037601
58.740 34.432026
58.745 33.363228
58.750 32.878571
58.755 32.035244
58.760 31.025166
58.765 30.529648
58.770 30.296423
58.775 30.710365
58.780 31.17799
58.785 31.093781
58.790 30.46208
58.795 30.236351
58.800 29.307543
58.805 28.760462
58.810 27.820662
58.815 27.550394
58.820 27.646675
58.825 28.354837
58.830 28.392216
58.835 28.118507
58.840 27.681349
58.845 27.493284
58.850 27.516718
58.855 26.867355
58.860 25.945282
58.865 25.410887
58.870 25.474285
58.875 25.519859
58.880 25.401745
58.885 25.546282
58.890 25.253325
58.895 24.78231
58.900 24.579643
58.905 23.387383
58.910 22.989079
58.915 23.685345
58.920 23.04287
58.925 23.302519
58.930 22.851828
58.935 22.958979
58.940 23.678923
58.945 23.185566
58.950 21.914045
58.955 21.838398
58.960 21.213133
58.965 21.27766
58.970 20.580084
58.975 20.686354
58.980 20.53331
58.985 20.628746
58.990 20.445528
58.995 20.958284
59.000 21.075853
59.005 20.240934
59.010 19.233959
59.015 18.75153
59.020 18.228771
59.025 17.486645
59.030 16.935614
59.035 16.861799
59.040 17.744553
59.045 17.591904
59.050 17.718035
59.055 18.433956
59.060 19.036522
59.065 19.20586
59.070 19.53685
59.075 19.124048
59.080 19.350988
59.085 19.473892
59.090 19.092808
59.095 19.074448
59.100 19.280621
59.105 18.62331
59.110 18.588232
59.115 18.573053
59.120 18.563864
59.125 18.637943
59.130 18.011147
59.135 17.548429
59.140 17.635084
59.145 16.962273
59.150 16.839754
59.155 16.940098
59.160 17.218969
59.165 17.583008
59.170 17.533903
59.175 17.139566
59.180 17.60675
59.185 16.922729
59.190 16.7484
59.195 16.633968
59.200 16.085537
59.205 15.847406
59.210 16.303267
59.215 16.393059
59.220 16.344687
59.225 15.676953
59.230 15.459912
59.235 15.805431
59.240 16.280882
59.245 15.880227
59.250 15.656122
59.255 16.311655
59.260 16.197073
59.265 16.175579
59.270 16.196129
59.275 16.237749
59.280 16.601177
59.285 16.640282
59.290 16.258986
59.295 16.559402
59.300 16.633902
59.305 16.931236
59.310 16.922258
59.315 17.264252
59.320 18.007828
59.325 18.303169
59.330 18.261694
59.335 18.420359
59.340 18.030346
59.345 17.674257
59.350 16.805811
59.355 15.826715
59.360 15.467457
59.365 15.675367
59.370 14.842741
59.375 14.967929
59.380 15.522561
59.385 16.044651
59.390 16.728718
59.395 16.555786
59.400 16.395666
59.405 16.701624
59.410 16.528358
59.415 16.43153
59.420 16.37361
59.425 15.765123
59.430 15.350487
59.435 15.234437
59.440 15.497457
59.445 15.955677
59.450 15.721384
59.455 15.916157
59.460 16.180336
59.465 16.873007
59.470 17.222208
59.475 17.30368
59.480 17.02923
59.485 17.210192
59.490 16.922256
59.495 17.103636
59.500 16.272043
59.505 15.562497
59.510 15.033262
59.515 14.851333
59.520 14.429431
59.525 13.636169
59.530 13.132442
59.535 13.480202
59.540 13.708032
59.545 13.796916
59.550 13.821978
59.555 14.123377
59.560 14.553611
59.565 14.652491
59.570 14.959713
59.575 14.97693
59.580 14.759894
59.585 14.609056
59.590 14.191465
59.595 14.261468
59.600 14.303617
59.605 14.413416
59.610 14.358838
59.615 14.441839
59.620 14.519211
59.625 15.187895
59.630 15.392689
59.635 15.737315
59.640 15.120964
59.645 14.884244
59.650 15.621436
59.655 15.377127
59.660 15.017591
59.665 15.303627
59.670 15.568524
59.675 16.556715
59.680 17.052006
59.685 16.537916
59.690 16.787416
59.695 16.355646
59.700 16.012121
59.705 15.452843
59.710 15.528559
59.715 15.365846
59.720 15.565414
59.725 16.326107
59.730 16.635496
59.735 16.809401
59.740 16.753944
59.745 16.475298
59.750 16.285751
59.755 16.026917
59.760 15.562608
59.765 16.039068
59.770 15.732329
59.775 15.430308
59.780 15.320041
59.785 15.248172
59.790 14.898295
59.795 14.829462
59.800 14.656384
59.805 14.262927
59.810 14.751444
59.815 14.745741
59.820 14.815125
59.825 15.131642
59.830 14.712433
59.835 14.5154
59.840 15.069794
59.845 14.987894
59.850 14.496586
59.855 14.528792
59.860 14.036674
59.865 13.99157
59.870 13.945402
59.875 14.001878
59.880 13.847421
59.885 14.315156
59.890 14.45585
59.895 14.60743
59.900 14.697706
59.905 14.571353
59.910 14.254487
59.915 13.797822
59.920 13.698641
59.925 13.9611
59.930 14.450136
59.935 14.541856
59.940 14.893363
59.945 14.852509
59.950 15.039424
59.955 14.763849
59.960 14.484813
59.965 14.155952
59.970 13.935656
59.975 13.712308
59.980 13.983987
59.985 14.367933
59.990 14.462883
59.995 15.218795
60.000 15.555241
60.005 16.174761
60.010 16.751942
60.015 16.778109
60.020 16.633396
60.025 16.55423
60.030 16.094194
60.035 15.975586
60.040 15.830667
60.045 15.829938
60.050 16.226578
60.055 16.675554
60.060 17.253506
60.065 17.039225
60.070 16.953564
60.075 17.057522
60.080 16.427553
60.085 16.065676
60.090 15.246658
60.095 14.600235
60.100 14.665563
60.105 14.620242
60.110 14.687061
60.115 14.832344
60.120 14.741178
60.125 14.888227
60.130 14.565864
60.135 14.193504
60.140 13.961591
60.145 14.027088
60.150 13.938384
60.155 13.415951
60.160 13.38845
60.165 13.396933
60.170 13.621226
60.175 13.508801
60.180 12.826582
60.185 13.087944
60.190 14.147979
60.195 15.037866
60.200 15.49924
60.205 15.496409
60.210 15.804248
60.215 15.980729
60.220 15.957516
60.225 15.497088
60.230 14.832985
60.235 14.814664
60.240 14.943192
60.245 15.0088
60.250 15.881057
60.255 15.949284
60.260 16.100046
60.265 16.712542
60.270 16.651829
60.275 16.338934
60.280 16.178741
60.285 15.537837
60.290 15.550587
60.295 15.050068
60.300 14.636182
60.305 14.619955
60.310 14.775124
60.315 14.818729
60.320 14.351851
60.325 14.455145
60.330 14.703809
60.335 14.595066
60.340 14.990818
60.345 15.160868
60.350 15.235517
60.355 15.410481
60.360 14.757682
60.365 14.555352
60.370 14.85255
60.375 14.706137
60.380 14.625281
60.385 14.748179
60.390 14.797946
60.395 15.540057
60.400 15.998936
60.405 16.086617
60.410 16.352835
60.415 16.084843
60.420 16.197659
60.425 16.606297
60.430 16.856949
60.435 16.096556
60.440 15.916466
60.445 15.741241
60.450 15.487196
60.455 14.851908
60.460 14.285481
60.465 14.016106
60.470 14.511001
60.475 14.707217
60.480 14.556091
60.485 14.557562
60.490 14.912459
60.495 15.267876
60.500 15.447743
60.505 15.697012
60.510 16.045069
60.515 16.492167
60.520 16.683458
60.525 16.508654
60.530 16.034418
60.535 15.386164
60.540 14.792124
60.545 14.558433
60.550 14.591848
60.555 14.820663
60.560 15.431649
60.565 15.796229
60.570 16.123121
60.575 16.087955
60.580 15.690641
60.585 15.431674
60.590 15.017393
60.595 14.359286
60.600 14.116167
60.605 13.85598
60.610 14.218108
60.615 14.292253
60.620 14.622241
60.625 15.086456
60.630 15.395313
60.635 15.538116
60.640 16.251802
60.645 16.374697
60.650 16.315441
60.655 16.279875
60.660 16.214533
60.665 15.950975
60.670 15.991217
60.675 15.200377
60.680 14.508602
60.685 14.568946
60.690 14.177709
60.695 14.195366
60.700 14.042469
60.705 13.841416
60.710 14.168487
60.715 14.69344
60.720 14.227792
60.725 14.294434
60.730 14.211191
60.735 14.852463
60.740 14.749295
60.745 14.585029
60.750 14.558292
60.755 15.15124
60.760 15.461179
60.765 15.338326
60.770 15.37653
60.775 15.867985
60.780 16.090359
60.785 16.385365
60.790 15.806219
60.795 15.583446
60.800 15.98668
60.805 15.709991
60.810 15.662686
60.815 15.547062
60.820 15.300714
60.825 15.936167
60.830 16.236778
60.835 16.308199
60.840 16.317327
60.845 16.200579
60.850 16.310116
60.855 16.818935
60.860 16.740273
60.865 16.557554
60.870 16.008192
60.875 15.722022
60.880 15.29525
60.885 15.509295
60.890 15.558204
60.895 15.499968
60.900 15.417068
60.905 15.98358
60.910 16.413765
60.915 16.59832
60.920 16.563683
60.925 15.738274
60.930 15.317546
60.935 15.314247
60.940 14.81272
60.945 14.405684
60.950 14.59349
60.955 14.439529
60.960 14.594493
60.965 14.755209
60.970 15.048252
60.975 15.365124
60.980 15.418067
60.985 15.693812
60.990 15.464259
60.995 15.741688
61.000 15.738709
61.005 15.512284
61.010 15.458941
61.015 15.033208
61.020 14.364943
61.025 14.758044
61.030 14.634276
61.035 15.160725
61.040 15.275496
61.045 15.535654
61.050 16.26667
61.055 16.62604
61.060 16.394493
61.065 17.011497
61.070 16.687912
61.075 16.523016
61.080 16.287533
61.085 16.066881
61.090 16.065905
61.095 16.044601
61.100 15.358688
61.105 15.215388
61.110 15.480398
61.115 15.281554
61.120 15.390109
61.125 15.907435
61.130 16.231676
61.135 16.469189
61.140 16.740673
61.145 16.359228
61.150 16.3332
61.155 16.051022
61.160 15.58271
61.165 15.570469
61.170 15.129249
61.175 14.626137
61.180 14.929356
61.185 14.724318
61.190 14.768899
61.195 14.94172
61.200 15.212216
61.205 15.424214
61.210 15.778588
61.215 16.432524
61.220 16.854975
61.225 17.091455
61.230 16.936964
61.235 16.764576
61.240 17.164328
61.245 17.156237
61.250 16.912592
61.255 16.86701
61.260 16.479065
61.265 16.074144
61.270 15.506666
61.275 15.16363
61.280 15.043956
61.285 15.093808
61.290 15.158294
61.295 15.307742
61.300 15.117192
61.305 15.304436
61.310 15.561183
61.315 15.958829
61.320 15.578205
61.325 15.372355
61.330 15.258142
61.335 15.585421
61.340 15.61327
61.345 15.292896
61.350 14.654754
61.355 14.875776
61.360 14.853307
61.365 14.961538
61.370 15.213387
61.375 15.103472
61.380 15.17934
61.385 15.628881
61.390 15.519359
61.395 15.370837
61.400 15.262062
61.405 15.149946
61.410 15.320729
61.415 15.388948
61.420 14.859838
61.425 14.622933
61.430 14.68877
61.435 14.7909
61.440 14.734852
61.445 14.453635
61.450 14.222977
61.455 14.770353
61.460 15.113141
61.465 15.816913
61.470 16.329506
61.475 16.860184
61.480 17.327263
61.485 17.608057
61.490 17.335735
61.495 17.275768
61.500 16.653608
61.505 16.605362
61.510 16.463057
61.515 16.163126
61.520 16.557852
61.525 16.818478
61.530 16.632322
61.535 17.277681
61.540 16.928404
61.545 16.70997
61.550 17.280128
61.555 16.931345
61.560 16.828268
61.565 17.088963
61.570 17.12018
61.575 17.654408
61.580 17.706226
61.585 17.509333
61.590 17.477131
61.595 17.892273
61.600 17.841393
61.605 17.719461
61.610 17.770618
61.615 18.075516
61.620 17.94854
61.625 17.783888
61.630 17.604332
61.635 18.104683
61.640 17.84804
61.645 17.389748
61.650 16.924398
61.655 16.683823
61.660 16.796631
61.665 16.459705
61.670 15.39118
61.675 15.169209
61.680 15.019695
61.685 15.018917
61.690 15.12041
61.695 15.080131
61.700 15.145323
61.705 15.290662
61.710 15.623888
61.715 15.61215
61.720 15.99278
61.725 15.841935
61.730 15.978524
61.735 15.675311
61.740 16.037951
61.745 15.807186
61.750 16.114294
61.755 15.764528
61.760 16.022373
61.765 16.123095
61.770 17.094919
61.775 17.371096
61.780 17.553034
61.785 17.246458
61.790 17.02734
61.795 16.558529
61.800 16.357594
61.805 15.695276
61.810 15.310669
61.815 15.354985
61.820 15.816213
61.825 16.504047
61.830 17.123533
61.835 17.353527
61.840 18.003143
61.845 18.230391
61.850 17.888496
61.855 17.75156
61.860 18.253859
61.865 18.388245
61.870 18.207956
61.875 17.255484
61.880 17.384174
61.885 17.891518
61.890 17.548008
61.895 16.529089
61.900 16.133766
61.905 15.886632
61.910 15.855604
61.915 15.422068
61.920 14.920854
61.925 15.434527
61.930 15.988496
61.935 15.565004
61.940 15.80109
61.945 16.058569
61.950 15.991248
61.955 16.289934
61.960 16.088577
61.965 15.883836
61.970 16.398176
61.975 16.817835
61.980 17.323252
61.985 17.521898
61.990 17.35317
61.995 17.275291
62.000 17.792601
62.005 17.814962
62.010 17.657974
62.015 17.334978
62.020 17.392132
62.025 17.574377
62.030 17.340113
62.035 16.513536
62.040 16.046503
62.045 16.12237
62.050 16.860538
62.055 16.965286
62.060 16.460779
62.065 16.386398
62.070 16.70978
62.075 16.753202
62.080 16.936329
62.085 16.634903
62.090 16.49099
62.095 17.002251
62.100 17.222641
62.105 17.090033
62.110 17.590908
62.115 17.479403
62.120 17.807289
62.125 18.333258
62.130 18.446795
62.135 18.509764
62.140 18.73727
62.145 18.574921
62.150 17.895159
62.155 17.214392
62.160 16.85655
62.165 16.708645
62.170 17.483286
62.175 17.186064
62.180 17.06296
62.185 17.262251
62.190 17.89798
62.195 18.095417
62.200 17.865541
62.205 17.513472
62.210 17.903391
62.215 18.303579
62.220 18.240927
62.225 17.166351
62.230 16.630686
62.235 16.590101
62.240 16.025318
62.245 15.348042
62.250 14.722999
62.255 14.384443
62.260 14.35277
62.265 14.881562
62.270 14.929188
62.275 15.232158
62.280 15.722299
62.285 15.438972
62.290 15.355866
62.295 15.678918
62.300 15.46466
62.305 15.115151
62.310 14.715241
62.315 14.090092
62.320 14.393514
62.325 14.970203
62.330 14.983328
62.335 14.815216
62.340 15.133114
62.345 14.968113
62.350 15.292101
62.355 15.137486
62.360 15.030754
62.365 14.893015
62.370 15.417941
62.375 15.660179
62.380 15.864737
62.385 16.003359
62.390 16.45005
62.395 16.385719
62.400 16.608257
62.405 16.431696
62.410 16.266537
62.415 16.893686
62.420 16.924891
62.425 16.874054
62.430 17.374989
62.435 17.556206
62.440 17.53615
62.445 17.464933
62.450 17.723114
62.455 18.093153
62.460 18.797895
62.465 18.681911
62.470 18.496124
62.475 18.287283
62.480 18.535385
62.485 18.295143
62.490 18.032614
62.495 17.732801
62.500 17.544565
62.505 17.287378
62.510 17.404037
62.515 17.22831
62.520 16.872965
62.525 17.119768
62.530 16.622974
62.535 16.921236
62.540 17.300335
62.545 17.251661
62.550 17.040619
62.555 17.341328
62.560 16.770844
62.565 17.08732
62.570 16.760651
62.575 16.562811
62.580 16.086699
62.585 16.312643
62.590 16.081766
62.595 16.176153
62.600 16.045338
62.605 15.774677
62.610 16.052284
62.615 16.674189
62.620 16.678719
62.625 16.806023
62.630 17.159027
62.635 17.324327
62.640 18.044559
62.645 18.010382
62.650 17.828691
62.655 17.684414
62.660 18.047304
62.665 17.769831
62.670 17.362913
62.675 17.181593
62.680 17.217171
62.685 17.151953
62.690 17.762045
62.695 17.543844
62.700 17.646675
62.705 17.737347
62.710 17.730219
62.715 17.347837
62.720 17.152195
62.725 17.330448
62.730 17.274817
62.735 17.149303
62.740 17.302614
62.745 17.58716
62.750 17.830988
62.755 18.182642
62.760 17.813467
62.765 17.496336
62.770 16.90534
62.775 16.580872
62.780 16.347185
62.785 16.288946
62.790 15.651436
62.795 15.681688
62.800 16.299097
62.805 17.267588
62.810 17.628162
62.815 17.366961
62.820 16.977007
62.825 17.348448
62.830 17.102947
62.835 15.98931
62.840 15.912499
62.845 15.693227
62.850 16.04299
62.855 16.489576
62.860 17.122839
62.865 17.329876
62.870 17.730665
62.875 17.503469
62.880 17.365337
62.885 17.140629
62.890 16.580666
62.895 15.995513
62.900 16.005072
62.905 16.05089
62.910 15.672239
62.915 15.595757
62.920 15.566113
62.925 15.434522
62.930 15.159738
62.935 15.495266
62.940 15.665243
62.945 15.626964
62.950 15.890099
62.955 16.682728
62.960 17.439243
62.965 16.995178
62.970 16.621693
62.975 17.097593
62.980 17.462164
62.985 17.202595
62.990 16.557224
62.995 16.69931
63.000 17.485014
63.005 17.227112
63.010 16.608501
63.015 16.774792
63.020 17.358604
63.025 17.606829
63.030 17.639511
63.035 17.816566
63.040 18.410011
63.045 18.444633
63.050 18.556973
63.055 17.787689
63.060 17.919863
63.065 17.758171
63.070 17.94735
63.075 18.104057
63.080 18.662962
63.085 18.800661
63.090 19.083796
63.095 19.000126
63.100 19.199406
63.105 18.689928
63.110 18.359579
63.115 17.547037
63.120 17.587742
63.125 17.609051
63.130 17.350161
63.135 17.292618
63.140 17.667953
63.145 17.311409
63.150 17.375971
63.155 17.001431
63.160 17.240152
63.165 17.567057
63.170 17.31419
63.175 16.919481
63.180 17.492123
63.185 17.724442
63.190 17.738487
63.195 17.303459
63.200 16.920755
63.205 16.832581
63.210 16.753321
63.215 16.780312
63.220 16.777647
63.225 16.634193
63.230 17.122383
63.235 17.873388
63.240 18.12929
63.245 18.000257
63.250 17.602024
63.255 17.346407
63.260 17.46143
63.265 16.991112
63.270 16.464352
63.275 16.282749
63.280 16.057276
63.285 16.445042
63.290 17.077385
63.295 17.03281
63.300 17.339975
63.305 17.29504
63.310 17.870632
63.315 18.784136
63.320 19.045544
63.325 18.637627
63.330 18.587658
63.335 18.555611
63.340 18.022003
63.345 17.974257
63.350 17.663372
63.355 17.075422
63.360 17.398058
63.365 17.617611
63.370 17.51968
63.375 17.960581
63.380 18.050798
63.385 18.025761
63.390 18.209021
63.395 17.960199
63.400 17.635605
63.405 17.600471
63.410 17.533461
63.415 17.329344
63.420 17.191126
63.425 17.681423
63.430 18.403219
63.435 18.757145
63.440 19.105444
63.445 19.410528
63.450 19.128437
63.455 19.213373
63.460 18.517958
63.465 17.646051
63.470 18.001776
63.475 17.635773
63.480 17.511168
63.485 17.934029
63.490 17.786211
63.495 18.45927
63.500 19.286985
63.505 18.846428
63.510 19.105453
63.515 18.718431
63.520 18.841166
63.525 19.007046
63.530 18.791313
63.535 18.454988
63.540 18.508385
63.545 18.304567
63.550 18.239042
63.555 17.887142
63.560 17.079548
63.565 16.56358
63.570 16.118675
63.575 15.83292
63.580 16.035191
63.585 15.85746
63.590 15.795835
63.595 16.304846
63.600 16.816288
63.605 17.814932
63.610 18.314974
63.615 18.063545
63.620 18.33383
63.625 18.667645
63.630 19.217636
63.635 19.221785
63.640 18.591278
63.645 18.458733
63.650 18.64196
63.655 18.519995
63.660 18.677977
63.665 18.714111
63.670 19.076643
63.675 19.150526
63.680 19.25061
63.685 19.558613
63.690 19.532158
63.695 19.242695
63.700 18.958803
63.705 18.212515
63.710 18.198257
63.715 18.040312
63.720 17.853233
63.725 17.922104
63.730 18.353939
63.735 18.55797
63.740 18.458139
63.745 18.47014
63.750 18.460564
63.755 18.540396
63.760 18.523325
63.765 17.778702
63.770 17.195681
63.775 17.079679
63.780 17.16177
63.785 17.036295
63.790 16.892576
63.795 17.277014
63.800 17.922832
63.805 18.253265
63.810 18.255337
63.815 18.585848
63.820 18.775673
63.825 18.916248
63.830 18.912136
63.835 19.290867
63.840 19.894804
63.845 19.689127
63.850 19.468351
63.855 19.319113
63.860 19.549629
63.865 19.298912
63.870 18.913101
63.875 18.853903
63.880 19.037619
63.885 19.299385
63.890 19.72608
63.895 19.314177
63.900 19.876751
63.905 20.149443
63.910 20.339005
63.915 20.860342
63.920 21.343431
63.925 21.288973
63.930 22.053328
63.935 22.209333
63.940 21.927694
63.945 21.714594
63.950 22.047737
63.955 21.926756
63.960 21.810781
63.965 21.146086
63.970 20.873137
63.975 20.774731
63.980 20.721292
63.985 20.621977
63.990 20.68148
63.995 20.985624
64.000 21.17098
64.005 21.418251
64.010 22.022772
64.015 22.694307
64.020 23.302458
64.025 23.484741
64.030 23.431686
64.035 23.931847
64.040 23.893213
64.045 24.408421
64.050 24.84763
64.055 24.873968
64.060 24.71682
64.065 24.90835
64.070 25.320141
64.075 25.627287
64.080 25.465771
64.085 25.712776
64.090 25.875778
64.095 26.719477
64.100 26.931883
64.105 26.077547
64.110 26.24033
64.115 27.090599
64.120 27.657509
64.125 28.546894
64.130 29.277056
64.135 29.81988
64.140 30.329271
64.145 30.632231
64.150 29.971375
64.155 29.291454
64.160 28.972591
64.165 28.773937
64.170 29.809963
64.175 30.749722
64.180 31.252638
64.185 32.07571
64.190 33.134068
64.195 34.013218
64.200 35.26091
64.205 34.854942
64.210 34.551788
64.215 34.55246
64.220 34.847797
64.225 35.662159
64.230 36.758442
64.235 36.147221
64.240 36.868107
64.245 37.290005
64.250 38.085556
64.255 38.656364
64.260 38.631855
64.265 37.918644
64.270 38.42926
64.275 39.308857
64.280 39.445469
64.285 39.757946
64.290 40.273506
64.295 40.025177
64.300 41.091812
64.305 41.588478
64.310 41.918381
64.315 42.607788
64.320 42.430477
64.325 43.065407
64.330 43.323132
64.335 42.376957
64.340 42.769123
64.345 42.39497
64.350 42.585155
64.355 42.906345
64.360 43.923721
64.365 45.144005
64.370 45.956917
64.375 46.723618
64.380 47.801182
64.385 47.548885
64.390 47.503235
64.395 47.265736
64.400 47.633614
64.405 48.139072
64.410 48.326157
64.415 48.011806
64.420 48.870441
64.425 49.787815
64.430 48.832752
64.435 47.600075
64.440 46.500149
64.445 45.280895
64.450 44.844814
64.455 44.066711
64.460 43.636063
64.465 44.553719
64.470 44.693516
64.475 44.733639
64.480 44.280605
64.485 43.449989
64.490 43.197254
64.495 43.30191
64.500 42.233513
64.505 41.349072
64.510 40.900036
64.515 40.425461
64.520 40.848885
64.525 40.760693
64.530 40.118649
64.535 40.59409
64.540 40.647381
64.545 40.72731
64.550 40.859943
64.555 40.968678
64.560 40.2332
64.565 39.763371
64.570 38.95776
64.575 38.339237
64.580 37.597637
64.585 37.572819
64.590 36.944279
64.595 37.054222
64.600 36.434475
64.605 35.624535
64.610 35.560539
64.615 35.385406
64.620 33.938309
64.625 32.98457
64.630 32.542347
64.635 32.09898
64.640 31.577169
64.645 30.704411
64.650 30.777979
64.655 31.493944
64.660 30.820959
64.665 29.845453
64.670 29.352791
64.675 28.502996
64.680 28.682558
64.685 27.297987
64.690 26.885126
64.695 27.318491
64.700 27.050516
64.705 26.673124
64.710 26.952898
64.715 27.188927
64.720 27.573547
64.725 27.072884
64.730 26.576061
64.735 26.334955
64.740 25.736757
64.745 24.721991
64.750 23.926403
64.755 23.933886
64.760 24.0138
64.765 24.438801
64.770 24.360212
64.775 25.237452
64.780 25.747395
64.785 25.794609
64.790 25.804024
64.795 25.197821
64.800 24.850893
64.805 24.834547
64.810 24.053726
64.815 23.369385
64.820 22.759016
64.825 22.024961
64.830 21.778706
64.835 22.03997
64.840 22.931673
64.845 23.388472
64.850 23.783684
64.855 23.7726
64.860 24.118153
64.865 24.24576
64.870 24.101461
64.875 23.38389
64.880 23.00971
64.885 22.07937
64.890 22.092115
64.895 22.061552
64.900 22.449022
64.905 23.125772
64.910 23.124033
64.915 23.387438
64.920 25.047361
64.925 25.2771
64.930 25.719374
64.935 25.588835
64.940 24.716606
64.945 24.882578
64.950 24.640896
64.955 23.714008
64.960 23.32889
64.965 23.122612
64.970 23.142033
64.975 23.659061
64.980 24.06654
64.985 25.175917
64.990 26.36898
64.995 27.21612
65.000 27.158237
65.005 27.398884
65.010 27.916916
65.015 27.986593
65.020 27.756073
65.025 28.238314
65.030 29.302547
65.035 30.05197
65.040 30.643181
65.045 30.715023
65.050 30.724424
65.055 30.676649
65.060 29.911629
65.065 29.610687
65.070 29.51292
65.075 28.759785
65.080 28.102253
65.085 28.422747
65.090 29.273689
65.095 29.05015
65.100 28.776035
65.105 29.768627
65.110 30.163076
65.115 31.154457
65.120 31.370541
65.125 31.218021
65.130 32.295166
65.135 33.292645
65.140 33.108688
65.145 33.341763
65.150 32.58704
65.155 32.746704
65.160 32.559673
65.165 32.562927
65.170 32.216103
65.175 32.702839
65.180 33.012508
65.185 34.31007
65.190 34.293415
65.195 35.009441
65.200 35.134098
65.205 35.32505
65.210 35.026291
65.215 34.605
65.220 33.761299
65.225 33.356403
65.230 32.951992
65.235 32.626961
65.240 32.947624
65.245 33.140331
65.250 33.739773
65.255 34.143696
65.260 33.888775
65.265 33.269558
65.270 33.370201
65.275 33.071754
65.280 32.543369
65.285 32.380016
65.290 32.974174
65.295 33.665543
65.300 35.223816
65.305 35.615364
65.310 35.773655
65.315 35.646847
65.320 35.612633
65.325 35.890194
65.330 36.227177
65.335 36.082031
65.340 36.384594
65.345 36.331421
65.350 36.627769
65.355 36.374664
65.360 35.717846
65.365 35.641769
65.370 35.057804
65.375 34.654736
65.380 34.857861
65.385 35.040073
65.390 34.880939
65.395 35.135326
65.400 34.60873
65.405 34.765793
65.410 35.106766
65.415 35.651642
65.420 35.974152
65.425 36.516258
65.430 36.70203
65.435 37.806923
65.440 38.886311
65.445 38.530716
65.450 37.493855
65.455 36.664764
65.460 36.109825
65.465 35.645687
65.470 34.494884
65.475 33.628616
65.480 33.735813
65.485 33.915306
65.490 34.584499
65.495 34.833706
65.500 35.169392
65.505 35.236416
65.510 35.038128
65.515 35.339478
65.520 36.660511
65.525 37.268677
65.530 37.561001
65.535 37.864422
65.540 38.746063
65.545 39.049759
65.550 38.901463
65.555 37.739765
65.560 36.945049
65.565 36.568645
65.570 36.484829
65.575 35.924068
65.580 35.873482
65.585 35.367382
65.590 34.534756
65.595 34.500725
65.600 35.193012
65.605 35.51878
65.610 36.679138
65.615 37.206596
65.620 38.148476
65.625 38.937202
65.630 39.276264
65.635 39.295937
65.640 39.011944
65.645 39.139584
65.650 39.657398
65.655 39.926407
65.660 40.775982
65.665 41.18203
65.670 41.708656
65.675 41.398518
65.680 41.304668
65.685 41.179325
65.690 41.117779
65.695 40.943089
65.700 40.106953
65.705 39.541653
65.710 39.084229
65.715 37.391098
65.720 36.356636
65.725 35.804844
65.730 35.066795
65.735 36.008862
65.740 35.740345
65.745 36.155834
65.750 36.511604
65.755 35.722374
65.760 35.645576
65.765 35.203949
65.770 34.699146
65.775 34.232521
65.780 34.448959
65.785 34.310825
65.790 35.00111
65.795 35.162506
65.800 35.742115
65.805 35.909184
65.810 36.229603
65.815 35.738632
65.820 35.840797
65.825 35.488266
65.830 35.035908
65.835 34.101387
65.840 33.808323
65.845 32.9491
65.850 32.8223
65.855 31.952652
65.860 31.718636
65.865 31.726364
65.870 31.232126
65.875 30.141539
65.880 30.195372
65.885 29.90563
65.890 30.012993
65.895 30.41597
65.900 30.584682
65.905 30.683031
65.910 30.471975
65.915 30.27993
65.920 30.446106
65.925 29.651962
65.930 28.643669
65.935 28.101799
65.940 28.61264
65.945 29.027735
65.950 29.49321
65.955 29.323212
65.960 30.008827
65.965 30.173796
65.970 30.444902
65.975 30.095062
65.980 29.753609
65.985 29.12454
65.990 28.438246
65.995 27.520239
66.000 27.698029
66.005 27.121614
66.010 26.953302
66.015 26.702574
66.020 26.513752
66.025 26.28949
66.030 26.409552
66.035 26.25477
66.040 26.364445
66.045 26.235415
66.050 25.481804
66.055 25.057264
66.060 24.946337
66.065 23.9384
66.070 23.275541
66.075 21.991594
66.080 21.601377
66.085 21.95253
66.090 21.694853
66.095 22.275057
66.100 22.813545
66.105 22.661751
66.110 22.81418
66.115 22.435249
66.120 22.31868
66.125 22.474218
66.130 21.95719
66.135 21.05888
66.140 20.596327
66.145 20.832508
66.150 21.31208
66.155 21.61565
66.160 21.572636
66.165 21.429674
66.170 21.336172
66.175 21.372559
66.180 21.214186
66.185 20.992842
66.190 20.584883
66.195 20.686386
66.200 20.741898
66.205 21.372841
66.210 21.389383
66.215 21.3137
66.220 20.998205
66.225 20.472359
66.230 20.355949
66.235 20.07868
66.240 19.576454
66.245 19.557501
66.250 19.979942
66.255 20.018984
66.260 20.020405
66.265 19.643219
66.270 19.809433
66.275 20.259668
66.280 20.082733
66.285 19.954796
66.290 20.188839
66.295 20.185932
66.300 20.308867
66.305 20.042036
66.310 19.85409
66.315 19.827858
66.320 19.438776
66.325 19.164314
66.330 18.802866
66.335 18.503891
66.340 18.515074
66.345 18.163782
66.350 18.046772
66.355 18.329176
66.360 18.762272
66.365 19.160789
66.370 19.229267
66.375 19.230986
66.380 19.101974
66.385 18.716774
66.390 18.711891
66.395 19.01162
66.400 19.643511
66.405 19.848875
66.410 20.391174
66.415 20.81818
66.420 20.726419
66.425 20.278486
66.430 19.996086
66.435 20.063391
66.440 20.164862
66.445 19.941992
66.450 19.994152
66.455 20.471266
66.460 20.331593
66.465 20.106337
66.470 19.539913
66.475 18.911085
66.480 18.910233
66.485 18.622662
66.490 18.679934
66.495 19.112404
66.500 18.934328
66.505 18.52289
66.510 18.951513
66.515 18.64057
66.520 18.473095
66.525 18.082655
66.530 17.624933
66.535 18.20174
66.540 18.536255
66.545 17.808216
66.550 17.612589
66.555 17.747705
66.560 18.20261
66.565 18.423113
66.570 17.674179
66.575 17.520256
66.580 17.921507
66.585 18.53183
66.590 18.665127
66.595 18.400759
66.600 18.320234
66.605 18.905018
66.610 18.897633
66.615 18.56802
66.620 18.006495
66.625 18.100922
66.630 18.486563
66.635 18.211121
66.640 17.831493
66.645 18.380745
66.650 19.145899
66.655 18.976967
66.660 18.627745
66.665 18.567532
66.670 19.097855
66.675 19.363131
66.680 18.973839
66.685 18.392193
66.690 18.659153
66.695 18.528254
66.700 18.37405
66.705 18.024349
66.710 18.219965
66.715 18.559818
66.720 18.696918
66.725 19.381838
66.730 19.871325
66.735 19.961178
66.740 20.210222
66.745 19.83392
66.750 19.673698
66.755 19.630793
66.760 19.697948
66.765 19.57609
66.770 19.511578
66.775 19.35438
66.780 19.364925
66.785 19.309805
66.790 18.938913
66.795 18.153147
66.800 17.867346
66.805 17.708185
66.810 17.86462
66.815 18.280115
66.820 18.363497
66.825 18.546314
66.830 18.448994
66.835 18.403065
66.840 18.537436
66.845 18.047066
66.850 17.835785
66.855 18.034578
66.860 17.950481
66.865 18.8328
66.870 19.54278
66.875 19.262394
66.880 19.474506
66.885 19.835464
66.890 19.524698
66.895 20.080198
66.900 18.899839
66.905 18.515944
66.910 18.376932
66.915 18.247957
66.920 18.107201
66.925 18.761393
66.930 18.598093
66.935 18.939278
66.940 19.159285
66.945 19.191044
66.950 19.046942
66.955 18.423416
66.960 17.409792
66.965 17.695099
66.970 18.19838
66.975 17.614607
66.980 17.200747
66.985 17.548725
66.990 18.095583
66.995 18.640274
67.000 18.572449
67.005 18.426771
67.010 18.732712
67.015 18.556919
67.020 17.832607
67.025 17.514908
67.030 17.693649
67.035 17.567822
67.040 17.730413
67.045 17.997236
67.050 18.656889
67.055 19.293142
67.060 19.292549
67.065 18.943329
67.070 19.26112
67.075 19.266916
67.080 19.412807
67.085 19.441269
67.090 19.305134
67.095 19.03056
67.100 19.621717
67.105 19.192198
67.110 19.487511
67.115 20.09116
67.120 19.921871
67.125 19.818687
67.130 20.207874
67.135 19.47817
67.140 19.155045
67.145 18.534426
67.150 18.228724
67.155 17.917118
67.160 18.151789
67.165 18.469809
67.170 18.864737
67.175 18.541786
67.180 18.561323
67.185 18.491108
67.190 18.685263
67.195 18.311733
67.200 17.827646
67.205 17.518257
67.210 17.72237
67.215 17.685427
67.220 17.242165
67.225 16.666252
67.230 16.49082
67.235 15.960044
67.240 16.200747
67.245 16.28104
67.250 16.813749
67.255 17.646002
67.260 18.172192
67.265 18.679531
67.270 19.36548
67.275 19.074772
67.280 18.757149
67.285 18.556744
67.290 18.50701
67.295 18.597149
67.300 19.217901
67.305 19.019522
67.310 18.972198
67.315 19.323458
67.320 18.990784
67.325 18.851864
67.330 18.444891
67.335 17.803318
67.340 17.880417
67.345 17.607489
67.350 17.348478
67.355 17.31163
67.360 16.737268
67.365 16.804913
67.370 16.761719
67.375 16.779461
67.380 16.854603
67.385 16.865276
67.390 17.082422
67.395 17.95966
67.400 18.162106
67.405 18.494986
67.410 19.021967
67.415 19.788071
67.420 19.452038
67.425 19.017576
67.430 18.646215
67.435 18.403908
67.440 17.932247
67.445 17.609196
67.450 17.195179
67.455 18.466677
67.460 18.673738
67.465 18.336353
67.470 18.722858
67.475 18.928288
67.480 19.485512
67.485 19.265173
67.490 18.687162
67.495 19.40514
67.500 20.266483
67.505 20.362144
67.510 20.367727
67.515 20.01947
67.520 20.115879
67.525 20.447037
67.530 20.044033
67.535 19.168524
67.540 18.97201
67.545 18.991201
67.550 18.586329
67.555 18.483763
67.560 18.111643
67.565 17.997849
67.570 18.145552
67.575 18.165604
67.580 17.823917
67.585 18.06642
67.590 18.520044
67.595 17.898508
67.600 17.722008
67.605 17.217793
67.610 16.969105
67.615 17.212803
67.620 17.514328
67.625 17.63327
67.630 18.747427
67.635 18.693357
67.640 18.873846
67.645 19.268915
67.650 19.83819
67.655 19.384865
67.660 18.516617
67.665 17.940945
67.670 17.918406
67.675 18.137905
67.680 18.124857
67.685 17.39212
67.690 17.389223
67.695 17.738176
67.700 17.963711
67.705 18.570728
67.710 18.736568
67.715 18.705862
67.720 19.076406
67.725 19.463877
67.730 19.353354
67.735 19.35359
67.740 19.269329
67.745 18.853695
67.750 18.464874
67.755 18.6227
67.760 18.812641
67.765 19.392712
67.770 19.520178
67.775 19.08287
67.780 19.073395
67.785 18.999054
67.790 18.810448
67.795 18.527258
67.800 18.047283
67.805 17.583178
67.810 17.695847
67.815 17.612843
67.820 17.708334
67.825 17.565981
67.830 17.465979
67.835 17.287151
67.840 17.389883
67.845 18.231564
67.850 18.963499
67.855 19.22015
67.860 18.707605
67.865 18.455078
67.870 19.02413
67.875 19.176949
67.880 18.133505
67.885 17.900745
67.890 17.651478
67.895 17.997622
67.900 18.24127
67.905 18.212217
67.910 18.219179
67.915 18.617626
67.920 18.219351
67.925 18.394915
67.930 18.511086
67.935 18.437086
67.940 18.474268
67.945 17.89963
67.950 17.417791
67.955 17.593151
67.960 17.719027
67.965 17.594702
67.970 17.157686
67.975 16.69346
67.980 17.245762
67.985 17.676064
67.990 17.784927
67.995 18.005468
68.000 18.023136
68.005 17.840427
68.010 18.17506
68.015 17.498949
68.020 17.772036
68.025 17.866909
68.030 17.73975
68.035 17.515846
68.040 17.331383
68.045 17.775537
68.050 18.536646
68.055 18.082106
68.060 17.923105
68.065 18.301508
68.070 18.755867
68.075 19.174589
68.080 19.176464
68.085 19.192286
68.090 19.030653
68.095 19.11043
68.100 19.104956
68.105 19.881104
68.110 20.13917
68.115 19.914652
68.120 20.274748
68.125 20.988371
68.130 21.344254
68.135 21.513134
68.140 21.03882
68.145 20.834129
68.150 20.686403
68.155 20.368668
68.160 19.763781
68.165 19.734274
68.170 19.348263
68.175 19.002468
68.180 19.263613
68.185 19.377884
68.190 19.318382
68.195 19.959105
68.200 19.867426
68.205 20.497486
68.210 21.511354
68.215 21.327326
68.220 21.271816
68.225 21.307959
68.230 21.244986
68.235 21.333015
68.240 21.460938
68.245 21.402079
68.250 21.997011
68.255 22.395269
68.260 22.765759
68.265 22.174667
68.270 21.74498
68.275 21.951534
68.280 22.257113
68.285 22.689007
68.290 22.87904
68.295 23.088663
68.300 23.590937
68.305 23.933222
68.310 23.8862
68.315 23.825485
68.320 23.734701
68.325 23.632917
68.330 23.213955
68.335 23.191441
68.340 23.088108
68.345 23.058413
68.350 23.19096
68.355 22.970278
68.360 23.587397
68.365 24.524185
68.370 25.450722
68.375 25.593473
68.380 25.806002
68.385 26.13105
68.390 26.133022
68.395 25.847786
68.400 25.63199
68.405 25.430998
68.410 25.33787
68.415 25.341587
68.420 25.571337
68.425 26.079424
68.430 26.950813
68.435 26.608881
68.440 26.572632
68.445 27.093924
68.450 26.788515
68.455 27.358614
68.460 27.463848
68.465 27.189667
68.470 27.333845
68.475 28.13166
68.480 28.691046
68.485 29.722719
68.490 29.514942
68.495 29.780886
68.500 30.001875
68.505 30.505289
68.510 30.305555
68.515 30.410887
68.520 30.375275
68.525 30.920685
68.530 31.454704
68.535 31.908175
68.540 31.540401
68.545 31.501808
68.550 31.270309
68.555 31.423445
68.560 31.341928
68.565 30.797451
68.570 30.538404
68.575 30.908068
68.580 31.061342
68.585 31.499388
68.590 31.583471
68.595 30.409365
68.600 30.02339
68.605 30.530058
68.610 30.91029
68.615 30.909012
68.620 30.60894
68.625 30.786102
68.630 31.857689
68.635 32.318722
68.640 32.990025
68.645 32.562519
68.650 32.357594
68.655 32.985798
68.660 33.403744
68.665 34.090797
68.670 34.709557
68.675 33.935471
68.680 34.241611
68.685 34.504555
68.690 34.374241
68.695 34.264832
68.700 33.483253
68.705 32.766083
68.710 32.4907
68.715 32.907711
68.720 32.938419
68.725 32.274757
68.730 31.940369
68.735 31.576921
68.740 32.023975
68.745 32.617523
68.750 32.74403
68.755 33.219429
68.760 33.976467
68.765 34.382225
68.770 34.463028
68.775 33.733341
68.780 33.660934
68.785 33.466721
68.790 33.147163
68.795 33.11237
68.800 33.1875
68.805 33.067299
68.810 33.236824
68.815 32.787861
68.820 32.711449
68.825 33.294842
68.830 33.155815
68.835 33.373447
68.840 34.038513
68.845 34.345028
68.850 34.886978
68.855 34.797115
68.860 35.043232
68.865 35.92971
68.870 36.047035
68.875 35.742805
68.880 35.456379
68.885 34.910564
68.890 35.118881
68.895 34.74649
68.900 33.234821
68.905 33.08289
68.910 32.851871
68.915 33.330765
68.920 33.203709
68.925 33.078434
68.930 32.662292
68.935 32.898785
68.940 32.407734
68.945 32.628895
68.950 32.48452
68.955 32.447315
68.960 32.613586
68.965 33.076405
68.970 33.432384
68.975 34.122948
68.980 34.101086
68.985 34.833141
68.990 34.709953
68.995 34.369572
69.000 34.184082
69.005 33.586029
69.010 32.944214
69.015 31.590775
69.020 30.795448
69.025 30.601015
69.030 30.097641
69.035 29.763725
69.040 30.014816
69.045 30.17977
69.050 31.479689
69.055 31.649048
69.060 30.995621
69.065 31.146933
69.070 30.858492
69.075 30.916489
69.080 30.977682
69.085 30.008566
69.090 29.975904
69.095 29.874033
69.100 29.886038
69.105 30.320148
69.110 30.088207
69.115 29.753235
69.120 28.940413
69.125 28.676781
69.130 28.495602
69.135 28.659069
69.140 28.941355
69.145 29.135588
69.150 28.971462
69.155 29.104013
69.160 28.625191
69.165 27.93524
69.170 26.567245
69.175 25.456356
69.180 24.711214
69.185 25.012241
69.190 24.730391
69.195 24.847286
69.200 25.308668
69.205 25.032717
69.210 24.025776
69.215 23.434305
69.220 23.141012
69.225 23.343748
69.230 22.874855
69.235 22.82955
69.240 23.306993
69.245 23.809492
69.250 24.342628
69.255 24.33457
69.260 24.641623
69.265 24.68413
69.270 24.655308
69.275 24.780514
69.280 24.018108
69.285 23.446985
69.290 23.407524
69.295 22.754894
69.300 22.887804
69.305 23.231466
69.310 23.054565
69.315 23.606991
69.320 23.654566
69.325 23.779724
69.330 24.30932
69.335 24.32926
69.340 23.964903
69.345 23.759874
69.350 23.387056
69.355 23.04957
69.360 23.513813
69.365 23.302601
69.370 22.902306
69.375 22.566177
69.380 22.625706
69.385 22.805159
69.390 23.162539
69.395 22.899908
69.400 22.947403
69.405 23.076273
69.410 23.439962
69.415 23.221361
69.420 22.981401
69.425 22.751675
69.430 22.662491
69.435 22.412703
69.440 22.001631
69.445 21.66643
69.450 21.982065
69.455 22.05287
69.460 22.047886
69.465 21.823
69.470 22.033691
69.475 22.237001
69.480 21.956491
69.485 21.935308
69.490 22.11274
69.495 21.834217
69.500 21.484602
69.505 21.359283
69.510 20.848667
69.515 20.054033
69.520 19.352419
69.525 18.742041
69.530 18.550531
69.535 18.690374
69.540 18.798042
69.545 19.397369
69.550 19.601376
69.555 19.304846
69.560 19.279392
69.565 18.827753
69.570 18.501974
69.575 18.882603
69.580 18.713633
69.585 18.743599
69.590 18.876753
69.595 19.345226
69.600 19.922819
69.605 19.874641
69.610 19.404686
69.615 19.735905
69.620 19.450178
69.625 19.212488
69.630 18.929457
69.635 18.797386
69.640 18.995705
69.645 18.535841
69.650 18.427048
69.655 19.08593
69.660 19.046398
69.665 18.241144
69.670 17.368763
69.675 17.475687
69.680 17.903004
69.685 17.747919
69.690 18.371517
69.695 19.467289
69.700 20.690645
69.705 21.188509
69.710 20.976805
69.715 20.810858
69.720 21.50337
69.725 20.985119
69.730 20.263311
69.735 19.945349
69.740 20.013342
69.745 20.110846
69.750 19.834808
69.755 19.263683
69.760 19.581629
69.765 19.285198
69.770 19.780352
69.775 19.551273
69.780 19.535301
69.785 19.773647
69.790 19.780266
69.795 19.492672
69.800 19.672785
69.805 19.328953
69.810 19.220209
69.815 19.76095
69.820 19.674208
69.825 19.284798
69.830 19.425432
69.835 19.425058
69.840 19.646605
69.845 19.488115
69.850 19.052662
69.855 19.265171
69.860 19.134396
69.865 19.465717
69.870 19.483656
69.875 19.118435
69.880 19.530281
69.885 19.627888
69.890 19.371569
69.895 19.4613
69.900 19.196629
69.905 19.091223
69.910 19.381376
69.915 18.448347
69.920 18.159964
69.925 18.454105
69.930 18.14097
69.935 18.098047
69.940 17.81558
69.945 17.889938
69.950 18.50485
69.955 18.748959
69.960 18.678703
69.965 18.719343
69.970 18.151737
69.975 17.758608
69.980 17.137745
69.985 17.045792
69.990 16.517673
69.995 16.001684
70.000 15.977911
70.005 16.440134
70.010 16.628233
70.015 16.282276
70.020 16.711
70.025 17.450628
70.030 18.135216
70.035 17.618591
70.040 17.660635
70.045 18.132853
70.050 19.198992
70.055 19.313812
70.060 18.78779
70.065 18.684717
70.070 19.206865
70.075 19.318909
70.080 18.830309
70.085 18.244055
70.090 18.496073
70.095 18.875767
70.100 19.167116
70.105 18.947931
70.110 18.62328
70.115 19.246021
70.120 18.947273
70.125 18.885223
70.130 19.25639
70.135 18.808825
70.140 18.918619
70.145 19.419151
70.150 19.372696
70.155 19.25173
70.160 18.863323
70.165 18.729248
70.170 19.134932
70.175 18.599718
70.180 18.435814
70.185 18.355362
70.190 18.601072
70.195 18.716942
70.200 18.13998
70.205 18.2055
70.210 18.281336
70.215 18.744812
70.220 18.739771
70.225 18.072859
70.230 17.953989
70.235 18.41571
70.240 18.691561
70.245 18.129917
70.250 18.221584
70.255 18.08602
70.260 17.955225
70.265 17.876801
70.270 18.084002
70.275 18.822071
70.280 19.085665
70.285 18.572678
70.290 18.80414
70.295 19.035503
70.300 18.860676
70.305 18.397871
70.310 17.86105
70.315 17.609835
70.320 17.941147
70.325 18.248117
70.330 18.034691
70.335 18.018311
70.340 17.865715
70.345 18.631662
70.350 19.151613
70.355 18.732307
70.360 19.335249
70.365 19.970015
70.370 19.834808
70.375 20.029955
70.380 19.577898
70.385 19.298885
70.390 19.264843
70.395 18.816895
70.400 18.735647
70.405 19.075373
70.410 18.997082
70.415 19.116722
70.420 18.797987
70.425 18.265539
70.430 17.764164
70.435 17.890081
70.440 18.036896
70.445 17.537216
70.450 17.873821
70.455 18.330313
70.460 18.269526
70.465 18.595482
70.470 18.737988
70.475 18.489979
70.480 18.774757
70.485 18.868689
70.490 19.43582
70.495 19.454998
70.500 19.648149
70.505 19.143208
70.510 18.350714
70.515 17.755718
70.520 17.416075
70.525 16.810259
70.530 16.416689
70.535 16.333841
70.540 16.794291
70.545 17.345737
70.550 17.267881
70.555 16.957775
70.560 16.97299
70.565 17.278355
70.570 16.578045
70.575 16.58674
70.580 16.981968
70.585 17.308838
70.590 18.085716
70.595 18.53125
70.600 18.790909
70.605 19.302952
70.610 18.896706
70.615 19.053017
70.620 18.714046
70.625 18.760244
70.630 18.611673
70.635 18.542
70.640 18.735836
70.645 18.760368
70.650 18.195538
70.655 18.222998
70.660 18.273224
70.665 18.179529
70.670 18.078089
70.675 17.871988
70.680 18.338936
70.685 18.480295
70.690 18.417824
70.695 18.41411
70.700 18.226532
70.705 17.888718
70.710 17.751226
70.715 17.475735
70.720 17.473858
70.725 17.366323
70.730 17.201487
70.735 17.22653
70.740 17.575539
70.745 17.774004
70.750 17.720364
70.755 17.920403
70.760 17.837486
70.765 17.668955
70.770 18.111088
70.775 17.907478
70.780 18.382093
70.785 18.641247
70.790 18.476618
70.795 18.521862
70.800 18.909733
70.805 19.019773
70.810 18.914158
70.815 18.340607
70.820 19.183167
70.825 19.427235
70.830 19.911493
70.835 19.697779
70.840 19.342913
70.845 19.239151
70.850 19.131145
70.855 17.935892
70.860 17.374886
70.865 16.803251
70.870 16.841801
70.875 17.017637
70.880 17.206352
70.885 17.599693
70.890 18.359045
70.895 18.229788
70.900 18.42536
70.905 18.164909
70.910 17.886147
70.915 17.503531
70.920 17.167629
70.925 16.96484
70.930 17.429253
70.935 16.829277
70.940 17.055288
70.945 17.77903
70.950 18.093536
70.955 17.878036
70.960 18.160534
70.965 17.889019
70.970 18.395576
70.975 18.24522
70.980 17.62027
70.985 17.611368
70.990 17.934864
70.995 17.653353
71.000 17.762327
71.005 17.528475
71.010 17.85232
71.015 18.135546
71.020 18.141535
71.025 18.074965
71.030 17.662529
71.035 17.564957
71.040 17.937939
71.045 17.245308
71.050 16.797268
71.055 17.034286
71.060 17.194866
71.065 18.165823
71.070 18.409269
71.075 18.847164
71.080 19.336203
71.085 19.220211
71.090 18.963299
71.095 18.52039
71.100 18.208651
71.105 17.482943
71.110 16.629749
71.115 16.163799
71.120 16.392838
71.125 16.605686
71.130 16.938349
71.135 16.772738
71.140 16.957129
71.145 17.111328
71.150 17.327684
71.155 17.133186
71.160 16.67852
71.165 16.521605
71.170 16.661512
71.175 16.658619
71.180 17.19619
71.185 17.200939
71.190 17.110226
71.195 17.784166
71.200 17.876867
71.205 18.303497
71.210 18.167078
71.215 18.389072
71.220 18.637239
71.225 18.607065
71.230 18.132038
71.235 17.628492
71.240 17.322088
71.245 17.784817
71.250 17.892042
71.255 17.849264
71.260 18.148941
71.265 18.743505
71.270 18.898687
71.275 19.168156
71.280 18.687378
71.285 18.358482
71.290 18.302473
71.295 17.788225
71.300 17.225325
71.305 17.302471
71.310 16.757185
71.315 17.006311
71.320 17.338129
71.325 17.321325
71.330 17.238077
71.335 17.101273
71.340 17.580761
71.345 18.254738
71.350 18.021282
71.355 18.435488
71.360 19.171106
71.365 19.649197
71.370 19.873526
71.375 19.573275
71.380 19.201551
71.385 19.12322
71.390 18.467472
71.395 17.661118
71.400 17.431961
71.405 17.341045
71.410 18.169268
71.415 18.526966
71.420 18.819601
71.425 18.738102
71.430 18.876472
71.435 19.126011
71.440 18.652304
71.445 17.571384
71.450 16.979202
71.455 16.869505
71.460 17.036715
71.465 16.886917
71.470 16.524611
71.475 16.784575
71.480 17.04707
71.485 16.895733
71.490 16.995409
71.495 17.230804
71.500 17.732428
71.505 18.464819
71.510 18.561798
71.515 19.130112
71.520 19.579418
71.525 18.983908
71.530 18.512993
71.535 18.461767
71.540 18.271423
71.545 17.933325
71.550 17.776091
71.555 17.414364
71.560 17.657223
71.565 17.709249
71.570 17.783749
71.575 17.251366
71.580 17.135254
71.585 17.026247
71.590 17.178377
71.595 17.448772
71.600 17.104853
71.605 16.867388
71.610 16.437752
71.615 16.524986
71.620 15.938687
71.625 15.819466
71.630 16.323536
71.635 16.453108
71.640 16.06913
71.645 16.492647
71.650 16.608299
71.655 16.868967
71.660 16.448093
71.665 16.250471
71.670 16.868387
71.675 17.73399
71.680 18.165501
71.685 18.331635
71.690 18.66181
71.695 18.499155
71.700 18.551394
71.705 18.19109
71.710 17.852144
71.715 17.975348
71.720 18.127844
71.725 18.265327
71.730 18.374998
71.735 18.360636
71.740 17.769833
71.745 17.628696
71.750 17.315125
71.755 17.296984
71.760 17.134953
71.765 17.261711
71.770 17.389975
71.775 17.822773
71.780 17.399675
71.785 17.856949
71.790 18.039755
71.795 18.502911
71.800 18.648035
71.805 19.001167
71.810 19.122683
71.815 19.653404
71.820 19.068579
71.825 18.683569
71.830 18.599035
71.835 18.377245
71.840 18.17148
71.845 18.228605
71.850 18.280479
71.855 18.648502
71.860 18.474348
71.865 18.319597
71.870 18.395247
71.875 18.433235
71.880 18.46987
71.885 18.81815
71.890 18.856436
71.895 19.110807
71.900 19.238329
71.905 19.370039
71.910 18.530619
71.915 18.330471
71.920 18.027952
71.925 18.123045
71.930 18.139908
71.935 17.716951
71.940 17.387577
71.945 17.520817
71.950 17.839336
71.955 18.22422
71.960 17.393625
71.965 16.992445
71.970 17.174799
71.975 17.456995
71.980 17.431131
71.985 16.850252
71.990 16.778034
71.995 17.625902
72.000 17.985928
72.005 18.628866
72.010 18.7377
72.015 18.544733
72.020 18.923452
72.025 18.761604
72.030 18.889921
72.035 18.256781
72.040 17.990192
72.045 17.834658
72.050 17.742846
72.055 18.189766
72.060 18.28598
72.065 18.188467
72.070 18.303516
72.075 18.375324
72.080 18.963114
72.085 18.601559
72.090 17.922329
72.095 18.564949
72.100 18.488012
72.105 18.326281
72.110 18.125168
72.115 17.598955
72.120 17.823252
72.125 18.143616
72.130 17.861317
72.135 18.313007
72.140 18.807007
72.145 19.317703
72.150 19.837706
72.155 20.108377
72.160 19.580759
72.165 19.630157
72.170 19.480274
72.175 19.327555
72.180 19.469351
72.185 19.180874
72.190 18.879919
72.195 18.749605
72.200 18.456396
72.205 18.333801
72.210 18.259041
72.215 17.94383
72.220 18.118969
72.225 17.702509
72.230 18.219652
72.235 17.961554
72.240 18.136776
72.245 18.297697
72.250 17.889751
72.255 17.62645
72.260 17.850954
72.265 17.956333
72.270 18.092934
72.275 17.988852
72.280 17.819511
72.285 17.919348
72.290 18.065029
72.295 17.666243
72.300 17.129002
72.305 16.981625
72.310 16.680786
72.315 16.715065
72.320 16.891441
72.325 17.134401
72.330 17.311634
72.335 17.723122
72.340 18.153357
72.345 18.399372
72.350 18.285765
72.355 18.559958
72.360 18.496748
72.365 18.538004
72.370 18.590239
72.375 18.619364
72.380 18.558865
72.385 18.128448
72.390 17.574001
72.395 17.50152
72.400 17.61623
72.405 17.649977
72.410 17.65222
72.415 18.23167
72.420 18.227724
72.425 18.041117
72.430 18.129055
72.435 17.997358
72.440 17.736044
72.445 17.650558
72.450 16.984325
72.455 17.107655
72.460 16.801592
72.465 16.455626
72.470 16.520885
72.475 16.809887
72.480 17.104952
72.485 17.63887
72.490 17.864223
72.495 18.170965
72.500 18.452436
72.505 18.350458
72.510 18.268627
72.515 17.820372
72.520 17.867855
72.525 17.733391
72.530 17.342331
72.535 16.744572
72.540 16.552679
72.545 16.310507
72.550 16.713217
72.555 16.990492
72.560 16.916008
72.565 16.689703
72.570 16.474224
72.575 16.800083
72.580 17.24338
72.585 16.841177
72.590 17.343697
72.595 18.006516
72.600 18.830486
72.605 19.361185
72.610 18.567665
72.615 18.222225
72.620 17.775957
72.625 17.399029
72.630 16.749495
72.635 16.398865
72.640 16.168638
72.645 16.212597
72.650 16.352686
72.655 16.086769
72.660 16.551186
72.665 16.347969
72.670 16.46958
72.675 16.264374
72.680 16.182098
72.685 16.076908
72.690 16.598261
72.695 16.683384
72.700 16.542736
72.705 16.917229
72.710 17.686434
72.715 17.976313
72.720 17.876476
72.725 17.28624
72.730 17.102488
72.735 17.035126
72.740 16.444445
72.745 15.907051
72.750 16.050701
72.755 16.257133
72.760 16.416658
72.765 16.35412
72.770 16.625402
72.775 16.887426
72.780 16.998865
72.785 17.027964
72.790 16.433775
72.795 16.815123
72.800 17.124622
72.805 17.144222
72.810 16.197062
72.815 15.797431
72.820 15.469063
72.825 15.734528
72.830 15.699281
72.835 15.4527
72.840 15.442591
72.845 16.287199
72.850 17.065548
72.855 17.350866
72.860 17.157259
72.865 17.359495
72.870 17.774147
72.875 17.240067
72.880 16.437704
72.885 16.152925
72.890 16.077852
72.895 16.422144
72.900 15.749585
72.905 15.763412
72.910 16.48596
72.915 16.707558
72.920 16.714867
72.925 16.876696
72.930 16.697767
72.935 17.308237
72.940 17.552956
72.945 17.248234
72.950 17.306902
72.955 17.337786
72.960 16.468103
72.965 15.683883
72.970 15.272027
72.975 15.317353
72.980 15.633149
72.985 15.53344
72.990 15.425904
72.995 15.851256
73.000 16.144043
