!@!!GADDS PLOTSO FILE: Chi integration type
!@!!Title/SampleName: map-4f
!@!!Comment: ?
!@!!User: Bruker Instrument Administrator
!@!!Site: University of Illinois Chicago
!@!!Frame: map-4f_01_000.gfrm
!@!!Wavelengths    1.54184   1.54056   1.54439
!@!!Frame angles: 2Theta: 63.000 Omega: 50.000 Phi: 0.000 Chi: 90.000
!@!!Integration range: 2Theta: 53.000 to 73.000  Gamma: -105.000 to -75.000
!@!!Integration method: bin normalized
!@!N
!@!SS
!@!M
!@!L 0.0 0.0 0.0 0.0
!@!XDegrees
!@!YCounts
53.000 10.843816
53.005 10.578175
53.010 10.467346
53.015 10.61524
53.020 10.417339
53.025 10.145884
53.030 10.239407
53.035 10.477452
53.040 10.674585
53.045 10.282319
53.050 9.98033
53.055 9.935866
53.060 10.296813
53.065 10.221832
53.070 10.322298
53.075 10.198806
53.080 10.423259
53.085 10.483871
53.090 10.214453
53.095 10.017501
53.100 9.794334
53.105 10.120687
53.110 10.4391
53.115 9.938471
53.120 10.54228
53.125 10.497124
53.130 10.671269
53.135 10.90309
53.140 10.660769
53.145 10.739392
53.150 11.028985
53.155 11.091735
53.160 11.318434
53.165 11.068676
53.170 10.968149
53.175 11.194701
53.180 10.948451
53.185 9.96456
53.190 9.236341
53.195 9.034974
53.200 8.824402
53.205 8.793829
53.210 8.490664
53.215 9.034812
53.220 10.050505
53.225 10.786065
53.230 10.881516
53.235 11.111459
53.240 10.854147
53.245 10.765208
53.250 10.132412
53.255 9.903796
53.260 9.786825
53.265 9.947595
53.270 9.773105
53.275 10.090963
53.280 10.239045
53.285 10.502236
53.290 10.342266
53.295 10.431984
53.300 10.601016
53.305 10.864678
53.310 10.78183
53.315 11.160153
53.320 11.576517
53.325 11.613866
53.330 11.801212
53.335 11.925193
53.340 12.342848
53.345 12.535254
53.350 12.039168
53.355 11.313712
53.360 11.028281
53.365 10.760284
53.370 10.957017
53.375 10.280282
53.380 10.29709
53.385 10.352077
53.390 10.636375
53.395 10.777267
53.400 10.468918
53.405 10.055996
53.410 10.358677
53.415 10.737299
53.420 10.418098
53.425 10.291031
53.430 10.455754
53.435 10.582839
53.440 10.656249
53.445 10.456766
53.450 10.834764
53.455 11.87804
53.460 12.459835
53.465 12.597996
53.470 12.299424
53.475 11.977036
53.480 11.615253
53.485 11.333306
53.490 10.927752
53.495 10.750692
53.500 10.87827
53.505 11.198773
53.510 11.889072
53.515 12.157463
53.520 11.883809
53.525 11.781714
53.530 11.994916
53.535 12.069235
53.540 11.875534
53.545 11.283582
53.550 11.058169
53.555 11.231421
53.560 11.755506
53.565 11.779234
53.570 11.993653
53.575 12.017842
53.580 12.340855
53.585 12.449613
53.590 12.35365
53.595 11.339374
53.600 11.029926
53.605 10.930158
53.610 11.195038
53.615 11.620194
53.620 12.156549
53.625 12.420739
53.630 12.441288
53.635 12.534092
53.640 12.622929
53.645 12.15377
53.650 11.613653
53.655 11.081759
53.660 10.608714
53.665 10.561227
53.670 10.206174
53.675 10.047468
53.680 10.044615
53.685 10.520154
53.690 10.752077
53.695 10.865748
53.700 11.402865
53.705 11.736697
53.710 11.946581
53.715 12.149934
53.720 11.357125
53.725 11.348435
53.730 11.262615
53.735 10.739217
53.740 10.532251
53.745 10.492613
53.750 10.437943
53.755 11.180741
53.760 11.980741
53.765 12.451184
53.770 12.652967
53.775 12.319972
53.780 12.191619
53.785 12.221585
53.790 12.119423
53.795 11.747852
53.800 11.323222
53.805 11.211951
53.810 11.90032
53.815 12.134341
53.820 11.676368
53.825 11.39633
53.830 10.822481
53.835 11.203681
53.840 11.628138
53.845 11.918546
53.850 12.185788
53.855 12.325161
53.860 11.921807
53.865 12.430127
53.870 12.122757
53.875 11.517056
53.880 11.210728
53.885 10.917641
53.890 11.211586
53.895 11.259228
53.900 10.885029
53.905 11.04076
53.910 10.675504
53.915 10.716425
53.920 10.618863
53.925 10.096516
53.930 10.5377
53.935 11.166388
53.940 11.355718
53.945 11.839005
53.950 12.225784
53.955 12.727725
53.960 12.808029
53.965 12.763566
53.970 12.537321
53.975 12.909393
53.980 12.377007
53.985 11.921049
53.990 11.776116
53.995 12.311773
54.000 11.822165
54.005 11.843857
54.010 11.837623
54.015 12.072806
54.020 11.993994
54.025 12.137731
54.030 11.753899
54.035 11.800744
54.040 11.478492
54.045 10.894361
54.050 10.535218
54.055 10.420414
54.060 10.26025
54.065 10.444377
54.070 10.583306
54.075 11.342377
54.080 11.90109
54.085 12.320333
54.090 12.457901
54.095 12.457599
54.100 12.680533
54.105 12.116329
54.110 11.629521
54.115 11.376605
54.120 11.269443
54.125 11.171504
54.130 11.132154
54.135 10.721956
54.140 11.042918
54.145 11.087782
54.150 11.184294
54.155 11.14975
54.160 11.457243
54.165 11.439665
54.170 11.30759
54.175 10.699035
54.180 10.76105
54.185 10.634036
54.190 10.166635
54.195 9.858165
54.200 10.053578
54.205 10.482317
54.210 10.683908
54.215 10.578392
54.220 10.544209
54.225 11.033039
54.230 11.128464
54.235 11.395548
54.240 11.514713
54.245 11.644816
54.250 11.835551
54.255 11.926027
54.260 11.30721
54.265 11.322165
54.270 11.272444
54.275 11.118024
54.280 11.314445
54.285 11.201411
54.290 11.71259
54.295 12.118932
54.300 12.094791
54.305 12.280191
54.310 12.468138
54.315 12.175716
54.320 12.137377
54.325 11.859895
54.330 11.888821
54.335 11.801846
54.340 11.535534
54.345 11.584915
54.350 12.008504
54.355 12.029053
54.360 11.697495
54.365 11.710292
54.370 12.169765
54.375 12.113885
54.380 11.747013
54.385 11.905159
54.390 12.37044
54.395 12.998195
54.400 13.055915
54.405 12.904428
54.410 12.685346
54.415 12.83083
54.420 12.711902
54.425 12.589395
54.430 11.923885
54.435 11.726872
54.440 12.06063
54.445 12.284778
54.450 12.309229
54.455 11.96364
54.460 12.022594
54.465 12.390675
54.470 11.977332
54.475 11.159251
54.480 11.432852
54.485 10.899859
54.490 11.225038
54.495 11.305506
54.500 11.364375
54.505 11.561634
54.510 11.79582
54.515 11.78492
54.520 12.107009
54.525 12.036435
54.530 12.281339
54.535 12.563183
54.540 13.026477
54.545 12.725606
54.550 12.689491
54.555 12.70354
54.560 12.829238
54.565 12.870738
54.570 12.804132
54.575 12.803767
54.580 13.272487
54.585 13.370551
54.590 12.62473
54.595 12.19309
54.600 11.625628
54.605 11.538984
54.610 11.456849
54.615 11.561393
54.620 11.856809
54.625 12.291778
54.630 11.941621
54.635 11.886805
54.640 12.012168
54.645 12.094838
54.650 11.536933
54.655 11.476828
54.660 11.701197
54.665 12.249137
54.670 12.170583
54.675 11.98204
54.680 11.485083
54.685 11.651449
54.690 12.006093
54.695 12.080857
54.700 12.201703
54.705 12.456177
54.710 12.237664
54.715 12.894797
54.720 12.847851
54.725 11.838025
54.730 11.759264
54.735 11.096827
54.740 11.30323
54.745 11.314798
54.750 11.030322
54.755 11.096032
54.760 11.036152
54.765 11.123604
54.770 11.568397
54.775 11.491904
54.780 11.448412
54.785 11.596974
54.790 12.210633
54.795 12.478316
54.800 12.717254
54.805 12.827722
54.810 12.804233
54.815 13.08644
54.820 12.903646
54.825 12.514248
54.830 12.580893
54.835 12.220299
54.840 12.152018
54.845 12.619854
54.850 12.651662
54.855 12.677987
54.860 12.66898
54.865 12.920288
54.870 13.361377
54.875 13.116345
54.880 12.982496
54.885 12.676818
54.890 12.764687
54.895 13.097561
54.900 12.978959
54.905 12.650713
54.910 13.070865
54.915 13.138294
54.920 13.171815
54.925 12.951004
54.930 12.70013
54.935 12.652059
54.940 12.774845
54.945 12.672487
54.950 12.846355
54.955 12.690329
54.960 12.164049
54.965 12.211277
54.970 12.25981
54.975 11.806651
54.980 11.642031
54.985 11.428917
54.990 12.119488
54.995 12.530484
55.000 12.234052
55.005 11.970868
55.010 12.174964
55.015 12.301487
55.020 12.232037
55.025 12.00901
55.030 12.428246
55.035 13.063604
55.040 13.004338
55.045 13.265532
55.050 13.672014
55.055 13.316961
55.060 13.233317
55.065 13.379153
55.070 13.565679
55.075 13.468789
55.080 12.882798
55.085 12.640481
55.090 12.940269
55.095 12.445599
55.100 11.572636
55.105 11.052685
55.110 11.518175
55.115 11.4381
55.120 11.189514
55.125 11.298206
55.130 11.677102
55.135 12.08466
55.140 12.378434
55.145 12.280721
55.150 12.707555
55.155 13.137381
55.160 13.431175
55.165 13.234723
55.170 12.937757
55.175 12.856606
55.180 12.97508
55.185 13.039621
55.190 12.939103
55.195 13.005802
55.200 12.859149
55.205 12.894751
55.210 13.248219
55.215 13.277781
55.220 13.243754
55.225 12.997743
55.230 12.797459
55.235 13.296362
55.240 13.340792
55.245 12.963139
55.250 13.022205
55.255 13.030809
55.260 13.012705
55.265 13.157914
55.270 12.773092
55.275 13.031954
55.280 13.009171
55.285 12.824277
55.290 12.354688
55.295 12.614068
55.300 12.814535
55.305 12.941378
55.310 12.810016
55.315 12.737197
55.320 12.762868
55.325 13.445859
55.330 13.130007
55.335 12.87283
55.340 12.987161
55.345 12.707519
55.350 12.609976
55.355 12.678395
55.360 12.55713
55.365 13.135951
55.370 13.177293
55.375 12.57501
55.380 13.276003
55.385 13.315867
55.390 13.444453
55.395 13.566031
55.400 13.236919
55.405 13.563422
55.410 13.781893
55.415 13.698138
55.420 13.756932
55.425 13.430686
55.430 13.173217
55.435 12.672956
55.440 12.63567
55.445 12.929967
55.450 12.910217
55.455 12.85134
55.460 13.177752
55.465 13.33955
55.470 13.87334
55.475 14.069178
55.480 13.839579
55.485 13.49773
55.490 13.174477
55.495 12.933247
55.500 12.704405
55.505 12.238548
55.510 12.149971
55.515 12.058258
55.520 11.931378
55.525 12.030056
55.530 11.663243
55.535 12.060035
55.540 12.114047
55.545 11.905697
55.550 12.080533
55.555 12.101175
55.560 12.58285
55.565 13.187272
55.570 12.519236
55.575 12.705826
55.580 13.182826
55.585 12.963872
55.590 12.873518
55.595 12.40042
55.600 12.49741
55.605 12.616179
55.610 12.615776
55.615 12.391519
55.620 12.496655
55.625 12.701142
55.630 12.711006
55.635 12.615097
55.640 13.18832
55.645 12.957889
55.650 13.324561
55.655 13.512831
55.660 13.262611
55.665 13.205161
55.670 12.322691
55.675 11.860928
55.680 11.703752
55.685 11.732887
55.690 11.531876
55.695 11.105859
55.700 11.09173
55.705 11.410858
55.710 11.768543
55.715 11.908623
55.720 11.651155
55.725 12.106577
55.730 12.761872
55.735 13.057446
55.740 12.605602
55.745 12.420049
55.750 12.384872
55.755 12.112204
55.760 12.010593
55.765 12.032311
55.770 12.076108
55.775 13.044784
55.780 13.106826
55.785 13.079206
55.790 13.796194
55.795 14.116753
55.800 13.446513
55.805 13.841844
55.810 13.534102
55.815 13.535555
55.820 13.632758
55.825 13.234402
55.830 13.268489
55.835 13.596901
55.840 13.551413
55.845 13.097494
55.850 13.573522
55.855 13.611561
55.860 13.179386
55.865 13.237464
55.870 12.731005
55.875 12.42688
55.880 12.377911
55.885 11.666413
55.890 11.729477
55.895 11.876718
55.900 11.917184
55.905 12.539183
55.910 12.875953
55.915 13.466094
55.920 14.041247
55.925 14.527697
55.930 15.106799
55.935 15.255342
55.940 15.433056
55.945 15.209696
55.950 15.412414
55.955 15.04948
55.960 14.730728
55.965 14.188352
55.970 14.025498
55.975 14.531792
55.980 14.114304
55.985 13.464248
55.990 13.573248
55.995 13.412361
56.000 13.595301
56.005 13.447467
56.010 13.373157
56.015 13.877112
56.020 14.123304
56.025 13.744893
56.030 13.931074
56.035 13.807395
56.040 13.344003
56.045 13.328433
56.050 13.272415
56.055 13.106756
56.060 13.045025
56.065 12.676968
56.070 12.954449
56.075 13.196588
56.080 13.095108
56.085 12.82596
56.090 12.622112
56.095 13.412175
56.100 13.852551
56.105 13.813272
56.110 13.599964
56.115 13.445114
56.120 13.583472
56.125 13.475441
56.130 13.340254
56.135 13.33896
56.140 13.098832
56.145 13.225542
56.150 12.834307
56.155 12.864098
56.160 12.364395
56.165 12.065737
56.170 12.516876
56.175 12.933641
56.180 12.983769
56.185 12.681729
56.190 12.618122
56.195 13.147662
56.200 13.158105
56.205 12.643307
56.210 12.95317
56.215 13.699985
56.220 14.682965
56.225 15.436073
56.230 16.032284
56.235 16.077639
56.240 16.059675
56.245 15.703077
56.250 15.109936
56.255 14.481043
56.260 14.128663
56.265 13.864222
56.270 13.997522
56.275 14.281006
56.280 14.424145
56.285 14.461471
56.290 15.163424
56.295 15.225851
56.300 14.956589
56.305 14.875118
56.310 14.827084
56.315 14.36514
56.320 14.152056
56.325 13.722161
56.330 13.506621
56.335 13.401401
56.340 13.138555
56.345 12.877854
56.350 13.246615
56.355 13.689104
56.360 13.762154
56.365 13.529003
56.370 13.021455
56.375 12.415116
56.380 12.009828
56.385 11.825032
56.390 11.445853
56.395 11.157301
56.400 11.409268
56.405 11.957687
56.410 12.385633
56.415 12.633335
56.420 12.409389
56.425 12.648501
56.430 13.5065
56.435 13.353148
56.440 13.391581
56.445 13.433696
56.450 14.060341
56.455 13.970304
56.460 14.446846
56.465 13.642014
56.470 13.535185
56.475 13.786869
56.480 13.617115
56.485 13.314806
56.490 13.420386
56.495 12.978372
56.500 13.217853
56.505 13.265807
56.510 13.373382
56.515 13.444111
56.520 13.650542
56.525 13.633604
56.530 13.567117
56.535 13.623986
56.540 13.946503
56.545 13.965778
56.550 14.192055
56.555 14.075459
56.560 13.931419
56.565 13.555275
56.570 13.290935
56.575 12.969865
56.580 13.251007
56.585 13.090571
56.590 12.928074
56.595 13.103335
56.600 13.376101
56.605 13.672115
56.610 13.565575
56.615 13.284333
56.620 13.718742
56.625 13.516966
56.630 13.238536
56.635 13.023379
56.640 12.996783
56.645 13.282236
56.650 13.424751
56.655 13.176555
56.660 13.741317
56.665 13.89091
56.670 14.016779
56.675 14.019069
56.680 13.436728
56.685 13.70363
56.690 14.384617
56.695 14.464309
56.700 14.580247
56.705 14.726715
56.710 14.922579
56.715 15.074323
56.720 14.834653
56.725 14.186066
56.730 14.089796
56.735 13.819233
56.740 14.247518
56.745 14.392911
56.750 14.509527
56.755 14.90105
56.760 15.521181
56.765 16.402731
56.770 16.914637
56.775 16.481157
56.780 16.636822
56.785 16.840666
56.790 16.876511
56.795 16.804996
56.800 15.96272
56.805 15.826145
56.810 16.168648
56.815 16.022177
56.820 15.904709
56.825 15.808057
56.830 15.809963
56.835 16.041424
56.840 16.013365
56.845 15.769758
56.850 15.52767
56.855 15.242633
56.860 14.861702
56.865 14.886487
56.870 14.845621
56.875 14.6831
56.880 15.018274
56.885 14.688389
56.890 14.605837
56.895 14.491029
56.900 14.613816
56.905 14.899229
56.910 14.356541
56.915 13.993234
56.920 14.00352
56.925 14.253087
56.930 13.800316
56.935 13.32
56.940 13.361782
56.945 13.825131
56.950 13.93252
56.955 14.372942
56.960 14.088143
56.965 14.158815
56.970 13.777953
56.975 13.972248
56.980 14.214472
56.985 14.52648
56.990 14.602468
56.995 15.357513
57.000 15.62652
57.005 15.797821
57.010 15.117113
57.015 14.886585
57.020 14.871967
57.025 14.755525
57.030 14.399346
57.035 14.71025
57.040 14.227114
57.045 14.195549
57.050 14.334538
57.055 14.001399
57.060 13.750432
57.065 13.322603
57.070 13.38644
57.075 14.33602
57.080 14.553744
57.085 14.547988
57.090 14.531153
57.095 14.505677
57.100 15.060006
57.105 15.336837
57.110 15.44257
57.115 15.491107
57.120 15.515173
57.125 16.247633
57.130 16.544666
57.135 16.399858
57.140 15.824782
57.145 16.206015
57.150 16.317379
57.155 15.792896
57.160 15.069226
57.165 14.987228
57.170 14.448065
57.175 14.277255
57.180 13.582163
57.185 13.53948
57.190 14.840397
57.195 15.567313
57.200 15.563659
57.205 16.150883
57.210 16.075781
57.215 16.222126
57.220 15.901137
57.225 15.211283
57.230 14.906241
57.235 14.588531
57.240 14.029231
57.245 14.332372
57.250 14.659729
57.255 14.598539
57.260 14.185731
57.265 13.857511
57.270 14.033529
57.275 14.296172
57.280 14.487529
57.285 14.679468
57.290 14.864737
57.295 15.137594
57.300 15.493052
57.305 15.54763
57.310 15.638052
57.315 15.598883
57.320 15.294986
57.325 14.991418
57.330 14.837806
57.335 15.018999
57.340 15.310472
57.345 15.526395
57.350 15.227612
57.355 15.276449
57.360 16.039459
57.365 16.871065
57.370 16.541702
57.375 16.060232
57.380 15.336637
57.385 15.732251
57.390 15.798473
57.395 15.129841
57.400 14.429581
57.405 14.843483
57.410 15.19547
57.415 15.809285
57.420 16.347128
57.425 16.353954
57.430 16.28397
57.435 16.113199
57.440 16.118462
57.445 16.212137
57.450 15.290499
57.455 14.522194
57.460 14.701257
57.465 15.037704
57.470 14.800736
57.475 14.834004
57.480 14.81094
57.485 14.901867
57.490 14.516989
57.495 14.238332
57.500 14.392456
57.505 14.710491
57.510 14.258582
57.515 14.528611
57.520 14.677545
57.525 15.21235
57.530 15.052805
57.535 14.908833
57.540 14.901588
57.545 15.398066
57.550 15.489549
57.555 15.563801
57.560 15.264609
57.565 15.899608
57.570 16.211731
57.575 16.347612
57.580 16.182518
57.585 16.242434
57.590 16.963932
57.595 17.431118
57.600 17.18211
57.605 16.670179
57.610 16.677376
57.615 16.782913
57.620 16.616987
57.625 16.056772
57.630 15.874557
57.635 16.461308
57.640 16.807327
57.645 16.775469
57.650 16.672028
57.655 17.058338
57.660 17.181391
57.665 17.043789
57.670 17.063673
57.675 16.973326
57.680 16.363052
57.685 15.79146
57.690 15.619394
57.695 15.189219
57.700 15.033366
57.705 14.974361
57.710 15.653933
57.715 16.014004
57.720 16.54826
57.725 16.369776
57.730 16.687006
57.735 16.433386
57.740 16.056694
57.745 15.368613
57.750 15.36107
57.755 15.62587
57.760 15.855365
57.765 16.221077
57.770 16.507576
57.775 17.077574
57.780 17.921194
57.785 18.501347
57.790 18.282307
57.795 18.068493
57.800 17.814674
57.805 17.778103
57.810 17.331383
57.815 17.284712
57.820 16.949392
57.825 17.306404
57.830 17.520399
57.835 17.316326
57.840 17.116901
57.845 16.807877
57.850 16.769341
57.855 16.534519
57.860 16.000967
57.865 16.104101
57.870 16.38942
57.875 16.398598
57.880 16.571812
57.885 16.421736
57.890 16.561481
57.895 16.764076
57.900 16.442833
57.905 16.604937
57.910 16.468552
57.915 16.496386
57.920 16.464676
57.925 16.606535
57.930 16.73192
57.935 17.054476
57.940 16.662031
57.945 16.814096
57.950 16.790747
57.955 16.742704
57.960 16.549522
57.965 16.418085
57.970 16.526402
57.975 17.131742
57.980 17.419802
57.985 17.309103
57.990 17.311098
57.995 17.216419
58.000 16.879988
58.005 16.122086
58.010 15.596526
58.015 15.218104
58.020 15.642899
58.025 16.258968
58.030 16.760038
58.035 17.265194
58.040 17.905901
58.045 18.470062
58.050 18.870308
58.055 18.976074
58.060 19.138123
58.065 18.610554
58.070 18.503601
58.075 18.884907
58.080 19.167471
58.085 19.164724
58.090 18.755232
58.095 18.51099
58.100 18.776323
58.105 18.776506
58.110 18.476736
58.115 17.939903
58.120 17.567165
58.125 17.691196
58.130 17.791697
58.135 17.829449
58.140 18.272064
58.145 18.413622
58.150 18.147778
58.155 18.561922
58.160 18.435925
58.165 18.374973
58.170 18.788942
58.175 18.665667
58.180 18.720804
58.185 18.998018
58.190 18.819115
58.195 18.747499
58.200 19.386759
58.205 19.31119
58.210 18.653685
58.215 18.272322
58.220 18.173941
58.225 18.415579
58.230 18.373642
58.235 18.143543
58.240 18.152235
58.245 18.704626
58.250 18.680414
58.255 18.498615
58.260 18.647602
58.265 19.110903
58.270 19.050064
58.275 19.108908
58.280 18.697037
58.285 19.133232
58.290 19.553646
58.295 19.707397
58.300 19.647943
58.305 20.426889
58.310 20.828459
58.315 22.151537
58.320 21.987398
58.325 22.39188
58.330 22.247866
58.335 22.54565
58.340 22.332348
58.345 22.144922
58.350 22.048721
58.355 22.723053
58.360 22.6696
58.365 23.421356
58.370 23.150059
58.375 23.521469
58.380 23.932522
58.385 24.274893
58.390 24.354084
58.395 24.589241
58.400 25.110512
58.405 25.777393
58.410 25.928417
58.415 26.526644
58.420 25.853876
58.425 25.730644
58.430 26.068306
58.435 25.669014
58.440 26.107574
58.445 26.423367
58.450 26.284531
58.455 27.283531
58.460 28.046169
58.465 28.458622
58.470 28.94795
58.475 28.36961
58.480 28.029831
58.485 28.168142
58.490 28.957256
58.495 29.145355
58.500 28.88994
58.505 29.265087
58.510 29.59606
58.515 30.347815
58.520 30.485399
58.525 30.807373
58.530 30.869455
58.535 31.762589
58.540 32.067547
58.545 33.134571
58.550 33.157349
58.555 33.424862
58.560 33.162903
58.565 33.593155
58.570 33.519703
58.575 33.30006
58.580 32.878193
58.585 32.768276
58.590 32.607719
58.595 33.396618
58.600 33.030888
58.605 32.812332
58.610 33.015545
58.615 32.921192
58.620 33.242672
58.625 33.610771
58.630 32.953739
58.635 33.101067
58.640 33.181049
58.645 32.530708
58.650 32.427719
58.655 32.427082
58.660 32.613766
58.665 32.778049
58.670 33.231529
58.675 33.172512
58.680 33.3876
58.685 33.917328
58.690 33.314819
58.695 33.281281
58.700 33.041447
58.705 32.186211
58.710 31.752895
58.715 30.834196
58.720 29.682459
58.725 29.380281
58.730 28.523848
58.735 28.291553
58.740 28.248106
58.745 28.134903
58.750 28.693756
58.755 28.750011
58.760 29.468914
58.765 29.114889
58.770 28.831676
58.775 28.566711
58.780 27.620419
58.785 27.252916
58.790 27.529434
58.795 26.474014
58.800 25.928349
58.805 25.324362
58.810 25.105007
58.815 25.319178
58.820 25.085503
58.825 25.243908
58.830 25.596125
58.835 25.658501
58.840 25.449415
58.845 25.483269
58.850 24.837084
58.855 24.473429
58.860 23.948675
58.865 23.467358
58.870 23.10306
58.875 23.015627
58.880 22.624815
58.885 23.153351
58.890 23.075081
58.895 22.645744
58.900 22.555172
58.905 22.548927
58.910 22.459051
58.915 22.052755
58.920 21.981131
58.925 21.61722
58.930 21.061579
58.935 21.350939
58.940 21.14513
58.945 20.846626
58.950 20.779716
58.955 20.461775
58.960 20.298872
58.965 21.149448
58.970 20.989004
58.975 21.436954
58.980 22.077097
58.985 22.242956
58.990 22.250259
58.995 22.120178
59.000 21.437336
59.005 21.154062
59.010 20.587496
59.015 20.156343
59.020 20.317144
59.025 20.4529
59.030 20.63707
59.035 20.638939
59.040 21.060143
59.045 20.843575
59.050 20.285194
59.055 20.255133
59.060 20.189388
59.065 19.657509
59.070 19.674496
59.075 19.37237
59.080 19.280714
59.085 19.266335
59.090 18.820692
59.095 18.531664
59.100 19.008619
59.105 18.617186
59.110 18.822222
59.115 19.640638
59.120 20.224674
59.125 20.374954
59.130 20.307976
59.135 19.970228
59.140 20.242867
59.145 19.857664
59.150 19.210609
59.155 18.466057
59.160 18.154671
59.165 17.971098
59.170 17.922073
59.175 17.78998
59.180 17.732716
59.185 18.083906
59.190 18.185667
59.195 18.524881
59.200 18.887335
59.205 18.932035
59.210 18.811716
59.215 18.246756
59.220 17.476
59.225 17.066536
59.230 16.4666
59.235 16.032887
59.240 16.273685
59.245 16.770744
59.250 17.490898
59.255 17.641266
59.260 17.838764
59.265 18.046631
59.270 18.25773
59.275 17.949055
59.280 17.212881
59.285 17.020758
59.290 17.286676
59.295 17.921631
59.300 18.250793
59.305 18.730207
59.310 18.746696
59.315 18.500349
59.320 18.324326
59.325 17.816809
59.330 17.041744
59.335 16.947577
59.340 16.179766
59.345 16.025045
59.350 16.241964
59.355 15.758558
59.360 16.082247
59.365 15.997481
59.370 15.473181
59.375 16.005722
59.380 16.524399
59.385 16.702246
59.390 17.398977
59.395 17.764395
59.400 18.640104
59.405 19.230488
59.410 18.717169
59.415 18.555435
59.420 18.639837
59.425 18.274748
59.430 17.57028
59.435 16.78956
59.440 16.967621
59.445 16.933189
59.450 16.928921
59.455 16.618366
59.460 16.69928
59.465 17.162157
59.470 17.363838
59.475 17.306774
59.480 17.366674
59.485 17.383774
59.490 17.699511
59.495 17.824652
59.500 18.039949
59.505 18.043655
59.510 17.321573
59.515 17.112564
59.520 16.98848
59.525 17.090294
59.530 17.041656
59.535 16.418196
59.540 16.301525
59.545 16.875063
59.550 17.557947
59.555 17.613033
59.560 17.154562
59.565 17.359829
59.570 17.78441
59.575 17.898203
59.580 17.952847
59.585 18.192234
59.590 17.79615
59.595 17.609274
59.600 17.087265
59.605 16.994551
59.610 16.815985
59.615 16.408571
59.620 16.351978
59.625 16.306934
59.630 16.703588
59.635 16.50135
59.640 16.015223
59.645 15.833735
59.650 15.750185
59.655 15.676709
59.660 16.078304
59.665 15.908457
59.670 15.877068
59.675 16.386482
59.680 16.596231
59.685 16.585966
59.690 16.155037
59.695 16.065752
59.700 16.791485
59.705 17.176319
59.710 17.17309
59.715 17.494652
59.720 17.55847
59.725 17.880737
59.730 18.340239
59.735 18.666367
59.740 18.761343
59.745 18.723909
59.750 18.823357
59.755 19.269693
59.760 19.10001
59.765 18.592827
59.770 17.382267
59.775 17.662859
59.780 17.842609
59.785 18.068266
59.790 17.78125
59.795 17.773792
59.800 18.069284
59.805 18.508245
59.810 18.242769
59.815 17.694527
59.820 17.63987
59.825 17.404972
59.830 16.969126
59.835 16.264242
59.840 16.165892
59.845 16.121403
59.850 16.027372
59.855 15.524662
59.860 15.527701
59.865 15.805838
59.870 15.957138
59.875 15.488802
59.880 15.551292
59.885 15.820769
59.890 16.004423
59.895 16.067453
59.900 15.944411
59.905 16.083879
59.910 15.549627
59.915 15.473996
59.920 15.339451
59.925 15.140653
59.930 15.200705
59.935 14.980335
59.940 15.106028
59.945 15.706227
59.950 15.829241
59.955 16.287647
59.960 16.493008
59.965 16.299728
59.970 16.704021
59.975 16.608849
59.980 17.037428
59.985 17.121944
59.990 17.426527
59.995 17.950468
60.000 17.855503
60.005 18.269575
60.010 18.762333
60.015 18.623991
60.020 18.095249
60.025 17.617504
60.030 17.422264
60.035 17.988125
60.040 17.831484
60.045 17.65954
60.050 17.767307
60.055 17.834944
60.060 17.429058
60.065 17.457233
60.070 17.351624
60.075 17.323238
60.080 17.061934
60.085 17.088995
60.090 17.789326
60.095 18.18219
60.100 18.132107
60.105 18.1017
60.110 17.932089
60.115 17.839293
60.120 17.082405
60.125 16.420504
60.130 16.48864
60.135 16.285599
60.140 15.857021
60.145 16.158342
60.150 16.260429
60.155 17.153996
60.160 17.213919
60.165 17.356667
60.170 17.56328
60.175 17.858276
60.180 17.933952
60.185 17.879713
60.190 17.54755
60.195 17.168591
60.200 17.151293
60.205 17.081455
60.210 16.956968
60.215 16.390863
60.220 16.042959
60.225 15.862976
60.230 15.963703
60.235 15.689342
60.240 15.519338
60.245 15.955552
60.250 16.314501
60.255 16.342012
60.260 16.175549
60.265 15.543972
60.270 15.758444
60.275 15.761761
60.280 15.447104
60.285 15.375196
60.290 15.693902
60.295 15.839888
60.300 16.066149
60.305 16.015049
60.310 15.992578
60.315 15.984173
60.320 15.994949
60.325 16.503181
60.330 17.127928
60.335 17.824953
60.340 17.361578
60.345 17.530102
60.350 17.553801
60.355 17.544952
60.360 16.851715
60.365 16.459635
60.370 16.031981
60.375 16.040348
60.380 16.081432
60.385 16.128872
60.390 16.025625
60.395 16.528515
60.400 16.450735
60.405 16.387287
60.410 16.510838
60.415 16.229403
60.420 16.099953
60.425 15.738642
60.430 15.403983
60.435 15.391922
60.440 15.565501
60.445 15.804055
60.450 15.796867
60.455 15.865206
60.460 16.202499
60.465 16.537441
60.470 16.385595
60.475 16.171236
60.480 15.970736
60.485 16.165756
60.490 16.40778
60.495 16.643866
60.500 16.084173
60.505 16.583246
60.510 16.679945
60.515 16.799372
60.520 16.423769
60.525 16.139969
60.530 15.804833
60.535 15.884774
60.540 15.552083
60.545 15.442256
60.550 15.445048
60.555 15.484126
60.560 15.467781
60.565 15.627875
60.570 15.752382
60.575 15.881325
60.580 16.072224
60.585 15.977489
60.590 16.364679
60.595 16.276766
60.600 16.146599
60.605 16.360233
60.610 16.380373
60.615 16.611364
60.620 16.828772
60.625 16.265999
60.630 16.113111
60.635 16.454544
60.640 16.496391
60.645 16.392794
60.650 16.113243
60.655 16.153811
60.660 16.608578
60.665 16.622423
60.670 16.251425
60.675 16.042521
60.680 16.173315
60.685 16.110107
60.690 16.19537
60.695 16.587376
60.700 17.071138
60.705 17.558558
60.710 17.439014
60.715 16.981403
60.720 17.091682
60.725 17.184462
60.730 17.246918
60.735 17.085093
60.740 16.866869
60.745 17.14724
60.750 17.731848
60.755 17.793459
60.760 17.773792
60.765 17.740334
60.770 17.405123
60.775 17.412066
60.780 17.346397
60.785 17.345631
60.790 17.107105
60.795 16.581755
60.800 16.625698
60.805 17.159697
60.810 17.222389
60.815 16.917215
60.820 16.739662
60.825 17.337847
60.830 17.360016
60.835 17.263008
60.840 17.024647
60.845 17.032177
60.850 16.964882
60.855 17.245836
60.860 16.835133
60.865 17.019926
60.870 16.71776
60.875 16.390476
60.880 16.527025
60.885 16.716286
60.890 16.242264
60.895 16.097361
60.900 15.833841
60.905 16.256489
60.910 16.371216
60.915 16.634195
60.920 16.613432
60.925 16.80608
60.930 17.251593
60.935 17.789621
60.940 17.501282
60.945 17.413647
60.950 17.020321
60.955 17.465183
60.960 17.440294
60.965 17.480993
60.970 17.196733
60.975 17.138857
60.980 17.850292
60.985 18.278671
60.990 17.37521
60.995 16.953419
61.000 16.571724
61.005 16.456429
61.010 16.153021
61.015 15.92059
61.020 15.761088
61.025 16.566364
61.030 17.260363
61.035 17.530441
61.040 17.963303
61.045 18.708872
61.050 18.486074
61.055 17.973358
61.060 17.608044
61.065 17.148308
61.070 16.600216
61.075 16.1747
61.080 15.913789
61.085 15.925203
61.090 16.442616
61.095 16.390461
61.100 16.427258
61.105 16.650604
61.110 16.229776
61.115 15.943528
61.120 15.590148
61.125 15.292314
61.130 15.121004
61.135 14.295655
61.140 14.009807
61.145 14.432267
61.150 14.700915
61.155 15.236028
61.160 15.153981
61.165 15.523055
61.170 16.112938
61.175 16.273699
61.180 16.27323
61.185 16.244387
61.190 16.274754
61.195 16.609522
61.200 16.670898
61.205 17.357473
61.210 17.864777
61.215 17.835815
61.220 17.786406
61.225 17.504486
61.230 17.426517
61.235 16.895983
61.240 16.705664
61.245 16.590523
61.250 16.331135
61.255 16.283007
61.260 16.044804
61.265 15.908194
61.270 16.751165
61.275 16.268379
61.280 16.126375
61.285 16.334375
61.290 16.384693
61.295 16.745232
61.300 16.32728
61.305 15.653226
61.310 15.563745
61.315 15.571226
61.320 15.48512
61.325 15.26802
61.330 15.845716
61.335 16.36544
61.340 16.964348
61.345 17.347025
61.350 17.703405
61.355 17.800949
61.360 17.547779
61.365 17.283506
61.370 17.660872
61.375 17.628309
61.380 17.608828
61.385 17.527433
61.390 17.471741
61.395 17.541744
61.400 17.589397
61.405 17.771078
61.410 17.684975
61.415 18.002834
61.420 18.07266
61.425 18.057056
61.430 18.230213
61.435 18.24794
61.440 17.313768
61.445 17.141569
61.450 16.994419
61.455 16.922543
61.460 17.244293
61.465 16.956688
61.470 16.963667
61.475 17.641481
61.480 17.370174
61.485 17.078522
61.490 17.302351
61.495 16.994474
61.500 17.060003
61.505 17.234476
61.510 17.566042
61.515 17.932747
61.520 17.919922
61.525 17.739399
61.530 18.329073
61.535 18.311789
61.540 18.065683
61.545 17.938555
61.550 18.077847
61.555 18.306595
61.560 18.106676
61.565 18.25806
61.570 18.30715
61.575 17.901487
61.580 18.076439
61.585 17.823133
61.590 17.459372
61.595 17.114487
61.600 16.681347
61.605 16.582956
61.610 16.649256
61.615 15.948131
61.620 15.892004
61.625 15.872483
61.630 15.789571
61.635 15.376432
61.640 15.398347
61.645 15.159817
61.650 14.982953
61.655 14.79469
61.660 14.910678
61.665 15.290856
61.670 16.130312
61.675 16.343185
61.680 16.802044
61.685 17.322325
61.690 17.681423
61.695 17.756145
61.700 17.549343
61.705 17.120384
61.710 17.23173
61.715 17.612938
61.720 17.91823
61.725 17.481627
61.730 17.37418
61.735 17.407473
61.740 17.07139
61.745 16.726332
61.750 17.258224
61.755 17.463913
61.760 18.002499
61.765 18.379887
61.770 18.376585
61.775 18.450891
61.780 18.783623
61.785 17.524889
61.790 17.045675
61.795 16.728523
61.800 16.351011
61.805 16.301586
61.810 16.196255
61.815 16.108534
61.820 16.623098
61.825 16.734743
61.830 17.20068
61.835 17.391739
61.840 17.661291
61.845 18.545338
61.850 18.54776
61.855 18.81715
61.860 18.833948
61.865 18.623331
61.870 18.815102
61.875 19.062557
61.880 19.114092
61.885 19.386257
61.890 18.984028
61.895 18.636545
61.900 18.119179
61.905 17.885326
61.910 17.912041
61.915 17.221004
61.920 16.889467
61.925 17.047754
61.930 16.995554
61.935 17.37991
61.940 17.680988
61.945 18.065823
61.950 18.079739
61.955 17.901974
61.960 17.628841
61.965 17.504465
61.970 17.235519
61.975 16.810369
61.980 16.051922
61.985 15.88832
61.990 15.819112
61.995 15.906462
62.000 16.411751
62.005 16.474312
62.010 16.772926
62.015 17.301739
62.020 17.239891
62.025 17.322088
62.030 17.955133
62.035 18.279814
62.040 18.901743
62.045 19.045326
62.050 19.280169
62.055 19.405304
62.060 19.113207
62.065 18.68856
62.070 18.547327
62.075 18.114029
62.080 17.747406
62.085 17.463423
62.090 17.204113
62.095 16.959679
62.100 16.371572
62.105 15.989666
62.110 16.267481
62.115 16.179258
62.120 15.623176
62.125 15.81319
62.130 16.633814
62.135 17.298162
62.140 17.148962
62.145 16.506105
62.150 16.829035
62.155 17.401888
62.160 17.826193
62.165 17.464577
62.170 17.350096
62.175 18.010838
62.180 18.249205
62.185 17.841484
62.190 17.614904
62.195 17.550959
62.200 17.876854
62.205 17.818787
62.210 17.440577
62.215 17.75201
62.220 18.296539
62.225 18.544773
62.230 18.362528
62.235 18.153427
62.240 18.5625
62.245 18.466866
62.250 18.305334
62.255 17.771175
62.260 17.344986
62.265 17.766357
62.270 17.875658
62.275 17.049553
62.280 16.268669
62.285 16.175247
62.290 16.442915
62.295 16.778976
62.300 16.541054
62.305 15.96239
62.310 16.036907
62.315 16.515739
62.320 16.283468
62.325 16.365942
62.330 16.651634
62.335 16.439896
62.340 16.990013
62.345 17.4713
62.350 17.6793
62.355 17.715874
62.360 17.447363
62.365 17.280796
62.370 17.295153
62.375 17.053246
62.380 17.105576
62.385 17.248716
62.390 17.639738
62.395 17.482157
62.400 17.721329
62.405 17.620041
62.410 17.968029
62.415 17.492044
62.420 17.700401
62.425 17.664417
62.430 17.860353
62.435 17.693504
62.440 18.367691
62.445 18.260315
62.450 18.373869
62.455 18.236511
62.460 18.22872
62.465 18.174761
62.470 18.11595
62.475 17.414135
62.480 17.357246
62.485 17.092903
62.490 16.686451
62.495 16.143347
62.500 15.90591
62.505 15.456876
62.510 15.663559
62.515 15.548933
62.520 15.544133
62.525 15.930559
62.530 16.342016
62.535 16.242334
62.540 16.758272
62.545 16.666071
62.550 16.341402
62.555 17.041647
62.560 16.667351
62.565 16.810226
62.570 17.303328
62.575 17.349403
62.580 17.409676
62.585 18.121469
62.590 18.80735
62.595 19.389973
62.600 19.246584
62.605 19.370359
62.610 19.417482
62.615 19.040924
62.620 19.052649
62.625 18.372002
62.630 17.903055
62.635 18.062784
62.640 17.796827
62.645 18.103224
62.650 18.478762
62.655 18.262707
62.660 18.260836
62.665 18.2682
62.670 18.587563
62.675 18.486378
62.680 18.176323
62.685 17.989012
62.690 18.112103
62.695 18.345222
62.700 18.606348
62.705 18.334663
62.710 18.312189
62.715 18.592962
62.720 18.581074
62.725 17.960646
62.730 18.50742
62.735 18.459446
62.740 18.5774
62.745 19.373075
62.750 19.808088
62.755 20.109873
62.760 19.873318
62.765 19.473845
62.770 19.310974
62.775 18.99725
62.780 18.088226
62.785 17.401281
62.790 17.199825
62.795 17.758129
62.800 17.798681
62.805 17.374235
62.810 17.230305
62.815 17.556856
62.820 17.899652
62.825 18.197939
62.830 17.390831
62.835 16.749584
62.840 17.138414
62.845 17.260077
62.850 16.901697
62.855 16.927101
62.860 16.889671
62.865 17.10919
62.870 17.064747
62.875 17.092028
62.880 17.107718
62.885 16.939493
62.890 16.563112
62.895 16.280439
62.900 15.982415
62.905 15.791294
62.910 15.738043
62.915 16.414545
62.920 17.016012
62.925 17.05168
62.930 17.429905
62.935 17.825947
62.940 18.358366
62.945 18.248981
62.950 17.609804
62.955 16.846367
62.960 16.401155
62.965 16.454327
62.970 17.553638
62.975 17.824215
62.980 17.669151
62.985 17.583557
62.990 18.301985
62.995 19.147238
63.000 19.002934
63.005 18.13559
63.010 18.080273
63.015 17.771032
63.020 17.63541
63.025 17.171673
63.030 16.792295
63.035 16.558334
63.040 16.327709
63.045 16.183777
63.050 16.951811
63.055 17.420612
63.060 17.70174
63.065 17.694609
63.070 17.778183
63.075 17.587961
63.080 17.76363
63.085 17.228884
63.090 17.110636
63.095 17.251648
63.100 17.663862
63.105 18.016668
63.110 18.153254
63.115 18.222639
63.120 18.318401
63.125 18.23917
63.130 18.802961
63.135 18.863258
63.140 18.648968
63.145 18.587425
63.150 18.468275
63.155 18.564171
63.160 18.275927
63.165 17.947659
63.170 17.690487
63.175 18.528664
63.180 18.783888
63.185 18.324247
63.190 18.406935
63.195 19.001116
63.200 19.517975
63.205 19.51355
63.210 18.96277
63.215 18.854187
63.220 18.772516
63.225 18.7761
63.230 18.595535
63.235 18.621254
63.240 18.635586
63.245 18.832619
63.250 19.083149
63.255 19.519201
63.260 20.18565
63.265 19.81476
63.270 18.918652
63.275 18.929234
63.280 18.918039
63.285 19.085396
63.290 19.366871
63.295 18.689413
63.300 18.853436
63.305 18.860033
63.310 18.645224
63.315 18.426123
63.320 18.22377
63.325 18.046871
63.330 17.856447
63.335 17.41346
63.340 17.875622
63.345 18.000528
63.350 17.774073
63.355 17.999523
63.360 18.053814
63.365 17.982525
63.370 18.699995
63.375 18.691586
63.380 19.142439
63.385 18.874674
63.390 18.167503
63.395 18.286549
63.400 18.635105
63.405 18.228275
63.410 18.179562
63.415 17.601351
63.420 18.454123
63.425 19.129499
63.430 19.161947
63.435 19.023729
63.440 18.78479
63.445 18.784298
63.450 18.729639
63.455 18.088501
63.460 17.832684
63.465 17.747265
63.470 17.952051
63.475 18.114573
63.480 17.663918
63.485 17.733891
63.490 18.54357
63.495 18.248499
63.500 18.053158
63.505 18.151651
63.510 18.183664
63.515 18.405939
63.520 18.508373
63.525 18.181799
63.530 18.400751
63.535 18.813787
63.540 18.603786
63.545 18.471518
63.550 18.113956
63.555 17.786491
63.560 18.19702
63.565 18.125004
63.570 17.741808
63.575 18.047781
63.580 18.46109
63.585 19.218864
63.590 19.082523
63.595 18.447098
63.600 18.291992
63.605 18.085241
63.610 17.601185
63.615 17.4
63.620 17.330887
63.625 17.723108
63.630 17.924463
63.635 18.511333
63.640 19.330919
63.645 19.913315
63.650 19.869358
63.655 19.966454
63.660 20.050367
63.665 20.271255
63.670 20.059507
63.675 19.744188
63.680 19.978855
63.685 20.821684
63.690 20.71678
63.695 20.01528
63.700 19.419249
63.705 19.485607
63.710 19.709717
63.715 19.19626
63.720 19.058077
63.725 19.636213
63.730 20.336645
63.735 20.898226
63.740 21.109535
63.745 20.958462
63.750 21.098585
63.755 20.901035
63.760 21.079315
63.765 20.909622
63.770 21.603947
63.775 21.698271
63.780 21.877798
63.785 21.922029
63.790 21.423033
63.795 20.890961
63.800 21.235743
63.805 20.876141
63.810 20.932701
63.815 21.772673
63.820 21.864389
63.825 22.39518
63.830 22.143009
63.835 22.31818
63.840 22.548935
63.845 22.397577
63.850 21.487392
63.855 21.253033
63.860 20.911226
63.865 21.666231
63.870 21.893356
63.875 21.918764
63.880 21.765669
63.885 21.584412
63.890 21.691608
63.895 22.514559
63.900 22.823915
63.905 22.205587
63.910 22.557243
63.915 22.631111
63.920 23.390263
63.925 24.269453
63.930 24.502974
63.935 25.09141
63.940 25.746727
63.945 25.781477
63.950 25.514307
63.955 25.770395
63.960 25.546959
63.965 24.774412
63.970 24.36165
63.975 24.997746
63.980 25.086176
63.985 25.977879
63.990 26.250353
63.995 26.410847
64.000 27.219761
64.005 27.747631
64.010 27.583132
64.015 28.327002
64.020 28.647932
64.025 28.862385
64.030 29.41326
64.035 29.447424
64.040 29.594481
64.045 30.242807
64.050 30.461544
64.055 30.759495
64.060 29.955425
64.065 29.929504
64.070 29.935286
64.075 29.824745
64.080 29.357431
64.085 29.364042
64.090 29.552252
64.095 29.910862
64.100 29.666327
64.105 30.050526
64.110 30.355841
64.115 30.664021
64.120 31.096115
64.125 31.580109
64.130 32.725586
64.135 33.031719
64.140 33.021717
64.145 33.085358
64.150 33.267021
64.155 32.741348
64.160 32.324062
64.165 32.1329
64.170 32.582275
64.175 32.849354
64.180 32.394218
64.185 32.534073
64.190 33.301006
64.195 34.331627
64.200 34.659107
64.205 34.825081
64.210 35.440166
64.215 36.481876
64.220 36.833172
64.225 36.534649
64.230 36.240036
64.235 35.864574
64.240 35.413776
64.245 34.665558
64.250 34.18111
64.255 35.391716
64.260 35.953152
64.265 35.666473
64.270 36.676735
64.275 37.611362
64.280 38.281002
64.285 38.647171
64.290 38.046764
64.295 38.736732
64.300 39.251041
64.305 39.248783
64.310 38.899796
64.315 38.857372
64.320 38.537403
64.325 38.661274
64.330 38.716377
64.335 38.914455
64.340 39.080273
64.345 39.992085
64.350 40.124218
64.355 40.511063
64.360 40.624947
64.365 40.493637
64.370 39.696247
64.375 39.633083
64.380 39.136391
64.385 39.02602
64.390 38.109028
64.395 37.44474
64.400 36.6894
64.405 37.025013
64.410 37.027534
64.415 36.615265
64.420 36.236343
64.425 36.620266
64.430 36.949177
64.435 37.872074
64.440 38.340267
64.445 37.922821
64.450 37.851116
64.455 38.168159
64.460 37.952293
64.465 37.347656
64.470 36.178158
64.475 35.275349
64.480 34.375511
64.485 34.588985
64.490 33.977478
64.495 33.88007
64.500 33.661003
64.505 33.868553
64.510 33.417145
64.515 33.386963
64.520 32.712357
64.525 32.764534
64.530 32.757084
64.535 32.012554
64.540 31.567274
64.545 31.46142
64.550 31.038946
64.555 31.201595
64.560 30.940882
64.565 30.673174
64.570 30.810247
64.575 30.762156
64.580 30.978832
64.585 31.006351
64.590 30.455746
64.595 30.533932
64.600 30.446249
64.605 29.640608
64.610 29.318523
64.615 28.607389
64.620 28.132023
64.625 27.501196
64.630 26.755222
64.635 26.091324
64.640 26.474377
64.645 26.64184
64.650 27.062826
64.655 26.590973
64.660 26.061867
64.665 25.979391
64.670 26.038301
64.675 25.288515
64.680 24.55068
64.685 24.400505
64.690 25.020334
64.695 25.828489
64.700 25.889971
64.705 25.158966
64.710 24.891289
64.715 24.915083
64.720 24.48802
64.725 24.157263
64.730 23.334137
64.735 22.66799
64.740 22.328037
64.745 21.999134
64.750 21.737486
64.755 21.679363
64.760 21.505928
64.765 22.269989
64.770 23.008669
64.775 23.953888
64.780 24.510376
64.785 23.588614
64.790 23.363304
64.795 23.147388
64.800 22.435669
64.805 21.998304
64.810 21.667898
64.815 21.726456
64.820 22.737625
64.825 23.026058
64.830 23.420418
64.835 24.42264
64.840 24.75371
64.845 24.8958
64.850 24.486942
64.855 24.211733
64.860 24.439083
64.865 24.285019
64.870 23.391317
64.875 23.433889
64.880 22.933996
64.885 22.788029
64.890 22.51083
64.895 22.286268
64.900 22.099854
64.905 22.296453
64.910 21.745619
64.915 22.122778
64.920 22.743343
64.925 22.877052
64.930 22.726454
64.935 22.687757
64.940 22.989283
64.945 23.129902
64.950 23.120846
64.955 23.051373
64.960 23.198946
64.965 23.718111
64.970 23.89205
64.975 23.660366
64.980 23.718679
64.985 23.978218
64.990 24.075829
64.995 24.182535
65.000 23.984823
65.005 23.5294
65.010 23.827888
65.015 24.040154
65.020 24.478241
65.025 24.480431
65.030 23.966827
65.035 24.08156
65.040 25.003384
65.045 25.225012
65.050 25.136032
65.055 24.673946
65.060 25.070021
65.065 26.273457
65.070 26.587196
65.075 26.269144
65.080 26.513372
65.085 26.658228
65.090 26.809364
65.095 26.464975
65.100 25.838634
65.105 25.751209
65.110 25.232298
65.115 25.445339
65.120 25.798227
65.125 26.93099
65.130 27.526321
65.135 27.357559
65.140 27.829056
65.145 28.523861
65.150 28.538563
65.155 28.868832
65.160 28.088512
65.165 27.895281
65.170 28.543371
65.175 28.860748
65.180 28.902073
65.185 28.553442
65.190 28.112049
65.195 27.473074
65.200 27.815191
65.205 27.53731
65.210 26.607576
65.215 26.914598
65.220 27.2609
65.225 27.411943
65.230 27.65724
65.235 26.923637
65.240 27.023363
65.245 27.82057
65.250 27.813292
65.255 27.462124
65.260 27.983313
65.265 28.760344
65.270 28.911394
65.275 29.188423
65.280 28.962606
65.285 28.92931
65.290 29.47683
65.295 28.821531
65.300 28.489273
65.305 28.776735
65.310 28.162529
65.315 27.66819
65.320 27.213879
65.325 26.67189
65.330 27.084499
65.335 27.689503
65.340 27.338726
65.345 27.765425
65.350 28.05508
65.355 28.441221
65.360 29.131321
65.365 29.243774
65.370 28.951143
65.375 29.980946
65.380 30.783854
65.385 31.587456
65.390 31.53664
65.395 30.894718
65.400 30.978619
65.405 31.430445
65.410 30.850655
65.415 30.160261
65.420 30.045851
65.425 30.348507
65.430 30.969814
65.435 30.754522
65.440 30.525938
65.445 30.653164
65.450 30.820665
65.455 30.529957
65.460 30.629
65.465 30.586121
65.470 30.805521
65.475 30.146378
65.480 30.172401
65.485 29.538343
65.490 29.344572
65.495 29.616945
65.500 30.20294
65.505 30.478504
65.510 31.270826
65.515 31.706482
65.520 31.974152
65.525 32.289112
65.530 32.472801
65.535 32.055424
65.540 32.463913
65.545 33.206585
65.550 33.468002
65.555 33.824917
65.560 34.067097
65.565 33.644878
65.570 33.282486
65.575 33.181034
65.580 32.96468
65.585 32.421963
65.590 32.441643
65.595 31.628378
65.600 32.100723
65.605 32.354698
65.610 32.430737
65.615 32.349659
65.620 33.241417
65.625 33.943596
65.630 34.443794
65.635 34.331707
65.640 35.060471
65.645 35.34161
65.650 35.428436
65.655 35.21479
65.660 35.45488
65.665 36.444859
65.670 36.563984
65.675 35.809559
65.680 35.973953
65.685 36.07449
65.690 35.502312
65.695 35.050896
65.700 34.340576
65.705 34.6754
65.710 34.703884
65.715 35.301769
65.720 35.926231
65.725 36.313442
65.730 36.3773
65.735 36.418541
65.740 36.837875
65.745 36.967926
65.750 36.241936
65.755 35.632847
65.760 35.816833
65.765 36.257492
65.770 36.840141
65.775 36.654087
65.780 36.474476
65.785 36.316647
65.790 36.823967
65.795 37.061699
65.800 36.583557
65.805 36.538116
65.810 36.47979
65.815 37.148087
65.820 38.067394
65.825 38.162434
65.830 37.92292
65.835 37.884151
65.840 37.35817
65.845 36.925083
65.850 36.362782
65.855 35.783401
65.860 35.390034
65.865 34.885975
65.870 34.288452
65.875 34.116051
65.880 33.592079
65.885 33.440948
65.890 32.883377
65.895 33.681595
65.900 33.855137
65.905 35.194794
65.910 35.755371
65.915 36.451984
65.920 35.905739
65.925 36.20676
65.930 35.743031
65.935 35.051491
65.940 33.635399
65.945 32.665634
65.950 32.157581
65.955 32.399731
65.960 32.054741
65.965 32.530499
65.970 33.692875
65.975 33.863842
65.980 33.852165
65.985 33.958729
65.990 34.030392
65.995 33.831581
66.000 32.863068
66.005 32.116352
66.010 32.492058
66.015 32.857956
66.020 32.897041
66.025 32.708874
66.030 32.535255
66.035 33.188297
66.040 33.027527
66.045 32.380585
66.050 32.455734
66.055 32.9049
66.060 32.5797
66.065 31.994555
66.070 30.242617
66.075 30.052053
66.080 31.117962
66.085 30.360952
66.090 29.713221
66.095 29.478325
66.100 29.897537
66.105 30.696291
66.110 30.967464
66.115 30.579632
66.120 30.094833
66.125 30.435377
66.130 30.475294
66.135 30.229095
66.140 30.498619
66.145 29.944092
66.150 29.651169
66.155 30.025192
66.160 29.996668
66.165 30.823759
66.170 31.082544
66.175 30.906212
66.180 30.942226
66.185 31.115683
66.190 31.176363
66.195 31.083981
66.200 29.558256
66.205 29.19919
66.210 29.854883
66.215 30.34573
66.220 29.790955
66.225 29.450008
66.230 29.34972
66.235 29.811155
66.240 29.601236
66.245 29.023798
66.250 28.96369
66.255 29.164923
66.260 29.243795
66.265 29.505459
66.270 29.555363
66.275 29.639332
66.280 29.595734
66.285 29.240755
66.290 28.793715
66.295 28.608221
66.300 28.214657
66.305 27.618734
66.310 26.957722
66.315 26.72723
66.320 26.560461
66.325 26.866978
66.330 26.385061
66.335 26.079144
66.340 26.513411
66.345 26.193855
66.350 26.416405
66.355 27.061199
66.360 26.594896
66.365 26.405424
66.370 26.225096
66.375 25.541674
66.380 26.218643
66.385 25.391344
66.390 24.743988
66.395 24.969128
66.400 25.444426
66.405 25.886042
66.410 26.30205
66.415 25.888226
66.420 26.056074
66.425 26.015093
66.430 25.953047
66.435 25.961126
66.440 25.061571
66.445 24.564528
66.450 23.868683
66.455 23.217831
66.460 23.157896
66.465 23.236471
66.470 23.483721
66.475 23.77257
66.480 24.170073
66.485 24.755848
66.490 24.899811
66.495 24.910706
66.500 24.629808
66.505 24.261431
66.510 23.865406
66.515 23.276556
66.520 22.948618
66.525 22.902006
66.530 22.545576
66.535 22.52109
66.540 21.947895
66.545 22.053289
66.550 22.119534
66.555 21.920795
66.560 22.195482
66.565 22.055487
66.570 22.216522
66.575 22.379839
66.580 21.923246
66.585 21.902935
66.590 21.768726
66.595 21.262625
66.600 20.821115
66.605 21.008465
66.610 21.74349
66.615 22.030823
66.620 22.225725
66.625 22.047628
66.630 22.315924
66.635 22.853821
66.640 22.196161
66.645 21.607775
66.650 20.968128
66.655 20.723736
66.660 20.675014
66.665 20.210537
66.670 19.834011
66.675 19.822418
66.680 19.715269
66.685 20.198603
66.690 19.802612
66.695 20.093077
66.700 20.536312
66.705 20.031858
66.710 20.343285
66.715 20.514244
66.720 20.136282
66.725 20.354315
66.730 20.822029
66.735 20.748962
66.740 21.4268
66.745 20.865669
66.750 20.570866
66.755 20.665623
66.760 20.53846
66.765 20.054394
66.770 20.179098
66.775 20.050323
66.780 20.404903
66.785 20.470924
66.790 21.539038
66.795 21.907616
66.800 21.811571
66.805 21.676105
66.810 22.082853
66.815 22.665373
66.820 22.287418
66.825 21.42889
66.830 20.991089
66.835 21.440332
66.840 20.773849
66.845 20.402145
66.850 19.289749
66.855 19.388365
66.860 19.24577
66.865 19.411837
66.870 19.189173
66.875 19.511202
66.880 19.230476
66.885 19.633543
66.890 19.947691
66.895 20.442789
66.900 20.023802
66.905 19.651192
66.910 19.873413
66.915 19.942764
66.920 19.830799
66.925 19.392458
66.930 18.842945
66.935 19.003298
66.940 19.37252
66.945 19.05724
66.950 19.231781
66.955 19.942627
66.960 20.006376
66.965 20.238308
66.970 20.807888
66.975 20.857801
66.980 21.038713
66.985 20.800074
66.990 20.403896
66.995 20.775515
67.000 20.362612
67.005 19.967459
67.010 20.247477
67.015 20.531107
67.020 20.390114
67.025 20.061682
67.030 19.46661
67.035 19.276104
67.040 18.98295
67.045 18.366079
67.050 18.290201
67.055 17.962919
67.060 18.206388
67.065 18.917364
67.070 19.248962
67.075 19.448877
67.080 19.658876
67.085 19.779428
67.090 20.025749
67.095 19.786343
67.100 19.6602
67.105 19.422112
67.110 19.526211
67.115 19.61429
67.120 19.807245
67.125 19.773918
67.130 20.177099
67.135 20.197054
67.140 20.250389
67.145 19.771795
67.150 19.430624
67.155 19.436956
67.160 19.779444
67.165 19.647377
67.170 19.47451
67.175 19.595766
67.180 19.530344
67.185 19.635908
67.190 19.194815
67.195 18.77096
67.200 18.615715
67.205 17.954277
67.210 17.609053
67.215 17.78018
67.220 18.155703
67.225 18.391739
67.230 18.107803
67.235 18.004482
67.240 18.3323
67.245 18.658035
67.250 18.5639
67.255 18.109577
67.260 18.19173
67.265 18.258072
67.270 18.47415
67.275 19.053753
67.280 18.752567
67.285 18.402313
67.290 18.451227
67.295 18.931725
67.300 19.260557
67.305 18.883387
67.310 18.639954
67.315 19.628559
67.320 20.146767
67.325 20.018244
67.330 19.572311
67.335 19.774817
67.340 20.084118
67.345 19.841887
67.350 19.588936
67.355 18.937353
67.360 18.848171
67.365 19.511814
67.370 19.343327
67.375 18.854122
67.380 18.633526
67.385 17.618151
67.390 18.300501
67.395 18.067348
67.400 17.440491
67.405 18.089186
67.410 18.640963
67.415 19.288828
67.420 20.097834
67.425 20.16811
67.430 20.27866
67.435 20.088919
67.440 20.157087
67.445 20.268705
67.450 20.204144
67.455 19.957508
67.460 20.08252
67.465 21.094767
67.470 21.89893
67.475 21.146591
67.480 21.306675
67.485 21.765627
67.490 21.521976
67.495 20.6516
67.500 19.893673
67.505 19.111465
67.510 18.967937
67.515 18.845757
67.520 19.005749
67.525 19.257479
67.530 19.340334
67.535 19.083712
67.540 19.41637
67.545 19.568235
67.550 19.343124
67.555 18.749241
67.560 18.898811
67.565 19.019999
67.570 18.729509
67.575 18.451511
67.580 18.401951
67.585 18.530346
67.590 18.834169
67.595 19.077782
67.600 19.446365
67.605 19.621803
67.610 19.72756
67.615 19.957867
67.620 19.394386
67.625 18.889801
67.630 18.757496
67.635 18.344791
67.640 18.277428
67.645 18.504213
67.650 18.498796
67.655 18.871311
67.660 19.107533
67.665 19.536676
67.670 19.907866
67.675 20.041422
67.680 19.928818
67.685 20.260439
67.690 20.309385
67.695 20.592421
67.700 20.274244
67.705 20.110367
67.710 20.187397
67.715 20.762705
67.720 21.050756
67.725 21.213512
67.730 20.732021
67.735 19.980083
67.740 19.9589
67.745 19.513477
67.750 18.424334
67.755 17.920731
67.760 17.674414
67.765 17.840342
67.770 18.46645
67.775 18.534525
67.780 18.825758
67.785 18.383707
67.790 17.90807
67.795 17.892458
67.800 18.788952
67.805 18.760569
67.810 18.716103
67.815 19.078991
67.820 20.340008
67.825 20.566515
67.830 20.300905
67.835 19.801884
67.840 19.888117
67.845 19.559389
67.850 19.09251
67.855 18.242258
67.860 18.744179
67.865 19.220192
67.870 19.305862
67.875 19.620924
67.880 19.981277
67.885 20.231455
67.890 20.588552
67.895 20.336514
67.900 20.001621
67.905 19.920387
67.910 19.807877
67.915 20.347023
67.920 20.565786
67.925 20.925879
67.930 20.646093
67.935 20.209675
67.940 19.90711
67.945 19.558092
67.950 18.733469
67.955 18.571934
67.960 18.040668
67.965 18.145798
67.970 18.62702
67.975 19.047409
67.980 19.609938
67.985 20.291323
67.990 19.615965
67.995 19.525724
68.000 19.674957
68.005 19.343702
68.010 19.211573
68.015 19.261322
68.020 19.340567
68.025 19.455063
68.030 19.679796
68.035 19.383875
68.040 19.780075
68.045 19.593491
68.050 18.578846
68.055 18.294123
68.060 18.546316
68.065 18.480215
68.070 18.599897
68.075 18.285063
68.080 18.568481
68.085 19.011511
68.090 18.958057
68.095 19.143003
68.100 19.181988
68.105 18.91218
68.110 19.061502
68.115 19.023979
68.120 19.299755
68.125 20.113752
68.130 19.966253
68.135 20.021219
68.140 20.483387
68.145 20.626198
68.150 20.702349
68.155 20.337387
68.160 19.902878
68.165 19.713984
68.170 19.572203
68.175 20.321341
68.180 19.59276
68.185 19.576641
68.190 20.258865
68.195 20.240435
68.200 20.578096
68.205 20.515001
68.210 20.752241
68.215 21.695313
68.220 21.891047
68.225 21.59458
68.230 21.834734
68.235 21.757212
68.240 21.71455
68.245 21.179457
68.250 20.60582
68.255 20.673742
68.260 20.792181
68.265 20.933447
68.270 21.24279
68.275 21.469423
68.280 21.262939
68.285 21.56666
68.290 22.117767
68.295 21.82177
68.300 22.009533
68.305 22.422119
68.310 22.611418
68.315 23.181597
68.320 22.67659
68.325 22.588907
68.330 22.836493
68.335 22.805265
68.340 22.16806
68.345 21.816103
68.350 21.674088
68.355 22.35808
68.360 22.151569
68.365 21.797075
68.370 21.697893
68.375 22.462484
68.380 23.140942
68.385 22.958811
68.390 22.607727
68.395 22.714806
68.400 22.68507
68.405 23.337816
68.410 23.214163
68.415 23.45986
68.420 23.336634
68.425 23.419708
68.430 23.687029
68.435 23.72916
68.440 23.076065
68.445 23.453907
68.450 23.799629
68.455 24.944216
68.460 25.511721
68.465 25.513386
68.470 25.877077
68.475 25.710932
68.480 25.779524
68.485 25.36241
68.490 25.378027
68.495 25.156282
68.500 25.133568
68.505 25.515152
68.510 25.889265
68.515 25.905567
68.520 26.025377
68.525 25.493546
68.530 25.612013
68.535 25.53372
68.540 25.464451
68.545 25.944857
68.550 26.233229
68.555 26.966177
68.560 27.5767
68.565 27.934708
68.570 28.235685
68.575 28.278633
68.580 27.648382
68.585 27.281662
68.590 26.940744
68.595 27.095348
68.600 26.955975
68.605 26.912592
68.610 27.410513
68.615 28.278166
68.620 28.403301
68.625 28.455132
68.630 28.225763
68.635 29.240784
68.640 28.92004
68.645 28.14912
68.650 27.611713
68.655 28.267475
68.660 28.447456
68.665 27.702202
68.670 27.280582
68.675 27.926102
68.680 27.848848
68.685 27.648516
68.690 27.352316
68.695 27.692837
68.700 28.073
68.705 28.500834
68.710 29.233538
68.715 30.108234
68.720 29.595949
68.725 29.014477
68.730 28.699514
68.735 28.538132
68.740 27.691999
68.745 26.647511
68.750 26.909658
68.755 27.961113
68.760 28.295502
68.765 28.687521
68.770 29.070724
68.775 29.508158
68.780 29.72888
68.785 29.25103
68.790 29.344883
68.795 29.463345
68.800 29.244478
68.805 29.544994
68.810 30.388489
68.815 31.190836
68.820 31.314867
68.825 31.537949
68.830 32.200279
68.835 32.631695
68.840 32.336658
68.845 32.129677
68.850 32.111191
68.855 32.319935
68.860 32.022285
68.865 31.751591
68.870 32.638126
68.875 32.692303
68.880 32.186733
68.885 31.827124
68.890 31.333439
68.895 31.73278
68.900 31.761204
68.905 31.769514
68.910 31.688747
68.915 31.787848
68.920 31.670441
68.925 31.545603
68.930 30.69754
68.935 30.463604
68.940 30.581589
68.945 30.871506
68.950 31.183203
68.955 31.954384
68.960 32.731506
68.965 33.317654
68.970 33.126297
68.975 32.531342
68.980 32.011826
68.985 31.691
68.990 31.383268
68.995 30.66538
69.000 31.459095
69.005 32.018101
69.010 32.923164
69.015 33.580948
69.020 33.781364
69.025 33.922661
69.030 33.930771
69.035 33.371544
69.040 33.170113
69.045 32.380695
69.050 31.500004
69.055 31.763554
69.060 32.028305
69.065 31.622347
69.070 30.919523
69.075 30.040699
69.080 30.112558
69.085 30.664721
69.090 30.402033
69.095 30.124508
69.100 31.245213
69.105 32.01342
69.110 31.668358
69.115 31.355391
69.120 30.532036
69.125 30.246729
69.130 30.194466
69.135 29.288145
69.140 29.329422
69.145 30.099577
69.150 30.600901
69.155 31.357883
69.160 31.737717
69.165 31.894012
69.170 32.02158
69.175 32.271904
69.180 32.748592
69.185 31.961468
69.190 31.371374
69.195 31.309271
69.200 31.478683
69.205 31.581766
69.210 30.878759
69.215 30.232267
69.220 30.500628
69.225 30.831594
69.230 30.975958
69.235 30.320892
69.240 29.322653
69.245 29.503616
69.250 29.823355
69.255 29.628742
69.260 28.918999
69.265 28.871756
69.270 29.07983
69.275 29.25633
69.280 28.615206
69.285 28.712036
69.290 29.154671
69.295 29.163532
69.300 28.623446
69.305 28.74979
69.310 29.119518
69.315 28.82023
69.320 28.265869
69.325 27.738161
69.330 27.681173
69.335 27.524263
69.340 26.722769
69.345 26.640417
69.350 27.880104
69.355 28.052359
69.360 28.370319
69.365 28.601118
69.370 29.18523
69.375 29.921412
69.380 29.244999
69.385 28.823734
69.390 28.591915
69.395 28.009943
69.400 27.293564
69.405 27.215553
69.410 27.059263
69.415 27.188049
69.420 27.025524
69.425 27.017923
69.430 27.2395
69.435 27.71332
69.440 27.100187
69.445 27.848574
69.450 27.578915
69.455 27.014238
69.460 26.51486
69.465 25.952559
69.470 25.570065
69.475 25.396229
69.480 24.827288
69.485 24.914078
69.490 25.362078
69.495 25.462996
69.500 25.982008
69.505 25.652412
69.510 25.757635
69.515 26.402557
69.520 26.516054
69.525 26.033768
69.530 25.840595
69.535 25.892302
69.540 26.517622
69.545 26.302896
69.550 26.207409
69.555 25.403044
69.560 25.505657
69.565 25.896177
69.570 26.04245
69.575 26.053379
69.580 25.334244
69.585 25.19709
69.590 25.42293
69.595 25.687748
69.600 24.858835
69.605 24.550879
69.610 24.429874
69.615 24.590338
69.620 24.192614
69.625 23.997345
69.630 23.972561
69.635 24.487967
69.640 24.446365
69.645 24.975872
69.650 25.017136
69.655 25.741529
69.660 26.022804
69.665 25.476048
69.670 24.894789
69.675 24.69874
69.680 23.703852
69.685 23.183662
69.690 22.450666
69.695 22.02009
69.700 22.452925
69.705 22.497721
69.710 22.613693
69.715 23.076635
69.720 22.89406
69.725 23.225758
69.730 22.745974
69.735 22.459465
69.740 22.654261
69.745 22.291119
69.750 22.041059
69.755 21.933355
69.760 21.409691
69.765 21.933628
69.770 21.857161
69.775 21.395058
69.780 22.059875
69.785 22.468004
69.790 22.439739
69.795 23.181692
69.800 23.143591
69.805 22.708511
69.810 22.085121
69.815 21.896372
69.820 21.727516
69.825 21.724447
69.830 21.21492
69.835 21.247101
69.840 21.495037
69.845 21.142912
69.850 20.515785
69.855 20.189802
69.860 19.840462
69.865 20.071505
69.870 20.238001
69.875 20.660414
69.880 21.33507
69.885 22.083689
69.890 22.116541
69.895 21.950947
69.900 21.543865
69.905 20.842918
69.910 20.259245
69.915 19.333879
69.920 18.964815
69.925 19.602243
69.930 19.81967
69.935 20.153887
69.940 20.683922
69.945 21.373615
69.950 21.474148
69.955 21.409033
69.960 20.804852
69.965 20.250507
69.970 20.018925
69.975 19.785301
69.980 19.949129
69.985 19.859287
69.990 20.078053
69.995 20.544529
70.000 20.147768
70.005 19.965946
70.010 19.541948
70.015 19.481504
70.020 19.854383
70.025 19.590246
70.030 19.525606
70.035 19.648191
70.040 19.644053
70.045 19.138653
70.050 18.804836
70.055 18.337069
70.060 17.68408
70.065 18.157005
70.070 18.346672
70.075 18.603596
70.080 18.772577
70.085 18.486774
70.090 18.401802
70.095 18.825413
70.100 18.33367
70.105 18.334455
70.110 18.667791
70.115 18.688568
70.120 18.768738
70.125 18.918377
70.130 19.07729
70.135 18.424719
70.140 18.75775
70.145 18.994541
70.150 19.85568
70.155 20.134624
70.160 19.941259
70.165 20.290962
70.170 21.202843
70.175 21.100294
70.180 20.857527
70.185 20.29587
70.190 19.888964
70.195 19.33917
70.200 19.273785
70.205 19.266788
70.210 19.034506
70.215 18.822977
70.220 19.123072
70.225 19.414925
70.230 19.917702
70.235 19.716928
70.240 19.253456
70.245 19.099581
70.250 19.274702
70.255 19.862822
70.260 20.830572
70.265 20.756624
70.270 20.825872
70.275 21.371717
70.280 21.115892
70.285 20.757788
70.290 19.818184
70.295 19.488092
70.300 19.227507
70.305 19.051298
70.310 19.121643
70.315 19.259314
70.320 19.18187
70.325 19.189974
70.330 19.021059
70.335 18.800051
70.340 18.448282
70.345 18.612694
70.350 18.789328
70.355 18.638596
70.360 18.813114
70.365 18.619286
70.370 19.26306
70.375 18.791611
70.380 18.403273
70.385 19.35924
70.390 19.556479
70.395 19.281467
70.400 19.627764
70.405 19.822275
70.410 20.776585
70.415 20.612036
70.420 20.111134
70.425 20.267574
70.430 20.597027
70.435 20.23527
70.440 19.588514
70.445 18.586092
70.450 18.254793
70.455 18.176157
70.460 17.947603
70.465 18.050705
70.470 18.163553
70.475 18.230244
70.480 18.440968
70.485 18.469032
70.490 18.206978
70.495 18.094028
70.500 17.940601
70.505 17.634975
70.510 18.145714
70.515 18.443203
70.520 19.305929
70.525 19.764242
70.530 19.396221
70.535 18.901623
70.540 19.528757
70.545 19.909214
70.550 19.569597
70.555 18.924583
70.560 18.42931
70.565 18.76808
70.570 19.319799
70.575 18.84878
70.580 18.901756
70.585 18.990154
70.590 19.312424
70.595 20.119713
70.600 20.722332
70.605 20.962576
70.610 21.129938
70.615 20.731707
70.620 20.89558
70.625 20.192787
70.630 19.193653
70.635 18.113096
70.640 17.419857
70.645 18.010509
70.650 18.225237
70.655 17.960047
70.660 18.349031
70.665 18.688013
70.670 18.95915
70.675 18.932041
70.680 18.360861
70.685 18.314468
70.690 18.693197
70.695 18.557133
70.700 18.899698
70.705 18.837093
70.710 18.311686
70.715 18.323494
70.720 17.947916
70.725 17.34939
70.730 17.676649
70.735 17.75498
70.740 17.803011
70.745 17.772743
70.750 17.802214
70.755 19.142527
70.760 19.404261
70.765 18.967457
70.770 18.817167
70.775 18.863655
70.780 18.873398
70.785 18.479462
70.790 17.938971
70.795 18.015781
70.800 18.038437
70.805 17.690416
70.810 18.177197
70.815 18.293989
70.820 18.728178
70.825 18.468573
70.830 18.004021
70.835 18.291662
70.840 18.519781
70.845 18.631386
70.850 18.294088
70.855 17.821657
70.860 17.535686
70.865 17.925295
70.870 18.532236
70.875 18.87351
70.880 19.277269
70.885 19.578833
70.890 19.78191
70.895 20.368681
70.900 20.05131
70.905 19.085539
70.910 18.571405
70.915 18.067013
70.920 17.858711
70.925 18.273735
70.930 18.263792
70.935 18.528349
70.940 18.852581
70.945 19.168072
70.950 19.204296
70.955 19.126171
70.960 18.939703
70.965 19.193651
70.970 18.78581
70.975 18.721069
70.980 19.236507
70.985 19.125584
70.990 19.261322
70.995 19.289474
71.000 19.262901
71.005 19.451876
71.010 18.71682
71.015 17.887415
71.020 18.06496
71.025 17.180748
71.030 16.5415
71.035 16.194992
71.040 16.121103
71.045 16.322817
71.050 16.688025
71.055 16.654551
71.060 16.669069
71.065 16.834641
71.070 16.754496
71.075 16.960394
71.080 16.858492
71.085 16.966091
71.090 17.542526
71.095 18.222305
71.100 19.099726
71.105 19.494984
71.110 19.055355
71.115 18.989309
71.120 18.89994
71.125 19.133324
71.130 19.164188
71.135 18.548782
71.140 18.497612
71.145 18.921751
71.150 19.396233
71.155 19.354946
71.160 18.955334
71.165 18.570114
71.170 18.866524
71.175 19.07556
71.180 18.662695
71.185 18.368429
71.190 18.390684
71.195 18.451391
71.200 19.468945
71.205 19.753872
71.210 19.895336
71.215 20.644001
71.220 20.272154
71.225 20.178143
71.230 19.959217
71.235 18.996702
71.240 18.463703
71.245 18.296886
71.250 18.221973
71.255 18.523941
71.260 18.174425
71.265 18.393763
71.270 18.116398
71.275 17.920143
71.280 17.859219
71.285 17.534351
71.290 17.204493
71.295 16.723539
71.300 16.527441
71.305 17.252312
71.310 17.723471
71.315 17.540487
71.320 17.356142
71.325 17.471014
71.330 18.283091
71.335 18.733152
71.340 18.718077
71.345 18.803236
71.350 18.861954
71.355 19.062353
71.360 18.983139
71.365 19.074089
71.370 18.900938
71.375 18.277065
71.380 18.387339
71.385 18.882544
71.390 19.082865
71.395 19.081881
71.400 18.35409
71.405 18.263474
71.410 18.807961
71.415 19.015676
71.420 19.361925
71.425 19.030951
71.430 19.214958
71.435 18.869057
71.440 18.751352
71.445 18.499542
71.450 17.901913
71.455 18.512594
71.460 19.053686
71.465 19.306618
71.470 19.362421
71.475 19.190441
71.480 19.236416
71.485 19.102533
71.490 17.83285
71.495 17.454697
71.500 17.454561
71.505 17.514263
71.510 17.853743
71.515 17.987732
71.520 18.309994
71.525 18.868641
71.530 18.650631
71.535 18.644257
71.540 18.270973
71.545 18.465712
71.550 18.939955
71.555 18.733875
71.560 18.360165
71.565 18.385744
71.570 18.872946
71.575 19.145927
71.580 18.729485
71.585 17.930534
71.590 18.00806
71.595 18.398005
71.600 18.842241
71.605 18.696791
71.610 18.924145
71.615 18.893829
71.620 19.17318
71.625 19.292101
71.630 19.11364
71.635 19.299311
71.640 20.182919
71.645 19.94783
71.650 19.727821
71.655 19.592813
71.660 19.785017
71.665 20.19397
71.670 18.919744
71.675 17.815479
71.680 17.918552
71.685 17.755354
71.690 17.748779
71.695 17.533134
71.700 17.720404
71.705 18.353977
71.710 18.71686
71.715 19.331003
71.720 19.939447
71.725 19.581236
71.730 19.299362
71.735 19.336637
71.740 19.32205
71.745 19.089024
71.750 18.711363
71.755 18.660332
71.760 18.654486
71.765 18.715065
71.770 18.444389
71.775 18.665094
71.780 18.728952
71.785 18.553549
71.790 18.543972
71.795 18.52957
71.800 18.014874
71.805 17.453224
71.810 17.066973
71.815 16.91683
71.820 17.298023
71.825 17.51034
71.830 17.662991
71.835 17.838036
71.840 17.754772
71.845 17.733818
71.850 17.868198
71.855 17.467756
71.860 17.296179
71.865 17.136976
71.870 17.035149
71.875 17.311577
71.880 17.326897
71.885 17.388672
71.890 17.355234
71.895 16.974501
71.900 17.181276
71.905 17.742813
71.910 18.228701
71.915 18.389009
71.920 18.480406
71.925 18.851877
71.930 18.860182
71.935 18.65547
71.940 18.399475
71.945 18.232908
71.950 17.78771
71.955 17.541155
71.960 17.644167
71.965 17.619164
71.970 17.729164
71.975 17.162069
71.980 16.622648
71.985 16.930887
71.990 17.132198
71.995 17.705414
72.000 17.961174
72.005 18.08033
72.010 18.080254
72.015 18.132877
72.020 18.277088
72.025 18.366442
72.030 18.368771
72.035 18.261692
72.040 18.271624
72.045 18.791225
72.050 18.983553
72.055 18.832899
72.060 17.945248
72.065 17.848347
72.070 17.766125
72.075 18.177191
72.080 18.115517
72.085 18.072506
72.090 18.056877
72.095 18.311184
72.100 18.389172
72.105 18.650925
72.110 18.540087
72.115 18.113022
72.120 17.797155
72.125 17.670025
72.130 17.818422
72.135 17.506634
72.140 17.361271
72.145 17.468786
72.150 17.370245
72.155 17.789986
72.160 17.607676
72.165 17.218998
72.170 17.320604
72.175 17.041225
72.180 16.815517
72.185 17.219416
72.190 17.442366
72.195 17.34536
72.200 17.899387
72.205 17.99226
72.210 18.744795
72.215 19.095781
72.220 19.2917
72.225 19.45149
72.230 19.627329
72.235 19.454338
72.240 19.70689
72.245 18.751097
72.250 18.439508
72.255 17.559441
72.260 17.231499
72.265 17.295633
72.270 17.125515
72.275 17.230579
72.280 17.387817
72.285 17.398361
72.290 17.410681
72.295 17.040262
72.300 16.848295
72.305 16.817245
72.310 16.786119
72.315 17.352293
72.320 17.338728
72.325 17.374092
72.330 17.998629
72.335 18.664347
72.340 19.150524
72.345 19.285095
72.350 19.250191
72.355 19.573046
72.360 19.268517
72.365 18.98106
72.370 18.346828
72.375 17.38378
72.380 17.286945
72.385 17.658459
72.390 18.427328
72.395 19.312798
72.400 19.131075
72.405 18.907755
72.410 19.028704
72.415 18.625687
72.420 17.943611
72.425 17.746481
72.430 17.495373
72.435 17.57481
72.440 17.620323
72.445 17.984934
72.450 17.942797
72.455 17.47543
72.460 16.642784
72.465 16.087057
72.470 16.038876
72.475 16.501612
72.480 16.5509
72.485 17.124434
72.490 18.000162
72.495 18.778229
72.500 18.962553
72.505 19.275583
72.510 18.865829
72.515 19.153429
72.520 19.328876
72.525 19.160963
72.530 19.047926
72.535 19.321768
72.540 19.292896
72.545 19.117666
72.550 18.68972
72.555 18.951742
72.560 18.988136
72.565 18.513985
72.570 17.86709
72.575 17.972445
72.580 18.028965
72.585 18.094421
72.590 17.470135
72.595 17.18425
72.600 17.993593
72.605 18.223743
72.610 17.858765
72.615 17.857197
72.620 17.106167
72.625 17.418074
72.630 17.400658
72.635 17.191704
72.640 17.462643
72.645 17.97382
72.650 18.584526
72.655 19.039839
72.660 18.964872
72.665 19.208138
72.670 19.482864
72.675 18.914501
72.680 18.079229
72.685 17.283403
72.690 16.620777
72.695 16.434874
72.700 16.028316
72.705 16.038837
72.710 16.220482
72.715 16.698055
72.720 17.325676
72.725 17.610031
72.730 17.493084
72.735 18.022356
72.740 17.777891
72.745 18.083771
72.750 17.342642
72.755 17.0291
72.760 17.064072
72.765 17.045782
72.770 16.649656
72.775 16.715467
72.780 17.038845
72.785 17.542627
72.790 17.710285
72.795 18.217779
72.800 17.840206
72.805 17.403
72.810 16.973515
72.815 16.885452
72.820 17.343477
72.825 16.398462
72.830 16.19656
72.835 17.170717
72.840 17.518053
72.845 17.66647
72.850 17.203823
72.855 17.413237
72.860 17.987803
72.865 17.565273
72.870 17.379133
72.875 17.243259
72.880 17.283485
72.885 17.174835
72.890 16.95573
72.895 16.596907
72.900 16.55274
72.905 16.803167
72.910 16.818201
72.915 16.872875
72.920 16.600107
72.925 16.4639
72.930 16.589449
72.935 16.2959
72.940 16.44451
72.945 16.679743
72.950 16.572697
72.955 16.571959
72.960 16.927711
72.965 16.579918
72.970 16.378687
72.975 16.379234
72.980 16.08395
72.985 15.833804
72.990 16.435448
72.995 16.909908
73.000 17.141132
