!@!!GADDS PLOTSO FILE: Chi integration type
!@!!Title/SampleName: map-b6
!@!!Comment: ?
!@!!User: Bruker Instrument Administrator
!@!!Site: University of Illinois Chicago
!@!!Frame: map-b6_01_000.gfrm
!@!!Wavelengths    1.54184   1.54056   1.54439
!@!!Frame angles: 2Theta: 63.000 Omega: 50.000 Phi: 0.000 Chi: 90.000
!@!!Integration range: 2Theta: 53.000 to 73.000  Gamma: -105.000 to -75.000
!@!!Integration method: bin normalized
!@!N
!@!SS
!@!M
!@!L 0.0 0.0 0.0 0.0
!@!XDegrees
!@!YCounts
53.000 8.508998
53.005 8.191113
53.010 7.814509
53.015 7.4312
53.020 7.521567
53.025 7.754439
53.030 7.498237
53.035 7.659924
53.040 7.552766
53.045 7.836185
53.050 7.784545
53.055 7.699468
53.060 7.693125
53.065 8.381692
53.070 8.421165
53.075 8.446626
53.080 8.260095
53.085 8.248415
53.090 8.060978
53.095 8.346725
53.100 8.096953
53.105 7.79249
53.110 8.02774
53.115 8.624258
53.120 9.06008
53.125 9.153554
53.130 8.827418
53.135 8.984735
53.140 9.137456
53.145 8.848307
53.150 8.908495
53.155 9.115395
53.160 9.421782
53.165 9.528584
53.170 9.575953
53.175 9.814784
53.180 10.047441
53.185 9.493164
53.190 9.15768
53.195 8.991227
53.200 8.733577
53.205 9.205855
53.210 9.147764
53.215 8.627609
53.220 8.779106
53.225 8.525942
53.230 8.830543
53.235 8.595997
53.240 8.017501
53.245 8.14809
53.250 8.310567
53.255 8.438377
53.260 8.443933
53.265 8.069252
53.270 8.383657
53.275 8.607028
53.280 8.718778
53.285 9.051695
53.290 9.383353
53.295 9.873916
53.300 10.041791
53.305 9.737641
53.310 9.890281
53.315 9.424903
53.320 9.310569
53.325 9.400562
53.330 9.287228
53.335 9.737097
53.340 10.012408
53.345 10.023947
53.350 10.111906
53.355 9.515823
53.360 9.221773
53.365 9.118537
53.370 8.816851
53.375 8.699738
53.380 8.451056
53.385 8.489072
53.390 8.901293
53.395 8.836433
53.400 8.483063
53.405 7.956419
53.410 7.960062
53.415 8.386612
53.420 8.889427
53.425 8.710114
53.430 8.770494
53.435 8.853881
53.440 9.505008
53.445 9.430531
53.450 9.121472
53.455 8.671812
53.460 8.685608
53.465 8.842402
53.470 8.633479
53.475 8.359807
53.480 8.646947
53.485 8.882617
53.490 9.073445
53.495 9.284742
53.500 9.448665
53.505 9.611972
53.510 9.582545
53.515 9.375655
53.520 9.443343
53.525 9.403159
53.530 8.956241
53.535 9.106207
53.540 9.006307
53.545 9.113619
53.550 9.216302
53.555 9.146186
53.560 9.543968
53.565 9.549624
53.570 9.581083
53.575 9.683159
53.580 9.404382
53.585 9.131316
53.590 8.782797
53.595 8.68356
53.600 8.361933
53.605 8.554683
53.610 8.469761
53.615 8.552892
53.620 8.933888
53.625 9.368626
53.630 9.427729
53.635 10.044024
53.640 10.104037
53.645 10.011805
53.650 10.02408
53.655 9.351425
53.660 8.866933
53.665 8.636314
53.670 8.557641
53.675 8.792951
53.680 9.063995
53.685 9.609454
53.690 10.292895
53.695 10.390651
53.700 10.17965
53.705 10.101991
53.710 9.936168
53.715 9.606072
53.720 9.131677
53.725 9.1574
53.730 9.549062
53.735 9.151178
53.740 8.692909
53.745 8.494756
53.750 8.364036
53.755 8.179584
53.760 7.731959
53.765 7.412951
53.770 7.828576
53.775 8.224257
53.780 8.780171
53.785 8.846148
53.790 8.85885
53.795 9.236578
53.800 9.553576
53.805 9.646648
53.810 9.622679
53.815 9.601935
53.820 9.63164
53.825 9.718943
53.830 9.458323
53.835 9.218861
53.840 9.201339
53.845 9.175433
53.850 9.412112
53.855 9.365539
53.860 9.29284
53.865 9.743004
53.870 9.769773
53.875 9.774352
53.880 9.616001
53.885 9.766749
53.890 10.286444
53.895 10.717816
53.900 10.769557
53.905 11.020439
53.910 11.164503
53.915 11.489902
53.920 11.581826
53.925 11.095386
53.930 11.384428
53.935 11.443562
53.940 11.358008
53.945 11.222655
53.950 11.098454
53.955 11.406042
53.960 11.221843
53.965 10.844944
53.970 10.595885
53.975 10.429993
53.980 10.248155
53.985 9.868195
53.990 9.653885
53.995 9.456841
54.000 9.361194
54.005 9.310973
54.010 9.686462
54.015 9.84889
54.020 9.748541
54.025 9.619296
54.030 9.943204
54.035 10.10571
54.040 10.094905
54.045 9.485704
54.050 9.419502
54.055 9.41421
54.060 9.626523
54.065 9.835773
54.070 9.888522
54.075 9.750832
54.080 9.904066
54.085 9.785245
54.090 10.112902
54.095 9.996868
54.100 10.040838
54.105 9.871703
54.110 10.024091
54.115 10.082328
54.120 10.149001
54.125 9.805046
54.130 9.7992
54.135 9.593911
54.140 9.754824
54.145 10.321534
54.150 10.566938
54.155 10.285957
54.160 10.313352
54.165 10.123649
54.170 10.026503
54.175 10.164138
54.180 9.881722
54.185 9.983682
54.190 10.565841
54.195 10.868163
54.200 10.826763
54.205 10.503372
54.210 10.131675
54.215 9.684423
54.220 9.608276
54.225 9.36912
54.230 9.321697
54.235 10.068771
54.240 10.657908
54.245 10.782171
54.250 10.638098
54.255 10.727383
54.260 11.229486
54.265 11.221217
54.270 10.952075
54.275 10.878109
54.280 10.988879
54.285 11.174904
54.290 10.958974
54.295 10.279303
54.300 10.52639
54.305 10.543978
54.310 10.431539
54.315 10.716843
54.320 10.382743
54.325 10.507481
54.330 10.663541
54.335 10.683441
54.340 10.91398
54.345 10.851501
54.350 10.631721
54.355 10.79962
54.360 10.606185
54.365 10.379875
54.370 9.637118
54.375 9.46245
54.380 9.107343
54.385 8.862714
54.390 8.895268
54.395 8.734557
54.400 8.958858
54.405 9.327395
54.410 9.762278
54.415 9.904007
54.420 9.93005
54.425 10.465508
54.430 10.837399
54.435 10.607018
54.440 10.56587
54.445 10.500712
54.450 10.937937
54.455 11.226367
54.460 11.164862
54.465 11.198186
54.470 11.531307
54.475 11.838056
54.480 11.778593
54.485 11.647445
54.490 11.079953
54.495 10.653383
54.500 10.740634
54.505 10.606758
54.510 10.061193
54.515 9.826158
54.520 9.526436
54.525 9.703298
54.530 9.943202
54.535 9.951752
54.540 9.97124
54.545 10.264668
54.550 10.915044
54.555 11.270582
54.560 11.1842
54.565 11.158699
54.570 10.809213
54.575 10.397742
54.580 10.235785
54.585 10.103045
54.590 9.96966
54.595 9.82552
54.600 9.446996
54.605 10.197083
54.610 10.989641
54.615 11.375054
54.620 11.739475
54.625 11.861407
54.630 12.186683
54.635 12.360538
54.640 11.749666
54.645 10.916805
54.650 10.393929
54.655 10.07188
54.660 10.68257
54.665 10.56596
54.670 10.437915
54.675 10.863905
54.680 11.101593
54.685 11.253304
54.690 10.937728
54.695 10.946805
54.700 11.232267
54.705 11.030987
54.710 10.88028
54.715 10.499655
54.720 10.193507
54.725 10.653975
54.730 10.394922
54.735 10.29031
54.740 10.916722
54.745 11.020892
54.750 11.005617
54.755 10.920472
54.760 10.409874
54.765 9.805125
54.770 9.681644
54.775 9.364767
54.780 9.288004
54.785 9.196572
54.790 9.354847
54.795 9.337179
54.800 9.314642
54.805 9.114514
54.810 9.435182
54.815 10.060105
54.820 10.255342
54.825 10.159831
54.830 10.474775
54.835 10.139931
54.840 10.491018
54.845 10.11856
54.850 10.079935
54.855 9.822453
54.860 9.647649
54.865 10.00528
54.870 10.390241
54.875 10.322739
54.880 10.20229
54.885 10.139153
54.890 10.262285
54.895 10.799067
54.900 10.728065
54.905 10.784412
54.910 11.230535
54.915 11.20259
54.920 11.36072
54.925 11.219641
54.930 10.824816
54.935 10.873938
54.940 10.733643
54.945 10.267934
54.950 10.832837
54.955 11.234728
54.960 11.575142
54.965 12.206577
54.970 12.279198
54.975 12.162344
54.980 11.936072
54.985 11.519073
54.990 10.727048
54.995 10.662971
55.000 10.14188
55.005 9.711699
55.010 9.766829
55.015 9.655823
55.020 9.748257
55.025 10.394932
55.030 10.266684
55.035 10.245406
55.040 10.747272
55.045 11.023581
55.050 11.271914
55.055 11.241354
55.060 11.24826
55.065 11.058279
55.070 10.890689
55.075 11.143883
55.080 11.16305
55.085 10.640572
55.090 10.320228
55.095 10.269654
55.100 10.775161
55.105 11.190033
55.110 10.688361
55.115 10.588708
55.120 11.239878
55.125 11.299558
55.130 11.539171
55.135 11.372411
55.140 11.481705
55.145 11.732963
55.150 11.920935
55.155 12.025171
55.160 12.12424
55.165 11.835808
55.170 11.675563
55.175 11.383388
55.180 11.157073
55.185 10.998355
55.190 10.978279
55.195 10.95904
55.200 10.542756
55.205 10.586774
55.210 10.767623
55.215 10.832518
55.220 10.805318
55.225 10.676911
55.230 10.444212
55.235 10.990916
55.240 10.663733
55.245 10.693754
55.250 10.957927
55.255 11.144029
55.260 11.079095
55.265 11.283825
55.270 11.195508
55.275 11.524193
55.280 11.685215
55.285 11.437928
55.290 11.882369
55.295 12.249944
55.300 11.885669
55.305 11.678598
55.310 11.417965
55.315 10.822403
55.320 10.864517
55.325 9.935479
55.330 9.917292
55.335 9.880141
55.340 10.03044
55.345 10.264973
55.350 10.411981
55.355 10.615412
55.360 11.035087
55.365 11.057156
55.370 11.257458
55.375 11.535792
55.380 11.663817
55.385 11.36322
55.390 11.424024
55.395 11.520973
55.400 11.219095
55.405 10.839884
55.410 10.815892
55.415 10.924283
55.420 11.580866
55.425 11.553452
55.430 11.169347
55.435 11.025326
55.440 11.068453
55.445 10.875389
55.450 10.747078
55.455 10.392053
55.460 10.091391
55.465 11.065715
55.470 11.588627
55.475 11.518781
55.480 11.589593
55.485 11.638634
55.490 11.682052
55.495 12.204444
55.500 11.827646
55.505 11.643143
55.510 12.148123
55.515 12.348901
55.520 11.997252
55.525 11.908303
55.530 11.263961
55.535 11.30099
55.540 11.505848
55.545 11.1422
55.550 11.133512
55.555 11.427937
55.560 11.867189
55.565 12.198392
55.570 12.345201
55.575 12.615656
55.580 12.411685
55.585 12.229036
55.590 12.048974
55.595 12.081119
55.600 11.367095
55.605 10.854361
55.610 10.684543
55.615 10.758103
55.620 11.072917
55.625 10.994695
55.630 10.92303
55.635 11.282579
55.640 11.705728
55.645 11.882878
55.650 11.905164
55.655 11.787531
55.660 11.951744
55.665 12.063871
55.670 12.228704
55.675 11.946054
55.680 11.749064
55.685 11.67672
55.690 11.512039
55.695 11.46887
55.700 11.639165
55.705 12.016277
55.710 12.39539
55.715 12.872636
55.720 13.148326
55.725 13.070196
55.730 12.908514
55.735 12.025275
55.740 11.630436
55.745 11.303378
55.750 11.15793
55.755 11.488714
55.760 11.885976
55.765 12.218262
55.770 12.162434
55.775 12.004478
55.780 12.017414
55.785 11.618869
55.790 11.26496
55.795 11.386638
55.800 11.306851
55.805 12.183574
55.810 12.425131
55.815 12.522249
55.820 13.148498
55.825 12.997822
55.830 12.260931
55.835 12.178968
55.840 11.905365
55.845 12.069959
55.850 12.442293
55.855 11.961365
55.860 11.970457
55.865 12.205157
55.870 12.286413
55.875 12.374477
55.880 12.462447
55.885 12.242316
55.890 12.703831
55.895 12.870668
55.900 12.764193
55.905 12.336367
55.910 12.086587
55.915 11.877225
55.920 11.802108
55.925 11.609056
55.930 11.933871
55.935 12.15768
55.940 12.107789
55.945 11.857572
55.950 11.604925
55.955 11.301151
55.960 10.959331
55.965 10.265469
55.970 10.626801
55.975 10.480845
55.980 10.580417
55.985 10.381307
55.990 10.578588
55.995 10.588556
56.000 10.725791
56.005 10.265399
56.010 10.630086
56.015 10.404115
56.020 10.790812
56.025 11.155146
56.030 11.314835
56.035 11.592842
56.040 11.972037
56.045 12.141896
56.050 13.050679
56.055 12.964314
56.060 12.387548
56.065 12.472201
56.070 12.554114
56.075 12.682758
56.080 12.831785
56.085 12.236433
56.090 12.481237
56.095 13.113877
56.100 12.816841
56.105 12.975302
56.110 13.155226
56.115 13.123103
56.120 13.109964
56.125 12.805775
56.130 12.572138
56.135 13.012251
56.140 12.614647
56.145 12.119253
56.150 11.443714
56.155 11.090378
56.160 10.854342
56.165 10.980947
56.170 10.797599
56.175 10.833455
56.180 10.898451
56.185 10.93135
56.190 11.309926
56.195 11.459886
56.200 11.629595
56.205 11.842669
56.210 11.96483
56.215 12.781152
56.220 13.719186
56.225 14.121552
56.230 14.470306
56.235 14.202313
56.240 14.713511
56.245 14.95928
56.250 13.664196
56.255 13.301409
56.260 13.086451
56.265 13.314081
56.270 13.325317
56.275 12.672172
56.280 12.463577
56.285 12.811357
56.290 12.387101
56.295 12.219065
56.300 11.885085
56.305 11.824491
56.310 11.787367
56.315 12.142685
56.320 12.461779
56.325 13.146108
56.330 13.501042
56.335 13.469493
56.340 13.662115
56.345 13.965471
56.350 13.694778
56.355 13.516607
56.360 13.618514
56.365 13.077373
56.370 13.142484
56.375 13.164284
56.380 13.265193
56.385 13.223757
56.390 13.282407
56.395 12.906986
56.400 12.883182
56.405 12.825358
56.410 12.861725
56.415 12.825525
56.420 12.819786
56.425 13.231353
56.430 13.560852
56.435 13.795912
56.440 13.6054
56.445 13.159095
56.450 13.094467
56.455 13.320428
56.460 12.956693
56.465 13.018112
56.470 12.803247
56.475 12.444963
56.480 12.323054
56.485 11.798374
56.490 11.873669
56.495 11.777229
56.500 11.720487
56.505 12.101391
56.510 12.654076
56.515 12.994628
56.520 13.509207
56.525 13.262377
56.530 13.139013
56.535 13.053414
56.540 13.064649
56.545 12.634053
56.550 12.53119
56.555 12.541387
56.560 12.575527
56.565 12.848577
56.570 12.549848
56.575 12.41021
56.580 12.53595
56.585 11.960631
56.590 11.735129
56.595 11.633127
56.600 11.683932
56.605 11.582017
56.610 11.361828
56.615 11.42175
56.620 11.665378
56.625 11.59537
56.630 11.736078
56.635 11.975706
56.640 12.520299
56.645 12.554673
56.650 12.39543
56.655 12.485196
56.660 12.359076
56.665 12.137075
56.670 11.731185
56.675 11.904862
56.680 12.147354
56.685 12.404637
56.690 12.615536
56.695 12.76052
56.700 12.804665
56.705 13.037833
56.710 13.569659
56.715 13.863435
56.720 13.840561
56.725 13.920316
56.730 14.363369
56.735 14.384865
56.740 13.80671
56.745 13.58917
56.750 14.030508
56.755 14.162124
56.760 14.225661
56.765 14.01986
56.770 14.473083
56.775 15.104489
56.780 14.833285
56.785 14.324102
56.790 14.317
56.795 14.325381
56.800 14.24896
56.805 13.911681
56.810 13.68927
56.815 13.443048
56.820 13.389783
56.825 13.32509
56.830 13.105539
56.835 13.570476
56.840 13.531013
56.845 13.260208
56.850 13.180746
56.855 13.206622
56.860 13.336014
56.865 13.369524
56.870 13.312698
56.875 13.596184
56.880 13.601106
56.885 13.817619
56.890 14.261516
56.895 14.313719
56.900 14.272727
56.905 14.073618
56.910 14.209078
56.915 14.498724
56.920 13.970973
56.925 13.454856
56.930 13.308689
56.935 13.317345
56.940 13.429191
56.945 12.840835
56.950 12.76643
56.955 12.95555
56.960 12.974761
56.965 13.281432
56.970 13.445431
56.975 13.228187
56.980 13.470477
56.985 13.088218
56.990 13.475355
56.995 13.698458
57.000 13.708488
57.005 13.379959
57.010 13.15184
57.015 13.685416
57.020 14.386126
57.025 14.612067
57.030 14.305273
57.035 14.046763
57.040 14.468362
57.045 14.620019
57.050 14.164174
57.055 13.706907
57.060 13.095262
57.065 13.016691
57.070 12.695934
57.075 12.431147
57.080 12.645902
57.085 12.726192
57.090 12.883248
57.095 12.927218
57.100 13.335684
57.105 14.097744
57.110 14.054155
57.115 14.145202
57.120 13.918748
57.125 13.946945
57.130 13.88491
57.135 13.427235
57.140 13.072526
57.145 13.127014
57.150 12.979233
57.155 13.361632
57.160 13.600884
57.165 14.044245
57.170 14.188435
57.175 14.487973
57.180 14.908058
57.185 14.42699
57.190 14.512732
57.195 14.594954
57.200 14.150304
57.205 14.175367
57.210 13.591928
57.215 13.35262
57.220 13.209877
57.225 12.632419
57.230 12.460829
57.235 12.890642
57.240 13.022017
57.245 13.496809
57.250 13.475218
57.255 13.852356
57.260 14.078608
57.265 13.592212
57.270 13.262385
57.275 13.042411
57.280 12.578958
57.285 12.165458
57.290 12.748569
57.295 13.184384
57.300 13.724102
57.305 13.563871
57.310 13.948633
57.315 14.347498
57.320 14.820155
57.325 14.477356
57.330 14.157591
57.335 13.723343
57.340 13.913173
57.345 13.744226
57.350 13.848866
57.355 13.268259
57.360 12.776358
57.365 12.605165
57.370 12.925937
57.375 13.036298
57.380 13.154375
57.385 12.931718
57.390 13.296704
57.395 13.422164
57.400 13.665339
57.405 13.658893
57.410 13.89537
57.415 13.80032
57.420 14.145082
57.425 14.609575
57.430 14.963516
57.435 14.714865
57.440 14.647399
57.445 14.813354
57.450 15.313128
57.455 15.181685
57.460 15.224953
57.465 15.30142
57.470 15.663645
57.475 16.036865
57.480 15.801234
57.485 15.400965
57.490 15.098691
57.495 14.93593
57.500 14.756731
57.505 14.020481
57.510 13.563692
57.515 13.300186
57.520 13.214943
57.525 13.170268
57.530 13.025362
57.535 12.988221
57.540 13.620336
57.545 13.838943
57.550 14.075343
57.555 14.45402
57.560 15.014668
57.565 15.144741
57.570 15.814601
57.575 15.985247
57.580 16.094006
57.585 16.281107
57.590 15.771117
57.595 15.85072
57.600 15.992249
57.605 15.53712
57.610 15.630803
57.615 16.319042
57.620 16.404022
57.625 16.704277
57.630 16.480356
57.635 16.226122
57.640 16.120329
57.645 15.416036
57.650 14.500051
57.655 14.447372
57.660 14.536696
57.665 14.928446
57.670 15.103024
57.675 15.459606
57.680 15.572651
57.685 15.701423
57.690 16.038649
57.695 16.057392
57.700 15.957962
57.705 16.145103
57.710 16.025221
57.715 16.374975
57.720 17.045092
57.725 16.822086
57.730 17.57246
57.735 17.645882
57.740 17.315306
57.745 17.119186
57.750 17.03229
57.755 16.638769
57.760 16.657349
57.765 15.695669
57.770 15.187773
57.775 15.476164
57.780 15.156898
57.785 14.736297
57.790 14.386015
57.795 14.412766
57.800 14.953028
57.805 14.820621
57.810 14.935999
57.815 15.083874
57.820 14.971798
57.825 15.142536
57.830 14.624503
57.835 13.926595
57.840 14.092951
57.845 14.352204
57.850 14.802965
57.855 14.934761
57.860 15.243189
57.865 16.23704
57.870 16.886753
57.875 16.995377
57.880 16.515362
57.885 16.491838
57.890 16.693624
57.895 16.458687
57.900 15.452356
57.905 15.159367
57.910 15.085416
57.915 15.106272
57.920 14.961866
57.925 14.70955
57.930 14.483212
57.935 14.602114
57.940 15.0945
57.945 15.401514
57.950 15.511182
57.955 15.518891
57.960 15.359968
57.965 15.509416
57.970 16.297985
57.975 16.575113
57.980 16.663757
57.985 16.88875
57.990 17.288111
57.995 18.035017
58.000 17.949789
58.005 17.523773
58.010 16.66909
58.015 16.059881
58.020 15.558956
58.025 15.396218
58.030 14.942239
58.035 15.084644
58.040 15.621044
58.045 15.97822
58.050 16.03018
58.055 16.383448
58.060 16.521786
58.065 16.653519
58.070 16.510223
58.075 16.245844
58.080 16.260387
58.085 16.838188
58.090 16.652784
58.095 16.591686
58.100 16.925879
58.105 17.150373
58.110 16.741371
58.115 16.702589
58.120 17.035366
58.125 17.050827
58.130 17.491127
58.135 17.55401
58.140 17.711113
58.145 17.986341
58.150 18.279097
58.155 17.961887
58.160 18.38225
58.165 18.418352
58.170 19.003983
58.175 19.180449
58.180 19.252117
58.185 19.188931
58.190 19.579004
58.195 19.237848
58.200 19.018797
58.205 18.400232
58.210 18.639013
58.215 18.51277
58.220 18.542709
58.225 17.797373
58.230 17.665987
58.235 17.4079
58.240 17.884689
58.245 18.000568
58.250 18.121428
58.255 18.371023
58.260 18.79434
58.265 19.067341
58.270 18.697365
58.275 18.54178
58.280 18.715048
58.285 19.262356
58.290 19.764492
58.295 20.501781
58.300 21.19462
58.305 21.801369
58.310 21.284719
58.315 21.1528
58.320 21.389225
58.325 21.184626
58.330 20.947823
58.335 21.162487
58.340 22.200182
58.345 23.144287
58.350 23.634302
58.355 23.704914
58.360 23.739752
58.365 23.767357
58.370 23.587376
58.375 23.257401
58.380 23.254946
58.385 23.534008
58.390 23.865032
58.395 24.639534
58.400 25.35688
58.405 25.807285
58.410 26.595304
58.415 27.262016
58.420 27.932943
58.425 28.340862
58.430 27.545109
58.435 27.221292
58.440 27.695648
58.445 27.745819
58.450 26.998852
58.455 26.417551
58.460 25.949921
58.465 26.709858
58.470 27.117769
58.475 26.617643
58.480 26.883369
58.485 27.769566
58.490 28.347296
58.495 29.5389
58.500 30.291626
58.505 30.291412
58.510 30.597954
58.515 30.366198
58.520 30.830416
58.525 31.643084
58.530 30.535999
58.535 29.995443
58.540 30.493092
58.545 30.50308
58.550 31.025263
58.555 31.069107
58.560 31.079611
58.565 31.930044
58.570 31.690931
58.575 30.939058
58.580 31.132685
58.585 30.976543
58.590 31.211964
58.595 31.587969
58.600 31.720377
58.605 31.904728
58.610 32.068756
58.615 31.655802
58.620 31.449183
58.625 30.477192
58.630 29.450228
58.635 28.751255
58.640 29.002398
58.645 29.183813
58.650 28.984001
58.655 28.810017
58.660 28.789303
58.665 29.394766
58.670 28.667763
58.675 27.316351
58.680 27.055653
58.685 26.533245
58.690 26.278315
58.695 26.588213
58.700 26.120834
58.705 27.050814
58.710 27.645922
58.715 27.798723
58.720 27.809643
58.725 27.172165
58.730 25.746695
58.735 24.280653
58.740 24.216454
58.745 24.161625
58.750 24.209009
58.755 24.439266
58.760 25.140732
58.765 25.810457
58.770 26.355095
58.775 26.026531
58.780 25.744164
58.785 24.912241
58.790 24.637135
58.795 23.928755
58.800 23.291752
58.805 23.007353
58.810 22.68475
58.815 22.110153
58.820 22.031887
58.825 22.123039
58.830 21.961189
58.835 21.45035
58.840 21.384783
58.845 21.506027
58.850 21.777428
58.855 21.276512
58.860 21.258171
58.865 21.856108
58.870 21.789061
58.875 21.358709
58.880 20.991686
58.885 21.174461
58.890 21.28686
58.895 20.843658
58.900 19.929373
58.905 19.781132
58.910 19.810638
58.915 19.292105
58.920 18.499222
58.925 18.433924
58.930 18.163887
58.935 17.951298
58.940 17.804844
58.945 17.82424
58.950 17.708208
58.955 17.916027
58.960 17.728348
58.965 17.690908
58.970 18.50177
58.975 19.277748
58.980 18.948368
58.985 18.901743
58.990 18.922548
58.995 18.982218
59.000 19.36718
59.005 18.797064
59.010 18.453199
59.015 19.173189
59.020 19.216467
59.025 19.067055
59.030 18.95907
59.035 18.862778
59.040 19.63274
59.045 19.941044
59.050 19.840532
59.055 20.491373
59.060 21.036701
59.065 20.908052
59.070 20.914204
59.075 20.263121
59.080 19.593868
59.085 19.228979
59.090 18.793486
59.095 18.551962
59.100 18.403185
59.105 18.419386
59.110 18.433987
59.115 18.181625
59.120 18.648598
59.125 18.52869
59.130 18.53499
59.135 18.54092
59.140 18.186192
59.145 18.295631
59.150 18.393614
59.155 18.255377
59.160 18.041229
59.165 17.864721
59.170 17.689623
59.175 17.752808
59.180 17.48114
59.185 17.459684
59.190 17.194324
59.195 17.75333
59.200 17.909294
59.205 17.839439
59.210 17.878553
59.215 17.848866
59.220 17.551319
59.225 17.009007
59.230 16.89303
59.235 16.759344
59.240 16.896753
59.245 16.548056
59.250 15.81476
59.255 15.568696
59.260 15.65294
59.265 15.482571
59.270 15.613028
59.275 15.178773
59.280 15.306135
59.285 15.903296
59.290 16.481861
59.295 16.777197
59.300 16.562685
59.305 16.67943
59.310 17.065857
59.315 16.78723
59.320 17.233166
59.325 17.293036
59.330 16.791815
59.335 17.01367
59.340 16.785707
59.345 16.530743
59.350 16.369455
59.355 15.709079
59.360 15.113032
59.365 15.237497
59.370 15.284639
59.375 15.049203
59.380 14.984787
59.385 15.099303
59.390 15.865091
59.395 15.840179
59.400 15.811229
59.405 15.632319
59.410 15.746112
59.415 15.922167
59.420 15.629851
59.425 15.222744
59.430 15.155205
59.435 14.596797
59.440 14.346795
59.445 14.41377
59.450 14.490973
59.455 14.618334
59.460 14.455603
59.465 14.163948
59.470 14.507364
59.475 14.685627
59.480 14.490172
59.485 14.572578
59.490 15.194089
59.495 15.550472
59.500 15.802374
59.505 15.968034
59.510 16.252134
59.515 16.456779
59.520 16.448776
59.525 15.366992
59.530 15.073912
59.535 14.914832
59.540 14.684346
59.545 14.272785
59.550 14.156028
59.555 14.318302
59.560 14.936241
59.565 15.372029
59.570 15.766667
59.575 15.795281
59.580 15.94497
59.585 15.890642
59.590 15.728964
59.595 15.456722
59.600 14.839237
59.605 14.702592
59.610 15.043466
59.615 15.394028
59.620 15.353862
59.625 14.998625
59.630 14.732525
59.635 15.150224
59.640 15.200309
59.645 15.059477
59.650 14.831451
59.655 14.7125
59.660 14.473625
59.665 14.318774
59.670 13.577657
59.675 13.678057
59.680 13.754966
59.685 13.562561
59.690 14.024705
59.695 14.778459
59.700 15.394111
59.705 15.836883
59.710 15.540446
59.715 15.258101
59.720 15.699942
59.725 15.578499
59.730 15.738663
59.735 16.106363
59.740 16.012659
59.745 15.94261
59.750 16.196726
59.755 16.13801
59.760 16.167234
59.765 16.040283
59.770 15.609758
59.775 15.571198
59.780 15.619887
59.785 15.530371
59.790 15.461352
59.795 15.673207
59.800 15.642255
59.805 15.701235
59.810 15.927947
59.815 16.511856
59.820 16.585096
59.825 16.455154
59.830 16.117504
59.835 16.00852
59.840 16.526075
59.845 17.026947
59.850 16.538294
59.855 16.359987
59.860 16.472521
59.865 16.789928
59.870 17.055096
59.875 16.404724
59.880 15.868558
59.885 15.749566
59.890 16.152678
59.895 16.225187
59.900 15.788121
59.905 15.938027
59.910 15.611567
59.915 15.453697
59.920 15.344932
59.925 14.831608
59.930 14.115077
59.935 13.711498
59.940 13.821431
59.945 14.858304
59.950 14.855936
59.955 14.87459
59.960 15.074481
59.965 15.722252
59.970 16.283405
59.975 16.111523
59.980 15.600318
59.985 15.527011
59.990 15.713937
59.995 16.11355
60.000 16.599655
60.005 15.977457
60.010 15.622698
60.015 15.89926
60.020 16.304073
60.025 16.503334
60.030 16.233469
60.035 16.26832
60.040 16.871647
60.045 17.45505
60.050 17.442373
60.055 17.64278
60.060 17.746477
60.065 18.039251
60.070 17.648586
60.075 17.306854
60.080 17.167284
60.085 17.25001
60.090 17.365635
60.095 16.976799
60.100 16.235191
60.105 16.102493
60.110 16.00337
60.115 15.800431
60.120 15.523631
60.125 15.518381
60.130 15.593138
60.135 15.728932
60.140 15.457863
60.145 14.880073
60.150 14.27487
60.155 14.254932
60.160 14.25562
60.165 14.537067
60.170 14.422754
60.175 14.517254
60.180 14.823462
60.185 15.509846
60.190 15.675265
60.195 14.962145
60.200 14.661562
60.205 14.652974
60.210 15.184793
60.215 15.71123
60.220 15.328707
60.225 14.658125
60.230 14.515022
60.235 15.085286
60.240 15.874595
60.245 15.381741
60.250 15.656499
60.255 16.04949
60.260 16.445942
60.265 16.615883
60.270 16.171791
60.275 15.955767
60.280 16.426197
60.285 15.816977
60.290 15.34572
60.295 15.498795
60.300 15.208451
60.305 15.416306
60.310 15.614284
60.315 15.936037
60.320 16.103199
60.325 16.123264
60.330 15.964061
60.335 16.677851
60.340 16.419519
60.345 16.31159
60.350 16.181463
60.355 16.06143
60.360 15.965147
60.365 15.769416
60.370 15.273929
60.375 14.636416
60.380 14.069873
60.385 13.940785
60.390 13.814184
60.395 14.234089
60.400 14.487215
60.405 14.42458
60.410 14.762079
60.415 14.781972
60.420 15.074089
60.425 15.405284
60.430 15.590952
60.435 15.853944
60.440 16.412216
60.445 16.648605
60.450 16.653629
60.455 16.264057
60.460 16.204638
60.465 16.25771
60.470 16.474955
60.475 16.698574
60.480 17.075157
60.485 17.169703
60.490 16.771233
60.495 16.301645
60.500 15.670499
60.505 15.47226
60.510 15.097034
60.515 14.605758
60.520 14.530435
60.525 14.535613
60.530 14.891137
60.535 14.85755
60.540 14.593615
60.545 14.64479
60.550 14.205947
60.555 14.178138
60.560 14.247421
60.565 14.433829
60.570 14.529058
60.575 15.083306
60.580 14.991445
60.585 15.629014
60.590 16.300953
60.595 16.97669
60.600 16.71208
60.605 16.663504
60.610 16.019886
60.615 16.478235
60.620 17.02216
60.625 16.871565
60.630 16.345112
60.635 16.173775
60.640 16.43325
60.645 16.556393
60.650 16.345957
60.655 15.807452
60.660 15.351617
60.665 15.219954
60.670 15.498528
60.675 15.485489
60.680 15.444152
60.685 15.233471
60.690 15.546963
60.695 16.205606
60.700 16.739971
60.705 16.461372
60.710 16.038055
60.715 16.198948
60.720 16.351793
60.725 16.077669
60.730 15.824453
60.735 15.908916
60.740 16.344564
60.745 16.822966
60.750 16.91643
60.755 17.401554
60.760 17.708765
60.765 17.58563
60.770 17.101778
60.775 16.598114
60.780 16.580259
60.785 16.826109
60.790 16.238264
60.795 16.03161
60.800 15.9013
60.805 15.772092
60.810 15.971749
60.815 15.100466
60.820 14.719584
60.825 14.766789
60.830 15.229928
60.835 15.710537
60.840 15.869845
60.845 16.317936
60.850 17.081553
60.855 17.427423
60.860 17.528469
60.865 17.063622
60.870 16.86471
60.875 16.987494
60.880 16.528477
60.885 16.332975
60.890 15.601205
60.895 15.097429
60.900 14.893227
60.905 14.561888
60.910 14.255463
60.915 14.305404
60.920 14.4241
60.925 14.726389
60.930 15.127769
60.935 15.216545
60.940 15.736753
60.945 16.371935
60.950 16.292332
60.955 16.197802
60.960 16.293371
60.965 16.376844
60.970 16.297997
60.975 16.039555
60.980 15.619799
60.985 15.62806
60.990 15.286706
60.995 15.138013
61.000 15.500296
61.005 16.023682
61.010 16.183395
61.015 15.780702
61.020 15.839979
61.025 15.858536
61.030 15.814558
61.035 15.409554
61.040 15.398659
61.045 15.528199
61.050 15.91521
61.055 15.658396
61.060 15.878037
61.065 15.961007
61.070 15.909069
61.075 15.671663
61.080 15.596354
61.085 15.875914
61.090 16.13102
61.095 15.975209
61.100 15.969156
61.105 16.253496
61.110 16.169333
61.115 16.002895
61.120 16.170767
61.125 16.261879
61.130 16.011894
61.135 15.796473
61.140 15.378843
61.145 15.594854
61.150 15.809548
61.155 15.459775
61.160 15.092748
61.165 15.303098
61.170 15.352808
61.175 15.881085
61.180 15.712152
61.185 15.233253
61.190 15.305012
61.195 15.249969
61.200 15.546716
61.205 15.681674
61.210 15.279879
61.215 15.777124
61.220 15.955907
61.225 16.217539
61.230 16.637047
61.235 16.29299
61.240 15.955068
61.245 15.913627
61.250 15.753009
61.255 15.742591
61.260 15.458846
61.265 15.062678
61.270 15.478959
61.275 15.587768
61.280 15.502645
61.285 15.282858
61.290 15.344854
61.295 15.681291
61.300 15.633718
61.305 15.333392
61.310 15.273943
61.315 15.549521
61.320 15.807717
61.325 15.739098
61.330 15.470374
61.335 15.824676
61.340 15.729637
61.345 15.705007
61.350 15.454222
61.355 15.519385
61.360 15.881382
61.365 16.165056
61.370 16.439211
61.375 15.852633
61.380 16.484055
61.385 17.095245
61.390 17.389494
61.395 17.07234
61.400 16.86993
61.405 16.863352
61.410 17.673288
61.415 17.215557
61.420 16.371567
61.425 15.602157
61.430 15.871313
61.435 15.554167
61.440 15.056712
61.445 14.944448
61.450 14.963511
61.455 15.042724
61.460 15.114964
61.465 14.873543
61.470 15.18434
61.475 15.339044
61.480 15.315376
61.485 15.380916
61.490 15.576085
61.495 15.321386
61.500 15.381525
61.505 15.488574
61.510 15.360397
61.515 15.394846
61.520 15.505596
61.525 15.911363
61.530 16.19729
61.535 16.231409
61.540 16.338634
61.545 16.931271
61.550 17.425602
61.555 17.740932
61.560 17.40732
61.565 17.595388
61.570 17.542755
61.575 17.599646
61.580 16.809393
61.585 16.079401
61.590 15.61543
61.595 15.368156
61.600 15.112527
61.605 15.420279
61.610 15.17415
61.615 15.819613
61.620 15.890226
61.625 15.491165
61.630 15.990219
61.635 16.052246
61.640 15.755193
61.645 15.520504
61.650 15.0884
61.655 15.285805
61.660 16.158915
61.665 15.91403
61.670 16.155937
61.675 16.351051
61.680 16.78858
61.685 16.660542
61.690 16.443279
61.695 16.186937
61.700 16.297802
61.705 16.459572
61.710 16.122917
61.715 15.800412
61.720 15.719733
61.725 16.089231
61.730 16.2974
61.735 16.444735
61.740 16.239853
61.745 16.308798
61.750 16.371269
61.755 16.500822
61.760 16.507254
61.765 16.279646
61.770 16.442547
61.775 16.656107
61.780 16.821424
61.785 17.209299
61.790 17.433949
61.795 17.898018
61.800 17.847897
61.805 17.699482
61.810 17.389154
61.815 17.357847
61.820 17.235062
61.825 17.493982
61.830 16.994898
61.835 16.958363
61.840 17.115198
61.845 16.940449
61.850 16.569689
61.855 16.260931
61.860 16.072929
61.865 15.830218
61.870 15.891402
61.875 15.549251
61.880 15.846134
61.885 16.641541
61.890 17.50802
61.895 17.475491
61.900 17.811419
61.905 18.362566
61.910 18.88608
61.915 18.419516
61.920 17.809292
61.925 17.177475
61.930 16.872429
61.935 16.299059
61.940 15.571433
61.945 15.363238
61.950 15.657987
61.955 15.730274
61.960 15.541282
61.965 15.43868
61.970 15.535231
61.975 15.44227
61.980 15.217841
61.985 15.262601
61.990 15.136256
61.995 15.182641
62.000 15.827611
62.005 16.01037
62.010 16.105774
62.015 16.162561
62.020 15.96945
62.025 15.88973
62.030 15.611256
62.035 15.554145
62.040 15.616158
62.045 15.496787
62.050 15.223362
62.055 15.268965
62.060 15.818294
62.065 15.982656
62.070 15.733005
62.075 15.833695
62.080 16.054195
62.085 16.188303
62.090 16.069555
62.095 15.577944
62.100 15.339998
62.105 15.280573
62.110 15.595942
62.115 15.745206
62.120 15.572796
62.125 15.527357
62.130 15.812514
62.135 17.096186
62.140 17.387999
62.145 16.563896
62.150 16.475441
62.155 16.707581
62.160 17.077866
62.165 16.993143
62.170 16.382778
62.175 16.217409
62.180 16.352081
62.185 16.387594
62.190 16.893145
62.195 16.809927
62.200 16.589674
62.205 16.206749
62.210 16.286278
62.215 16.902742
62.220 17.003904
62.225 17.025373
62.230 16.890568
62.235 17.103624
62.240 17.101637
62.245 17.461376
62.250 17.156124
62.255 16.827677
62.260 16.416512
62.265 16.574432
62.270 16.478466
62.275 16.686462
62.280 15.781608
62.285 16.039577
62.290 16.217546
62.295 16.324574
62.300 16.660988
62.305 16.188887
62.310 16.012114
62.315 16.138988
62.320 16.022942
62.325 15.843945
62.330 15.849624
62.335 15.16157
62.340 15.252882
62.345 15.719092
62.350 16.347075
62.355 16.159266
62.360 16.46509
62.365 16.454277
62.370 16.749056
62.375 16.535662
62.380 16.015961
62.385 15.70836
62.390 15.325966
62.395 15.014193
62.400 15.505542
62.405 15.829328
62.410 16.065113
62.415 16.363451
62.420 16.766962
62.425 17.521294
62.430 17.81378
62.435 17.691154
62.440 17.613972
62.445 17.867886
62.450 18.510561
62.455 18.444368
62.460 18.544086
62.465 18.766655
62.470 18.748262
62.475 18.905602
62.480 18.685747
62.485 17.828901
62.490 17.231018
62.495 16.647366
62.500 16.424715
62.505 16.31736
62.510 16.583847
62.515 16.749924
62.520 16.685865
62.525 16.641476
62.530 16.811836
62.535 16.482418
62.540 16.609962
62.545 16.368668
62.550 16.128847
62.555 16.525824
62.560 16.875677
62.565 16.81595
62.570 16.848618
62.575 16.413961
62.580 16.428993
62.585 16.908714
62.590 16.504864
62.595 16.442554
62.600 16.532711
62.605 17.036301
62.610 17.368937
62.615 17.59857
62.620 17.89292
62.625 18.467325
62.630 18.837053
62.635 18.502316
62.640 17.918179
62.645 17.093842
62.650 16.670786
62.655 16.272099
62.660 16.624237
62.665 16.288
62.670 16.433695
62.675 16.614084
62.680 16.82724
62.685 16.881338
62.690 16.723751
62.695 16.166779
62.700 15.626182
62.705 15.507777
62.710 15.583918
62.715 15.673423
62.720 15.769901
62.725 16.103359
62.730 16.092205
62.735 16.574217
62.740 16.424671
62.745 17.022118
62.750 17.292318
62.755 17.118334
62.760 17.213087
62.765 17.29261
62.770 17.219009
62.775 17.351391
62.780 17.232353
62.785 16.977171
62.790 16.793245
62.795 16.420551
62.800 16.637636
62.805 16.735069
62.810 16.503326
62.815 15.843958
62.820 15.846905
62.825 15.760913
62.830 15.768617
62.835 15.730312
62.840 16.125381
62.845 16.833565
62.850 17.782671
62.855 17.689152
62.860 17.772839
62.865 17.524342
62.870 17.430019
62.875 16.885376
62.880 16.417057
62.885 16.043285
62.890 16.178699
62.895 16.084906
62.900 16.521233
62.905 16.600176
62.910 17.035145
62.915 16.867834
62.920 16.65123
62.925 16.647669
62.930 16.597187
62.935 15.837488
62.940 15.762976
62.945 15.020783
62.950 14.834797
62.955 14.939026
62.960 14.946523
62.965 14.649421
62.970 15.095019
62.975 15.524241
62.980 15.907281
62.985 16.387691
62.990 16.450089
62.995 17.039852
63.000 17.997301
63.005 18.425789
63.010 18.463024
63.015 18.347546
63.020 18.324184
63.025 18.811829
63.030 18.2523
63.035 17.984909
63.040 17.767832
63.045 17.677149
63.050 17.533817
63.055 16.795437
63.060 16.479834
63.065 17.148809
63.070 17.394056
63.075 17.691044
63.080 17.260824
63.085 17.638742
63.090 17.825497
63.095 17.706717
63.100 17.578087
63.105 17.915546
63.110 17.358852
63.115 17.870214
63.120 18.137505
63.125 18.581041
63.130 18.612507
63.135 18.471756
63.140 18.294485
63.145 18.627428
63.150 18.495916
63.155 18.41398
63.160 17.801754
63.165 17.530891
63.170 17.15625
63.175 16.856361
63.180 16.887079
63.185 17.194481
63.190 17.17927
63.195 17.258961
63.200 17.287407
63.205 17.232485
63.210 17.284082
63.215 16.912891
63.220 16.194365
63.225 15.848473
63.230 16.248898
63.235 16.5002
63.240 16.460558
63.245 16.319633
63.250 17.084057
63.255 17.609013
63.260 17.896219
63.265 17.471615
63.270 17.58234
63.275 17.655178
63.280 17.459396
63.285 16.965979
63.290 17.064291
63.295 17.55744
63.300 17.804253
63.305 17.438681
63.310 18.004993
63.315 18.793783
63.320 18.888821
63.325 18.830933
63.330 18.113478
63.335 18.483366
63.340 18.605076
63.345 18.198248
63.350 17.953291
63.355 18.051538
63.360 18.33387
63.365 18.865473
63.370 18.573277
63.375 18.206656
63.380 18.346468
63.385 17.779215
63.390 17.235102
63.395 16.875967
63.400 16.520334
63.405 16.992302
63.410 17.398947
63.415 17.314466
63.420 17.465408
63.425 18.205341
63.430 18.455515
63.435 18.968676
63.440 19.029396
63.445 19.154671
63.450 19.370998
63.455 19.457504
63.460 19.272947
63.465 19.03861
63.470 19.049318
63.475 19.311094
63.480 19.250185
63.485 19.014118
63.490 19.109064
63.495 18.648851
63.500 18.171432
63.505 17.841627
63.510 17.719093
63.515 17.735569
63.520 17.773968
63.525 18.213964
63.530 18.796286
63.535 19.244259
63.540 19.323948
63.545 18.770363
63.550 18.317862
63.555 18.110029
63.560 18.191769
63.565 18.849119
63.570 19.001675
63.575 19.072031
63.580 19.390764
63.585 19.772003
63.590 19.73238
63.595 19.212986
63.600 18.321745
63.605 17.604614
63.610 17.847744
63.615 18.006525
63.620 18.352617
63.625 18.834618
63.630 19.332176
63.635 19.858463
63.640 20.453875
63.645 19.7013
63.650 19.293303
63.655 19.079073
63.660 19.184813
63.665 18.97323
63.670 18.492876
63.675 18.594284
63.680 19.221352
63.685 19.832644
63.690 19.950195
63.695 19.942226
63.700 20.523849
63.705 20.756996
63.710 21.147654
63.715 20.847603
63.720 20.582493
63.725 20.277027
63.730 19.750849
63.735 19.878738
63.740 20.65958
63.745 20.338945
63.750 20.656769
63.755 20.439995
63.760 20.454826
63.765 20.291288
63.770 20.273611
63.775 19.367937
63.780 19.849072
63.785 20.198009
63.790 20.489162
63.795 20.781382
63.800 21.612608
63.805 21.26025
63.810 21.425554
63.815 20.867304
63.820 20.609056
63.825 20.960026
63.830 21.367477
63.835 21.228489
63.840 21.358902
63.845 21.176163
63.850 20.887329
63.855 21.165415
63.860 20.743486
63.865 21.023979
63.870 20.97748
63.875 21.133652
63.880 22.078699
63.885 22.875561
63.890 23.494471
63.895 24.129761
63.900 24.126633
63.905 25.187384
63.910 25.894482
63.915 25.787785
63.920 25.593554
63.925 25.363636
63.930 25.023373
63.935 25.419704
63.940 25.15403
63.945 25.732834
63.950 26.231815
63.955 26.127731
63.960 26.59063
63.965 27.346804
63.970 26.720516
63.975 26.677153
63.980 26.363476
63.985 26.525032
63.990 27.411715
63.995 28.214437
64.000 28.723728
64.005 29.707947
64.010 30.627047
64.015 31.456488
64.020 32.215015
64.025 32.40453
64.030 32.19154
64.035 31.761864
64.040 31.690802
64.045 31.828585
64.050 31.930836
64.055 31.82626
64.060 31.213402
64.065 31.52737
64.070 32.581352
64.075 32.651985
64.080 32.831673
64.085 33.396473
64.090 33.946224
64.095 34.779739
64.100 34.782131
64.105 34.798149
64.110 35.277046
64.115 35.151234
64.120 35.577431
64.125 36.03302
64.130 36.210461
64.135 36.379417
64.140 36.272583
64.145 37.044884
64.150 37.173759
64.155 36.814266
64.160 36.429348
64.165 36.051239
64.170 36.106506
64.175 35.685688
64.180 34.838169
64.185 34.573738
64.190 35.561886
64.195 36.821308
64.200 37.62035
64.205 36.941185
64.210 36.711685
64.215 36.591244
64.220 36.544575
64.225 35.942036
64.230 35.358051
64.235 34.9133
64.240 35.875477
64.245 36.06834
64.250 36.161411
64.255 36.20076
64.260 35.823486
64.265 35.353859
64.270 35.086342
64.275 34.530777
64.280 34.671188
64.285 34.77998
64.290 34.833389
64.295 34.710506
64.300 34.615101
64.305 34.883373
64.310 35.17421
64.315 35.025646
64.320 34.419834
64.325 33.657787
64.330 33.52071
64.335 33.315891
64.340 33.583073
64.345 33.548725
64.350 33.961422
64.355 34.194126
64.360 34.267551
64.365 34.186958
64.370 34.281025
64.375 33.378574
64.380 33.024475
64.385 32.288197
64.390 32.268764
64.395 32.671364
64.400 33.549828
64.405 33.270885
64.410 33.172115
64.415 32.813946
64.420 32.727623
64.425 32.940659
64.430 32.517143
64.435 31.664631
64.440 31.964045
64.445 32.238895
64.450 32.772869
64.455 32.421394
64.460 31.711992
64.465 30.690191
64.470 29.888947
64.475 29.282354
64.480 29.074072
64.485 28.882671
64.490 29.289448
64.495 29.388666
64.500 29.131777
64.505 29.316282
64.510 28.902124
64.515 27.76671
64.520 27.155727
64.525 26.604189
64.530 26.514496
64.535 26.389189
64.540 25.53183
64.545 25.60165
64.550 25.764244
64.555 26.240885
64.560 26.236439
64.565 26.413527
64.570 26.292152
64.575 26.447435
64.580 26.295597
64.585 26.102043
64.590 25.414783
64.595 24.828651
64.600 23.853573
64.605 23.276194
64.610 22.730751
64.615 22.708326
64.620 23.108587
64.625 23.662153
64.630 23.847065
64.635 24.060635
64.640 24.145573
64.645 24.050129
64.650 23.23856
64.655 22.708242
64.660 22.190823
64.665 22.61849
64.670 22.490131
64.675 22.047348
64.680 22.115929
64.685 22.027296
64.690 21.721716
64.695 21.344252
64.700 20.679462
64.705 20.602018
64.710 20.988253
64.715 22.066765
64.720 22.483734
64.725 22.180288
64.730 22.741554
64.735 23.064716
64.740 23.809525
64.745 24.291271
64.750 23.902573
64.755 23.778337
64.760 24.032408
64.765 23.674299
64.770 23.283825
64.775 22.438801
64.780 22.635426
64.785 22.623861
64.790 22.811924
64.795 23.346231
64.800 23.133785
64.805 23.427248
64.810 23.520449
64.815 22.464041
64.820 21.859978
64.825 21.354994
64.830 20.331188
64.835 20.02993
64.840 19.215504
64.845 18.89641
64.850 18.756031
64.855 19.050938
64.860 19.20211
64.865 19.439356
64.870 20.075647
64.875 20.536791
64.880 20.991247
64.885 21.571865
64.890 21.60582
64.895 22.323921
64.900 22.777168
64.905 22.540739
64.910 22.334511
64.915 21.997349
64.920 21.997452
64.925 21.765768
64.930 20.880096
64.935 20.496044
64.940 20.75374
64.945 21.104713
64.950 21.332998
64.955 21.249697
64.960 20.964502
64.965 21.588003
64.970 21.792341
64.975 21.945274
64.980 22.132414
64.985 21.871933
64.990 21.765709
64.995 22.364117
65.000 22.48284
65.005 22.857019
65.010 22.718918
65.015 22.548429
65.020 22.644558
65.025 22.325827
65.030 21.816448
65.035 21.745096
65.040 21.126104
65.045 20.763256
65.050 20.653347
65.055 20.770426
65.060 21.722006
65.065 21.852503
65.070 21.935261
65.075 22.358507
65.080 22.461794
65.085 22.448229
65.090 22.418329
65.095 22.604692
65.100 22.482029
65.105 22.065557
65.110 22.361444
65.115 22.999737
65.120 23.102045
65.125 23.344496
65.130 23.712231
65.135 24.435917
65.140 24.32663
65.145 23.458748
65.150 23.141655
65.155 22.565516
65.160 21.660217
65.165 21.058949
65.170 20.387489
65.175 20.313633
65.180 20.517704
65.185 20.135305
65.190 20.754196
65.195 21.193985
65.200 21.680168
65.205 21.84511
65.210 21.353899
65.215 21.196049
65.220 20.957964
65.225 20.159542
65.230 19.9424
65.235 19.479521
65.240 19.476978
65.245 19.980276
65.250 20.494329
65.255 20.955479
65.260 21.649187
65.265 21.749237
65.270 21.625031
65.275 21.617128
65.280 21.598827
65.285 21.522707
65.290 22.071096
65.295 22.225304
65.300 22.404686
65.305 22.394707
65.310 22.74649
65.315 22.61014
65.320 22.64801
65.325 22.82349
65.330 22.799788
65.335 22.885105
65.340 23.403328
65.345 23.767071
65.350 23.950987
65.355 23.500711
65.360 23.339544
65.365 23.308613
65.370 23.109867
65.375 22.568769
65.380 22.54133
65.385 22.840479
65.390 22.622318
65.395 22.663887
65.400 22.672974
65.405 22.921539
65.410 22.972151
65.415 23.091923
65.420 22.966671
65.425 23.234957
65.430 23.402271
65.435 23.465649
65.440 23.735094
65.445 24.223942
65.450 23.786436
65.455 23.848852
65.460 24.110085
65.465 23.600498
65.470 23.981594
65.475 24.227085
65.480 24.40696
65.485 25.524086
65.490 26.170786
65.495 26.435068
65.500 26.918709
65.505 26.954412
65.510 27.451967
65.515 27.763243
65.520 27.625912
65.525 27.834606
65.530 27.615728
65.535 27.919767
65.540 28.240288
65.545 27.992203
65.550 28.03199
65.555 28.028034
65.560 28.179642
65.565 28.937054
65.570 29.097731
65.575 29.350986
65.580 30.290913
65.585 30.65126
65.590 30.861504
65.595 30.737604
65.600 30.533333
65.605 31.139006
65.610 32.04158
65.615 31.139992
65.620 31.311848
65.625 31.846392
65.630 31.542574
65.635 31.18013
65.640 30.664612
65.645 29.733204
65.650 30.470451
65.655 30.569141
65.660 30.762205
65.665 32.062317
65.670 32.143707
65.675 32.375599
65.680 32.919346
65.685 32.860912
65.690 33.209908
65.695 33.038128
65.700 32.675819
65.705 32.933514
65.710 33.073536
65.715 33.183773
65.720 32.648834
65.725 32.223801
65.730 32.134964
65.735 32.264618
65.740 32.705585
65.745 32.634163
65.750 32.57214
65.755 33.036732
65.760 33.168377
65.765 34.134373
65.770 35.04007
65.775 34.920792
65.780 35.091496
65.785 35.059723
65.790 35.247086
65.795 35.783791
65.800 35.364731
65.805 34.884541
65.810 35.325886
65.815 35.644573
65.820 36.618229
65.825 36.966137
65.830 36.903488
65.835 37.483181
65.840 37.79557
65.845 38.386909
65.850 38.38242
65.855 38.053162
65.860 38.181797
65.865 38.039112
65.870 37.756779
65.875 37.834755
65.880 37.739735
65.885 38.450085
65.890 38.623489
65.895 38.308224
65.900 37.559879
65.905 36.898483
65.910 37.416031
65.915 37.19276
65.920 36.399265
65.925 36.333401
65.930 36.23695
65.935 37.093369
65.940 37.02029
65.945 35.547562
65.950 35.069214
65.955 35.382988
65.960 36.3386
65.965 36.188046
65.970 36.191589
65.975 36.578423
65.980 37.049194
65.985 37.252102
65.990 36.801369
65.995 36.499348
66.000 36.8223
66.005 36.302773
66.010 36.125401
66.015 35.267082
66.020 35.245415
66.025 35.420387
66.030 35.953564
66.035 36.331837
66.040 36.726681
66.045 36.72163
66.050 36.503105
66.055 36.18409
66.060 35.657188
66.065 34.489601
66.070 34.559502
66.075 34.699043
66.080 35.078285
66.085 35.883438
66.090 36.383087
66.095 36.317085
66.100 36.285133
66.105 35.887989
66.110 35.184006
66.115 36.016533
66.120 35.7187
66.125 35.373928
66.130 34.964661
66.135 33.944889
66.140 33.16539
66.145 32.886406
66.150 32.187088
66.155 32.123718
66.160 32.151596
66.165 33.206951
66.170 33.761032
66.175 33.87439
66.180 33.704067
66.185 32.663773
66.190 31.850868
66.195 31.286674
66.200 30.728603
66.205 29.829187
66.210 29.337296
66.215 29.525099
66.220 30.01878
66.225 29.996279
66.230 30.019203
66.235 29.979502
66.240 30.774805
66.245 31.989668
66.250 31.705826
66.255 31.751459
66.260 31.950523
66.265 31.715498
66.270 31.460714
66.275 30.735672
66.280 29.69412
66.285 29.586605
66.290 29.00316
66.295 29.469893
66.300 29.602051
66.305 29.428999
66.310 29.312115
66.315 29.376419
66.320 29.718418
66.325 29.669851
66.330 28.969954
66.335 28.374231
66.340 28.843935
66.345 28.224503
66.350 28.070356
66.355 26.758478
66.360 26.58079
66.365 26.864445
66.370 26.477671
66.375 25.644741
66.380 25.958927
66.385 25.792921
66.390 26.604092
66.395 26.691635
66.400 26.452042
66.405 26.56139
66.410 26.268826
66.415 26.452814
66.420 25.931288
66.425 25.378929
66.430 24.528179
66.435 24.15704
66.440 23.795757
66.445 23.824356
66.450 23.208885
66.455 23.390181
66.460 23.079874
66.465 23.22784
66.470 23.05629
66.475 23.18087
66.480 23.134747
66.485 23.30237
66.490 22.832567
66.495 23.075802
66.500 23.424305
66.505 24.166718
66.510 24.459188
66.515 23.779131
66.520 23.510586
66.525 23.962353
66.530 23.67194
66.535 22.95513
66.540 22.248854
66.545 21.474623
66.550 20.957478
66.555 20.272137
66.560 19.115082
66.565 19.157671
66.570 19.082174
66.575 19.433565
66.580 19.803791
66.585 20.025309
66.590 20.271952
66.595 20.629375
66.600 20.818438
66.605 20.374754
66.610 20.325766
66.615 20.12587
66.620 20.051184
66.625 20.062218
66.630 19.606497
66.635 19.519411
66.640 19.199984
66.645 18.699594
66.650 18.908411
66.655 20.151503
66.660 20.568142
66.665 20.447239
66.670 20.105391
66.675 19.824602
66.680 19.581717
66.685 18.968958
66.690 17.437468
66.695 17.629307
66.700 17.93939
66.705 17.708035
66.710 18.21954
66.715 18.219149
66.720 18.149868
66.725 18.486811
66.730 18.116676
66.735 18.134386
66.740 18.436821
66.745 18.130705
66.750 18.255114
66.755 18.037867
66.760 18.001133
66.765 18.26923
66.770 19.002758
66.775 19.233732
66.780 19.934008
66.785 20.607172
66.790 21.115692
66.795 21.122005
66.800 20.815939
66.805 19.947338
66.810 19.962662
66.815 19.724171
66.820 19.784477
66.825 19.156229
66.830 18.218069
66.835 18.314863
66.840 18.416344
66.845 18.273369
66.850 18.115013
66.855 18.078098
66.860 19.184492
66.865 20.007328
66.870 19.906666
66.875 19.961256
66.880 19.699549
66.885 19.30324
66.890 18.623373
66.895 18.39723
66.900 18.553518
66.905 18.757425
66.910 19.324186
66.915 19.247581
66.920 19.497478
66.925 19.257818
66.930 19.070572
66.935 19.02026
66.940 19.054585
66.945 18.911369
66.950 19.439526
66.955 19.728924
66.960 20.054491
66.965 19.958992
66.970 20.357042
66.975 19.886492
66.980 19.291605
66.985 18.988298
66.990 19.120499
66.995 19.306093
67.000 19.052303
67.005 18.726528
67.010 19.169174
67.015 19.316561
67.020 19.187683
67.025 19.020948
67.030 18.489094
67.035 18.139948
67.040 17.672852
67.045 17.692978
67.050 17.771551
67.055 17.381569
67.060 17.264145
67.065 17.269787
67.070 16.818119
67.075 17.277504
67.080 17.255093
67.085 17.234718
67.090 17.821646
67.095 17.861799
67.100 18.30599
67.105 18.368141
67.110 18.228666
67.115 18.355772
67.120 18.9991
67.125 19.209625
67.130 19.402477
67.135 19.406706
67.140 19.606932
67.145 19.770334
67.150 19.497791
67.155 18.759844
67.160 18.386106
67.165 18.340727
67.170 18.193342
67.175 18.160896
67.180 17.879797
67.185 17.663382
67.190 17.823963
67.195 18.234566
67.200 18.215725
67.205 18.496826
67.210 18.684448
67.215 18.534185
67.220 18.550394
67.225 18.464766
67.230 18.128355
67.235 17.901892
67.240 18.642387
67.245 19.269402
67.250 19.473845
67.255 19.538542
67.260 19.290283
67.265 19.859663
67.270 20.475639
67.275 19.171055
67.280 18.360027
67.285 18.967041
67.290 19.139376
67.295 18.978071
67.300 18.847322
67.305 18.398863
67.310 19.13702
67.315 19.424103
67.320 19.743502
67.325 20.270807
67.330 20.514006
67.335 20.034122
67.340 20.072807
67.345 19.705872
67.350 19.638393
67.355 18.890587
67.360 18.323359
67.365 17.922956
67.370 18.503183
67.375 19.04117
67.380 19.038242
67.385 18.527166
67.390 18.042391
67.395 18.437239
67.400 18.698898
67.405 18.411404
67.410 18.230314
67.415 18.004635
67.420 18.451853
67.425 18.62871
67.430 18.051563
67.435 18.002218
67.440 17.708635
67.445 17.786779
67.450 18.649048
67.455 19.214371
67.460 19.152828
67.465 19.646496
67.470 19.900362
67.475 20.641068
67.480 21.068752
67.485 20.524689
67.490 19.869425
67.495 20.418987
67.500 20.61977
67.505 20.572655
67.510 20.123486
67.515 19.712934
67.520 19.959044
67.525 20.188496
67.530 19.989288
67.535 19.53178
67.540 19.153095
67.545 19.063978
67.550 18.776617
67.555 18.598131
67.560 18.895214
67.565 18.946907
67.570 18.985355
67.575 18.958534
67.580 18.766071
67.585 18.844454
67.590 18.366659
67.595 17.743292
67.600 17.501848
67.605 17.835884
67.610 17.680271
67.615 17.58666
67.620 17.887131
67.625 18.121021
67.630 18.719683
67.635 18.93228
67.640 19.075468
67.645 19.790751
67.650 19.938154
67.655 20.357418
67.660 20.849903
67.665 20.397148
67.670 19.994215
67.675 19.332918
67.680 19.146639
67.685 18.926073
67.690 18.315775
67.695 18.444988
67.700 18.587334
67.705 18.844795
67.710 19.329567
67.715 19.622673
67.720 19.887686
67.725 19.95686
67.730 19.676579
67.735 19.705717
67.740 19.176531
67.745 18.597231
67.750 18.264597
67.755 18.274225
67.760 18.459146
67.765 18.575165
67.770 19.037445
67.775 19.943815
67.780 20.269003
67.785 20.632462
67.790 20.656286
67.795 20.261959
67.800 20.891037
67.805 20.226009
67.810 19.89138
67.815 19.452057
67.820 18.92651
67.825 18.458296
67.830 18.114212
67.835 17.628855
67.840 18.144787
67.845 18.268902
67.850 18.039761
67.855 18.931871
67.860 18.833555
67.865 18.585094
67.870 18.576971
67.875 19.058737
67.880 18.748848
67.885 18.876925
67.890 18.170908
67.895 18.709917
67.900 19.146778
67.905 18.929489
67.910 18.806046
67.915 19.248438
67.920 19.868294
67.925 20.15447
67.930 19.900909
67.935 19.742416
67.940 19.707865
67.945 19.761734
67.950 19.792866
67.955 19.349791
67.960 18.897352
67.965 19.438747
67.970 20.070219
67.975 20.452105
67.980 20.005819
67.985 19.415445
67.990 18.937656
67.995 19.300735
68.000 18.998629
68.005 18.481258
68.010 18.053087
68.015 18.140236
68.020 18.778248
68.025 19.333105
68.030 18.448221
68.035 17.809059
68.040 18.121534
68.045 17.858091
68.050 17.796114
68.055 17.983404
68.060 17.884207
68.065 18.843819
68.070 19.071255
68.075 18.749762
68.080 19.128283
68.085 18.763039
68.090 18.38493
68.095 19.250149
68.100 19.326887
68.105 19.686771
68.110 19.771254
68.115 20.334278
68.120 20.508265
68.125 20.627584
68.130 19.76358
68.135 19.849092
68.140 19.849358
68.145 19.425091
68.150 19.400948
68.155 19.395805
68.160 19.878708
68.165 19.75351
68.170 19.518087
68.175 19.450722
68.180 19.862356
68.185 19.978722
68.190 20.028336
68.195 19.676552
68.200 19.615934
68.205 19.663034
68.210 19.536812
68.215 19.07786
68.220 18.726505
68.225 18.684799
68.230 18.396511
68.235 18.407278
68.240 18.482704
68.245 19.047253
68.250 19.008595
68.255 18.669645
68.260 18.994991
68.265 19.721685
68.270 19.384895
68.275 18.512777
68.280 18.368286
68.285 18.473248
68.290 18.09824
68.295 17.481068
68.300 17.631151
68.305 18.074862
68.310 18.323465
68.315 18.201637
68.320 18.719221
68.325 19.350065
68.330 19.399683
68.335 19.183119
68.340 19.072153
68.345 18.80864
68.350 18.2001
68.355 17.717468
68.360 17.50552
68.365 17.483574
68.370 17.59026
68.375 17.804634
68.380 18.449528
68.385 19.125837
68.390 19.017351
68.395 19.513683
68.400 19.584307
68.405 19.261215
68.410 19.096342
68.415 18.71242
68.420 18.82793
68.425 19.053188
68.430 18.43714
68.435 18.553446
68.440 18.694103
68.445 19.066792
68.450 19.064306
68.455 18.748417
68.460 19.018742
68.465 18.620796
68.470 18.218649
68.475 18.652725
68.480 19.309372
68.485 19.506163
68.490 19.923523
68.495 20.204453
68.500 20.727282
68.505 20.986164
68.510 20.877007
68.515 20.551607
68.520 20.901543
68.525 20.999241
68.530 20.810783
68.535 21.366341
68.540 21.652122
68.545 21.373529
68.550 21.649828
68.555 21.773014
68.560 22.299551
68.565 22.10104
68.570 21.24419
68.575 20.885101
68.580 20.457182
68.585 19.851688
68.590 19.772385
68.595 19.376467
68.600 19.774246
68.605 20.067329
68.610 19.916115
68.615 20.838774
68.620 21.309095
68.625 21.244358
68.630 21.653021
68.635 22.186625
68.640 22.248991
68.645 22.514717
68.650 21.980242
68.655 22.337589
68.660 22.422834
68.665 22.26416
68.670 22.605629
68.675 23.333559
68.680 23.938038
68.685 24.097887
68.690 24.358835
68.695 24.534189
68.700 24.049267
68.705 23.868225
68.710 23.646006
68.715 23.361086
68.720 23.446712
68.725 23.544184
68.730 23.794176
68.735 24.093952
68.740 23.907703
68.745 23.715012
68.750 23.870575
68.755 24.008844
68.760 24.516777
68.765 25.049847
68.770 25.585875
68.775 26.281446
68.780 27.068174
68.785 27.319931
68.790 27.795221
68.795 26.992035
68.800 27.102955
68.805 27.417236
68.810 27.273062
68.815 26.829922
68.820 26.768524
68.825 26.446951
68.830 26.837267
68.835 26.904305
68.840 26.859087
68.845 27.291941
68.850 28.165674
68.855 28.284988
68.860 28.38822
68.865 28.347937
68.870 28.492756
68.875 29.09594
68.880 29.897713
68.885 29.820683
68.890 29.942787
68.895 30.480246
68.900 30.886187
68.905 30.914742
68.910 30.510572
68.915 30.827187
68.920 31.594408
68.925 31.853258
68.930 31.584694
68.935 31.952608
68.940 32.167244
68.945 32.541069
68.950 32.089966
68.955 31.472267
68.960 31.628109
68.965 32.381733
68.970 32.159096
68.975 32.290596
68.980 32.07386
68.985 31.975176
68.990 32.357456
68.995 32.004063
69.000 31.845884
69.005 32.523899
69.010 32.576878
69.015 32.517185
69.020 32.423141
69.025 32.485935
69.030 31.641993
69.035 31.49048
69.040 31.962055
69.045 32.065891
69.050 32.253639
69.055 31.766359
69.060 32.30373
69.065 32.707981
69.070 32.945492
69.075 32.685459
69.080 32.728039
69.085 33.78495
69.090 34.583408
69.095 34.589149
69.100 35.310658
69.105 34.933392
69.110 34.893753
69.115 34.912361
69.120 34.195667
69.125 33.950661
69.130 33.922482
69.135 33.405682
69.140 33.279087
69.145 33.284824
69.150 32.473476
69.155 32.880482
69.160 33.130924
69.165 33.332558
69.170 34.161884
69.175 34.328281
69.180 34.539165
69.185 34.985237
69.190 34.254036
69.195 33.780659
69.200 33.586285
69.205 32.741077
69.210 32.488491
69.215 32.505177
69.220 32.42585
69.225 32.299942
69.230 32.874393
69.235 32.880455
69.240 32.927505
69.245 32.259155
69.250 31.929157
69.255 32.143387
69.260 32.667439
69.265 32.211769
69.270 31.992319
69.275 32.265198
69.280 32.610249
69.285 32.479004
69.290 31.967337
69.295 31.49663
69.300 31.438005
69.305 31.46987
69.310 32.173599
69.315 32.265152
69.320 31.649874
69.325 31.383827
69.330 31.484434
69.335 31.366781
69.340 31.365011
69.345 30.505623
69.350 30.849815
69.355 31.235937
69.360 31.29694
69.365 30.661879
69.370 30.111292
69.375 29.700478
69.380 29.126698
69.385 28.132017
69.390 28.309605
69.395 28.011816
69.400 28.564024
69.405 28.737436
69.410 28.265594
69.415 28.626289
69.420 28.791842
69.425 28.453762
69.430 28.249989
69.435 28.259287
69.440 28.328726
69.445 28.651052
69.450 28.428648
69.455 28.042816
69.460 27.677362
69.465 27.77878
69.470 27.378399
69.475 27.444513
69.480 27.603094
69.485 27.544483
69.490 27.543243
69.495 27.426012
69.500 27.654068
69.505 27.492815
69.510 27.487835
69.515 27.094503
69.520 26.714272
69.525 26.612551
69.530 26.70265
69.535 27.10524
69.540 27.158222
69.545 26.755402
69.550 27.082182
69.555 27.690287
69.560 28.261232
69.565 28.098869
69.570 27.972486
69.575 27.79664
69.580 27.698284
69.585 27.073221
69.590 25.850613
69.595 24.962627
69.600 23.868469
69.605 23.193384
69.610 22.805443
69.615 22.646259
69.620 22.371628
69.625 22.521212
69.630 22.858086
69.635 23.726812
69.640 23.843699
69.645 24.057066
69.650 23.661324
69.655 23.761812
69.660 24.279871
69.665 24.289843
69.670 24.044771
69.675 23.578482
69.680 22.81834
69.685 22.74132
69.690 22.445314
69.695 22.475603
69.700 22.693497
69.705 22.951096
69.710 23.41404
69.715 24.035183
69.720 24.256958
69.725 24.239239
69.730 23.803228
69.735 23.372654
69.740 23.290079
69.745 23.359138
69.750 23.396088
69.755 23.006649
69.760 23.062166
69.765 22.817097
69.770 22.597782
69.775 21.839342
69.780 21.602421
69.785 21.68293
69.790 21.540936
69.795 21.683226
69.800 21.24526
69.805 21.152842
69.810 21.250813
69.815 20.927912
69.820 21.029514
69.825 21.170227
69.830 20.413595
69.835 20.674877
69.840 21.023277
69.845 20.596962
69.850 20.461351
69.855 20.571535
69.860 20.589403
69.865 20.552399
69.870 20.518154
69.875 20.269674
69.880 20.907253
69.885 21.037298
69.890 20.683065
69.895 19.578497
69.900 19.873348
69.905 20.315485
69.910 20.450352
69.915 20.200247
69.920 20.155024
69.925 20.395359
69.930 20.998734
69.935 20.771936
69.940 19.468353
69.945 19.330744
69.950 19.752855
69.955 20.360256
69.960 19.949488
69.965 19.86042
69.970 19.844896
69.975 20.472355
69.980 19.898449
69.985 19.126221
69.990 18.629742
69.995 19.195465
70.000 19.316223
70.005 19.417259
70.010 19.240036
70.015 19.298088
70.020 19.837425
70.025 19.6548
70.030 19.370028
70.035 19.543201
70.040 19.746845
70.045 19.596508
70.050 19.686367
70.055 19.307247
70.060 19.092482
70.065 18.808308
70.070 19.381256
70.075 19.289442
70.080 19.331646
70.085 18.8106
70.090 18.534685
70.095 18.88205
70.100 17.891603
70.105 17.33429
70.110 17.552198
70.115 17.619707
70.120 17.610882
70.125 17.609194
70.130 18.003428
70.135 18.888807
70.140 18.581825
70.145 19.231806
70.150 19.649029
70.155 20.013454
70.160 19.94808
70.165 19.419882
70.170 19.253515
70.175 18.662878
70.180 17.765266
70.185 17.839504
70.190 18.287577
70.195 18.190193
70.200 18.022617
70.205 18.575247
70.210 19.389988
70.215 19.581242
70.220 19.377966
70.225 19.043144
70.230 19.260201
70.235 19.744341
70.240 19.075523
70.245 18.692009
70.250 18.603186
70.255 18.616165
70.260 18.46677
70.265 18.609516
70.270 18.875319
70.275 19.03924
70.280 19.054117
70.285 18.932558
70.290 19.067488
70.295 19.12471
70.300 19.102999
70.305 18.442057
70.310 18.793016
70.315 19.156559
70.320 18.903534
70.325 18.548845
70.330 18.257715
70.335 17.96596
70.340 17.827717
70.345 17.651035
70.350 17.508709
70.355 18.520071
70.360 19.037306
70.365 19.142071
70.370 19.089682
70.375 19.021299
70.380 18.507584
70.385 18.316498
70.390 17.495415
70.395 17.275074
70.400 17.70289
70.405 18.332146
70.410 18.96904
70.415 19.018173
70.420 18.778629
70.425 18.488308
70.430 18.418503
70.435 17.991272
70.440 17.579239
70.445 17.341057
70.450 17.378881
70.455 17.299816
70.460 17.011633
70.465 16.962553
70.470 17.048269
70.475 17.075874
70.480 17.228226
70.485 17.647989
70.490 17.771189
70.495 17.687086
70.500 17.805552
70.505 18.201378
70.510 18.963169
70.515 18.978813
70.520 18.552671
70.525 18.778452
70.530 19.337608
70.535 19.35631
70.540 18.882545
70.545 17.82863
70.550 17.708105
70.555 18.338638
70.560 18.794714
70.565 18.879492
70.570 18.944838
70.575 18.589464
70.580 19.034601
70.585 19.531904
70.590 18.99209
70.595 18.651522
70.600 17.841341
70.605 17.396008
70.610 18.226963
70.615 17.931313
70.620 17.595634
70.625 17.665152
70.630 17.796465
70.635 18.198784
70.640 18.407265
70.645 18.063578
70.650 17.932676
70.655 18.031105
70.660 17.973967
70.665 17.71043
70.670 17.761641
70.675 17.929817
70.680 18.066027
70.685 17.721003
70.690 17.877695
70.695 18.27718
70.700 18.375536
70.705 18.652784
70.710 18.756483
70.715 19.157555
70.720 20.073854
70.725 19.930449
70.730 19.672852
70.735 19.538584
70.740 19.407061
70.745 19.036423
70.750 18.980059
70.755 18.693506
70.760 18.617863
70.765 18.349674
70.770 18.111744
70.775 18.355413
70.780 18.428553
70.785 17.280865
70.790 16.945478
70.795 16.946552
70.800 17.121174
70.805 16.972395
70.810 16.354198
70.815 16.247698
70.820 17.02561
70.825 17.554781
70.830 17.536644
70.835 17.611963
70.840 17.437801
70.845 17.734114
70.850 17.805721
70.855 17.341
70.860 16.468136
70.865 16.354509
70.870 16.518368
70.875 16.547588
70.880 16.511457
70.885 16.373178
70.890 16.280188
70.895 16.635916
70.900 16.533279
70.905 16.447836
70.910 16.893818
70.915 17.267891
70.920 17.028721
70.925 16.884321
70.930 17.174538
70.935 18.209211
70.940 18.267399
70.945 17.988874
70.950 17.589308
70.955 18.152502
70.960 18.798117
70.965 19.009012
70.970 18.568775
70.975 18.679647
70.980 19.049259
70.985 19.388096
70.990 19.234407
70.995 18.53343
71.000 18.785124
71.005 17.962854
71.010 17.643501
71.015 17.360004
71.020 17.314411
71.025 17.402422
71.030 17.371832
71.035 17.194756
71.040 17.832251
71.045 17.984123
71.050 17.579893
71.055 17.465805
71.060 17.665541
71.065 17.290716
71.070 17.241404
71.075 17.239685
71.080 17.768171
71.085 18.299776
71.090 18.699106
71.095 19.249134
71.100 19.77877
71.105 19.71479
71.110 19.342339
71.115 18.802279
71.120 18.362507
71.125 17.548082
71.130 17.614174
71.135 17.750385
71.140 18.128557
71.145 18.299309
71.150 18.693829
71.155 18.703197
71.160 18.710484
71.165 18.664188
71.170 18.513359
71.175 18.289484
71.180 18.563036
71.185 17.963137
71.190 17.850534
71.195 17.959883
71.200 17.893209
71.205 18.04768
71.210 18.131527
71.215 17.807402
71.220 18.522129
71.225 18.878757
71.230 18.546057
71.235 18.658987
71.240 18.604883
71.245 18.708672
71.250 18.703369
71.255 19.031843
71.260 19.193501
71.265 19.400776
71.270 18.709967
71.275 18.512392
71.280 18.617638
71.285 18.801872
71.290 18.027639
71.295 17.037916
71.300 16.752415
71.305 17.71068
71.310 18.039099
71.315 17.817087
71.320 18.136366
71.325 19.132187
71.330 19.639013
71.335 19.758734
71.340 19.517017
71.345 19.408785
71.350 18.999067
71.355 18.887106
71.360 18.699999
71.365 18.902243
71.370 18.422857
71.375 18.351954
71.380 18.09293
71.385 18.122023
71.390 17.727871
71.395 17.990629
71.400 18.088192
71.405 17.887003
71.410 18.055964
71.415 18.333347
71.420 18.564667
71.425 18.479008
71.430 18.386988
71.435 18.599358
71.440 18.794622
71.445 19.035357
71.450 19.263229
71.455 19.57445
71.460 19.137812
71.465 18.158003
71.470 17.615101
71.475 17.370436
71.480 16.520269
71.485 16.104937
71.490 16.125694
71.495 16.584606
71.500 17.38933
71.505 17.759171
71.510 18.254303
71.515 18.595539
71.520 18.327852
71.525 18.209333
71.530 18.120083
71.535 18.104973
71.540 17.928997
71.545 17.036003
71.550 16.673046
71.555 16.930037
71.560 17.199961
71.565 16.863853
71.570 16.347248
71.575 16.319296
71.580 16.504225
71.585 16.696505
71.590 16.485088
71.595 16.823019
71.600 17.195032
71.605 17.995676
71.610 18.647495
71.615 18.821444
71.620 18.875118
71.625 18.866793
71.630 18.936714
71.635 18.6891
71.640 18.32361
71.645 18.450554
71.650 18.74147
71.655 19.129402
71.660 18.941971
71.665 18.718933
71.670 18.938879
71.675 19.589684
71.680 19.256678
71.685 18.82691
71.690 18.442503
71.695 18.131491
71.700 17.90904
71.705 18.052193
71.710 18.351219
71.715 18.362946
71.720 18.735168
71.725 18.484121
71.730 18.831999
71.735 18.975176
71.740 18.574667
71.745 18.141987
71.750 18.215775
71.755 17.521912
71.760 17.886297
71.765 18.019117
71.770 17.616182
71.775 16.794498
71.780 16.523306
71.785 16.649319
71.790 17.350847
71.795 17.633202
71.800 17.905699
71.805 17.986841
71.810 18.53964
71.815 18.680315
71.820 18.745609
71.825 18.646513
71.830 18.511759
71.835 18.465614
71.840 18.450342
71.845 17.98468
71.850 18.125605
71.855 18.073793
71.860 17.848694
71.865 17.322201
71.870 17.465858
71.875 18.032253
71.880 19.047144
71.885 19.192585
71.890 19.316845
71.895 19.551289
71.900 19.640461
71.905 19.187094
71.910 18.669724
71.915 17.713915
71.920 17.696545
71.925 17.382227
71.930 17.337276
71.935 17.764036
71.940 18.315575
71.945 17.848146
71.950 17.456463
71.955 17.183994
71.960 17.488356
71.965 17.38092
71.970 17.168541
71.975 17.298212
71.980 18.392529
71.985 19.564978
71.990 19.667099
71.995 19.5439
72.000 19.240452
72.005 18.660816
72.010 18.149965
72.015 18.085718
72.020 17.978359
72.025 17.8599
72.030 18.183306
72.035 18.430428
72.040 19.095375
72.045 18.958464
72.050 18.458082
72.055 18.385153
72.060 18.46151
72.065 18.634195
72.070 18.821754
72.075 18.291447
72.080 18.26425
72.085 17.604351
72.090 16.877592
72.095 16.808159
72.100 16.685749
72.105 16.686737
72.110 16.608978
72.115 15.896748
72.120 16.495003
72.125 16.789614
72.130 16.88117
72.135 17.00528
72.140 17.080175
72.145 17.214571
72.150 18.284306
72.155 18.431091
72.160 18.572378
72.165 17.952364
72.170 17.554838
72.175 17.296242
72.180 17.004408
72.185 16.744133
72.190 16.487465
72.195 16.478994
72.200 16.863216
72.205 17.119823
72.210 17.880886
72.215 18.125906
72.220 18.067814
72.225 18.403282
72.230 18.368639
72.235 18.360565
72.240 18.852522
72.245 18.88485
72.250 19.182899
72.255 18.916498
72.260 18.875057
72.265 19.384834
72.270 18.696247
72.275 18.049385
72.280 17.922688
72.285 17.720184
72.290 17.715845
72.295 17.765074
72.300 18.236231
72.305 18.919863
72.310 18.90267
72.315 19.037691
72.320 19.168976
72.325 19.422596
72.330 19.007978
72.335 18.942001
72.340 18.966206
72.345 18.603352
72.350 18.422552
72.355 18.778587
72.360 18.248695
72.365 17.791155
72.370 17.22924
72.375 16.964285
72.380 17.133591
72.385 16.874615
72.390 16.462513
72.395 16.176188
72.400 16.554258
72.405 16.58131
72.410 16.727684
72.415 16.378418
72.420 16.184223
72.425 16.402113
72.430 16.811829
72.435 17.36865
72.440 17.517511
72.445 18.026503
72.450 18.268013
72.455 18.100756
72.460 17.953386
72.465 17.032618
72.470 16.9758
72.475 16.639721
72.480 16.14374
72.485 16.260607
72.490 16.70706
72.495 16.93364
72.500 16.493525
72.505 16.424261
72.510 16.417393
72.515 16.804604
72.520 17.123056
72.525 17.675097
72.530 18.16403
72.535 18.509806
72.540 18.839077
72.545 18.886969
72.550 18.775843
72.555 18.255314
72.560 17.86058
72.565 18.296528
72.570 18.147833
72.575 17.31229
72.580 17.36236
72.585 17.791452
72.590 17.992647
72.595 18.025576
72.600 18.146511
72.605 18.832956
72.610 19.267962
72.615 19.378084
72.620 19.021982
72.625 18.650814
72.630 18.178675
72.635 17.881466
72.640 17.67938
72.645 17.30722
72.650 16.800638
72.655 17.137722
72.660 17.633785
72.665 17.471441
72.670 16.915024
72.675 16.617645
72.680 16.955423
72.685 16.920101
72.690 16.40929
72.695 16.330132
72.700 16.704016
72.705 16.938978
72.710 16.913237
72.715 16.800245
72.720 17.273134
72.725 17.131226
72.730 16.581444
72.735 16.264626
72.740 16.218496
72.745 16.25157
72.750 16.77025
72.755 17.067316
72.760 17.657553
72.765 17.968748
72.770 18.10895
72.775 18.518579
72.780 18.348021
72.785 17.475616
72.790 17.225353
72.795 16.384998
72.800 16.295515
72.805 16.397608
72.810 15.771447
72.815 16.499495
72.820 16.78093
72.825 17.072491
72.830 17.261686
72.835 17.055433
72.840 16.922892
72.845 17.221754
72.850 16.776583
72.855 16.821888
72.860 16.672729
72.865 16.609928
72.870 16.965822
72.875 17.016476
72.880 16.824265
72.885 16.537323
72.890 16.359663
72.895 17.045691
72.900 17.106035
72.905 16.669046
72.910 16.332514
72.915 16.559464
72.920 16.950394
72.925 17.234539
72.930 17.463751
72.935 17.891869
72.940 18.073359
72.945 18.375214
72.950 18.511749
72.955 18.29916
72.960 17.359779
72.965 16.406118
72.970 15.738347
72.975 15.866735
72.980 15.591774
72.985 15.117572
72.990 15.251698
72.995 15.526369
73.000 15.584985
