!@!!GADDS PLOTSO FILE: Chi integration type
!@!!Title/SampleName: map-f6
!@!!Comment: ?
!@!!User: Bruker Instrument Administrator
!@!!Site: University of Illinois Chicago
!@!!Frame: map-f6_01_000.gfrm
!@!!Wavelengths    1.54184   1.54056   1.54439
!@!!Frame angles: 2Theta: 63.000 Omega: 50.000 Phi: 0.000 Chi: 90.000
!@!!Integration range: 2Theta: 53.000 to 73.000  Gamma: -105.000 to -75.000
!@!!Integration method: bin normalized
!@!N
!@!SS
!@!M
!@!L 0.0 0.0 0.0 0.0
!@!XDegrees
!@!YCounts
53.000 5.051093
53.005 5.035964
53.010 5.191755
53.015 5.144167
53.020 4.877851
53.025 4.583414
53.030 4.701999
53.035 4.524345
53.040 4.584213
53.045 4.832752
53.050 5.008061
53.055 5.275096
53.060 5.522019
53.065 5.790719
53.070 6.035995
53.075 6.156861
53.080 5.685453
53.085 5.549369
53.090 5.490078
53.095 5.390202
53.100 5.256535
53.105 5.144531
53.110 5.346415
53.115 5.306322
53.120 5.350272
53.125 5.550159
53.130 5.19954
53.135 5.10231
53.140 5.163058
53.145 5.050138
53.150 5.409238
53.155 5.40138
53.160 5.447959
53.165 5.830338
53.170 5.777746
53.175 6.127915
53.180 6.15376
53.185 5.963327
53.190 5.732823
53.195 5.573497
53.200 5.328715
53.205 5.352503
53.210 5.04428
53.215 5.215491
53.220 5.435787
53.225 5.649897
53.230 5.569916
53.235 5.611977
53.240 5.764734
53.245 5.567508
53.250 5.26809
53.255 5.443667
53.260 5.104767
53.265 5.177853
53.270 5.28902
53.275 5.100418
53.280 5.540289
53.285 5.298114
53.290 5.197412
53.295 5.432421
53.300 5.475946
53.305 5.239693
53.310 5.139702
53.315 5.078694
53.320 5.333744
53.325 5.623073
53.330 5.795878
53.335 5.764296
53.340 5.741932
53.345 5.697346
53.350 6.192883
53.355 6.145914
53.360 6.002573
53.365 5.735244
53.370 5.708347
53.375 5.690673
53.380 5.045617
53.385 4.386711
53.390 4.506583
53.395 4.547928
53.400 4.61447
53.405 4.712072
53.410 5.188416
53.415 5.898488
53.420 6.405925
53.425 6.437616
53.430 6.578639
53.435 6.833759
53.440 6.798191
53.445 6.626863
53.450 6.280963
53.455 6.202076
53.460 6.035105
53.465 5.91552
53.470 5.804149
53.475 5.767184
53.480 5.970337
53.485 5.966029
53.490 5.9702
53.495 6.090333
53.500 6.603736
53.505 6.868343
53.510 6.77747
53.515 6.743679
53.520 6.810278
53.525 6.491461
53.530 6.106423
53.535 5.48716
53.540 5.341939
53.545 5.36122
53.550 5.490796
53.555 5.534051
53.560 5.475129
53.565 5.839283
53.570 5.408721
53.575 5.367787
53.580 5.50557
53.585 5.533722
53.590 5.671497
53.595 6.130908
53.600 6.008043
53.605 6.301972
53.610 6.443339
53.615 6.373192
53.620 6.250806
53.625 6.265836
53.630 6.362124
53.635 6.620834
53.640 6.839151
53.645 6.445672
53.650 5.985189
53.655 5.892318
53.660 5.526466
53.665 5.409126
53.670 5.379942
53.675 5.411414
53.680 5.618965
53.685 6.252999
53.690 6.364079
53.695 6.300051
53.700 6.54301
53.705 6.698617
53.710 6.863502
53.715 6.638934
53.720 6.283971
53.725 6.629986
53.730 6.68361
53.735 6.375989
53.740 5.881589
53.745 6.139472
53.750 6.076319
53.755 5.67206
53.760 5.438184
53.765 5.632785
53.770 5.717684
53.775 5.994595
53.780 5.891759
53.785 5.900743
53.790 6.204796
53.795 6.345059
53.800 6.163246
53.805 6.08807
53.810 5.912917
53.815 6.486744
53.820 6.777671
53.825 6.734444
53.830 6.639335
53.835 6.842159
53.840 6.842222
53.845 6.740877
53.850 6.121582
53.855 6.257448
53.860 6.172112
53.865 6.345039
53.870 6.313257
53.875 5.890012
53.880 5.884802
53.885 6.043062
53.890 5.919757
53.895 5.590321
53.900 5.534947
53.905 5.531156
53.910 5.293036
53.915 5.384298
53.920 5.32927
53.925 5.498158
53.930 5.477147
53.935 5.176691
53.940 5.758969
53.945 6.173538
53.950 6.125701
53.955 6.389739
53.960 6.627724
53.965 6.988343
53.970 7.184496
53.975 6.911711
53.980 6.696791
53.985 6.571073
53.990 6.44842
53.995 6.402186
54.000 5.991601
54.005 6.070774
54.010 6.067533
54.015 6.421481
54.020 6.787999
54.025 6.886586
54.030 6.890881
54.035 6.870048
54.040 7.046095
54.045 7.024866
54.050 6.786931
54.055 6.253053
54.060 6.156876
54.065 6.113442
54.070 6.239107
54.075 5.988686
54.080 6.21071
54.085 6.642022
54.090 7.008772
54.095 7.188387
54.100 7.250782
54.105 6.985904
54.110 7.005125
54.115 6.84496
54.120 6.624622
54.125 6.41087
54.130 6.094281
54.135 5.786727
54.140 5.822944
54.145 5.845942
54.150 5.95089
54.155 5.960981
54.160 6.241632
54.165 6.456788
54.170 6.653739
54.175 7.051222
54.180 7.514673
54.185 7.461624
54.190 7.476762
54.195 7.6779
54.200 7.952007
54.205 7.756598
54.210 7.231972
54.215 7.192492
54.220 7.194577
54.225 6.94245
54.230 6.787749
54.235 7.255048
54.240 7.820826
54.245 8.061753
54.250 7.627621
54.255 7.602816
54.260 8.012775
54.265 7.581466
54.270 7.019829
54.275 6.844752
54.280 6.515862
54.285 6.67667
54.290 6.447519
54.295 6.461657
54.300 6.862863
54.305 7.281626
54.310 7.15453
54.315 7.432796
54.320 7.414217
54.325 7.453356
54.330 7.240417
54.335 7.308362
54.340 7.412985
54.345 7.500125
54.350 7.647265
54.355 7.97826
54.360 8.213289
54.365 8.352487
54.370 8.165821
54.375 8.081908
54.380 7.729685
54.385 7.36003
54.390 7.320508
54.395 7.126605
54.400 6.788568
54.405 6.332547
54.410 6.700167
54.415 7.310778
54.420 7.349276
54.425 7.053935
54.430 7.153132
54.435 7.186236
54.440 6.931569
54.445 6.668649
54.450 6.374836
54.455 6.38606
54.460 6.129993
54.465 6.137114
54.470 6.621044
54.475 6.732985
54.480 6.587539
54.485 6.34201
54.490 6.608777
54.495 7.242708
54.500 7.096602
54.505 7.319488
54.510 7.329228
54.515 7.416038
54.520 7.429468
54.525 7.248795
54.530 6.878305
54.535 6.732026
54.540 6.590147
54.545 6.301617
54.550 6.086284
54.555 5.977504
54.560 5.955891
54.565 6.285916
54.570 6.476431
54.575 6.434012
54.580 6.46536
54.585 6.612207
54.590 6.579669
54.595 6.575665
54.600 6.280829
54.605 6.555321
54.610 6.635962
54.615 6.534302
54.620 6.772728
54.625 6.913904
54.630 7.196291
54.635 7.242846
54.640 6.891636
54.645 7.122715
54.650 7.062879
54.655 6.988355
54.660 6.963331
54.665 6.747339
54.670 6.561083
54.675 6.746567
54.680 6.552501
54.685 6.846454
54.690 7.030728
54.695 7.347474
54.700 7.566746
54.705 7.646677
54.710 7.32894
54.715 7.477972
54.720 7.235197
54.725 6.921669
54.730 6.558807
54.735 6.519995
54.740 6.653158
54.745 6.68197
54.750 6.794688
54.755 6.816934
54.760 6.952725
54.765 6.638508
54.770 6.465611
54.775 6.41979
54.780 6.831169
54.785 6.738113
54.790 6.588349
54.795 6.972204
54.800 7.381077
54.805 7.564938
54.810 7.361032
54.815 7.257691
54.820 7.662479
54.825 7.808433
54.830 7.719192
54.835 7.402992
54.840 7.516539
54.845 7.520875
54.850 7.393844
54.855 7.469395
54.860 7.450618
54.865 7.779296
54.870 8.663844
54.875 8.641547
54.880 9.090251
54.885 9.242354
54.890 9.117846
54.895 9.183824
54.900 8.865785
54.905 8.47885
54.910 8.632428
54.915 8.466105
54.920 8.635109
54.925 8.75524
54.930 8.648074
54.935 8.247928
54.940 8.165852
54.945 8.220903
54.950 8.103605
54.955 7.999418
54.960 7.803166
54.965 8.04426
54.970 8.45063
54.975 8.571977
54.980 8.552273
54.985 8.371664
54.990 8.725237
54.995 8.535483
55.000 8.436301
55.005 7.974392
55.010 7.583648
55.015 7.719501
55.020 7.732921
55.025 7.593403
55.030 7.313713
55.035 6.999787
55.040 7.161169
55.045 7.157532
55.050 6.783579
55.055 6.841009
55.060 6.761742
55.065 7.186423
55.070 7.466971
55.075 7.536999
55.080 7.762145
55.085 8.005214
55.090 7.51808
55.095 7.36526
55.100 7.400787
55.105 7.569218
55.110 7.491108
55.115 7.446595
55.120 7.853945
55.125 8.316402
55.130 8.335334
55.135 8.10831
55.140 7.994484
55.145 7.965526
55.150 7.845278
55.155 7.479593
55.160 7.462554
55.165 7.914931
55.170 7.78386
55.175 7.879894
55.180 7.981555
55.185 7.796764
55.190 7.896845
55.195 7.698245
55.200 7.581718
55.205 7.4891
55.210 7.376158
55.215 7.236038
55.220 6.948861
55.225 7.01978
55.230 6.95186
55.235 6.995577
55.240 6.953916
55.245 7.092283
55.250 7.513858
55.255 7.738499
55.260 7.821912
55.265 7.967987
55.270 8.135794
55.275 8.536503
55.280 8.553493
55.285 8.538729
55.290 8.542563
55.295 8.525805
55.300 8.319629
55.305 8.180329
55.310 8.317444
55.315 7.992875
55.320 8.189115
55.325 8.58233
55.330 8.062496
55.335 8.025157
55.340 7.870659
55.345 7.578674
55.350 7.415588
55.355 7.016148
55.360 6.813638
55.365 7.301742
55.370 7.503411
55.375 7.582177
55.380 7.76257
55.385 8.104151
55.390 8.481189
55.395 8.756033
55.400 8.458013
55.405 8.301014
55.410 8.475546
55.415 8.528081
55.420 8.618938
55.425 8.360974
55.430 8.369208
55.435 8.321593
55.440 8.175203
55.445 7.858343
55.450 7.424416
55.455 7.33869
55.460 7.206746
55.465 6.623368
55.470 6.960615
55.475 6.759034
55.480 6.851435
55.485 6.843769
55.490 6.565609
55.495 7.086617
55.500 7.645227
55.505 7.578411
55.510 7.539298
55.515 7.601473
55.520 8.056804
55.525 8.154836
55.530 7.778975
55.535 7.840427
55.540 7.852334
55.545 8.00434
55.550 7.723006
55.555 7.456051
55.560 7.44138
55.565 7.787108
55.570 7.572162
55.575 7.644512
55.580 7.890143
55.585 8.302268
55.590 8.542048
55.595 8.683858
55.600 8.367253
55.605 8.562778
55.610 8.891292
55.615 8.70249
55.620 8.555161
55.625 8.2564
55.630 8.059923
55.635 8.088922
55.640 7.737602
55.645 7.497875
55.650 7.631364
55.655 7.71469
55.660 7.533961
55.665 7.311177
55.670 7.261619
55.675 7.286208
55.680 7.420201
55.685 7.417421
55.690 7.413418
55.695 7.813425
55.700 8.337662
55.705 8.554287
55.710 8.500767
55.715 8.218462
55.720 8.433348
55.725 8.639639
55.730 8.263465
55.735 7.8422
55.740 7.99604
55.745 8.121502
55.750 7.803407
55.755 7.168137
55.760 6.945161
55.765 7.148941
55.770 7.665092
55.775 7.687015
55.780 7.838254
55.785 8.110735
55.790 8.485869
55.795 8.349739
55.800 8.39908
55.805 7.961502
55.810 7.50527
55.815 7.566385
55.820 7.524521
55.825 7.697687
55.830 8.422772
55.835 8.184585
55.840 8.34994
55.845 8.56356
55.850 8.805039
55.855 9.079615
55.860 9.469946
55.865 8.941114
55.870 8.709409
55.875 9.066475
55.880 9.188473
55.885 9.256533
55.890 9.104666
55.895 8.622993
55.900 8.681056
55.905 8.277812
55.910 7.90462
55.915 7.822032
55.920 7.607615
55.925 7.801321
55.930 7.469193
55.935 7.382646
55.940 7.430964
55.945 7.407413
55.950 7.518281
55.955 7.431253
55.960 7.333135
55.965 7.770997
55.970 8.159143
55.975 8.859919
55.980 8.912431
55.985 8.695954
55.990 8.50897
55.995 8.71066
56.000 8.568132
56.005 8.491254
56.010 7.783468
56.015 7.718659
56.020 8.142661
56.025 8.456625
56.030 8.372881
56.035 8.471926
56.040 8.521066
56.045 8.549283
56.050 8.472784
56.055 7.959488
56.060 7.718382
56.065 7.533881
56.070 7.457061
56.075 7.300607
56.080 7.798695
56.085 7.926905
56.090 8.056552
56.095 8.300865
56.100 8.161188
56.105 8.108134
56.110 8.212778
56.115 8.153342
56.120 8.118141
56.125 7.922596
56.130 7.501879
56.135 7.773861
56.140 8.138605
56.145 8.331243
56.150 8.344761
56.155 8.572836
56.160 8.860618
56.165 9.215453
56.170 9.271196
56.175 9.044193
56.180 8.888914
56.185 8.903938
56.190 8.84438
56.195 8.719552
56.200 8.751129
56.205 8.656416
56.210 8.747783
56.215 8.638038
56.220 8.800611
56.225 8.94106
56.230 8.88658
56.235 9.165825
56.240 9.451781
56.245 9.721597
56.250 9.94542
56.255 9.595771
56.260 9.767507
56.265 9.741672
56.270 9.631442
56.275 9.306318
56.280 9.313037
56.285 9.380877
56.290 9.101954
56.295 9.021938
56.300 9.322004
56.305 9.24842
56.310 9.228647
56.315 9.213068
56.320 9.511062
56.325 9.820507
56.330 9.684269
56.335 9.6089
56.340 9.733728
56.345 9.396065
56.350 8.773212
56.355 9.028695
56.360 9.035877
56.365 9.043342
56.370 8.879542
56.375 9.062049
56.380 9.310943
56.385 9.24613
56.390 8.633018
56.395 8.85162
56.400 9.053909
56.405 9.264018
56.410 8.980373
56.415 9.600143
56.420 9.665424
56.425 9.609283
56.430 9.438604
56.435 9.316129
56.440 9.079602
56.445 9.051629
56.450 8.418065
56.455 8.689854
56.460 8.869219
56.465 8.507241
56.470 8.295823
56.475 8.845675
56.480 9.261953
56.485 9.627444
56.490 9.608076
56.495 9.548211
56.500 9.606606
56.505 9.571378
56.510 8.681564
56.515 8.386456
56.520 8.211828
56.525 8.561648
56.530 8.787785
56.535 9.102376
56.540 9.287344
56.545 9.624037
56.550 9.663201
56.555 9.597878
56.560 9.42465
56.565 9.164988
56.570 8.867159
56.575 9.043226
56.580 9.162457
56.585 9.027744
56.590 8.790991
56.595 8.896632
56.600 9.182881
56.605 8.887373
56.610 8.65007
56.615 8.485227
56.620 8.867317
56.625 9.297564
56.630 9.264136
56.635 9.340039
56.640 9.420487
56.645 9.476893
56.650 9.558747
56.655 9.290905
56.660 9.306391
56.665 9.161709
56.670 9.064809
56.675 9.391202
56.680 9.191053
56.685 9.087387
56.690 9.264109
56.695 9.604433
56.700 9.83811
56.705 10.25359
56.710 10.147287
56.715 10.684647
56.720 10.915755
56.725 10.729861
56.730 10.746205
56.735 10.840887
56.740 10.560106
56.745 10.762347
56.750 10.649545
56.755 10.993108
56.760 10.724357
56.765 10.706796
56.770 10.781562
56.775 10.459832
56.780 10.15778
56.785 9.685421
56.790 9.667494
56.795 9.909919
56.800 9.160439
56.805 9.034816
56.810 9.47199
56.815 9.520952
56.820 9.506166
56.825 9.589751
56.830 9.729048
56.835 9.699862
56.840 10.042125
56.845 10.488119
56.850 10.744786
56.855 10.725282
56.860 10.244649
56.865 10.13182
56.870 10.144674
56.875 9.7581
56.880 9.404578
56.885 9.425089
56.890 9.326105
56.895 9.363035
56.900 9.221867
56.905 9.350552
56.910 9.374874
56.915 9.349783
56.920 9.606803
56.925 9.873735
56.930 10.135236
56.935 10.25734
56.940 9.834668
56.945 9.856108
56.950 10.137974
56.955 10.242182
56.960 10.129995
56.965 9.819026
56.970 9.825572
56.975 10.582954
56.980 10.831556
56.985 10.570338
56.990 10.603746
56.995 10.764643
57.000 11.107296
57.005 11.184147
57.010 10.846397
57.015 10.730503
57.020 10.765995
57.025 10.900275
57.030 10.344493
57.035 10.276379
57.040 10.655557
57.045 11.037258
57.050 11.139503
57.055 10.498041
57.060 10.564033
57.065 10.982483
57.070 11.031793
57.075 10.481747
57.080 9.800025
57.085 9.849702
57.090 10.247622
57.095 10.2105
57.100 10.357883
57.105 10.240994
57.110 10.321996
57.115 10.490703
57.120 9.945415
57.125 9.63364
57.130 9.602383
57.135 9.522819
57.140 9.21518
57.145 8.898495
57.150 8.862547
57.155 8.807656
57.160 8.804802
57.165 8.75985
57.170 9.030671
57.175 9.79126
57.180 10.300389
57.185 10.467879
57.190 10.622136
57.195 10.356278
57.200 10.066433
57.205 9.732104
57.210 9.145077
57.215 8.879867
57.220 9.068379
57.225 9.380143
57.230 9.433317
57.235 9.605649
57.240 9.533108
57.245 10.080601
57.250 10.028907
57.255 10.204328
57.260 10.343956
57.265 10.337075
57.270 10.56555
57.275 10.428772
57.280 10.298447
57.285 10.528405
57.290 10.112907
57.295 10.20986
57.300 10.615141
57.305 10.444098
57.310 10.443128
57.315 10.423836
57.320 10.5046
57.325 10.644686
57.330 10.599085
57.335 10.55737
57.340 10.800902
57.345 11.264368
57.350 11.412738
57.355 11.388732
57.360 11.416471
57.365 11.5483
57.370 11.554652
57.375 11.603799
57.380 11.04189
57.385 11.379235
57.390 11.407886
57.395 11.360751
57.400 11.021206
57.405 10.727132
57.410 11.057087
57.415 11.076972
57.420 10.547353
57.425 10.446469
57.430 10.747623
57.435 11.073441
57.440 10.906767
57.445 10.600883
57.450 10.708608
57.455 11.040496
57.460 11.149531
57.465 11.262721
57.470 10.982125
57.475 10.932698
57.480 10.978624
57.485 10.77458
57.490 10.187778
57.495 9.980955
57.500 9.732323
57.505 9.419559
57.510 9.320697
57.515 9.622123
57.520 9.944177
57.525 10.356321
57.530 10.126328
57.535 10.052475
57.540 10.482546
57.545 10.433504
57.550 10.200717
57.555 10.101046
57.560 10.310472
57.565 10.961144
57.570 11.281014
57.575 11.338921
57.580 11.846057
57.585 11.895792
57.590 12.083952
57.595 11.995898
57.600 11.884279
57.605 11.784454
57.610 11.965783
57.615 11.58994
57.620 11.636479
57.625 11.983279
57.630 12.01356
57.635 11.762472
57.640 11.562045
57.645 11.048644
57.650 11.020347
57.655 10.473534
57.660 10.022847
57.665 9.923753
57.670 10.2081
57.675 10.416297
57.680 10.437489
57.685 10.718101
57.690 10.954333
57.695 10.888988
57.700 11.142374
57.705 11.196547
57.710 11.625587
57.715 12.058044
57.720 12.194048
57.725 11.916843
57.730 11.477325
57.735 11.144877
57.740 11.012051
57.745 10.75581
57.750 10.750161
57.755 10.554569
57.760 11.179535
57.765 11.592585
57.770 11.43249
57.775 11.22958
57.780 11.393772
57.785 11.685479
57.790 11.828304
57.795 11.603782
57.800 11.562901
57.805 11.6133
57.810 11.445114
57.815 11.267276
57.820 10.797541
57.825 10.890071
57.830 11.316198
57.835 11.215767
57.840 11.008104
57.845 11.410664
57.850 11.590226
57.855 11.586545
57.860 11.576993
57.865 10.923891
57.870 10.903182
57.875 11.312367
57.880 11.195336
57.885 11.172161
57.890 11.469832
57.895 11.575571
57.900 11.895227
57.905 11.901772
57.910 11.834003
57.915 11.567166
57.920 11.733089
57.925 11.4842
57.930 11.324325
57.935 11.464047
57.940 11.426428
57.945 11.1602
57.950 11.354517
57.955 11.120228
57.960 11.30777
57.965 11.547632
57.970 11.44831
57.975 12.017179
57.980 12.2952
57.985 12.637076
57.990 12.441273
57.995 12.403005
58.000 12.270946
58.005 12.509434
58.010 12.625104
58.015 12.350305
58.020 12.049286
58.025 12.240826
58.030 12.395846
58.035 12.596346
58.040 12.237345
58.045 12.110301
58.050 12.522048
58.055 12.906211
58.060 12.946159
58.065 12.7252
58.070 12.474383
58.075 12.525927
58.080 12.151617
58.085 11.936513
58.090 11.314889
58.095 11.7933
58.100 12.1674
58.105 12.074739
58.110 12.429247
58.115 12.558662
58.120 12.542629
58.125 12.736097
58.130 12.002468
58.135 11.539472
58.140 11.470465
58.145 10.989517
58.150 10.938941
58.155 11.176588
58.160 11.274494
58.165 11.745544
58.170 12.432062
58.175 12.560292
58.180 12.476398
58.185 12.598287
58.190 12.807513
58.195 13.201149
58.200 12.94857
58.205 12.580315
58.210 12.775395
58.215 13.075518
58.220 12.913036
58.225 13.00106
58.230 12.77968
58.235 12.309898
58.240 12.572149
58.245 12.889359
58.250 13.470811
58.255 13.082055
58.260 12.681517
58.265 12.588216
58.270 13.071644
58.275 13.427518
58.280 12.777962
58.285 11.980427
58.290 12.238189
58.295 12.628539
58.300 13.013087
58.305 13.159092
58.310 12.911116
58.315 13.205014
58.320 14.159554
58.325 14.406609
58.330 13.905828
58.335 14.113333
58.340 14.2721
58.345 14.466285
58.350 14.487588
58.355 14.326583
58.360 14.5498
58.365 14.971811
58.370 15.225678
58.375 15.003093
58.380 15.103587
58.385 15.310815
58.390 15.212729
58.395 14.78967
58.400 14.639981
58.405 14.675696
58.410 14.768847
58.415 14.306428
58.420 13.899951
58.425 14.467792
58.430 15.35251
58.435 15.446374
58.440 15.597469
58.445 16.131145
58.450 17.044836
58.455 18.215424
58.460 18.528
58.465 18.721643
58.470 19.083202
58.475 19.445587
58.480 19.852015
58.485 19.899845
58.490 20.00824
58.495 20.209276
58.500 19.980936
58.505 19.872717
58.510 19.521351
58.515 19.297638
58.520 19.895741
58.525 20.314671
58.530 20.262222
58.535 20.848259
58.540 21.138676
58.545 22.002464
58.550 22.605221
58.555 22.627277
58.560 22.861271
58.565 23.254738
58.570 23.574146
58.575 23.474188
58.580 23.352747
58.585 23.513531
58.590 24.058132
58.595 24.780247
58.600 25.006521
58.605 25.39728
58.610 25.750092
58.615 25.983814
58.620 26.250578
58.625 26.278336
58.630 26.779684
58.635 27.123659
58.640 27.476162
58.645 27.483458
58.650 27.184664
58.655 26.853355
58.660 27.636204
58.665 26.634516
58.670 25.919481
58.675 25.688101
58.680 26.192385
58.685 26.631111
58.690 27.118622
58.695 27.550337
58.700 27.91045
58.705 27.92705
58.710 27.721478
58.715 26.902086
58.720 26.456387
58.725 25.428993
58.730 24.480644
58.735 24.569279
58.740 24.744755
58.745 25.088278
58.750 24.958775
58.755 24.660156
58.760 24.657288
58.765 24.752155
58.770 24.898052
58.775 25.04423
58.780 24.854069
58.785 25.080097
58.790 25.616928
58.795 26.22982
58.800 26.083666
58.805 25.726717
58.810 25.899481
58.815 25.362322
58.820 25.546741
58.825 24.904045
58.830 23.340536
58.835 21.736185
58.840 21.016178
58.845 20.423159
58.850 20.355436
58.855 19.844009
58.860 19.634851
58.865 20.406612
58.870 20.684618
58.875 20.692394
58.880 20.5187
58.885 20.390305
58.890 19.871977
58.895 19.311367
58.900 18.559797
58.905 17.804014
58.910 17.69466
58.915 17.748249
58.920 17.30138
58.925 17.692595
58.930 18.255739
58.935 18.492399
58.940 18.606709
58.945 18.079752
58.950 17.232609
58.955 16.846771
58.960 16.306568
58.965 16.084528
58.970 15.626526
58.975 16.0376
58.980 16.290285
58.985 16.262938
58.990 16.236912
58.995 16.679464
59.000 16.501978
59.005 16.440208
59.010 15.852251
59.015 15.302177
59.020 15.462972
59.025 15.09117
59.030 14.331449
59.035 13.894001
59.040 14.062976
59.045 13.972779
59.050 13.855668
59.055 14.081938
59.060 14.531769
59.065 14.66195
59.070 14.708375
59.075 14.383213
59.080 14.497846
59.085 13.906805
59.090 12.794536
59.095 12.323906
59.100 12.091965
59.105 12.374773
59.110 12.192059
59.115 12.245707
59.120 12.773635
59.125 13.388224
59.130 13.704432
59.135 13.61624
59.140 13.515065
59.145 13.728707
59.150 13.386796
59.155 13.314983
59.160 13.304364
59.165 13.411935
59.170 13.704447
59.175 13.665182
59.180 13.815294
59.185 14.296089
59.190 14.327649
59.195 14.042842
59.200 14.004082
59.205 13.246426
59.210 12.637578
59.215 11.806609
59.220 11.698195
59.225 11.53354
59.230 11.515362
59.235 11.340414
59.240 11.850001
59.245 12.300825
59.250 12.619531
59.255 12.292018
59.260 12.614202
59.265 12.572611
59.270 12.483723
59.275 12.471853
59.280 12.295176
59.285 12.038513
59.290 12.032451
59.295 11.578161
59.300 11.57507
59.305 11.565101
59.310 11.783328
59.315 11.961986
59.320 11.901848
59.325 12.23423
59.330 12.651594
59.335 13.497293
59.340 13.668623
59.345 13.454227
59.350 13.403841
59.355 13.920099
59.360 14.246265
59.365 13.861581
59.370 13.072717
59.375 12.844252
59.380 13.006143
59.385 12.934682
59.390 12.60246
59.395 12.219743
59.400 12.618674
59.405 12.620875
59.410 12.332917
59.415 11.901209
59.420 12.004131
59.425 12.209736
59.430 12.379298
59.435 12.61649
59.440 13.027203
59.445 13.271791
59.450 13.253698
59.455 12.985595
59.460 12.658464
59.465 12.318428
59.470 12.212387
59.475 12.027617
59.480 12.190658
59.485 12.582089
59.490 12.763162
59.495 12.820987
59.500 13.001824
59.505 12.210178
59.510 11.810288
59.515 11.352427
59.520 11.049612
59.525 11.202394
59.530 10.959507
59.535 10.533862
59.540 10.758294
59.545 11.212668
59.550 11.68659
59.555 11.5261
59.560 11.312286
59.565 11.912386
59.570 11.9207
59.575 11.69666
59.580 11.438079
59.585 11.511309
59.590 11.722945
59.595 11.583171
59.600 11.176704
59.605 11.655145
59.610 11.903936
59.615 12.494326
59.620 12.559289
59.625 12.79276
59.630 12.628545
59.635 12.525929
59.640 11.992356
59.645 11.977619
59.650 11.812034
59.655 11.771956
59.660 11.478199
59.665 11.904394
59.670 12.233256
59.675 12.842143
59.680 12.8193
59.685 12.637879
59.690 12.882916
59.695 13.044059
59.700 13.499921
59.705 13.384101
59.710 13.307283
59.715 13.695635
59.720 13.807082
59.725 13.38081
59.730 13.325157
59.735 12.877411
59.740 12.966661
59.745 12.910167
59.750 13.197246
59.755 13.545567
59.760 13.736401
59.765 13.379949
59.770 12.918841
59.775 12.455038
59.780 12.227742
59.785 11.505053
59.790 11.000002
59.795 10.904583
59.800 11.408346
59.805 12.079834
59.810 12.606365
59.815 12.667907
59.820 12.56968
59.825 12.245447
59.830 12.379627
59.835 12.154496
59.840 12.026538
59.845 12.024569
59.850 11.964009
59.855 11.962137
59.860 12.14937
59.865 12.319406
59.870 12.486625
59.875 11.994923
59.880 11.713383
59.885 11.368853
59.890 11.445106
59.895 11.937882
59.900 12.111998
59.905 11.92368
59.910 12.378862
59.915 12.542452
59.920 12.908832
59.925 13.399113
59.930 12.69342
59.935 11.99205
59.940 11.994253
59.945 11.626719
59.950 11.577127
59.955 12.000244
59.960 11.764385
59.965 12.334219
59.970 12.683167
59.975 12.99767
59.980 13.454288
59.985 13.491902
59.990 13.349498
59.995 13.229855
60.000 12.893004
60.005 12.611226
60.010 11.930995
60.015 11.663221
60.020 11.521655
60.025 11.167014
60.030 11.493377
60.035 11.672282
60.040 11.903617
60.045 12.284386
60.050 12.032574
60.055 12.811266
60.060 13.278555
60.065 12.717551
60.070 13.050145
60.075 13.368675
60.080 13.602671
60.085 13.794303
60.090 13.234037
60.095 13.004975
60.100 13.298406
60.105 13.085939
60.110 12.918764
60.115 12.217738
60.120 12.086767
60.125 12.809244
60.130 13.299428
60.135 13.181254
60.140 12.938674
60.145 12.633359
60.150 12.994775
60.155 12.670268
60.160 11.708048
60.165 11.126294
60.170 11.083609
60.175 11.544943
60.180 11.709873
60.185 11.786844
60.190 12.24238
60.195 12.706765
60.200 12.717865
60.205 12.646243
60.210 12.370123
60.215 12.61534
60.220 12.423346
60.225 11.965357
60.230 12.030432
60.235 12.335262
60.240 12.519418
60.245 12.203316
60.250 11.9194
60.255 12.214368
60.260 12.764389
60.265 12.550368
60.270 12.16555
60.275 12.007683
60.280 12.260147
60.285 12.468463
60.290 12.02314
60.295 11.215797
60.300 11.583959
60.305 11.675565
60.310 11.859543
60.315 12.097021
60.320 12.416352
60.325 13.231192
60.330 13.532788
60.335 13.261776
60.340 13.439877
60.345 13.512862
60.350 13.456014
60.355 13.517046
60.360 13.026671
60.365 12.76354
60.370 12.19674
60.375 11.753937
60.380 12.049646
60.385 12.175308
60.390 11.527052
60.395 11.825269
60.400 12.270523
60.405 12.792462
60.410 13.151711
60.415 12.385173
60.420 12.19656
60.425 11.938437
60.430 11.419936
60.435 11.628568
60.440 11.3607
60.445 10.952067
60.450 10.788288
60.455 10.756547
60.460 11.527494
60.465 11.730273
60.470 11.509222
60.475 12.07426
60.480 12.268988
60.485 12.511856
60.490 12.902571
60.495 12.981168
60.500 12.979861
60.505 13.053521
60.510 12.875395
60.515 12.960567
60.520 13.300488
60.525 12.774259
60.530 12.682802
60.535 12.987863
60.540 13.018284
60.545 12.997828
60.550 13.220602
60.555 13.125682
60.560 13.082016
60.565 12.843234
60.570 12.86196
60.575 12.48759
60.580 12.525054
60.585 12.680194
60.590 12.800285
60.595 12.562259
60.600 12.545042
60.605 12.254095
60.610 12.445871
60.615 12.387938
60.620 12.529409
60.625 12.634822
60.630 12.944127
60.635 13.20338
60.640 12.988074
60.645 12.710073
60.650 12.409864
60.655 12.007135
60.660 11.770031
60.665 11.979143
60.670 11.886497
60.675 12.273922
60.680 12.441122
60.685 12.585245
60.690 12.646013
60.695 13.037668
60.700 12.724942
60.705 12.882741
60.710 12.916131
60.715 13.041419
60.720 13.306004
60.725 13.401372
60.730 13.370816
60.735 13.798751
60.740 13.379123
60.745 13.43475
60.750 13.130329
60.755 13.039546
60.760 12.690824
60.765 12.649878
60.770 12.30131
60.775 11.847635
60.780 11.223824
60.785 11.489378
60.790 11.623899
60.795 11.724108
60.800 11.46643
60.805 11.390553
60.810 11.934596
60.815 12.41291
60.820 12.689754
60.825 12.837068
60.830 13.584012
60.835 14.170143
60.840 14.194809
60.845 14.497639
60.850 14.491173
60.855 13.897067
60.860 13.371699
60.865 12.547746
60.870 12.70308
60.875 13.067718
60.880 12.733401
60.885 12.424977
60.890 12.768149
60.895 13.371779
60.900 13.788539
60.905 13.389938
60.910 13.348093
60.915 13.402803
60.920 13.691763
60.925 13.792206
60.930 13.28949
60.935 12.871505
60.940 12.604657
60.945 12.221338
60.950 12.046564
60.955 12.230943
60.960 12.108741
60.965 12.052321
60.970 12.210107
60.975 12.168215
60.980 12.282052
60.985 12.829613
60.990 12.384305
60.995 12.201141
61.000 12.19352
61.005 12.305984
61.010 12.521125
61.015 12.358952
61.020 12.687054
61.025 13.065195
61.030 13.504637
61.035 13.936253
61.040 14.388886
61.045 14.630857
61.050 15.005853
61.055 14.752334
61.060 14.893245
61.065 14.685904
61.070 14.662813
61.075 14.128282
61.080 14.526008
61.085 14.728301
61.090 14.595243
61.095 14.376829
61.100 14.171326
61.105 13.861982
61.110 13.619343
61.115 12.977565
61.120 12.306302
61.125 12.279577
61.130 12.32096
61.135 12.724498
61.140 12.89689
61.145 13.268209
61.150 13.172208
61.155 13.116625
61.160 12.949006
61.165 13.134175
61.170 13.056622
61.175 13.010604
61.180 12.701859
61.185 12.497486
61.190 12.798073
61.195 13.061265
61.200 13.069866
61.205 13.431045
61.210 13.749435
61.215 14.186811
61.220 14.818631
61.225 14.902242
61.230 14.978133
61.235 14.733664
61.240 13.889757
61.245 13.855763
61.250 14.065359
61.255 13.542395
61.260 13.334577
61.265 13.063764
61.270 13.065764
61.275 13.487041
61.280 13.389131
61.285 13.155697
61.290 13.40914
61.295 13.930535
61.300 14.480555
61.305 14.921147
61.310 14.576778
61.315 14.425775
61.320 14.401242
61.325 14.160504
61.330 13.434588
61.335 12.304788
61.340 12.097326
61.345 12.32248
61.350 12.196403
61.355 11.924481
61.360 12.129725
61.365 12.722865
61.370 13.542758
61.375 13.580377
61.380 13.907367
61.385 14.508428
61.390 14.638084
61.395 14.309239
61.400 13.865259
61.405 13.649831
61.410 13.503646
61.415 13.492002
61.420 12.996277
61.425 12.863738
61.430 13.076336
61.435 13.361465
61.440 13.435527
61.445 13.609219
61.450 13.328055
61.455 13.805109
61.460 14.162069
61.465 14.350636
61.470 14.372233
61.475 14.609085
61.480 15.059398
61.485 15.40585
61.490 15.217635
61.495 15.287994
61.500 15.236689
61.505 15.03386
61.510 14.398212
61.515 14.316334
61.520 13.750606
61.525 13.759878
61.530 13.370656
61.535 13.490941
61.540 13.823118
61.545 14.288683
61.550 14.377123
61.555 15.03988
61.560 15.005122
61.565 15.26892
61.570 14.705548
61.575 14.154634
61.580 14.117083
61.585 13.422885
61.590 12.627573
61.595 12.423268
61.600 12.702606
61.605 13.160312
61.610 13.801373
61.615 13.560186
61.620 13.97477
61.625 14.350298
61.630 14.470984
61.635 13.922908
61.640 13.762864
61.645 13.335074
61.650 13.2543
61.655 13.13584
61.660 13.516832
61.665 13.476707
61.670 13.385175
61.675 13.624478
61.680 13.847871
61.685 14.124665
61.690 13.984206
61.695 14.002954
61.700 14.059594
61.705 13.916975
61.710 13.275166
61.715 13.475115
61.720 13.220479
61.725 13.358838
61.730 12.544043
61.735 12.520899
61.740 13.108534
61.745 13.716705
61.750 13.76853
61.755 13.808408
61.760 13.774416
61.765 13.861703
61.770 13.917478
61.775 13.523765
61.780 13.088432
61.785 13.240321
61.790 13.089678
61.795 12.821496
61.800 13.270058
61.805 13.515935
61.810 13.800578
61.815 13.789504
61.820 12.889294
61.825 13.187705
61.830 13.780891
61.835 14.318847
61.840 14.258448
61.845 14.051863
61.850 14.52039
61.855 15.057293
61.860 15.210549
61.865 14.974213
61.870 14.429713
61.875 14.741206
61.880 15.150198
61.885 15.390059
61.890 15.412512
61.895 15.143473
61.900 15.296413
61.905 15.152324
61.910 15.454145
61.915 14.75166
61.920 14.387262
61.925 14.325757
61.930 14.289074
61.935 14.252934
61.940 14.37196
61.945 14.179222
61.950 14.421766
61.955 13.913858
61.960 13.445743
61.965 13.378363
61.970 13.302932
61.975 13.488888
61.980 13.020905
61.985 13.495273
61.990 14.021255
61.995 14.377125
62.000 14.869981
62.005 14.442807
62.010 14.189356
62.015 14.278718
62.020 13.864284
62.025 13.82505
62.030 13.57358
62.035 13.108354
62.040 13.145392
62.045 13.07085
62.050 13.369342
62.055 13.766361
62.060 13.977873
62.065 14.726294
62.070 14.803126
62.075 14.427796
62.080 14.239194
62.085 13.326664
62.090 12.854472
62.095 12.993898
62.100 13.171672
62.105 13.587042
62.110 14.162732
62.115 14.312901
62.120 14.606811
62.125 14.300705
62.130 13.833809
62.135 13.646294
62.140 14.077271
62.145 14.722744
62.150 15.008875
62.155 15.319729
62.160 15.677834
62.165 15.871447
62.170 16.237167
62.175 15.926153
62.180 15.418717
62.185 15.506596
62.190 15.641179
62.195 15.973005
62.200 15.469888
62.205 14.188069
62.210 14.156638
62.215 14.198918
62.220 13.949276
62.225 13.704138
62.230 13.463237
62.235 13.533943
62.240 13.349166
62.245 13.002819
62.250 12.910258
62.255 13.208304
62.260 13.51672
62.265 13.708263
62.270 13.876451
62.275 14.386238
62.280 14.481774
62.285 14.197393
62.290 13.596509
62.295 13.437909
62.300 13.195459
62.305 13.200978
62.310 13.480473
62.315 13.804559
62.320 13.696358
62.325 13.774375
62.330 13.480648
62.335 13.528384
62.340 13.642511
62.345 14.066019
62.350 13.931479
62.355 14.567924
62.360 15.047024
62.365 15.483036
62.370 15.372724
62.375 15.345
62.380 14.373466
62.385 14.141272
62.390 14.528288
62.395 14.814207
62.400 14.820869
62.405 14.890615
62.410 14.895765
62.415 15.864334
62.420 15.740387
62.425 15.11774
62.430 15.17788
62.435 15.287189
62.440 15.639574
62.445 15.940405
62.450 16.0033
62.455 16.386475
62.460 16.268063
62.465 16.065163
62.470 15.901636
62.475 15.935032
62.480 15.243225
62.485 14.289248
62.490 13.559342
62.495 14.065311
62.500 13.832383
62.505 13.099636
62.510 12.498487
62.515 13.139416
62.520 13.826968
62.525 14.375834
62.530 13.522081
62.535 13.84631
62.540 14.204098
62.545 14.703691
62.550 14.605132
62.555 14.856819
62.560 14.832574
62.565 14.837672
62.570 14.973308
62.575 15.441691
62.580 15.264838
62.585 14.388377
62.590 13.460202
62.595 13.333714
62.600 13.235554
62.605 13.33602
62.610 13.563396
62.615 13.780377
62.620 14.420498
62.625 14.951727
62.630 14.985525
62.635 14.878475
62.640 14.491944
62.645 13.621161
62.650 13.291579
62.655 13.674681
62.660 14.037419
62.665 14.293095
62.670 14.289197
62.675 14.592697
62.680 15.444685
62.685 15.673319
62.690 15.436665
62.695 14.733632
62.700 14.914775
62.705 15.018334
62.710 14.694897
62.715 14.562677
62.720 14.485296
62.725 14.860075
62.730 15.275688
62.735 15.265967
62.740 15.403209
62.745 15.338531
62.750 15.342284
62.755 15.576154
62.760 15.21988
62.765 15.173117
62.770 15.203157
62.775 14.962779
62.780 14.956219
62.785 14.879721
62.790 14.737909
62.795 14.492787
62.800 14.424332
62.805 14.204049
62.810 14.290029
62.815 14.03117
62.820 13.702801
62.825 13.795292
62.830 13.901936
62.835 13.961848
62.840 13.684785
62.845 13.469478
62.850 13.166508
62.855 13.166701
62.860 12.803924
62.865 12.45643
62.870 12.594651
62.875 13.116765
62.880 13.122638
62.885 13.742369
62.890 14.405237
62.895 14.951248
62.900 15.223776
62.905 14.514572
62.910 14.280085
62.915 14.652945
62.920 14.84682
62.925 14.546672
62.930 14.322802
62.935 14.560219
62.940 14.681369
62.945 15.080715
62.950 14.800787
62.955 14.654098
62.960 14.266294
62.965 13.654573
62.970 14.177412
62.975 14.841945
62.980 14.83145
62.985 14.572952
62.990 14.401355
62.995 14.890924
63.000 15.222936
63.005 15.117633
63.010 14.660865
63.015 15.075939
63.020 16.081028
63.025 15.81193
63.030 15.715204
63.035 15.608489
63.040 15.030845
63.045 15.175652
63.050 14.900336
63.055 14.489432
63.060 14.186693
63.065 13.694837
63.070 13.355568
63.075 13.334362
63.080 13.445219
63.085 13.097136
63.090 12.56925
63.095 12.840954
63.100 13.597187
63.105 14.068282
63.110 14.293973
63.115 14.13451
63.120 14.512103
63.125 14.921029
63.130 15.080621
63.135 14.685525
63.140 14.333248
63.145 13.99577
63.150 14.109711
63.155 14.451748
63.160 14.956415
63.165 14.627341
63.170 14.949502
63.175 15.602074
63.180 15.829447
63.185 15.608892
63.190 14.721647
63.195 14.015225
63.200 14.306363
63.205 14.150791
63.210 13.948368
63.215 14.181682
63.220 14.713697
63.225 15.332315
63.230 15.393475
63.235 15.499706
63.240 15.966638
63.245 16.191153
63.250 16.086636
63.255 16.202408
63.260 16.424938
63.265 16.774809
63.270 16.575567
63.275 16.093616
63.280 16.01091
63.285 16.192553
63.290 16.188908
63.295 16.150209
63.300 16.287683
63.305 16.294537
63.310 16.107662
63.315 15.99077
63.320 16.003149
63.325 15.883483
63.330 15.647372
63.335 15.924782
63.340 15.893933
63.345 15.7967
63.350 15.961217
63.355 15.937502
63.360 16.086056
63.365 15.866632
63.370 15.584379
63.375 15.90084
63.380 16.113951
63.385 15.453291
63.390 15.238866
63.395 15.079382
63.400 14.964101
63.405 14.422647
63.410 14.371076
63.415 14.48243
63.420 14.888724
63.425 14.687872
63.430 14.971747
63.435 16.047112
63.440 16.307941
63.445 16.399652
63.450 16.426517
63.455 16.167778
63.460 15.853205
63.465 15.684875
63.470 15.350326
63.475 15.342929
63.480 15.438383
63.485 15.353536
63.490 16.145926
63.495 16.634302
63.500 16.258902
63.505 15.988464
63.510 15.855106
63.515 15.757039
63.520 16.076323
63.525 15.849063
63.530 15.395067
63.535 15.940222
63.540 16.510086
63.545 16.402706
63.550 16.07472
63.555 15.664669
63.560 15.671661
63.565 16.091957
63.570 15.850362
63.575 15.920012
63.580 16.420649
63.585 16.630163
63.590 16.818975
63.595 17.181797
63.600 17.215048
63.605 17.578627
63.610 16.888254
63.615 16.686939
63.620 16.568792
63.625 16.614443
63.630 16.18576
63.635 16.574856
63.640 16.448223
63.645 16.889746
63.650 16.991205
63.655 17.270849
63.660 17.03532
63.665 16.828005
63.670 16.375666
63.675 16.100613
63.680 15.828861
63.685 15.698874
63.690 15.580353
63.695 15.972338
63.700 16.275545
63.705 15.962964
63.710 15.559402
63.715 15.832547
63.720 15.875041
63.725 16.173151
63.730 16.042744
63.735 16.255213
63.740 16.669559
63.745 17.604336
63.750 17.352802
63.755 17.627661
63.760 17.304459
63.765 16.740723
63.770 16.164402
63.775 15.841388
63.780 14.866189
63.785 14.954344
63.790 14.447634
63.795 14.618545
63.800 15.522816
63.805 16.164467
63.810 16.314064
63.815 16.590693
63.820 16.488829
63.825 16.742876
63.830 16.673643
63.835 15.79207
63.840 15.796736
63.845 16.349504
63.850 16.529974
63.855 16.801767
63.860 16.602219
63.865 16.425587
63.870 16.674292
63.875 16.236322
63.880 16.29003
63.885 16.897945
63.890 16.916674
63.895 17.16074
63.900 17.416304
63.905 17.483389
63.910 17.203241
63.915 16.58176
63.920 16.082769
63.925 16.210428
63.930 16.060177
63.935 15.732332
63.940 15.739766
63.945 15.999269
63.950 16.176357
63.955 15.797339
63.960 16.428389
63.965 17.069117
63.970 17.691826
63.975 17.476967
63.980 17.207022
63.985 17.583847
63.990 18.154202
63.995 17.876093
64.000 17.518608
64.005 17.239521
64.010 17.914787
64.015 18.357964
64.020 18.121077
64.025 17.883631
64.030 17.819933
64.035 18.583477
64.040 18.709923
64.045 18.837038
64.050 19.192129
64.055 19.381256
64.060 19.462624
64.065 19.397202
64.070 19.234512
64.075 19.611853
64.080 19.235222
64.085 18.948872
64.090 19.071287
64.095 19.505367
64.100 20.099281
64.105 20.214231
64.110 20.457579
64.115 21.496058
64.120 22.385717
64.125 22.444084
64.130 22.571299
64.135 22.796019
64.140 22.769022
64.145 22.7101
64.150 22.927551
64.155 22.971924
64.160 23.238794
64.165 23.916451
64.170 23.812733
64.175 24.327719
64.180 24.705528
64.185 24.491293
64.190 24.859455
64.195 25.438454
64.200 25.631123
64.205 25.876604
64.210 25.939764
64.215 25.719515
64.220 26.450115
64.225 27.14496
64.230 27.395737
64.235 27.407143
64.240 27.464476
64.245 28.008394
64.250 28.493214
64.255 28.971062
64.260 28.835831
64.265 28.759523
64.270 30.111025
64.275 30.83042
64.280 30.572889
64.285 30.915005
64.290 31.289865
64.295 31.917347
64.300 32.704659
64.305 32.397884
64.310 32.487652
64.315 33.539032
64.320 34.388927
64.325 35.298359
64.330 35.795185
64.335 35.057697
64.340 35.945679
64.345 36.925903
64.350 37.425594
64.355 37.255611
64.360 37.680721
64.365 38.537327
64.370 39.74556
64.375 39.288879
64.380 39.877823
64.385 39.899025
64.390 40.605118
64.395 40.824722
64.400 41.215752
64.405 42.247654
64.410 42.74279
64.415 42.487785
64.420 42.884129
64.425 42.726196
64.430 43.70491
64.435 43.500729
64.440 43.421913
64.445 43.966125
64.450 43.998821
64.455 43.859924
64.460 44.378845
64.465 44.521122
64.470 44.339756
64.475 43.473061
64.480 42.659931
64.485 42.82206
64.490 43.306866
64.495 43.271446
64.500 42.998535
64.505 44.164639
64.510 44.113529
64.515 43.825687
64.520 43.498672
64.525 42.619926
64.530 41.60474
64.535 40.407265
64.540 39.762405
64.545 39.175117
64.550 38.945141
64.555 38.159988
64.560 37.822994
64.565 37.815601
64.570 36.906181
64.575 36.305214
64.580 36.26125
64.585 36.33226
64.590 36.283318
64.595 35.857819
64.600 35.301834
64.605 34.815716
64.610 33.881729
64.615 33.168465
64.620 32.324692
64.625 31.761749
64.630 31.580269
64.635 31.868359
64.640 32.539734
64.645 32.445839
64.650 32.734226
64.655 31.634214
64.660 31.454288
64.665 30.84741
64.670 29.231359
64.675 27.931599
64.680 27.991165
64.685 27.986668
64.690 28.53998
64.695 28.15099
64.700 28.104443
64.705 28.682392
64.710 27.696779
64.715 26.270954
64.720 25.087803
64.725 24.339731
64.730 24.489141
64.735 24.305786
64.740 23.824511
64.745 24.221292
64.750 24.326319
64.755 24.852558
64.760 25.401566
64.765 24.506336
64.770 24.235929
64.775 24.362385
64.780 24.343969
64.785 24.452339
64.790 24.728279
64.795 24.589779
64.800 24.440779
64.805 24.002035
64.810 23.39204
64.815 23.065376
64.820 22.626135
64.825 21.653391
64.830 21.274279
64.835 21.176767
64.840 21.270361
64.845 20.929972
64.850 20.909668
64.855 20.804934
64.860 20.737383
64.865 20.986458
64.870 21.17277
64.875 21.342239
64.880 21.322031
64.885 21.251818
64.890 20.852575
64.895 20.514469
64.900 20.155642
64.905 20.464214
64.910 20.402308
64.915 20.802643
64.920 21.368385
64.925 22.62862
64.930 23.93354
64.935 24.295408
64.940 24.244478
64.945 24.641106
64.950 24.411251
64.955 23.578516
64.960 22.451584
64.965 21.232929
64.970 21.084915
64.975 21.328039
64.980 21.303366
64.985 21.876808
64.990 22.774803
64.995 23.785635
65.000 24.236763
65.005 24.613373
65.010 24.246958
65.015 24.157366
65.020 24.513214
65.025 24.415581
65.030 24.351795
65.035 25.473032
65.040 25.681896
65.045 26.486683
65.050 26.455599
65.055 26.317455
65.060 27.004719
65.065 27.145916
65.070 26.819866
65.075 26.657335
65.080 26.729109
65.085 27.485167
65.090 27.936932
65.095 28.338097
65.100 28.906172
65.105 29.490591
65.110 30.485777
65.115 31.540848
65.120 31.621801
65.125 31.606871
65.130 31.745426
65.135 32.012661
65.140 31.645571
65.145 31.822786
65.150 31.796009
65.155 32.580158
65.160 32.859619
65.165 32.786594
65.170 32.450912
65.175 32.76786
65.180 31.501068
65.185 31.126131
65.190 31.090725
65.195 30.762114
65.200 31.399826
65.205 31.369041
65.210 31.189007
65.215 31.358089
65.220 30.639685
65.225 29.736294
65.230 30.289106
65.235 30.148321
65.240 30.636707
65.245 30.905767
65.250 31.386568
65.255 32.248093
65.260 33.142014
65.265 32.612587
65.270 32.105366
65.275 31.933622
65.280 32.152332
65.285 31.970108
65.290 32.066906
65.295 31.968382
65.300 32.505829
65.305 32.905849
65.310 33.190754
65.315 33.319576
65.320 32.743874
65.325 32.340305
65.330 32.135769
65.335 32.527382
65.340 32.279842
65.345 31.152496
65.350 31.06966
65.355 31.647602
65.360 31.71821
65.365 31.372982
65.370 30.429068
65.375 31.133116
65.380 32.013172
65.385 32.210304
65.390 32.307453
65.395 31.762972
65.400 32.288464
65.405 33.192142
65.410 33.109173
65.415 33.868729
65.420 33.978149
65.425 33.503807
65.430 33.339325
65.435 33.157597
65.440 32.530231
65.445 32.554878
65.450 31.679546
65.455 32.044891
65.460 32.761253
65.465 33.226868
65.470 32.81852
65.475 32.826168
65.480 32.24062
65.485 31.896294
65.490 31.587988
65.495 32.022255
65.500 32.728905
65.505 34.033867
65.510 33.683865
65.515 33.895172
65.520 34.293991
65.525 33.548122
65.530 32.267143
65.535 31.559181
65.540 31.631609
65.545 32.928165
65.550 32.867798
65.555 32.442356
65.560 33.327618
65.565 33.654652
65.570 34.130768
65.575 33.988064
65.580 33.926704
65.585 34.181561
65.590 34.007675
65.595 34.037857
65.600 34.099403
65.605 33.795647
65.610 33.976105
65.615 32.453587
65.620 32.444462
65.625 32.917149
65.630 32.673542
65.635 33.28339
65.640 32.994453
65.645 32.070572
65.650 32.385105
65.655 31.78089
65.660 31.492022
65.665 31.315287
65.670 30.550539
65.675 30.269026
65.680 30.059931
65.685 30.285318
65.690 30.57481
65.695 30.573927
65.700 30.812399
65.705 30.468863
65.710 30.225977
65.715 30.440708
65.720 30.39724
65.725 29.820847
65.730 29.222389
65.735 28.160648
65.740 28.441263
65.745 28.241114
65.750 27.133295
65.755 26.673157
65.760 26.1469
65.765 26.372797
65.770 26.719446
65.775 26.557085
65.780 26.634668
65.785 26.761024
65.790 27.004787
65.795 27.348688
65.800 27.324205
65.805 27.325891
65.810 27.515211
65.815 27.342115
65.820 27.391354
65.825 26.792624
65.830 26.213293
65.835 26.240021
65.840 25.955091
65.845 25.828974
65.850 25.827757
65.855 25.304461
65.860 25.491903
65.865 25.592031
65.870 25.124111
65.875 24.887072
65.880 24.165533
65.885 23.466484
65.890 23.124916
65.895 22.523811
65.900 22.740103
65.905 23.069633
65.910 22.753963
65.915 22.92071
65.920 22.911659
65.925 22.939854
65.930 22.628361
65.935 22.212999
65.940 21.669256
65.945 21.513823
65.950 21.484676
65.955 21.701223
65.960 21.6334
65.965 21.725906
65.970 21.644411
65.975 21.753359
65.980 21.656672
65.985 21.551682
65.990 21.350466
65.995 21.175602
66.000 20.175344
66.005 19.859631
66.010 19.373196
66.015 19.477234
66.020 19.514275
66.025 19.096989
66.030 18.881212
66.035 18.70311
66.040 18.009052
66.045 17.795513
66.050 17.44165
66.055 17.021959
66.060 16.925953
66.065 17.013695
66.070 18.028904
66.075 18.424404
66.080 18.252323
66.085 17.753136
66.090 18.006874
66.095 17.6297
66.100 17.881386
66.105 17.642015
66.110 18.0418
66.115 18.383356
66.120 18.540449
66.125 18.863726
66.130 18.931849
66.135 18.490255
66.140 17.951984
66.145 17.397511
66.150 17.161552
66.155 17.110529
66.160 16.771233
66.165 17.343307
66.170 17.698956
66.175 17.825115
66.180 17.861217
66.185 17.691103
66.190 17.62536
66.195 17.862185
66.200 17.423319
66.205 17.22473
66.210 17.24692
66.215 17.732639
66.220 18.269804
66.225 18.19869
66.230 17.760792
66.235 17.792973
66.240 18.179956
66.245 18.215731
66.250 17.654463
66.255 17.579742
66.260 17.705961
66.265 17.947439
66.270 17.944271
66.275 17.246367
66.280 17.198198
66.285 17.171459
66.290 17.079739
66.295 17.186615
66.300 17.054255
66.305 16.505751
66.310 16.380472
66.315 16.68033
66.320 16.559265
66.325 15.801441
66.330 15.690631
66.335 15.613458
66.340 16.660851
66.345 17.107468
66.350 16.811327
66.355 17.008469
66.360 17.111803
66.365 16.809488
66.370 16.687067
66.375 16.179045
66.380 16.320944
66.385 16.219477
66.390 16.685394
66.395 17.318464
66.400 17.028717
66.405 16.763277
66.410 16.893089
66.415 16.22957
66.420 16.088587
66.425 15.815059
66.430 15.855634
66.435 16.842819
66.440 17.209751
66.445 16.365196
66.450 16.501499
66.455 16.122055
66.460 16.033056
66.465 15.977415
66.470 15.736282
66.475 15.371544
66.480 15.980762
66.485 16.133045
66.490 16.570845
66.495 16.558542
66.500 16.990732
66.505 16.676502
66.510 16.729057
66.515 16.606562
66.520 16.499599
66.525 16.617342
66.530 16.554764
66.535 16.314819
66.540 16.588043
66.545 16.690248
66.550 17.016907
66.555 17.262266
66.560 16.636454
66.565 16.188732
66.570 16.422848
66.575 16.438612
66.580 16.507862
66.585 16.641193
66.590 17.188126
66.595 17.609343
66.600 17.785784
66.605 17.684181
66.610 17.735491
66.615 17.894876
66.620 17.42923
66.625 17.103003
66.630 17.008966
66.635 17.353868
66.640 17.222397
66.645 17.047947
66.650 16.15481
66.655 15.626848
66.660 15.561661
66.665 15.820727
66.670 15.646753
66.675 15.296125
66.680 15.179988
66.685 15.516325
66.690 15.770968
66.695 15.875812
66.700 15.526396
66.705 15.84016
66.710 16.777803
66.715 17.23197
66.720 16.931042
66.725 16.957842
66.730 16.628145
66.735 16.581224
66.740 16.283997
66.745 15.739573
66.750 15.403218
66.755 15.838576
66.760 15.980353
66.765 16.349255
66.770 16.500889
66.775 16.252787
66.780 16.2719
66.785 16.411215
66.790 16.355467
66.795 16.438913
66.800 16.494837
66.805 16.851688
66.810 16.595165
66.815 16.331013
66.820 16.335255
66.825 16.463449
66.830 15.985001
66.835 15.669768
66.840 15.413237
66.845 15.6057
66.850 15.663228
66.855 15.689755
66.860 16.366684
66.865 16.688673
66.870 16.237669
66.875 15.921163
66.880 15.84244
66.885 16.116987
66.890 16.064411
66.895 15.609442
66.900 15.081848
66.905 15.825425
66.910 16.409391
66.915 16.012398
66.920 15.737814
66.925 15.907503
66.930 15.535947
66.935 15.590318
66.940 15.222385
66.945 15.158012
66.950 15.264326
66.955 15.435439
66.960 14.865149
66.965 14.810804
66.970 14.901826
66.975 14.529189
66.980 14.87246
66.985 15.303446
66.990 15.323887
66.995 15.60465
67.000 15.874947
67.005 16.149641
67.010 16.699682
67.015 16.333977
67.020 16.101721
67.025 16.564703
67.030 16.880264
67.035 16.678644
67.040 15.956224
67.045 15.627764
67.050 15.849813
67.055 16.394299
67.060 16.169569
67.065 16.464588
67.070 16.791796
67.075 17.354834
67.080 17.323996
67.085 17.028086
67.090 16.447466
67.095 16.062719
67.100 15.433349
67.105 15.013467
67.110 14.904228
67.115 15.062722
67.120 15.165276
67.125 15.421249
67.130 15.894236
67.135 16.575653
67.140 17.171879
67.145 17.168598
67.150 16.94684
67.155 16.711639
67.160 16.845312
67.165 16.956131
67.170 16.969818
67.175 16.504005
67.180 16.16441
67.185 15.561631
67.190 15.809655
67.195 16.00433
67.200 15.810603
67.205 16.469015
67.210 16.831081
67.215 16.990389
67.220 17.616896
67.225 17.42927
67.230 16.89064
67.235 17.16238
67.240 16.461725
67.245 16.795635
67.250 17.278885
67.255 16.885445
67.260 16.687723
67.265 16.689001
67.270 16.165163
67.275 16.096594
67.280 15.524603
67.285 15.319496
67.290 15.516367
67.295 15.930694
67.300 16.121342
67.305 16.103701
67.310 15.983391
67.315 15.895052
67.320 15.734475
67.325 15.653125
67.330 15.256835
67.335 15.137472
67.340 15.170176
67.345 15.070808
67.350 15.372869
67.355 15.927595
67.360 16.186977
67.365 16.150894
67.370 16.167503
67.375 15.850486
67.380 15.742772
67.385 15.121343
67.390 15.236763
67.395 15.169572
67.400 15.442739
67.405 15.286401
67.410 15.208863
67.415 15.507953
67.420 16.058189
67.425 15.573663
67.430 15.375198
67.435 14.786043
67.440 15.256327
67.445 15.483653
67.450 15.48326
67.455 15.814533
67.460 16.012978
67.465 16.764307
67.470 17.852707
67.475 18.046946
67.480 18.310816
67.485 18.158503
67.490 18.012964
67.495 17.922462
67.500 17.347416
67.505 16.878815
67.510 16.189661
67.515 15.970012
67.520 15.503036
67.525 15.284619
67.530 14.736494
67.535 14.747605
67.540 14.940231
67.545 15.261274
67.550 15.535051
67.555 16.459263
67.560 16.633057
67.565 16.764929
67.570 16.735657
67.575 16.371628
67.580 16.40967
67.585 16.242689
67.590 15.25045
67.595 15.296804
67.600 15.662098
67.605 15.751358
67.610 16.035696
67.615 15.703129
67.620 15.54005
67.625 16.03339
67.630 16.564808
67.635 16.243481
67.640 15.843789
67.645 16.008795
67.650 16.71077
67.655 17.682468
67.660 17.801447
67.665 17.180687
67.670 17.323143
67.675 17.660873
67.680 17.669363
67.685 17.514351
67.690 16.771057
67.695 16.403713
67.700 16.122152
67.705 15.842659
67.710 15.588656
67.715 14.820146
67.720 14.42467
67.725 15.103519
67.730 15.455808
67.735 16.237112
67.740 16.206995
67.745 16.135351
67.750 16.62771
67.755 16.503201
67.760 16.194065
67.765 16.331961
67.770 16.646235
67.775 16.853771
67.780 17.041178
67.785 16.950489
67.790 17.073189
67.795 16.686441
67.800 16.403982
67.805 16.005669
67.810 15.907913
67.815 15.553642
67.820 15.407584
67.825 15.274123
67.830 15.462723
67.835 15.54898
67.840 15.92871
67.845 16.203966
67.850 16.433289
67.855 16.723459
67.860 16.483187
67.865 17.027794
67.870 17.374981
67.875 17.650848
67.880 17.86252
67.885 17.965395
67.890 18.228771
67.895 18.526651
67.900 17.946033
67.905 17.685192
67.910 17.544783
67.915 17.064491
67.920 16.799841
67.925 16.468704
67.930 16.467951
67.935 16.487278
67.940 15.665185
67.945 15.518836
67.950 15.796368
67.955 16.289059
67.960 15.994344
67.965 16.104404
67.970 16.04076
67.975 16.946466
67.980 17.429636
67.985 17.597826
67.990 16.904118
67.995 17.078011
68.000 16.583042
68.005 16.384851
68.010 15.967423
68.015 15.657495
68.020 15.49963
68.025 16.659714
68.030 17.129833
68.035 17.34094
68.040 17.180223
68.045 16.847948
68.050 17.105736
68.055 17.345442
68.060 17.170435
68.065 17.108664
68.070 17.092857
68.075 17.359097
68.080 17.667852
68.085 17.825645
68.090 17.691154
68.095 16.972507
68.100 16.752319
68.105 17.244576
68.110 17.018478
68.115 16.623775
68.120 16.346029
68.125 16.315163
68.130 16.578619
68.135 16.929291
68.140 17.093639
68.145 17.586889
68.150 18.072012
68.155 18.199156
68.160 18.428907
68.165 18.859869
68.170 18.997931
68.175 19.270411
68.180 19.114758
68.185 19.65423
68.190 20.578371
68.195 21.114475
68.200 20.68124
68.205 20.560772
68.210 20.700258
68.215 21.143433
68.220 21.243675
68.225 20.96232
68.230 20.577274
68.235 20.530693
68.240 20.568192
68.245 20.896067
68.250 20.561241
68.255 20.118639
68.260 19.895533
68.265 20.144796
68.270 20.622391
68.275 20.704174
68.280 20.815712
68.285 21.371653
68.290 21.36828
68.295 21.429054
68.300 21.114637
68.305 21.247391
68.310 21.89258
68.315 22.078661
68.320 22.641249
68.325 22.786226
68.330 23.101276
68.335 23.610338
68.340 23.871075
68.345 24.31637
68.350 24.797598
68.355 24.445621
68.360 25.131882
68.365 25.963636
68.370 26.499008
68.375 26.611362
68.380 26.282499
68.385 26.627522
68.390 27.141771
68.395 27.183502
68.400 26.712389
68.405 26.846706
68.410 27.074789
68.415 27.095911
68.420 26.877695
68.425 26.721832
68.430 26.384628
68.435 27.098469
68.440 27.712345
68.445 27.004528
68.450 27.559078
68.455 27.976028
68.460 28.04797
68.465 28.62991
68.470 28.477858
68.475 28.414446
68.480 28.83032
68.485 28.203564
68.490 28.687006
68.495 29.48852
68.500 29.504107
68.505 29.655582
68.510 29.587774
68.515 29.331146
68.520 29.497355
68.525 29.266163
68.530 29.918182
68.535 29.209917
68.540 27.981543
68.545 28.206625
68.550 28.745012
68.555 28.077393
68.560 28.454657
68.565 27.924456
68.570 28.724174
68.575 29.463627
68.580 29.361891
68.585 29.840731
68.590 30.58412
68.595 30.089025
68.600 30.039331
68.605 30.029526
68.610 30.334032
68.615 30.588224
68.620 30.993826
68.625 31.220688
68.630 30.515837
68.635 30.643602
68.640 31.340456
68.645 31.404737
68.650 31.570536
68.655 31.350357
68.660 31.752777
68.665 33.197395
68.670 33.461826
68.675 33.332153
68.680 33.289036
68.685 33.531761
68.690 34.033535
68.695 33.845337
68.700 32.949928
68.705 32.955589
68.710 33.009735
68.715 32.755074
68.720 32.016251
68.725 31.541481
68.730 31.376402
68.735 31.283384
68.740 31.151398
68.745 31.596535
68.750 32.443443
68.755 33.492954
68.760 33.5424
68.765 33.744282
68.770 34.086369
68.775 33.861107
68.780 33.41666
68.785 32.441647
68.790 31.456232
68.795 31.404232
68.800 30.923853
68.805 30.662169
68.810 30.407515
68.815 30.293949
68.820 30.073004
68.825 29.342989
68.830 29.1646
68.835 30.244057
68.840 30.039507
68.845 29.92337
68.850 29.699043
68.855 30.372663
68.860 31.42528
68.865 31.645529
68.870 31.896503
68.875 32.251968
68.880 31.532759
68.885 31.36046
68.890 31.276728
68.895 30.948191
68.900 30.323801
68.905 29.465609
68.910 29.49238
68.915 29.799932
68.920 29.74354
68.925 29.595045
68.930 28.664194
68.935 27.683584
68.940 27.588432
68.945 27.381886
68.950 26.963886
68.955 26.417986
68.960 26.243158
68.965 26.648102
68.970 26.984692
68.975 26.868044
68.980 27.174883
68.985 27.661018
68.990 27.889112
68.995 27.654268
69.000 27.43305
69.005 27.352924
69.010 26.887503
69.015 25.835432
69.020 25.798944
69.025 25.558445
69.030 25.917032
69.035 25.224583
69.040 24.615705
69.045 24.215162
69.050 24.283772
69.055 23.613089
69.060 23.384972
69.065 23.582207
69.070 24.073563
69.075 24.356337
69.080 24.085934
69.085 24.117434
69.090 24.705214
69.095 24.251959
69.100 24.343842
69.105 23.918756
69.110 23.235689
69.115 23.200094
69.120 22.846674
69.125 22.542147
69.130 22.65988
69.135 22.429739
69.140 23.218895
69.145 23.84631
69.150 23.520912
69.155 23.578621
69.160 23.440657
69.165 23.30619
69.170 22.597635
69.175 21.987198
69.180 22.177359
69.185 22.581219
69.190 22.323238
69.195 21.456203
69.200 21.06736
69.205 21.535303
69.210 20.56444
69.215 19.919703
69.220 19.37138
69.225 19.591604
69.230 19.836462
69.235 19.747082
69.240 19.709467
69.245 19.94894
69.250 20.408318
69.255 20.110952
69.260 19.983387
69.265 20.252542
69.270 19.92799
69.275 19.859373
69.280 19.920296
69.285 19.263744
69.290 19.197407
69.295 19.265812
69.300 19.525434
69.305 19.480032
69.310 19.235725
69.315 19.420198
69.320 19.551453
69.325 19.800753
69.330 19.565805
69.335 19.446611
69.340 19.661255
69.345 19.911016
69.350 19.868498
69.355 19.782314
69.360 19.424114
69.365 19.701834
69.370 19.489479
69.375 19.022833
69.380 18.283243
69.385 17.437414
69.390 17.609947
69.395 17.683786
69.400 17.358269
69.405 17.474796
69.410 17.517921
69.415 17.469385
69.420 17.240187
69.425 17.267334
69.430 17.239262
69.435 17.337122
69.440 16.859247
69.445 16.628845
69.450 17.237743
69.455 17.42145
69.460 17.434977
69.465 17.448416
69.470 17.222542
69.475 17.691591
69.480 18.03487
69.485 17.570019
69.490 17.768627
69.495 17.508242
69.500 17.379707
69.505 17.386454
69.510 17.9184
69.515 18.20245
69.520 18.312719
69.525 18.642548
69.530 18.770117
69.535 18.595654
69.540 18.349918
69.545 17.586349
69.550 17.851778
69.555 18.048555
69.560 18.116501
69.565 18.488005
69.570 18.924417
69.575 18.548271
69.580 18.630486
69.585 18.033163
69.590 17.24297
69.595 17.165651
69.600 16.689688
69.605 16.505421
69.610 16.710859
69.615 16.446274
69.620 16.792665
69.625 17.591869
69.630 17.545567
69.635 17.412924
69.640 17.823406
69.645 18.013227
69.650 18.085632
69.655 17.516771
69.660 17.608536
69.665 17.637062
69.670 17.393469
69.675 17.136517
69.680 16.760689
69.685 16.69771
69.690 17.098595
69.695 16.531319
69.700 16.442213
69.705 16.319218
69.710 16.27035
69.715 16.592268
69.720 16.731731
69.725 16.309126
69.730 16.537439
69.735 16.714054
69.740 17.368155
69.745 17.841833
69.750 17.806778
69.755 18.075382
69.760 18.504065
69.765 18.417179
69.770 18.311592
69.775 17.720528
69.780 17.436527
69.785 17.85676
69.790 17.762171
69.795 17.842575
69.800 18.135229
69.805 17.70734
69.810 17.768669
69.815 17.670509
69.820 17.210602
69.825 16.953249
69.830 16.521072
69.835 16.511869
69.840 16.572201
69.845 16.570375
69.850 16.196629
69.855 16.052929
69.860 15.87171
69.865 16.311123
69.870 16.461365
69.875 17.232538
69.880 17.848759
69.885 18.21101
69.890 17.797371
69.895 17.863653
69.900 17.617437
69.905 17.781345
69.910 17.641716
69.915 17.368298
69.920 16.973858
69.925 17.404409
69.930 17.425446
69.935 17.33206
69.940 16.610216
69.945 16.336941
69.950 16.666531
69.955 17.00246
69.960 16.722322
69.965 17.227119
69.970 17.037603
69.975 16.844181
69.980 16.41618
69.985 16.321995
69.990 16.32798
69.995 16.406441
70.000 16.06386
70.005 16.146303
70.010 16.277876
70.015 16.516293
70.020 16.439472
70.025 16.874907
70.030 16.68701
70.035 16.326939
70.040 16.063457
70.045 16.185722
70.050 16.28541
70.055 16.350927
70.060 16.214645
70.065 15.646427
70.070 16.022114
70.075 16.171925
70.080 15.993619
70.085 16.289486
70.090 16.514135
70.095 16.20015
70.100 16.818722
70.105 16.899736
70.110 17.295799
70.115 16.777964
70.120 15.830892
70.125 15.573786
70.130 16.077349
70.135 16.198376
70.140 16.185568
70.145 16.568354
70.150 16.822041
70.155 17.021284
70.160 16.73674
70.165 16.381351
70.170 16.57519
70.175 16.771555
70.180 17.243824
70.185 17.800699
70.190 18.43071
70.195 18.994131
70.200 18.493025
70.205 18.19647
70.210 17.958483
70.215 17.621746
70.220 17.5828
70.225 17.027531
70.230 17.200039
70.235 17.84836
70.240 17.928305
70.245 17.619625
70.250 17.583319
70.255 17.313185
70.260 17.777281
70.265 18.546154
70.270 18.311531
70.275 17.971634
70.280 17.596722
70.285 17.27949
70.290 17.159956
70.295 16.11627
70.300 15.210311
70.305 14.7756
70.310 15.120575
70.315 15.597423
70.320 15.913181
70.325 16.178217
70.330 16.5581
70.335 16.604828
70.340 16.427689
70.345 16.462954
70.350 16.59293
70.355 16.188969
70.360 15.942645
70.365 15.562835
70.370 16.112234
70.375 16.811981
70.380 16.661873
70.385 16.444494
70.390 16.249886
70.395 16.414978
70.400 16.978455
70.405 16.516207
70.410 16.339645
70.415 16.492199
70.420 16.038582
70.425 16.317268
70.430 15.954944
70.435 15.716244
70.440 15.760636
70.445 15.409533
70.450 15.73452
70.455 16.00036
70.460 16.670254
70.465 16.970673
70.470 16.740406
70.475 16.914921
70.480 17.120035
70.485 17.069023
70.490 17.223383
70.495 16.598669
70.500 16.782444
70.505 17.157318
70.510 17.472698
70.515 17.558197
70.520 17.71409
70.525 17.168436
70.530 16.952703
70.535 16.627596
70.540 16.974951
70.545 16.882097
70.550 16.550896
70.555 16.289135
70.560 16.526451
70.565 16.900286
70.570 16.83687
70.575 16.086254
70.580 15.327673
70.585 15.123775
70.590 15.509868
70.595 15.903395
70.600 15.820448
70.605 15.659676
70.610 15.875979
70.615 16.322418
70.620 16.512859
70.625 16.070961
70.630 15.861809
70.635 16.104763
70.640 16.28903
70.645 16.372808
70.650 16.564611
70.655 16.618799
70.660 16.491329
70.665 16.958851
70.670 17.050316
70.675 16.91147
70.680 16.566441
70.685 16.007084
70.690 16.440569
70.695 16.385792
70.700 15.709116
70.705 15.726554
70.710 15.891116
70.715 16.477823
70.720 16.813942
70.725 16.882689
70.730 17.359652
70.735 17.433117
70.740 17.254004
70.745 16.805944
70.750 16.848389
70.755 16.988653
70.760 16.619745
70.765 16.353918
70.770 15.954934
70.775 16.457258
70.780 16.078102
70.785 16.046984
70.790 15.958701
70.795 16.353746
70.800 16.366026
70.805 16.423437
70.810 16.105074
70.815 16.330923
70.820 16.002142
70.825 16.214874
70.830 15.54683
70.835 15.141332
70.840 14.676215
70.845 14.773749
70.850 14.904827
70.855 14.830166
70.860 14.786509
70.865 15.291233
70.870 16.236727
70.875 16.921087
70.880 16.907976
70.885 16.476852
70.890 16.291162
70.895 16.296867
70.900 16.246542
70.905 15.856605
70.910 15.993166
70.915 16.503826
70.920 16.874079
70.925 16.701107
70.930 16.547049
70.935 16.363279
70.940 16.292887
70.945 16.192551
70.950 15.864197
70.955 15.871355
70.960 15.701362
70.965 15.906796
70.970 15.759686
70.975 15.468583
70.980 15.427612
70.985 15.838713
70.990 16.191282
70.995 16.187317
71.000 16.214386
71.005 16.035402
71.010 15.798326
71.015 15.971169
71.020 16.041292
71.025 16.31127
71.030 16.927645
71.035 17.05389
71.040 17.571028
71.045 17.90601
71.050 17.76655
71.055 17.206564
71.060 16.482145
71.065 16.155874
71.070 16.32238
71.075 16.364515
71.080 16.39793
71.085 16.636744
71.090 16.858639
71.095 17.152031
71.100 17.517534
71.105 17.090813
71.110 17.266605
71.115 17.212727
71.120 16.987391
71.125 16.452023
71.130 16.318487
71.135 16.421453
71.140 16.557171
71.145 16.001654
71.150 15.745943
71.155 15.359091
71.160 16.04281
71.165 15.665735
71.170 14.86897
71.175 14.694716
71.180 14.639675
71.185 14.633471
71.190 15.104691
71.195 15.526176
71.200 15.805115
71.205 16.166727
71.210 16.660137
71.215 16.83621
71.220 16.725384
71.225 16.61236
71.230 16.374538
71.235 16.528399
71.240 16.423843
71.245 15.593544
71.250 15.964628
71.255 15.944209
71.260 15.63439
71.265 15.546755
71.270 15.799576
71.275 15.885356
71.280 16.254358
71.285 16.371704
71.290 16.589228
71.295 17.237064
71.300 17.172209
71.305 17.021488
71.310 16.784977
71.315 16.84811
71.320 16.476994
71.325 16.607737
71.330 16.697792
71.335 16.887306
71.340 17.206631
71.345 17.353619
71.350 17.332567
71.355 17.079535
71.360 16.440834
71.365 15.670553
71.370 15.086394
71.375 15.036803
71.380 14.9188
71.385 14.699003
71.390 14.364276
71.395 14.783513
71.400 15.637865
71.405 16.023996
71.410 16.192364
71.415 16.261503
71.420 16.566725
71.425 17.469107
71.430 17.556581
71.435 16.673979
71.440 17.009058
71.445 17.538773
71.450 18.170713
71.455 18.076351
71.460 17.479385
71.465 16.774336
71.470 16.822735
71.475 16.065641
71.480 15.601457
71.485 15.164897
71.490 15.852651
71.495 16.297066
71.500 17.142355
71.505 17.36944
71.510 17.6145
71.515 17.543594
71.520 17.657263
71.525 17.582417
71.530 17.77577
71.535 17.723312
71.540 17.987787
71.545 17.890366
71.550 17.817558
71.555 17.602093
71.560 17.320343
71.565 16.784288
71.570 16.71909
71.575 15.940497
71.580 16.102421
71.585 16.050146
71.590 16.908796
71.595 17.000782
71.600 17.014187
71.605 16.6912
71.610 16.768267
71.615 16.984131
71.620 16.705099
71.625 16.279686
71.630 16.263563
71.635 16.527912
71.640 16.906052
71.645 17.013885
71.650 16.811222
71.655 16.241526
71.660 15.676819
71.665 15.456071
71.670 15.409079
71.675 14.921758
71.680 15.072259
71.685 15.011571
71.690 15.291578
71.695 15.560228
71.700 15.862517
71.705 16.292591
71.710 16.667461
71.715 16.057325
71.720 16.048563
71.725 16.401485
71.730 16.122393
71.735 15.904034
71.740 15.485787
71.745 15.476506
71.750 16.313717
71.755 16.624964
71.760 16.458534
71.765 16.505821
71.770 16.576632
71.775 16.820356
71.780 16.605312
71.785 16.328142
71.790 15.924671
71.795 16.144268
71.800 16.340355
71.805 16.078529
71.810 15.713268
71.815 15.780886
71.820 15.712107
71.825 15.504901
71.830 15.529658
71.835 15.312893
71.840 16.135365
71.845 16.967178
71.850 17.150909
71.855 17.218323
71.860 17.382431
71.865 17.371899
71.870 16.667482
71.875 16.178276
71.880 16.287827
71.885 16.056652
71.890 15.903492
71.895 15.963984
71.900 16.024286
71.905 16.35586
71.910 15.837125
71.915 14.934361
71.920 15.060749
71.925 15.598779
71.930 15.882058
71.935 16.032564
71.940 16.526548
71.945 17.152935
71.950 17.5331
71.955 17.430168
71.960 17.101225
71.965 17.193718
71.970 17.320875
71.975 17.204037
71.980 16.837641
71.985 16.798309
71.990 16.774288
71.995 16.16197
72.000 15.590919
72.005 15.434165
72.010 15.588218
72.015 15.940203
72.020 16.143976
72.025 16.269444
72.030 16.936819
72.035 17.522278
72.040 17.103535
72.045 17.15686
72.050 16.675781
72.055 16.523109
72.060 16.421961
72.065 16.467838
72.070 16.664082
72.075 16.481833
72.080 16.778654
72.085 17.537882
72.090 17.613451
72.095 17.802713
72.100 17.122076
72.105 17.139889
72.110 17.009602
72.115 16.371357
72.120 16.157749
72.125 15.795613
72.130 15.922517
72.135 16.271488
72.140 16.65629
72.145 16.938841
72.150 16.860224
72.155 16.861849
72.160 17.738699
72.165 17.852175
72.170 17.545376
72.175 17.559248
72.180 17.79627
72.185 17.513079
72.190 17.781054
72.195 17.491596
72.200 17.484642
72.205 17.617062
72.210 17.434679
72.215 17.591833
72.220 17.84305
72.225 17.220951
72.230 17.193247
72.235 17.179882
72.240 17.3214
72.245 17.435495
72.250 17.77656
72.255 17.93504
72.260 18.130463
72.265 18.558023
72.270 18.512775
72.275 18.213453
72.280 17.592728
72.285 17.019911
72.290 16.609404
72.295 16.104143
72.300 15.450693
72.305 15.648922
72.310 15.778304
72.315 16.682596
72.320 16.610233
72.325 16.698143
72.330 16.688829
72.335 16.280478
72.340 16.219955
72.345 16.557451
72.350 16.329651
72.355 15.96889
72.360 15.573924
72.365 15.884892
72.370 16.063801
72.375 15.692777
72.380 15.348354
72.385 14.60563
72.390 15.13092
72.395 15.147051
72.400 15.511353
72.405 15.957957
72.410 15.882089
72.415 15.889318
72.420 16.429272
72.425 16.109737
72.430 15.766827
72.435 15.463641
72.440 14.886757
72.445 15.323699
72.450 15.759013
72.455 15.816017
72.460 16.564684
72.465 16.614601
72.470 16.797182
72.475 16.906694
72.480 16.529392
72.485 16.188513
72.490 15.585316
72.495 14.914461
72.500 14.974313
72.505 14.281056
72.510 14.086365
72.515 14.038377
72.520 13.852859
72.525 14.264769
72.530 14.344186
72.535 14.478716
72.540 14.967916
72.545 14.621848
72.550 14.477008
72.555 15.091815
72.560 15.865771
72.565 16.374746
72.570 16.225811
72.575 16.357607
72.580 17.395121
72.585 17.630888
72.590 17.416611
72.595 16.892365
72.600 17.080875
72.605 17.361095
72.610 17.651634
72.615 17.37821
72.620 17.438599
72.625 17.538275
72.630 17.060812
72.635 16.678352
72.640 16.387421
72.645 15.295154
72.650 14.524137
72.655 13.891395
72.660 13.616842
72.665 13.733361
72.670 13.618404
72.675 14.016735
72.680 14.516533
72.685 14.941415
72.690 15.522826
72.695 16.524012
72.700 16.416264
72.705 16.89592
72.710 16.754234
72.715 16.727962
72.720 16.543112
72.725 15.432807
72.730 14.80823
72.735 14.625136
72.740 14.167295
72.745 14.134285
72.750 14.673122
72.755 14.907504
72.760 15.272738
72.765 15.592031
72.770 15.441143
72.775 15.810678
72.780 15.646407
72.785 15.722271
72.790 15.222141
72.795 15.314593
72.800 15.069517
72.805 15.308702
72.810 15.13576
72.815 15.158185
72.820 15.414257
72.825 16.274662
72.830 16.294844
72.835 16.595003
72.840 16.48538
72.845 16.202465
72.850 16.06988
72.855 15.773422
72.860 15.174849
72.865 14.794348
72.870 15.189725
72.875 15.391422
72.880 15.844248
72.885 15.661862
72.890 15.370495
72.895 15.297258
72.900 15.169015
72.905 15.385939
72.910 15.55213
72.915 15.220724
72.920 15.33551
72.925 15.534884
72.930 15.946417
72.935 15.72521
72.940 14.958149
72.945 14.687415
72.950 14.67152
72.955 14.786002
72.960 15.321956
72.965 15.161663
72.970 15.314087
72.975 15.322104
72.980 15.315462
72.985 15.045034
72.990 14.850496
72.995 15.478779
73.000 15.389132
