!@!!GADDS PLOTSO FILE: Chi integration type
!@!!Title/SampleName: map-3
!@!!Comment: ?
!@!!User: Bruker Instrument Administrator
!@!!Site: University of Illinois Chicago
!@!!Frame: map-3_01_000.gfrm
!@!!Wavelengths    1.54184   1.54056   1.54439
!@!!Frame angles: 2Theta: 63.000 Omega: 50.000 Phi: 0.000 Chi: 90.000
!@!!Integration range: 2Theta: 53.000 to 73.000  Gamma: -105.000 to -75.000
!@!!Integration method: bin normalized
!@!N
!@!SS
!@!M
!@!L 0.0 0.0 0.0 0.0
!@!XDegrees
!@!YCounts
53.000 7.464116
53.005 7.686832
53.010 8.050605
53.015 8.236921
53.020 8.482284
53.025 8.86735
53.030 8.981298
53.035 8.640292
53.040 8.611484
53.045 8.748255
53.050 9.301515
53.055 9.129874
53.060 8.608448
53.065 8.312075
53.070 8.201114
53.075 8.026062
53.080 7.46998
53.085 7.389801
53.090 8.155118
53.095 8.12125
53.100 8.192932
53.105 8.541343
53.110 8.621134
53.115 8.738066
53.120 8.425997
53.125 7.785621
53.130 7.53813
53.135 7.120159
53.140 6.802809
53.145 7.13681
53.150 7.122229
53.155 7.151805
53.160 7.482108
53.165 7.619547
53.170 7.794882
53.175 7.902981
53.180 7.773978
53.185 7.625803
53.190 7.687199
53.195 8.074522
53.200 8.756024
53.205 9.038073
53.210 9.110266
53.215 9.516927
53.220 9.841055
53.225 9.834723
53.230 9.510387
53.235 9.230185
53.240 9.044706
53.245 8.895548
53.250 8.638258
53.255 8.868139
53.260 8.963033
53.265 9.082246
53.270 9.189578
53.275 9.234684
53.280 9.107355
53.285 8.512103
53.290 8.013819
53.295 7.802738
53.300 7.62974
53.305 7.898898
53.310 7.853758
53.315 8.180074
53.320 8.358591
53.325 9.230972
53.330 9.573315
53.335 9.375191
53.340 9.043418
53.345 8.829272
53.350 9.027364
53.355 9.113554
53.360 8.529074
53.365 8.239712
53.370 8.20512
53.375 8.252966
53.380 8.110536
53.385 8.022223
53.390 8.356707
53.395 8.894045
53.400 9.126593
53.405 9.138564
53.410 9.198525
53.415 9.163062
53.420 8.89182
53.425 8.475362
53.430 8.23928
53.435 8.109095
53.440 8.390552
53.445 8.236569
53.450 8.453096
53.455 8.634325
53.460 8.864005
53.465 9.044041
53.470 9.304232
53.475 9.460247
53.480 9.714631
53.485 9.701924
53.490 9.06967
53.495 8.691467
53.500 8.240416
53.505 7.98018
53.510 8.167994
53.515 8.254126
53.520 8.474793
53.525 8.887493
53.530 9.166151
53.535 8.981557
53.540 9.176711
53.545 9.060522
53.550 8.864366
53.555 8.680499
53.560 8.160268
53.565 7.996147
53.570 8.184579
53.575 8.002299
53.580 7.744083
53.585 7.95889
53.590 8.366609
53.595 8.478102
53.600 8.420303
53.605 8.402528
53.610 8.565242
53.615 8.45246
53.620 7.978781
53.625 7.918548
53.630 8.246923
53.635 8.539941
53.640 8.41176
53.645 8.362996
53.650 8.927444
53.655 9.262579
53.660 9.164454
53.665 8.772873
53.670 8.684458
53.675 8.902389
53.680 8.973804
53.685 8.890166
53.690 8.823724
53.695 8.787476
53.700 9.177043
53.705 9.073859
53.710 8.877828
53.715 8.674925
53.720 8.592532
53.725 8.017235
53.730 7.520566
53.735 7.311358
53.740 7.385443
53.745 7.37987
53.750 7.396578
53.755 7.382061
53.760 7.986363
53.765 8.234357
53.770 8.298995
53.775 8.362902
53.780 8.926263
53.785 8.849083
53.790 8.855233
53.795 8.502369
53.800 8.558431
53.805 8.582223
53.810 8.467839
53.815 8.224737
53.820 8.600404
53.825 9.050946
53.830 9.44606
53.835 10.074939
53.840 9.855783
53.845 9.846629
53.850 9.68071
53.855 9.890138
53.860 9.604975
53.865 9.504704
53.870 9.892323
53.875 9.914824
53.880 10.099226
53.885 10.126048
53.890 9.76411
53.895 9.654379
53.900 9.018417
53.905 8.636951
53.910 8.772433
53.915 8.297548
53.920 8.274499
53.925 8.442113
53.930 8.799067
53.935 8.573455
53.940 8.384659
53.945 8.243565
53.950 8.247993
53.955 8.146031
53.960 8.275386
53.965 8.00401
53.970 8.244932
53.975 8.373639
53.980 8.752007
53.985 8.951948
53.990 9.143489
53.995 9.374011
54.000 9.685241
54.005 9.640339
54.010 9.696424
54.015 9.584973
54.020 9.558228
54.025 9.392003
54.030 9.453502
54.035 9.430331
54.040 9.741688
54.045 9.775557
54.050 9.810216
54.055 10.246186
54.060 9.980451
54.065 9.815336
54.070 9.523838
54.075 9.083802
54.080 8.765052
54.085 8.683515
54.090 8.474468
54.095 8.059586
54.100 7.932191
54.105 8.105007
54.110 8.399364
54.115 8.530224
54.120 8.391308
54.125 8.489059
54.130 9.035549
54.135 9.42353
54.140 9.699979
54.145 9.374381
54.150 9.428149
54.155 9.385448
54.160 9.462062
54.165 9.47105
54.170 9.380859
54.175 9.385894
54.180 9.437002
54.185 9.279301
54.190 9.214617
54.195 8.861765
54.200 8.790959
54.205 8.66242
54.210 9.084144
54.215 8.883406
54.220 8.835926
54.225 8.756386
54.230 8.897145
54.235 8.415084
54.240 7.874008
54.245 7.749648
54.250 8.292527
54.255 8.518855
54.260 8.87247
54.265 9.478564
54.270 9.914382
54.275 10.198368
54.280 10.505491
54.285 10.586885
54.290 11.14724
54.295 10.850468
54.300 10.535582
54.305 10.70617
54.310 10.664615
54.315 10.398538
54.320 10.310443
54.325 9.792475
54.330 9.889105
54.335 10.347378
54.340 10.431458
54.345 10.526694
54.350 10.316239
54.355 10.20228
54.360 10.364618
54.365 9.993919
54.370 9.756308
54.375 9.534525
54.380 9.185329
54.385 9.220114
54.390 9.443106
54.395 9.781943
54.400 10.035078
54.405 9.446301
54.410 9.650646
54.415 9.506033
54.420 9.382834
54.425 9.006137
54.430 8.863672
54.435 8.90954
54.440 9.154692
54.445 9.292457
54.450 9.788841
54.455 9.773939
54.460 9.623974
54.465 9.445996
54.470 9.399909
54.475 9.790052
54.480 9.543574
54.485 9.560144
54.490 9.636867
54.495 9.691153
54.500 9.700444
54.505 9.512571
54.510 9.369326
54.515 9.395052
54.520 9.319736
54.525 9.654784
54.530 9.675406
54.535 9.635117
54.540 9.760106
54.545 9.652575
54.550 9.958428
54.555 10.155801
54.560 9.701412
54.565 9.684778
54.570 9.674727
54.575 9.613239
54.580 9.394063
54.585 9.137301
54.590 9.119422
54.595 9.802375
54.600 10.19523
54.605 10.275649
54.610 10.124542
54.615 9.940398
54.620 9.789853
54.625 9.500459
54.630 9.545834
54.635 9.55829
54.640 10.079725
54.645 10.153378
54.650 10.436485
54.655 11.118491
54.660 11.206221
54.665 11.071356
54.670 11.218038
54.675 11.109816
54.680 11.72049
54.685 11.229839
54.690 10.404824
54.695 9.846322
54.700 9.335669
54.705 9.139199
54.710 8.905755
54.715 8.546738
54.720 9.094515
54.725 9.574178
54.730 10.07583
54.735 10.37329
54.740 10.56901
54.745 10.671107
54.750 10.46312
54.755 10.027108
54.760 10.099437
54.765 9.81791
54.770 9.779593
54.775 9.283035
54.780 9.28096
54.785 9.782968
54.790 9.824984
54.795 10.125151
54.800 10.533936
54.805 10.700571
54.810 10.787421
54.815 10.443154
54.820 10.216834
54.825 10.383443
54.830 10.108043
54.835 10.135773
54.840 10.225674
54.845 10.938827
54.850 11.416998
54.855 11.737585
54.860 11.516804
54.865 11.230546
54.870 11.043802
54.875 10.984943
54.880 11.054479
54.885 11.143496
54.890 10.733007
54.895 10.759497
54.900 10.77489
54.905 10.429008
54.910 10.25322
54.915 10.247018
54.920 10.419782
54.925 10.942861
54.930 11.031983
54.935 11.281578
54.940 11.557511
54.945 11.331731
54.950 10.800914
54.955 10.577122
54.960 10.236185
54.965 10.361547
54.970 10.361982
54.975 10.565998
54.980 10.987435
54.985 11.25546
54.990 11.016098
54.995 10.957084
55.000 10.489719
55.005 10.16899
55.010 10.036011
55.015 9.666898
55.020 9.592456
55.025 9.625541
55.030 9.379284
55.035 9.710589
55.040 9.927781
55.045 9.735065
55.050 9.852523
55.055 10.061011
55.060 10.24509
55.065 10.385792
55.070 10.355887
55.075 9.835587
55.080 10.017962
55.085 10.09943
55.090 10.493426
55.095 10.45188
55.100 10.599938
55.105 10.972551
55.110 11.98112
55.115 12.310275
55.120 12.353183
55.125 11.716982
55.130 11.224286
55.135 11.006239
55.140 10.581967
55.145 10.273218
55.150 9.961592
55.155 9.541658
55.160 9.780975
55.165 10.321232
55.170 10.583883
55.175 10.949088
55.180 10.843234
55.185 10.781551
55.190 11.083264
55.195 11.187261
55.200 11.290555
55.205 11.176227
55.210 10.916838
55.215 10.930618
55.220 11.085448
55.225 11.266654
55.230 11.567354
55.235 11.647964
55.240 11.695141
55.245 11.66138
55.250 12.100239
55.255 11.825114
55.260 11.121579
55.265 11.108832
55.270 10.615138
55.275 10.594046
55.280 10.809501
55.285 10.494982
55.290 10.451738
55.295 10.430892
55.300 10.596334
55.305 10.594662
55.310 10.381099
55.315 10.289239
55.320 10.002703
55.325 10.152943
55.330 10.384349
55.335 10.434742
55.340 10.810669
55.345 10.748466
55.350 10.543509
55.355 10.691711
55.360 11.405028
55.365 11.413088
55.370 11.26226
55.375 10.986011
55.380 11.076885
55.385 11.032471
55.390 11.269287
55.395 10.949275
55.400 10.312318
55.405 9.9729
55.410 10.433143
55.415 10.626028
55.420 10.707339
55.425 10.184815
55.430 10.140167
55.435 10.701445
55.440 11.228344
55.445 10.603764
55.450 10.636747
55.455 11.205405
55.460 11.423978
55.465 11.224095
55.470 11.085851
55.475 11.017586
55.480 11.370526
55.485 11.406328
55.490 11.032986
55.495 11.234158
55.500 11.974709
55.505 12.320977
55.510 12.301135
55.515 11.98046
55.520 11.965079
55.525 12.11327
55.530 11.201388
55.535 10.655595
55.540 10.336498
55.545 10.002167
55.550 9.95739
55.555 9.555736
55.560 9.464769
55.565 10.250937
55.570 10.53105
55.575 10.559697
55.580 10.84326
55.585 10.882958
55.590 11.156426
55.595 11.537509
55.600 11.267244
55.605 11.194825
55.610 11.38648
55.615 11.399485
55.620 11.587341
55.625 11.06712
55.630 10.709444
55.635 10.994893
55.640 10.672153
55.645 10.510061
55.650 10.262695
55.655 10.145518
55.660 10.195736
55.665 10.010618
55.670 9.528426
55.675 9.428439
55.680 9.460471
55.685 9.700554
55.690 10.167534
55.695 10.161788
55.700 10.0474
55.705 10.446487
55.710 10.862435
55.715 11.021131
55.720 10.70065
55.725 10.469576
55.730 10.550687
55.735 10.559477
55.740 10.073045
55.745 10.017898
55.750 10.066276
55.755 10.417745
55.760 10.314736
55.765 10.514627
55.770 10.929991
55.775 11.184269
55.780 10.865456
55.785 10.924907
55.790 11.058333
55.795 11.385099
55.800 11.682959
55.805 11.586617
55.810 11.881591
55.815 11.646305
55.820 11.17884
55.825 11.035202
55.830 11.061053
55.835 11.173859
55.840 11.064427
55.845 10.873237
55.850 11.374222
55.855 11.357525
55.860 11.443178
55.865 11.335252
55.870 11.204767
55.875 11.300047
55.880 11.447264
55.885 11.833601
55.890 11.991534
55.895 11.696759
55.900 11.058348
55.905 10.786036
55.910 10.981882
55.915 10.714006
55.920 10.375668
55.925 10.779864
55.930 10.958208
55.935 11.465386
55.940 11.386702
55.945 11.328259
55.950 11.836595
55.955 11.91986
55.960 11.447582
55.965 11.390864
55.970 11.485624
55.975 12.039073
55.980 12.590752
55.985 12.270793
55.990 11.916385
55.995 12.099431
56.000 12.479678
56.005 11.742873
56.010 10.977922
56.015 10.337943
56.020 10.802178
56.025 11.367846
56.030 11.161186
56.035 10.811402
56.040 11.105554
56.045 11.432371
56.050 11.389391
56.055 10.834031
56.060 10.797818
56.065 10.894457
56.070 11.031036
56.075 10.998176
56.080 10.933392
56.085 11.012774
56.090 11.31026
56.095 10.810673
56.100 10.501542
56.105 10.594039
56.110 10.654734
56.115 10.485608
56.120 10.483108
56.125 10.388127
56.130 10.771939
56.135 11.161097
56.140 11.479552
56.145 12.056927
56.150 12.182943
56.155 12.602585
56.160 12.640909
56.165 13.298587
56.170 13.433318
56.175 12.9883
56.180 12.749845
56.185 13.058174
56.190 13.033953
56.195 12.849821
56.200 11.819335
56.205 11.399673
56.210 11.182373
56.215 10.627368
56.220 10.593472
56.225 10.235693
56.230 10.521103
56.235 11.149804
56.240 11.303533
56.245 11.6112
56.250 11.342413
56.255 10.920864
56.260 11.005267
56.265 11.010493
56.270 10.8887
56.275 11.259862
56.280 11.135804
56.285 11.515656
56.290 11.69737
56.295 11.699885
56.300 11.580405
56.305 11.662524
56.310 12.117434
56.315 12.830599
56.320 13.182854
56.325 13.097059
56.330 13.555547
56.335 13.533717
56.340 13.329516
56.345 12.826608
56.350 12.169168
56.355 12.251887
56.360 11.964144
56.365 11.558717
56.370 11.44698
56.375 11.935713
56.380 12.063135
56.385 12.150126
56.390 12.275208
56.395 12.607811
56.400 12.968256
56.405 13.047648
56.410 12.372552
56.415 11.932567
56.420 11.70663
56.425 10.868775
56.430 10.68493
56.435 10.578776
56.440 10.439543
56.445 10.791908
56.450 11.131125
56.455 11.218843
56.460 11.676936
56.465 11.519814
56.470 11.506547
56.475 11.396977
56.480 11.007809
56.485 10.751944
56.490 11.338546
56.495 11.34063
56.500 11.171049
56.505 11.006328
56.510 11.328901
56.515 11.377728
56.520 11.661562
56.525 12.092031
56.530 12.671165
56.535 13.2019
56.540 13.498577
56.545 13.946369
56.550 14.567037
56.555 14.019892
56.560 12.900339
56.565 12.6797
56.570 12.295108
56.575 12.67735
56.580 12.136766
56.585 11.456822
56.590 11.498297
56.595 11.841923
56.600 12.021165
56.605 12.191863
56.610 11.645584
56.615 11.779258
56.620 12.360013
56.625 12.488978
56.630 12.196687
56.635 12.255713
56.640 12.521523
56.645 12.761613
56.650 12.74034
56.655 12.626482
56.660 13.081178
56.665 13.030421
56.670 12.669868
56.675 12.292669
56.680 11.972266
56.685 12.13218
56.690 12.285511
56.695 12.418317
56.700 12.780365
56.705 13.033421
56.710 13.279623
56.715 13.282644
56.720 13.445945
56.725 13.502459
56.730 13.699393
56.735 13.625813
56.740 13.3624
56.745 13.326771
56.750 13.154414
56.755 13.035257
56.760 13.1839
56.765 12.43873
56.770 12.645457
56.775 12.932212
56.780 13.337284
56.785 13.630359
56.790 13.344384
56.795 12.894688
56.800 13.248434
56.805 12.717794
56.810 12.536654
56.815 12.473789
56.820 12.740777
56.825 13.098822
56.830 12.954096
56.835 12.717817
56.840 13.097027
56.845 13.045993
56.850 12.988628
56.855 12.428274
56.860 11.952482
56.865 12.27329
56.870 12.208764
56.875 12.1939
56.880 12.315422
56.885 12.004633
56.890 11.842812
56.895 12.240846
56.900 12.338493
56.905 12.188937
56.910 11.973119
56.915 12.378142
56.920 12.83592
56.925 13.191114
56.930 12.989194
56.935 12.780162
56.940 13.225702
56.945 12.993061
56.950 12.620536
56.955 12.626126
56.960 12.562119
56.965 12.479642
56.970 12.380062
56.975 12.80893
56.980 12.900447
56.985 12.663598
56.990 12.621979
56.995 12.774832
57.000 13.053819
57.005 13.652164
57.010 13.449401
57.015 13.447277
57.020 13.973943
57.025 14.200316
57.030 14.389575
57.035 14.007805
57.040 13.539431
57.045 13.554146
57.050 13.634795
57.055 13.392247
57.060 12.99007
57.065 12.911537
57.070 12.977517
57.075 12.961418
57.080 12.549327
57.085 12.050702
57.090 12.057686
57.095 12.019301
57.100 11.729712
57.105 11.419392
57.110 11.038352
57.115 11.270546
57.120 11.231318
57.125 11.114654
57.130 10.760296
57.135 10.75165
57.140 11.245633
57.145 11.849228
57.150 12.116307
57.155 12.062298
57.160 11.838746
57.165 12.329341
57.170 12.375751
57.175 12.607943
57.180 12.382861
57.185 12.351506
57.190 12.655646
57.195 13.478658
57.200 13.768297
57.205 14.166127
57.210 14.408718
57.215 14.8397
57.220 15.087536
57.225 15.288319
57.230 15.066472
57.235 15.080541
57.240 14.888672
57.245 14.595674
57.250 14.366493
57.255 13.861549
57.260 13.268496
57.265 12.547604
57.270 12.379772
57.275 12.071595
57.280 11.974984
57.285 12.464845
57.290 12.973516
57.295 13.522743
57.300 13.939306
57.305 13.915642
57.310 14.063908
57.315 13.926126
57.320 13.412274
57.325 13.34551
57.330 13.592773
57.335 13.286517
57.340 13.513534
57.345 13.844579
57.350 13.857237
57.355 14.071867
57.360 13.674223
57.365 13.314733
57.370 13.86774
57.375 13.987823
57.380 13.830835
57.385 13.961208
57.390 14.093593
57.395 14.364624
57.400 14.371583
57.405 14.085654
57.410 14.101418
57.415 14.000964
57.420 13.756703
57.425 13.874642
57.430 13.391711
57.435 13.450381
57.440 13.484246
57.445 13.30198
57.450 13.305872
57.455 13.210696
57.460 12.594138
57.465 13.298663
57.470 13.57611
57.475 13.419909
57.480 13.065167
57.485 13.453321
57.490 13.940543
57.495 14.446451
57.500 14.13726
57.505 13.798063
57.510 13.491996
57.515 13.688808
57.520 12.957092
57.525 12.771469
57.530 12.476322
57.535 12.174006
57.540 11.994145
57.545 12.529869
57.550 12.531641
57.555 12.54403
57.560 11.919368
57.565 11.892369
57.570 11.750837
57.575 11.516762
57.580 10.858507
57.585 11.049023
57.590 11.87924
57.595 12.652698
57.600 13.138998
57.605 13.587319
57.610 14.216993
57.615 14.853372
57.620 15.218341
57.625 14.954632
57.630 14.874284
57.635 14.581619
57.640 14.373384
57.645 14.068463
57.650 13.445423
57.655 13.167095
57.660 12.779288
57.665 12.712113
57.670 12.896867
57.675 13.021169
57.680 13.101823
57.685 13.087919
57.690 13.113428
57.695 13.358388
57.700 12.806983
57.705 12.405531
57.710 12.591158
57.715 12.732448
57.720 13.098596
57.725 13.166267
57.730 13.281501
57.735 13.654254
57.740 13.87165
57.745 13.710073
57.750 13.757598
57.755 13.588125
57.760 13.689465
57.765 14.111406
57.770 14.15765
57.775 14.304851
57.780 14.062896
57.785 13.907449
57.790 13.972749
57.795 13.598332
57.800 13.075157
57.805 13.427975
57.810 13.311293
57.815 13.66155
57.820 13.906872
57.825 13.90952
57.830 13.925111
57.835 14.392852
57.840 14.841683
57.845 15.072604
57.850 14.90758
57.855 14.659945
57.860 14.661816
57.865 14.360555
57.870 13.359325
57.875 12.837384
57.880 12.511369
57.885 12.691606
57.890 12.584786
57.895 12.694561
57.900 12.961689
57.905 13.504513
57.910 13.210092
57.915 13.784972
57.920 13.61942
57.925 13.597292
57.930 13.708113
57.935 14.273341
57.940 14.431021
57.945 14.392757
57.950 14.242173
57.955 14.009932
57.960 13.852557
57.965 13.526059
57.970 13.10283
57.975 12.946163
57.980 13.016461
57.985 13.078516
57.990 13.042711
57.995 12.613705
58.000 12.754474
58.005 12.900503
58.010 12.861336
58.015 12.747088
58.020 12.600673
58.025 13.025289
58.030 13.656673
58.035 13.788076
58.040 14.058332
58.045 13.968515
58.050 14.052597
58.055 14.527471
58.060 14.68284
58.065 14.566169
58.070 14.154685
58.075 14.002564
58.080 14.552071
58.085 14.500947
58.090 14.124796
58.095 13.966209
58.100 13.830835
58.105 14.251373
58.110 14.090372
58.115 13.659929
58.120 13.752784
58.125 13.331452
58.130 13.654671
58.135 13.637648
58.140 13.592593
58.145 13.687651
58.150 14.04422
58.155 14.384079
58.160 14.76513
58.165 14.445794
58.170 14.678773
58.175 14.92653
58.180 14.864879
58.185 14.772211
58.190 14.548152
58.195 14.83214
58.200 14.663257
58.205 14.602356
58.210 14.479548
58.215 14.382281
58.220 14.20924
58.225 13.796978
58.230 13.841208
58.235 14.252346
58.240 14.058261
58.245 13.665175
58.250 13.890749
58.255 14.110135
58.260 14.119364
58.265 14.149553
58.270 13.83041
58.275 14.184625
58.280 14.615872
58.285 14.767995
58.290 14.895855
58.295 14.841804
58.300 14.648304
58.305 14.956047
58.310 14.799949
58.315 14.388634
58.320 14.096663
58.325 13.696501
58.330 13.617748
58.335 13.658566
58.340 13.607906
58.345 13.642432
58.350 13.364031
58.355 13.354174
58.360 13.466305
58.365 13.482326
58.370 13.269319
58.375 13.192593
58.380 13.362306
58.385 13.062275
58.390 12.915658
58.395 12.874712
58.400 13.110643
58.405 13.095055
58.410 12.695107
58.415 12.427602
58.420 13.158583
58.425 13.246813
58.430 13.342459
58.435 13.409381
58.440 13.518082
58.445 13.832514
58.450 14.284404
58.455 14.529544
58.460 15.112325
58.465 15.470327
58.470 15.921712
58.475 16.462919
58.480 16.472029
58.485 16.21567
58.490 15.983808
58.495 15.434029
58.500 14.861118
58.505 14.645033
58.510 14.268054
58.515 14.063694
58.520 14.028287
58.525 13.942806
58.530 14.080557
58.535 13.931808
58.540 13.489706
58.545 13.12456
58.550 13.506086
58.555 13.820549
58.560 14.208793
58.565 14.749694
58.570 15.301348
58.575 15.679468
58.580 15.683151
58.585 15.536031
58.590 15.761683
58.595 15.377965
58.600 14.665777
58.605 14.388523
58.610 14.522593
58.615 14.833941
58.620 14.386132
58.625 14.257075
58.630 14.616815
58.635 14.931979
58.640 15.09348
58.645 14.798326
58.650 14.447464
58.655 14.804677
58.660 14.957631
58.665 15.097633
58.670 15.302854
58.675 15.461574
58.680 16.094597
58.685 16.309469
58.690 16.159773
58.695 16.955025
58.700 16.998697
58.705 17.051374
58.710 16.462868
58.715 16.255499
58.720 16.252352
58.725 16.109861
58.730 15.072882
58.735 14.92911
58.740 14.888966
58.745 15.014275
58.750 14.827513
58.755 15.094792
58.760 14.932185
58.765 14.695012
58.770 14.023422
58.775 13.845398
58.780 14.208448
58.785 13.74267
58.790 13.342825
58.795 13.608172
58.800 13.848313
58.805 14.399047
58.810 14.44417
58.815 14.383723
58.820 15.199573
58.825 15.219833
58.830 15.291332
58.835 15.820714
58.840 15.926605
58.845 15.779752
58.850 15.629909
58.855 15.25756
58.860 15.202645
58.865 14.825815
58.870 14.443502
58.875 14.276777
58.880 14.597566
58.885 15.169405
58.890 15.41028
58.895 15.595014
58.900 15.704347
58.905 15.499463
58.910 15.687944
58.915 15.42972
58.920 14.789758
58.925 15.086697
58.930 14.987419
58.935 14.873098
58.940 15.09207
58.945 14.869588
58.950 14.795502
58.955 14.729705
58.960 14.195568
58.965 14.243677
58.970 14.31468
58.975 14.579645
58.980 14.509299
58.985 14.244127
58.990 14.240538
58.995 14.473962
59.000 14.661542
59.005 15.155742
59.010 15.462467
59.015 16.307447
59.020 16.438204
59.025 16.088911
59.030 15.796224
59.035 15.910948
59.040 15.873179
59.045 16.147726
59.050 16.108099
59.055 16.375479
59.060 16.942648
59.065 17.189655
59.070 16.920975
59.075 16.498398
59.080 15.617756
59.085 15.427749
59.090 15.108903
59.095 14.6276
59.100 14.51051
59.105 14.173464
59.110 14.043962
59.115 13.944718
59.120 13.774686
59.125 14.176043
59.130 15.033513
59.135 15.005449
59.140 15.43205
59.145 15.263085
59.150 14.875968
59.155 14.397022
59.160 13.916784
59.165 13.748843
59.170 14.247978
59.175 14.524405
59.180 14.91616
59.185 15.811902
59.190 16.151592
59.195 16.53532
59.200 16.516085
59.205 16.265932
59.210 16.029346
59.215 16.182678
59.220 16.078302
59.225 16.118761
59.230 15.894118
59.235 15.762012
59.240 16.062321
59.245 16.220535
59.250 16.239899
59.255 16.302967
59.260 16.426598
59.265 16.752392
59.270 17.213163
59.275 17.624599
59.280 17.522232
59.285 16.877165
59.290 16.478472
59.295 16.605791
59.300 16.570196
59.305 16.705545
59.310 15.907103
59.315 15.512445
59.320 16.105331
59.325 16.17119
59.330 16.032829
59.335 15.85647
59.340 14.941753
59.345 15.489807
59.350 16.103354
59.355 15.913381
59.360 16.103434
59.365 16.389833
59.370 16.667282
59.375 17.102133
59.380 16.995211
59.385 16.930622
59.390 17.680511
59.395 18.116955
59.400 17.881771
59.405 18.033302
59.410 17.713398
59.415 17.857185
59.420 18.080257
59.425 18.06653
59.430 18.345158
59.435 18.603607
59.440 18.986765
59.445 18.726542
59.450 18.782223
59.455 18.711739
59.460 18.719088
59.465 18.03581
59.470 17.780113
59.475 17.715876
59.480 17.722551
59.485 17.338009
59.490 17.125414
59.495 17.121922
59.500 17.271008
59.505 16.752102
59.510 16.591173
59.515 17.11171
59.520 17.378613
59.525 17.467936
59.530 17.167135
59.535 17.27857
59.540 16.953756
59.545 16.497152
59.550 16.262897
59.555 15.514023
59.560 15.400523
59.565 15.266131
59.570 15.606831
59.575 15.96453
59.580 15.91296
59.585 16.032818
59.590 16.159954
59.595 16.128689
59.600 16.175474
59.605 15.83957
59.610 16.464249
59.615 16.623337
59.620 16.268791
59.625 15.943261
59.630 16.152384
59.635 16.586666
59.640 16.881714
59.645 16.001881
59.650 16.550049
59.655 17.221083
59.660 17.836201
59.665 17.646484
59.670 17.18927
59.675 17.266632
59.680 17.21586
59.685 16.966564
59.690 16.760988
59.695 16.858845
59.700 17.960529
59.705 18.486765
59.710 18.777355
59.715 19.652365
59.720 19.626356
59.725 19.865631
59.730 19.831427
59.735 19.937283
59.740 19.657719
59.745 19.119787
59.750 18.74789
59.755 18.50946
59.760 18.72414
59.765 18.487167
59.770 17.494179
59.775 17.882122
59.780 18.715929
59.785 19.598557
59.790 20.429304
59.795 20.219227
59.800 20.067057
59.805 19.707788
59.810 19.715799
59.815 19.826937
59.820 19.67083
59.825 19.90098
59.830 20.152557
59.835 20.258444
59.840 20.450865
59.845 19.980083
59.850 19.90984
59.855 19.934397
59.860 19.428911
59.865 19.43524
59.870 19.649792
59.875 19.51605
59.880 19.68247
59.885 19.074312
59.890 18.247385
59.895 18.839758
59.900 19.014866
59.905 19.134844
59.910 19.680174
59.915 19.815691
59.920 20.105623
59.925 20.443819
59.930 20.05304
59.935 20.288857
59.940 21.007139
59.945 21.440872
59.950 21.936726
59.955 22.101414
59.960 22.305321
59.965 22.578789
59.970 22.244564
59.975 21.709169
59.980 21.457808
59.985 21.322689
59.990 20.984283
59.995 21.048811
60.000 20.896557
60.005 21.397118
60.010 21.780342
60.015 22.174294
60.020 22.099417
60.025 22.276173
60.030 22.241236
60.035 22.391874
60.040 21.370958
60.045 20.758842
60.050 20.210682
60.055 19.780209
60.060 19.629442
60.065 19.594242
60.070 19.578171
60.075 20.287678
60.080 20.812151
60.085 21.315704
60.090 22.571295
60.095 22.772926
60.100 22.764992
60.105 23.036272
60.110 22.805182
60.115 22.219666
60.120 21.876036
60.125 21.891218
60.130 22.239182
60.135 22.22426
60.140 22.02496
60.145 21.953634
60.150 22.312817
60.155 22.509327
60.160 21.860851
60.165 21.50786
60.170 21.501055
60.175 21.152193
60.180 21.140631
60.185 21.387959
60.190 21.357203
60.195 21.084875
60.200 21.097754
60.205 21.096163
60.210 21.568712
60.215 21.639631
60.220 21.179447
60.225 21.259325
60.230 21.031944
60.235 20.941946
60.240 20.862097
60.245 20.893831
60.250 20.911901
60.255 20.706673
60.260 20.388206
60.265 20.386597
60.270 20.277651
60.275 20.300135
60.280 20.170952
60.285 20.061996
60.290 19.998459
60.295 19.7138
60.300 20.002317
60.305 20.10248
60.310 20.110498
60.315 20.201893
60.320 20.198034
60.325 20.088663
60.330 20.381159
60.335 20.188528
60.340 19.781096
60.345 19.864754
60.350 19.577976
60.355 19.31431
60.360 19.018793
60.365 18.746603
60.370 19.045319
60.375 19.341333
60.380 19.93425
60.385 20.462589
60.390 20.841972
60.395 21.265406
60.400 21.360106
60.405 20.572374
60.410 20.04162
60.415 19.535244
60.420 19.08526
60.425 18.928417
60.430 19.321129
60.435 19.51405
60.440 19.986101
60.445 20.277937
60.450 19.926796
60.455 19.92345
60.460 19.757269
60.465 19.68071
60.470 19.868034
60.475 20.643927
60.480 20.660257
60.485 21.076956
60.490 21.038809
60.495 21.320744
60.500 21.08577
60.505 20.773455
60.510 20.460516
60.515 20.615791
60.520 20.663843
60.525 20.531342
60.530 20.553082
60.535 20.650196
60.540 20.242598
60.545 20.07337
60.550 19.893511
60.555 19.965342
60.560 20.398962
60.565 19.961311
60.570 19.621811
60.575 19.954048
60.580 20.322737
60.585 19.965771
60.590 19.495192
60.595 19.437305
60.600 19.780184
60.605 19.927938
60.610 20.416407
60.615 20.04487
60.620 20.316015
60.625 21.087662
60.630 21.292471
60.635 20.879219
60.640 20.44873
60.645 19.716909
60.650 19.608284
60.655 19.078274
60.660 17.901457
60.665 17.308378
60.670 17.375881
60.675 17.390211
60.680 17.35536
60.685 17.488682
60.690 17.39135
60.695 17.894672
60.700 17.688932
60.705 17.578171
60.710 17.41851
60.715 16.991396
60.720 16.868547
60.725 17.203592
60.730 17.918343
60.735 18.321188
60.740 17.90402
60.745 17.915783
60.750 18.243954
60.755 18.06539
60.760 17.719578
60.765 17.795906
60.770 17.883205
60.775 18.453432
60.780 18.746758
60.785 18.658012
60.790 18.21748
60.795 18.133692
60.800 17.533525
60.805 17.520784
60.810 17.454727
60.815 17.265505
60.820 17.013441
60.825 17.690895
60.830 17.780693
60.835 17.69825
60.840 17.92301
60.845 17.428185
60.850 17.322874
60.855 17.512659
60.860 17.325647
60.865 17.265064
60.870 17.496714
60.875 17.285856
60.880 18.122755
60.885 18.833303
60.890 19.136105
60.895 19.086386
60.900 19.326807
60.905 19.129391
60.910 19.332073
60.915 18.976385
60.920 18.535124
60.925 18.213444
60.930 17.555159
60.935 17.358173
60.940 17.316526
60.945 16.700336
60.950 15.978833
60.955 15.995846
60.960 15.688017
60.965 16.281347
60.970 16.154253
60.975 16.196005
60.980 16.445726
60.985 17.16898
60.990 16.85351
60.995 17.421114
61.000 17.42067
61.005 17.231874
61.010 16.761475
61.015 16.662844
61.020 16.508127
61.025 16.789028
61.030 16.18198
61.035 15.806053
61.040 15.958352
61.045 16.033073
61.050 15.802794
61.055 15.189819
61.060 14.691388
61.065 14.584174
61.070 14.343274
61.075 14.875042
61.080 15.354603
61.085 15.342432
61.090 15.205633
61.095 15.394923
61.100 15.391094
61.105 15.64168
61.110 14.908764
61.115 14.279966
61.120 14.504425
61.125 15.198986
61.130 15.058516
61.135 15.34532
61.140 15.254572
61.145 15.731926
61.150 15.978783
61.155 16.260605
61.160 16.241318
61.165 16.80254
61.170 17.156891
61.175 17.211969
61.180 16.585844
61.185 16.105473
61.190 15.568059
61.195 16.272335
61.200 17.041216
61.205 17.22558
61.210 17.426016
61.215 18.062763
61.220 18.592039
61.225 18.973379
61.230 18.095713
61.235 17.022282
61.240 16.637234
61.245 16.168884
61.250 16.209419
61.255 16.231714
61.260 15.892423
61.265 15.871902
61.270 15.805625
61.275 16.175602
61.280 16.447433
61.285 15.839268
61.290 15.887508
61.295 16.092791
61.300 16.379194
61.305 16.976696
61.310 16.958292
61.315 16.931692
61.320 17.137356
61.325 16.957886
61.330 16.605946
61.335 15.930553
61.340 14.974115
61.345 14.367526
61.350 14.521293
61.355 14.304983
61.360 14.495252
61.365 14.725671
61.370 14.931358
61.375 15.006011
61.380 15.301582
61.385 15.541595
61.390 16.106096
61.395 16.216352
61.400 16.102932
61.405 16.319214
61.410 16.578966
61.415 16.300346
61.420 16.13204
61.425 15.894281
61.430 15.642478
61.435 15.611264
61.440 15.701447
61.445 15.866434
61.450 16.049999
61.455 16.007677
61.460 16.001728
61.465 15.973972
61.470 16.037928
61.475 16.249212
61.480 16.197563
61.485 15.99054
61.490 15.517469
61.495 15.735622
61.500 16.211269
61.505 16.615122
61.510 16.159937
61.515 16.128242
61.520 16.458414
61.525 16.743254
61.530 16.427977
61.535 16.164085
61.540 15.832879
61.545 15.996039
61.550 16.133503
61.555 16.145947
61.560 16.087999
61.565 15.928931
61.570 16.089743
61.575 16.756096
61.580 17.394445
61.585 17.305902
61.590 17.057295
61.595 16.918179
61.600 16.991131
61.605 16.701969
61.610 15.932767
61.615 14.983076
61.620 15.278802
61.625 15.515284
61.630 15.732274
61.635 15.986607
61.640 16.12838
61.645 16.333725
61.650 16.522081
61.655 15.940352
61.660 16.328939
61.665 16.752359
61.670 16.765892
61.675 16.710546
61.680 16.814365
61.685 17.250824
61.690 17.897396
61.695 17.797007
61.700 17.546143
61.705 17.420919
61.710 17.863632
61.715 18.017984
61.720 18.108246
61.725 17.565042
61.730 17.396305
61.735 17.465652
61.740 17.353628
61.745 17.048874
61.750 16.692385
61.755 16.302599
61.760 16.379154
61.765 16.196297
61.770 16.274467
61.775 16.092171
61.780 15.544033
61.785 15.541269
61.790 15.174336
61.795 15.339744
61.800 14.863262
61.805 14.791914
61.810 15.191144
61.815 15.581737
61.820 16.403618
61.825 17.725906
61.830 17.823929
61.835 18.093155
61.840 18.052504
61.845 18.208853
61.850 18.659288
61.855 17.74461
61.860 16.868341
61.865 16.583403
61.870 16.415606
61.875 16.658405
61.880 16.651497
61.885 16.630657
61.890 16.907312
61.895 16.889713
61.900 17.463863
61.905 17.795971
61.910 17.461275
61.915 16.883844
61.920 16.224129
61.925 16.376778
61.930 16.464653
61.935 16.243492
61.940 16.457899
61.945 16.868979
61.950 17.336475
61.955 17.103844
61.960 16.808069
61.965 16.526125
61.970 16.586855
61.975 16.730799
61.980 17.123487
61.985 16.794138
61.990 17.101824
61.995 17.067968
62.000 16.977369
62.005 16.606075
62.010 15.928981
62.015 15.130316
62.020 15.118727
62.025 14.800864
62.030 14.860477
62.035 15.011281
62.040 14.915536
62.045 15.489516
62.050 15.60559
62.055 15.711408
62.060 16.132837
62.065 16.463364
62.070 16.878389
62.075 16.883301
62.080 17.124868
62.085 17.309782
62.090 17.241678
62.095 17.198368
62.100 16.792362
62.105 16.728848
62.110 17.016714
62.115 16.443518
62.120 16.41851
62.125 16.289148
62.130 16.731144
62.135 17.222672
62.140 17.192047
62.145 16.547577
62.150 16.227972
62.155 16.300873
62.160 16.663069
62.165 16.377462
62.170 16.176369
62.175 16.434521
62.180 17.258013
62.185 17.471224
62.190 17.377956
62.195 17.451359
62.200 17.449076
62.205 17.303389
62.210 17.093119
62.215 17.007008
62.220 17.25161
62.225 16.682264
62.230 16.031172
62.235 16.04213
62.240 15.639561
62.245 15.811968
62.250 15.336036
62.255 15.20732
62.260 15.255441
62.265 15.301245
62.270 14.875422
62.275 14.800345
62.280 14.057163
62.285 14.147786
62.290 14.359706
62.295 15.205591
62.300 15.759205
62.305 15.919393
62.310 16.001211
62.315 16.084475
62.320 15.967025
62.325 15.675261
62.330 14.758373
62.335 14.137181
62.340 14.293984
62.345 14.70993
62.350 14.975714
62.355 15.140684
62.360 15.617539
62.365 15.916836
62.370 15.990424
62.375 15.75072
62.380 15.736258
62.385 15.565439
62.390 15.355026
62.395 15.150803
62.400 15.540181
62.405 15.9302
62.410 16.530252
62.415 16.974211
62.420 17.278561
62.425 17.891754
62.430 17.90184
62.435 17.892275
62.440 18.209709
62.445 18.336922
62.450 18.801319
62.455 18.445446
62.460 17.912235
62.465 17.983637
62.470 18.391113
62.475 18.177561
62.480 17.479496
62.485 17.257591
62.490 17.500626
62.495 17.413042
62.500 17.081629
62.505 16.418308
62.510 16.747118
62.515 17.061382
62.520 16.353468
62.525 16.210569
62.530 16.426796
62.535 16.598318
62.540 16.894318
62.545 16.33918
62.550 16.676983
62.555 17.10322
62.560 16.861038
62.565 17.149544
62.570 17.169338
62.575 16.604118
62.580 16.033241
62.585 15.523151
62.590 15.766279
62.595 15.661686
62.600 15.571074
62.605 15.605116
62.610 16.378763
62.615 16.842674
62.620 16.907328
62.625 16.757792
62.630 17.597982
62.635 17.402485
62.640 17.386106
62.645 16.768795
62.650 16.848753
62.655 16.727655
62.660 16.436985
62.665 15.58986
62.670 15.582085
62.675 15.652773
62.680 15.708632
62.685 15.640924
62.690 15.617454
62.695 15.848769
62.700 16.015293
62.705 16.143541
62.710 16.319134
62.715 17.259197
62.720 17.359932
62.725 17.109407
62.730 17.061848
62.735 17.155153
62.740 16.785103
62.745 16.588264
62.750 15.44214
62.755 15.278908
62.760 15.159817
62.765 14.918502
62.770 14.741102
62.775 14.994198
62.780 15.143353
62.785 15.412617
62.790 15.584919
62.795 16.292257
62.800 16.404825
62.805 16.491131
62.810 16.474586
62.815 17.161875
62.820 17.198896
62.825 17.076075
62.830 16.944893
62.835 17.511845
62.840 17.789063
62.845 16.935274
62.850 16.091757
62.855 16.08864
62.860 16.20709
62.865 16.42104
62.870 16.402241
62.875 16.488716
62.880 16.988039
62.885 16.915205
62.890 16.929583
62.895 16.826981
62.900 16.344456
62.905 16.101082
62.910 15.963435
62.915 15.82256
62.920 15.653425
62.925 15.600105
62.930 15.491084
62.935 15.072011
62.940 14.723431
62.945 14.824265
62.950 14.864649
62.955 15.42831
62.960 15.500195
62.965 15.668285
62.970 16.723553
62.975 16.871422
62.980 16.802589
62.985 17.093229
62.990 17.201633
62.995 17.637077
63.000 17.824247
63.005 18.21236
63.010 18.340807
63.015 18.203682
63.020 18.213591
63.025 17.983978
63.030 17.650467
63.035 17.477869
63.040 17.229094
63.045 17.099596
63.050 17.078678
63.055 16.849325
63.060 16.536312
63.065 16.3148
63.070 15.868473
63.075 15.280944
63.080 15.299116
63.085 15.049583
63.090 15.342975
63.095 15.279696
63.100 15.529653
63.105 15.867091
63.110 16.030529
63.115 16.724045
63.120 17.408154
63.125 17.503611
63.130 17.859594
63.135 17.601673
63.140 17.382757
63.145 18.006323
63.150 17.451288
63.155 17.532604
63.160 17.107529
63.165 16.999334
63.170 17.26487
63.175 17.593699
63.180 16.991352
63.185 16.999729
63.190 16.749228
63.195 16.850956
63.200 17.041882
63.205 16.73892
63.210 16.421392
63.215 16.606424
63.220 16.411745
63.225 16.098713
63.230 16.161583
63.235 15.863275
63.240 15.926693
63.245 15.715176
63.250 15.938976
63.255 16.640945
63.260 16.661486
63.265 16.864653
63.270 17.036251
63.275 17.21158
63.280 17.684618
63.285 17.460155
63.290 17.000778
63.295 17.242159
63.300 17.08893
63.305 17.550423
63.310 17.547504
63.315 16.877394
63.320 16.532478
63.325 16.443743
63.330 16.484051
63.335 16.508387
63.340 15.971125
63.345 15.850654
63.350 16.071375
63.355 16.148434
63.360 16.62599
63.365 16.332718
63.370 16.255922
63.375 16.240063
63.380 16.550034
63.385 16.613031
63.390 16.596626
63.395 16.154175
63.400 15.970555
63.405 15.57277
63.410 15.420934
63.415 15.246858
63.420 15.597303
63.425 16.15424
63.430 16.144648
63.435 16.748274
63.440 17.378706
63.445 17.785719
63.450 17.910963
63.455 17.608593
63.460 17.054127
63.465 17.340982
63.470 17.570566
63.475 17.668804
63.480 17.317204
63.485 17.095919
63.490 16.984249
63.495 16.999334
63.500 16.409538
63.505 16.209976
63.510 15.947331
63.515 15.870816
63.520 16.467625
63.525 16.471449
63.530 16.166336
63.535 16.191952
63.540 16.465866
63.545 16.766838
63.550 16.870445
63.555 16.216246
63.560 16.636503
63.565 17.18565
63.570 17.757469
63.575 17.151247
63.580 17.237894
63.585 17.312937
63.590 17.552025
63.595 17.652557
63.600 17.346432
63.605 16.439379
63.610 16.408155
63.615 16.878876
63.620 17.483597
63.625 17.342194
63.630 16.958366
63.635 17.670437
63.640 18.247702
63.645 18.406424
63.650 18.083757
63.655 18.002193
63.660 18.270639
63.665 18.599815
63.670 18.45022
63.675 18.576727
63.680 18.948318
63.685 18.822264
63.690 18.827839
63.695 19.027588
63.700 19.240683
63.705 19.042065
63.710 19.059004
63.715 18.957354
63.720 18.519741
63.725 18.510414
63.730 18.469343
63.735 18.890612
63.740 19.039875
63.745 19.220827
63.750 19.364073
63.755 19.584551
63.760 19.272797
63.765 19.357222
63.770 18.873423
63.775 19.032877
63.780 18.813869
63.785 18.775427
63.790 18.725965
63.795 18.663506
63.800 18.28035
63.805 18.014126
63.810 17.133713
63.815 16.80562
63.820 16.52216
63.825 16.315474
63.830 16.289438
63.835 16.856043
63.840 16.632353
63.845 17.538523
63.850 17.617466
63.855 17.815443
63.860 18.320137
63.865 18.077166
63.870 17.183336
63.875 18.110706
63.880 17.370298
63.885 16.822584
63.890 16.731392
63.895 16.562973
63.900 16.547121
63.905 16.623302
63.910 16.342527
63.915 16.648764
63.920 17.01816
63.925 16.952843
63.930 17.322687
63.935 17.807886
63.940 18.25164
63.945 18.300554
63.950 18.357801
63.955 18.384953
63.960 17.919395
63.965 17.716301
63.970 17.37591
63.975 16.557762
63.980 16.086969
63.985 16.289631
63.990 16.568577
63.995 16.919939
64.000 17.13788
64.005 17.485094
64.010 18.217525
64.015 18.329584
64.020 18.796114
64.025 19.106369
64.030 19.283794
64.035 19.145107
64.040 18.905451
64.045 19.316132
64.050 19.575609
64.055 18.389832
64.060 17.494329
64.065 17.926138
64.070 18.967003
64.075 19.457321
64.080 18.903164
64.085 19.088959
64.090 19.443909
64.095 19.73053
64.100 19.579405
64.105 18.854689
64.110 18.274435
64.115 17.690296
64.120 17.596626
64.125 17.843061
64.130 17.546598
64.135 17.136713
64.140 16.676277
64.145 16.638521
64.150 16.671961
64.155 16.340843
64.160 15.939718
64.165 15.953667
64.170 15.761518
64.175 16.346821
64.180 16.678333
64.185 16.815002
64.190 17.294027
64.195 17.414545
64.200 17.3563
64.205 17.006016
64.210 16.636921
64.215 16.889496
64.220 17.253641
64.225 16.319944
64.230 16.064686
64.235 16.789839
64.240 17.137123
64.245 16.991335
64.250 16.661518
64.255 16.058594
64.260 16.444384
64.265 16.465666
64.270 16.747187
64.275 16.839876
64.280 16.686289
64.285 16.539734
64.290 16.930696
64.295 17.569242
64.300 17.948885
64.305 17.012266
64.310 17.260584
64.315 17.95245
64.320 18.731226
64.325 19.096418
64.330 19.102411
64.335 18.879879
64.340 18.872427
64.345 18.445753
64.350 18.5516
64.355 18.992563
64.360 19.125107
64.365 18.824913
64.370 18.874285
64.375 18.962412
64.380 19.491251
64.385 19.195971
64.390 18.662458
64.395 18.348133
64.400 18.260445
64.405 18.653097
64.410 18.995253
64.415 18.301517
64.420 17.80999
64.425 17.345778
64.430 17.458498
64.435 17.683102
64.440 17.998459
64.445 18.309172
64.450 18.37607
64.455 18.832636
64.460 18.884563
64.465 18.757322
64.470 18.47851
64.475 18.263903
64.480 18.084108
64.485 18.573805
64.490 18.746243
64.495 18.791021
64.500 18.743298
64.505 19.359308
64.510 18.991533
64.515 19.088774
64.520 18.602869
64.525 17.898041
64.530 17.930717
64.535 18.087084
64.540 17.847042
64.545 17.810562
64.550 17.950188
64.555 18.437796
64.560 18.351854
64.565 18.2383
64.570 18.178907
64.575 17.703392
64.580 17.772259
64.585 17.673086
64.590 17.559378
64.595 17.938892
64.600 18.233749
64.605 17.822029
64.610 17.866198
64.615 17.83984
64.620 17.941978
64.625 18.114246
64.630 17.879253
64.635 17.459879
64.640 18.611877
64.645 18.90613
64.650 18.771606
64.655 18.300394
64.660 18.450258
64.665 18.92358
64.670 19.175753
64.675 18.802874
64.680 18.732637
64.685 19.241674
64.690 19.506622
64.695 19.549397
64.700 19.086075
64.705 19.005308
64.710 19.111006
64.715 18.929329
64.720 18.530592
64.725 18.190784
64.730 18.157215
64.735 18.118502
64.740 18.150982
64.745 18.083441
64.750 18.380121
64.755 18.996178
64.760 19.33526
64.765 19.57453
64.770 20.208513
64.775 20.203932
64.780 20.552496
64.785 21.239351
64.790 21.388206
64.795 21.332754
64.800 21.366779
64.805 21.145599
64.810 20.948685
64.815 19.941404
64.820 18.949974
64.825 18.649158
64.830 18.787056
64.835 18.999634
64.840 18.972065
64.845 19.276676
64.850 19.643223
64.855 19.800455
64.860 19.790401
64.865 19.491217
64.870 19.497999
64.875 19.579241
64.880 19.182617
64.885 19.294323
64.890 19.109442
64.895 18.844418
64.900 19.139996
64.905 19.270103
64.910 19.099115
64.915 19.424013
64.920 19.493975
64.925 19.851292
64.930 20.088522
64.935 20.399031
64.940 20.368538
64.945 20.773211
64.950 20.795944
64.955 20.747761
64.960 20.943159
64.965 20.934711
64.970 20.645199
64.975 20.064043
64.980 19.745975
64.985 19.985975
64.990 20.313725
64.995 20.515459
65.000 20.281433
65.005 20.238714
65.010 20.450462
65.015 20.765425
65.020 21.271965
65.025 21.326458
65.030 20.66194
65.035 20.514122
65.040 20.344946
65.045 20.620951
65.050 20.28933
65.055 20.099955
65.060 20.027361
65.065 20.293886
65.070 20.736261
65.075 20.641911
65.080 20.472633
65.085 20.754534
65.090 20.674995
65.095 20.132286
65.100 20.00136
65.105 20.320335
65.110 20.375555
65.115 20.654968
65.120 20.46652
65.125 20.304338
65.130 21.566328
65.135 22.052856
65.140 22.379025
65.145 22.641239
65.150 22.453465
65.155 22.235643
65.160 21.917059
65.165 20.984848
65.170 20.98196
65.175 20.749281
65.180 20.926476
65.185 20.992746
65.190 21.495949
65.195 21.826628
65.200 22.14365
65.205 22.536654
65.210 22.664246
65.215 22.656757
65.220 23.133137
65.225 22.958118
65.230 22.792192
65.235 22.607107
65.240 22.435331
65.245 22.607569
65.250 22.743473
65.255 22.416662
65.260 22.465395
65.265 22.994141
65.270 23.504841
65.275 23.264074
65.280 22.972208
65.285 22.862719
65.290 23.079166
65.295 22.908068
65.300 22.50544
65.305 21.767864
65.310 21.524832
65.315 21.255583
65.320 20.80014
65.325 20.753738
65.330 21.025717
65.335 21.320084
65.340 21.752464
65.345 22.469843
65.350 22.254757
65.355 22.392313
65.360 22.379879
65.365 22.024582
65.370 21.566004
65.375 21.52714
65.380 21.727222
65.385 22.297882
65.390 21.793928
65.395 21.941647
65.400 22.266712
65.405 22.291
65.410 22.386629
65.415 22.32761
65.420 23.103041
65.425 23.85042
65.430 23.667631
65.435 24.117914
65.440 24.75013
65.445 24.496267
65.450 23.841867
65.455 23.05056
65.460 23.236824
65.465 23.914177
65.470 24.393784
65.475 24.541143
65.480 25.3053
65.485 26.335926
65.490 26.686293
65.495 26.175077
65.500 25.742062
65.505 25.862041
65.510 26.245686
65.515 25.483196
65.520 25.135481
65.525 25.371429
65.530 25.467302
65.535 26.091177
65.540 26.095428
65.545 26.647463
65.550 27.696091
65.555 27.527449
65.560 27.351957
65.565 27.294281
65.570 26.914322
65.575 26.872173
65.580 26.274721
65.585 26.123499
65.590 26.446173
65.595 27.269398
65.600 27.559891
65.605 27.695576
65.610 27.504591
65.615 28.183266
65.620 28.555984
65.625 28.162201
65.630 27.778446
65.635 28.284542
65.640 28.513468
65.645 28.415529
65.650 28.630924
65.655 29.17033
65.660 30.042717
65.665 29.869814
65.670 29.884716
65.675 30.093712
65.680 31.072826
65.685 31.311666
65.690 31.59622
65.695 31.800663
65.700 32.674484
65.705 32.768326
65.710 33.559975
65.715 34.364697
65.720 34.074631
65.725 33.793934
65.730 34.206936
65.735 34.221218
65.740 34.609798
65.745 34.209209
65.750 34.069996
65.755 35.15308
65.760 35.4496
65.765 35.300102
65.770 35.662296
65.775 35.6413
65.780 36.110275
65.785 35.339172
65.790 34.790768
65.795 35.71582
65.800 36.166695
65.805 36.044502
65.810 36.127605
65.815 36.151745
65.820 37.53363
65.825 37.501213
65.830 36.503265
65.835 36.624836
65.840 37.077801
65.845 36.811909
65.850 36.696121
65.855 36.635403
65.860 36.987278
65.865 37.849358
65.870 38.18409
65.875 38.274406
65.880 38.774773
65.885 39.109398
65.890 39.095963
65.895 38.522274
65.900 38.135342
65.905 37.918976
65.910 37.622566
65.915 37.977364
65.920 37.690369
65.925 37.055229
65.930 37.226822
65.935 36.963562
65.940 37.516281
65.945 37.128925
65.950 36.381451
65.955 36.409008
65.960 37.469929
65.965 38.211205
65.970 38.566467
65.975 38.588867
65.980 39.096725
65.985 39.530674
65.990 39.483841
65.995 39.113091
66.000 39.518909
66.005 40.123016
66.010 39.902939
66.015 40.4072
66.020 40.892437
66.025 41.602455
66.030 41.740913
66.035 40.564854
66.040 39.217453
66.045 39.325832
66.050 38.933201
66.055 38.189747
66.060 36.747204
66.065 36.823845
66.070 37.992348
66.075 38.364536
66.080 38.049522
66.085 37.540459
66.090 37.342419
66.095 37.453918
66.100 36.437393
66.105 35.404705
66.110 35.991974
66.115 36.519859
66.120 36.646973
66.125 37.331333
66.130 37.385113
66.135 37.579239
66.140 37.747757
66.145 37.504429
66.150 36.932629
66.155 36.798409
66.160 36.489452
66.165 36.951313
66.170 37.090546
66.175 36.691334
66.180 36.534103
66.185 36.456921
66.190 36.343483
66.195 36.390266
66.200 35.765476
66.205 35.854076
66.210 36.167713
66.215 35.627113
66.220 35.700012
66.225 35.320335
66.230 35.035324
66.235 34.56802
66.240 34.519993
66.245 34.717396
66.250 34.305149
66.255 34.62265
66.260 34.756481
66.265 34.891609
66.270 36.320175
66.275 35.653461
66.280 35.540462
66.285 35.779446
66.290 34.941463
66.295 35.078671
66.300 35.04134
66.305 33.942257
66.310 33.542763
66.315 33.59124
66.320 34.139145
66.325 34.269844
66.330 33.997974
66.335 33.017517
66.340 32.298645
66.345 31.667606
66.350 30.785183
66.355 29.85434
66.360 29.619247
66.365 28.748583
66.370 28.731441
66.375 29.061256
66.380 29.524637
66.385 29.398533
66.390 29.475161
66.395 29.772106
66.400 30.842405
66.405 31.397186
66.410 32.037529
66.415 32.305504
66.420 32.067654
66.425 32.047562
66.430 31.458616
66.435 31.017578
66.440 30.70327
66.445 29.73513
66.450 29.345007
66.455 29.132206
66.460 29.03377
66.465 28.973387
66.470 29.016136
66.475 28.447702
66.480 28.563772
66.485 28.538441
66.490 28.975719
66.495 28.666365
66.500 28.494013
66.505 27.874956
66.510 28.079941
66.515 27.722937
66.520 27.00861
66.525 26.831158
66.530 26.919575
66.535 26.964144
66.540 27.206276
66.545 27.403379
66.550 27.078991
66.555 27.627487
66.560 27.420174
66.565 27.323278
66.570 27.697378
66.575 26.915876
66.580 25.740492
66.585 26.012049
66.590 25.760759
66.595 25.777781
66.600 25.841837
66.605 25.711735
66.610 26.206928
66.615 26.87459
66.620 27.111694
66.625 26.930735
66.630 26.440653
66.635 26.213896
66.640 26.285374
66.645 26.032782
66.650 25.760344
66.655 26.089048
66.660 26.116199
66.665 25.7568
66.670 25.318029
66.675 25.302317
66.680 25.939726
66.685 26.14352
66.690 25.390791
66.695 25.205538
66.700 25.404074
66.705 25.288555
66.710 24.600683
66.715 23.434958
66.720 23.200592
66.725 22.3578
66.730 22.150595
66.735 22.612341
66.740 22.695372
66.745 22.606911
66.750 22.908928
66.755 23.106586
66.760 23.934746
66.765 24.538891
66.770 24.25732
66.775 24.072195
66.780 24.410376
66.785 24.472933
66.790 23.840801
66.795 23.217888
66.800 22.446707
66.805 23.121536
66.810 23.219906
66.815 23.584627
66.820 23.683556
66.825 23.798862
66.830 23.676058
66.835 23.928696
66.840 22.994913
66.845 22.849915
66.850 22.527868
66.855 21.852339
66.860 21.858397
66.865 21.455755
66.870 21.538134
66.875 21.85433
66.880 21.708424
66.885 21.314482
66.890 21.050955
66.895 21.263138
66.900 21.259138
66.905 21.085735
66.910 21.067949
66.915 21.10388
66.920 21.432613
66.925 21.894781
66.930 21.628754
66.935 22.014034
66.940 22.084261
66.945 22.131691
66.950 21.784128
66.955 21.735271
66.960 21.909752
66.965 21.894466
66.970 21.719015
66.975 21.654375
66.980 22.76186
66.985 23.257008
66.990 23.231297
66.995 22.30191
67.000 21.641373
67.005 21.781031
67.010 21.798834
67.015 20.815325
67.020 21.039833
67.025 20.880541
67.030 21.565123
67.035 22.580124
67.040 22.342793
67.045 22.589344
67.050 22.863298
67.055 22.930578
67.060 23.329298
67.065 23.37586
67.070 23.018816
67.075 23.73834
67.080 23.667028
67.085 23.687811
67.090 23.410355
67.095 24.028385
67.100 24.083073
67.105 24.367035
67.110 24.048281
67.115 23.452423
67.120 23.438787
67.125 23.431892
67.130 22.766747
67.135 22.677732
67.140 22.76302
67.145 22.708736
67.150 22.578321
67.155 22.364952
67.160 22.585613
67.165 22.760738
67.170 22.663525
67.175 22.003895
67.180 21.793386
67.185 22.033443
67.190 21.771265
67.195 21.191547
67.200 20.915369
67.205 21.250519
67.210 21.66254
67.215 21.927113
67.220 21.493361
67.225 21.630306
67.230 21.545183
67.235 21.357201
67.240 20.699738
67.245 20.178806
67.250 19.833477
67.255 20.240797
67.260 20.52644
67.265 20.5355
67.270 20.611456
67.275 20.341721
67.280 20.469992
67.285 20.491266
67.290 20.244724
67.295 20.296066
67.300 20.592676
67.305 20.82004
67.310 21.55583
67.315 21.538488
67.320 21.481539
67.325 21.270039
67.330 21.176771
67.335 21.011374
67.340 20.966333
67.345 20.459431
67.350 20.013004
67.355 19.897493
67.360 20.126152
67.365 20.668756
67.370 20.873169
67.375 21.03614
67.380 21.424944
67.385 22.000553
67.390 22.210045
67.395 22.556042
67.400 22.171301
67.405 22.235197
67.410 22.153786
67.415 21.547604
67.420 21.257393
67.425 21.473886
67.430 21.173197
67.435 21.495668
67.440 21.797003
67.445 22.391733
67.450 23.010523
67.455 23.518263
67.460 23.727602
67.465 23.665882
67.470 22.650333
67.475 21.955532
67.480 21.978249
67.485 22.219891
67.490 22.294838
67.495 22.138126
67.500 22.208454
67.505 22.397392
67.510 22.279085
67.515 21.743378
67.520 21.148142
67.525 20.980148
67.530 20.621391
67.535 20.784512
67.540 21.084616
67.545 20.751711
67.550 20.392775
67.555 20.205732
67.560 19.75601
67.565 19.649868
67.570 19.880743
67.575 20.201544
67.580 20.060837
67.585 20.328451
67.590 21.283707
67.595 21.471569
67.600 21.970104
67.605 21.641073
67.610 21.597534
67.615 22.146591
67.620 22.142498
67.625 21.254078
67.630 21.233166
67.635 20.87826
67.640 21.174931
67.645 21.522844
67.650 21.678993
67.655 21.147959
67.660 21.524475
67.665 21.935991
67.670 21.678759
67.675 20.79925
67.680 19.847277
67.685 20.115547
67.690 20.359274
67.695 20.221943
67.700 20.036766
67.705 19.941637
67.710 20.400801
67.715 20.542522
67.720 20.682255
67.725 19.818045
67.730 19.352682
67.735 19.4652
67.740 20.0877
67.745 20.40045
67.750 20.035379
67.755 19.590132
67.760 20.088261
67.765 20.278114
67.770 19.550409
67.775 19.019939
67.780 19.252939
67.785 19.63026
67.790 19.871073
67.795 20.364296
67.800 20.777925
67.805 21.487888
67.810 21.194607
67.815 21.228964
67.820 21.292793
67.825 21.429831
67.830 21.763117
67.835 21.917856
67.840 21.723772
67.845 22.082506
67.850 22.032722
67.855 22.067806
67.860 22.084501
67.865 21.179859
67.870 20.654633
67.875 20.949991
67.880 20.547194
67.885 19.661314
67.890 19.310347
67.895 19.017012
67.900 19.980959
67.905 20.351238
67.910 20.700115
67.915 21.570927
67.920 22.175453
67.925 22.62438
67.930 23.598137
67.935 23.498745
67.940 23.31411
67.945 23.329054
67.950 23.166464
67.955 22.97736
67.960 22.913584
67.965 22.418428
67.970 21.990879
67.975 21.740528
67.980 21.246552
67.985 21.77137
67.990 21.766083
67.995 21.374697
68.000 20.8715
68.005 21.080835
68.010 21.649693
68.015 21.253553
68.020 20.645674
68.025 20.274668
68.030 19.950979
68.035 20.342913
68.040 20.483749
68.045 20.055328
68.050 20.606348
68.055 20.359272
68.060 20.55714
68.065 20.875921
68.070 20.918047
68.075 20.404867
68.080 20.30987
68.085 20.503757
68.090 20.628574
68.095 20.551964
68.100 20.313704
68.105 20.351883
68.110 20.836416
68.115 20.138145
68.120 19.966698
68.125 20.019493
68.130 19.855606
68.135 19.446751
68.140 18.943865
68.145 18.486729
68.150 18.95413
68.155 19.24785
68.160 19.636765
68.165 19.607615
68.170 19.593006
68.175 20.105932
68.180 20.713772
68.185 21.111151
68.190 20.898619
68.195 21.238451
68.200 22.109034
68.205 23.037991
68.210 22.893047
68.215 21.96294
68.220 21.889824
68.225 21.037479
68.230 20.246717
68.235 20.018076
68.240 19.718845
68.245 19.353838
68.250 19.744585
68.255 19.708242
68.260 21.004646
68.265 21.721926
68.270 21.521982
68.275 21.349371
68.280 22.00465
68.285 22.571695
68.290 22.757092
68.295 22.448734
68.300 21.691835
68.305 21.19009
68.310 21.202532
68.315 21.425125
68.320 21.386393
68.325 20.710739
68.330 20.381134
68.335 20.937574
68.340 21.439499
68.345 21.553335
68.350 21.161182
68.355 21.368576
68.360 21.949326
68.365 21.873106
68.370 22.376432
68.375 22.648798
68.380 22.180374
68.385 22.039938
68.390 21.45199
68.395 21.235886
68.400 21.313187
68.405 20.612268
68.410 20.785433
68.415 20.933172
68.420 20.995024
68.425 20.844177
68.430 20.894758
68.435 20.643423
68.440 20.947531
68.445 20.395815
68.450 19.87496
68.455 19.543455
68.460 19.990534
68.465 20.121916
68.470 20.521183
68.475 20.269148
68.480 20.482229
68.485 21.279036
68.490 20.649731
68.495 20.982672
68.500 21.117632
68.505 20.561663
68.510 20.355263
68.515 20.084036
68.520 20.483839
68.525 21.448475
68.530 21.829916
68.535 21.586237
68.540 21.827837
68.545 22.40535
68.550 22.905495
68.555 22.450645
68.560 22.049734
68.565 21.540424
68.570 21.273094
68.575 20.900352
68.580 20.590803
68.585 20.076353
68.590 20.214977
68.595 20.258955
68.600 20.066395
68.605 20.745258
68.610 20.964731
68.615 21.159241
68.620 21.689983
68.625 21.458515
68.630 21.349586
68.635 21.529697
68.640 21.909109
68.645 21.448587
68.650 21.063589
68.655 21.205639
68.660 21.462105
68.665 21.189844
68.670 21.418001
68.675 21.075794
68.680 21.352053
68.685 21.043409
68.690 20.63892
68.695 20.781864
68.700 21.166842
68.705 20.829128
68.710 20.775064
68.715 21.00503
68.720 22.007206
68.725 22.28994
68.730 21.85915
68.735 21.817142
68.740 21.850128
68.745 21.834024
68.750 21.568182
68.755 20.824608
68.760 20.746761
68.765 21.036125
68.770 21.11791
68.775 21.316528
68.780 21.47048
68.785 21.509724
68.790 22.100451
68.795 21.987991
68.800 22.527979
68.805 22.867956
68.810 23.189964
68.815 23.198288
68.820 22.964815
68.825 23.210999
68.830 23.042946
68.835 22.498672
68.840 22.366106
68.845 22.583166
68.850 23.258469
68.855 23.958109
68.860 23.979078
68.865 24.381424
68.870 24.322702
68.875 23.885965
68.880 23.753536
68.885 23.714355
68.890 23.883421
68.895 23.671738
68.900 23.507095
68.905 23.679756
68.910 23.978357
68.915 23.944336
68.920 23.448553
68.925 22.653843
68.930 22.29755
68.935 22.222073
68.940 22.461727
68.945 21.988091
68.950 21.918932
68.955 21.820902
68.960 22.529043
68.965 23.085684
68.970 23.275877
68.975 23.18428
68.980 23.190205
68.985 23.121321
68.990 23.142555
68.995 22.78076
69.000 22.564367
69.005 22.362005
69.010 22.307793
69.015 22.825424
69.020 23.368761
69.025 23.93329
69.030 24.08852
69.035 24.435698
69.040 25.080708
69.045 25.613316
69.050 25.749218
69.055 25.794065
69.060 25.450829
69.065 26.148573
69.070 26.249905
69.075 26.248287
69.080 26.054516
69.085 26.489721
69.090 26.977352
69.095 26.97529
69.100 26.544329
69.105 26.884794
69.110 26.505363
69.115 26.344078
69.120 25.375465
69.125 25.378958
69.130 25.927847
69.135 26.038586
69.140 26.023172
69.145 25.852427
69.150 25.957033
69.155 25.890091
69.160 25.196449
69.165 24.704334
69.170 24.882177
69.175 25.10206
69.180 25.846397
69.185 25.837
69.190 25.827559
69.195 25.735384
69.200 26.045582
69.205 26.195494
69.210 26.580261
69.215 26.483353
69.220 26.265154
69.225 26.77177
69.230 26.785727
69.235 26.422537
69.240 26.498566
69.245 25.540985
69.250 25.350327
69.255 25.924419
69.260 26.315199
69.265 26.783981
69.270 26.804348
69.275 26.182072
69.280 26.749269
69.285 27.083546
69.290 27.004412
69.295 27.067905
69.300 27.172773
69.305 27.746561
69.310 27.887821
69.315 28.030806
69.320 27.713894
69.325 27.931017
69.330 28.088125
69.335 27.777468
69.340 27.679052
69.345 28.59968
69.350 29.135672
69.355 29.239105
69.360 28.906691
69.365 29.690689
69.370 28.957273
69.375 28.682316
69.380 28.212227
69.385 28.062262
69.390 28.94347
69.395 28.813869
69.400 28.051188
69.405 29.222319
69.410 29.443624
69.415 28.866451
69.420 28.460991
69.425 28.073448
69.430 28.652782
69.435 29.39146
69.440 28.975157
69.445 29.226082
69.450 30.450365
69.455 30.755095
69.460 30.679346
69.465 29.942734
69.470 29.741085
69.475 29.654016
69.480 29.055742
69.485 27.841028
69.490 27.961554
69.495 27.869291
69.500 28.184395
69.505 28.380993
69.510 28.787502
69.515 29.16744
69.520 29.678652
69.525 30.062794
69.530 29.929316
69.535 29.194828
69.540 28.835327
69.545 28.86557
69.550 29.092533
69.555 29.810854
69.560 29.003853
69.565 29.844582
69.570 30.47739
69.575 30.388224
69.580 30.676582
69.585 30.887703
69.590 30.438286
69.595 30.804539
69.600 30.276571
69.605 30.352308
69.610 30.929808
69.615 30.413736
69.620 29.987886
69.625 30.562963
69.630 30.990568
69.635 30.855713
69.640 30.405373
69.645 30.567575
69.650 30.630573
69.655 30.185493
69.660 29.552307
69.665 28.755083
69.670 29.221296
69.675 29.57291
69.680 29.582695
69.685 29.15485
69.690 28.673029
69.695 28.074348
69.700 28.255903
69.705 28.237051
69.710 27.872122
69.715 27.326685
69.720 27.304541
69.725 27.291098
69.730 27.708506
69.735 28.225153
69.740 28.141684
69.745 28.332842
69.750 28.459295
69.755 28.500895
69.760 28.49836
69.765 27.721647
69.770 26.712582
69.775 25.950291
69.780 25.348923
69.785 25.561766
69.790 25.567951
69.795 25.700159
69.800 25.711891
69.805 26.030039
69.810 25.82069
69.815 25.969069
69.820 25.393953
69.825 24.323637
69.830 23.59556
69.835 23.754326
69.840 23.44492
69.845 24.106396
69.850 24.404911
69.855 24.480736
69.860 25.10874
69.865 25.548338
69.870 25.209436
69.875 25.521761
69.880 25.242514
69.885 24.627365
69.890 25.070881
69.895 24.80583
69.900 25.016319
69.905 24.353966
69.910 23.732706
69.915 23.443726
69.920 23.393177
69.925 23.152863
69.930 23.173912
69.935 23.719162
69.940 24.438335
69.945 24.562925
69.950 24.890558
69.955 24.662922
69.960 25.025364
69.965 25.127338
69.970 23.005463
69.975 22.061081
69.980 21.408031
69.985 21.472797
69.990 21.06946
69.995 20.507624
70.000 20.809168
70.005 21.20145
70.010 21.55011
70.015 21.71512
70.020 21.972784
70.025 22.567892
70.030 22.701557
70.035 22.329412
70.040 22.48546
70.045 22.262234
70.050 22.050135
70.055 21.35214
70.060 20.364214
70.065 20.384073
70.070 20.807018
70.075 21.165281
70.080 21.21591
70.085 20.965401
70.090 21.43623
70.095 21.74732
70.100 21.469799
70.105 21.293425
70.110 21.279705
70.115 21.190861
70.120 21.486238
70.125 21.422249
70.130 21.30357
70.135 21.244843
70.140 21.535622
70.145 21.808243
70.150 22.060074
70.155 21.538399
70.160 20.965792
70.165 20.66106
70.170 19.791538
70.175 19.479782
70.180 19.191944
70.185 19.256275
70.190 19.729565
70.195 19.864506
70.200 19.640041
70.205 19.380844
70.210 19.011507
70.215 18.730625
70.220 18.841715
70.225 18.930977
70.230 18.959328
70.235 19.611713
70.240 19.63023
70.245 20.022781
70.250 20.21559
70.255 19.598444
70.260 19.596077
70.265 19.603836
70.270 19.903845
70.275 20.419065
70.280 20.192419
70.285 19.857693
70.290 19.932726
70.295 19.771357
70.300 19.804604
70.305 19.386648
70.310 18.99168
70.315 19.306786
70.320 19.615408
70.325 19.562136
70.330 19.545687
70.335 19.486004
70.340 19.630589
70.345 20.095465
70.350 19.399784
70.355 19.364149
70.360 19.525164
70.365 19.675777
70.370 19.925213
70.375 19.733521
70.380 19.735239
70.385 19.943865
70.390 20.085087
70.395 20.072287
70.400 20.423939
70.405 20.609064
70.410 20.365206
70.415 20.000853
70.420 20.017904
70.425 19.813604
70.430 19.741295
70.435 18.816662
70.440 18.318741
70.445 18.286848
70.450 18.040825
70.455 17.345041
70.460 17.161465
70.465 17.086151
70.470 17.9622
70.475 18.475502
70.480 18.008631
70.485 18.654734
70.490 19.171831
70.495 19.43334
70.500 19.023924
70.505 18.200899
70.510 18.326439
70.515 19.762238
70.520 19.883947
70.525 19.365734
70.530 18.943764
70.535 19.325222
70.540 19.719913
70.545 19.295023
70.550 18.87343
70.555 18.443933
70.560 18.402205
70.565 18.880276
70.570 18.586134
70.575 18.157982
70.580 18.430059
70.585 18.085484
70.590 18.089237
70.595 18.214056
70.600 18.137384
70.605 18.812632
70.610 18.899122
70.615 18.39085
70.620 19.185812
70.625 19.900097
70.630 19.750759
70.635 19.597778
70.640 19.490335
70.645 18.909525
70.650 18.775845
70.655 18.321075
70.660 18.347282
70.665 18.10339
70.670 17.783192
70.675 18.003708
70.680 18.200417
70.685 18.161642
70.690 17.986168
70.695 18.2705
70.700 18.879633
70.705 19.069441
70.710 18.758625
70.715 19.22809
70.720 19.337673
70.725 19.837339
70.730 19.490396
70.735 18.905016
70.740 18.867535
70.745 18.695534
70.750 17.873055
70.755 17.883453
70.760 17.910172
70.765 18.181934
70.770 18.540598
70.775 18.594894
70.780 19.415167
70.785 19.561323
70.790 19.05879
70.795 18.401104
70.800 18.489595
70.805 18.516773
70.810 18.765703
70.815 18.60063
70.820 19.078098
70.825 19.596525
70.830 19.744085
70.835 19.5753
70.840 19.735685
70.845 19.571264
70.850 19.570978
70.855 19.300932
70.860 19.239077
70.865 19.150036
70.870 18.998909
70.875 18.680111
70.880 18.733973
70.885 18.689043
70.890 18.377377
70.895 18.575262
70.900 19.043348
70.905 18.518206
70.910 18.28261
70.915 17.511379
70.920 17.029503
70.925 16.965996
70.930 16.288132
70.935 16.798229
70.940 17.823849
70.945 18.152439
70.950 18.919947
70.955 20.119991
70.960 20.034763
70.965 20.308863
70.970 19.634592
70.975 19.097046
70.980 19.090698
70.985 19.094055
70.990 18.68984
70.995 18.952902
71.000 18.661949
71.005 18.708612
71.010 19.278219
71.015 19.634275
71.020 19.522089
71.025 18.999655
71.030 18.71792
71.035 18.860336
71.040 18.635603
71.045 18.168192
71.050 18.365242
71.055 18.291302
71.060 18.61957
71.065 18.845938
71.070 18.926653
71.075 18.935026
71.080 18.600998
71.085 18.246164
71.090 18.43182
71.095 19.275604
71.100 19.154373
71.105 19.407629
71.110 19.801701
71.115 20.29108
71.120 20.643627
71.125 19.882101
71.130 19.789068
71.135 20.037024
71.140 19.787615
71.145 19.679323
71.150 19.48069
71.155 19.70405
71.160 19.379536
71.165 18.755527
71.170 18.935284
71.175 19.117701
71.180 18.471918
71.185 18.555481
71.190 18.415802
71.195 19.26836
71.200 19.393299
71.205 19.276283
71.210 19.421085
71.215 19.530422
71.220 19.833031
71.225 19.735195
71.230 19.793612
71.235 19.373367
71.240 18.990913
71.245 18.9538
71.250 18.424046
71.255 18.009842
71.260 17.898113
71.265 17.760811
71.270 18.399664
71.275 18.124054
71.280 18.071144
71.285 18.23485
71.290 18.178274
71.295 18.16186
71.300 17.56535
71.305 17.390743
71.310 17.641266
71.315 17.519173
71.320 17.846457
71.325 18.338123
71.330 18.508938
71.335 18.525101
71.340 18.933102
71.345 18.605146
71.350 18.32688
71.355 17.926445
71.360 17.550167
71.365 17.699743
71.370 17.504969
71.375 17.0446
71.380 17.779572
71.385 18.545174
71.390 18.655581
71.395 18.305578
71.400 18.539457
71.405 18.657072
71.410 18.972015
71.415 18.741236
71.420 18.352894
71.425 18.193331
71.430 17.791924
71.435 17.581902
71.440 18.05769
71.445 17.746794
71.450 17.911728
71.455 18.186691
71.460 18.746695
71.465 19.246037
71.470 19.415209
71.475 19.191893
71.480 18.999712
71.485 19.273869
71.490 19.585209
71.495 19.622284
71.500 19.230818
71.505 18.73797
71.510 19.313133
71.515 19.118315
71.520 18.145506
71.525 17.678226
71.530 17.490995
71.535 18.417315
71.540 19.304283
71.545 19.280458
71.550 19.176367
71.555 19.42395
71.560 19.620747
71.565 20.126616
71.570 19.175863
71.575 18.757774
71.580 18.823244
71.585 18.976631
71.590 19.40398
71.595 19.502924
71.600 19.202785
71.605 19.318369
71.610 19.623148
71.615 19.177164
71.620 19.186214
71.625 18.784256
71.630 18.76421
71.635 18.954994
71.640 19.09968
71.645 19.464279
71.650 19.901711
71.655 19.611523
71.660 19.339733
71.665 18.441572
71.670 17.822134
71.675 17.199667
71.680 16.810566
71.685 17.107988
71.690 17.307022
71.695 17.659962
71.700 18.414963
71.705 19.032837
71.710 19.127533
71.715 19.300104
71.720 19.368351
71.725 19.123211
71.730 18.982948
71.735 18.797787
71.740 19.108772
71.745 19.145699
71.750 18.408207
71.755 17.946196
71.760 17.840334
71.765 17.814922
71.770 17.80921
71.775 17.705803
71.780 17.306623
71.785 17.574671
71.790 17.637257
71.795 18.252136
71.800 18.468773
71.805 18.049164
71.810 18.287165
71.815 18.421322
71.820 18.987316
71.825 19.187563
71.830 19.09602
71.835 18.7953
71.840 18.852118
71.845 18.788183
71.850 19.159836
71.855 19.263042
71.860 18.764685
71.865 18.583426
71.870 18.393343
71.875 18.677826
71.880 18.534643
71.885 18.00861
71.890 17.778929
71.895 17.757431
71.900 17.502729
71.905 17.450302
71.910 17.060711
71.915 16.653484
71.920 16.532471
71.925 16.685452
71.930 16.728395
71.935 17.192816
71.940 17.272449
71.945 17.323843
71.950 18.113091
71.955 18.237949
71.960 17.773642
71.965 17.756371
71.970 17.854296
71.975 18.620569
71.980 18.596596
71.985 18.300646
71.990 18.36162
71.995 19.126663
72.000 19.001123
72.005 18.812197
72.010 18.79467
72.015 18.996864
72.020 19.609251
72.025 19.232771
72.030 18.923012
72.035 18.767712
72.040 18.631449
72.045 18.391714
72.050 18.342886
72.055 17.761112
72.060 17.981813
72.065 18.43442
72.070 18.227476
72.075 17.79887
72.080 17.339716
72.085 16.856422
72.090 16.688559
72.095 16.772717
72.100 17.36899
72.105 17.74667
72.110 17.918976
72.115 18.666637
72.120 19.736061
72.125 20.513977
72.130 20.190414
72.135 19.647884
72.140 19.187653
72.145 18.608032
72.150 18.594795
72.155 18.05603
72.160 17.835478
72.165 17.804741
72.170 18.18928
72.175 18.785017
72.180 19.730997
72.185 19.085011
72.190 19.508728
72.195 19.45294
72.200 19.274845
72.205 19.204943
72.210 18.848412
72.215 17.845118
72.220 18.005421
72.225 17.899563
72.230 18.109167
72.235 18.349583
72.240 18.69536
72.245 18.929375
72.250 19.211569
72.255 19.212086
72.260 19.5228
72.265 19.500772
72.270 19.477276
72.275 19.318127
72.280 19.393682
72.285 18.653511
72.290 17.894827
72.295 17.795969
72.300 17.931158
72.305 18.284969
72.310 18.33688
72.315 18.658567
72.320 19.035759
72.325 18.899633
72.330 18.811573
72.335 18.147121
72.340 18.006403
72.345 17.996611
72.350 18.43956
72.355 18.835403
72.360 19.385172
72.365 19.622234
72.370 19.808117
72.375 19.712711
72.380 19.448374
72.385 18.775114
72.390 18.359295
72.395 17.659096
72.400 17.327539
72.405 16.774347
72.410 16.889616
72.415 16.713057
72.420 17.043383
72.425 17.422306
72.430 17.907091
72.435 18.578108
72.440 18.69236
72.445 18.44883
72.450 18.952894
72.455 18.838028
72.460 18.732618
72.465 18.184481
72.470 17.61977
72.475 17.689535
72.480 17.358234
72.485 17.663113
72.490 17.995779
72.495 18.183664
72.500 18.324211
72.505 18.188583
72.510 17.929853
72.515 17.815865
72.520 17.573593
72.525 17.611343
72.530 17.735193
72.535 18.045725
72.540 18.176111
72.545 18.058144
72.550 17.975492
72.555 17.702188
72.560 17.628265
72.565 17.221056
72.570 17.226736
72.575 17.714605
72.580 18.274988
72.585 19.238092
72.590 19.427517
72.595 19.643578
72.600 20.344879
72.605 19.941057
72.610 19.179806
72.615 18.70426
72.620 18.075445
72.625 18.211857
72.630 17.267477
72.635 16.960352
72.640 17.275364
72.645 17.330397
72.650 17.019258
72.655 16.834768
72.660 16.519968
72.665 16.903103
72.670 16.984943
72.675 17.217812
72.680 17.646347
72.685 17.768
72.690 18.154173
72.695 18.103745
72.700 17.991566
72.705 17.239462
72.710 17.194849
72.715 16.833269
72.720 16.807114
72.725 16.662428
72.730 16.80744
72.735 17.089821
72.740 17.643929
72.745 18.239702
72.750 18.557915
72.755 17.920025
72.760 17.941046
72.765 18.690022
72.770 19.028799
72.775 19.036339
72.780 18.413967
72.785 18.573732
72.790 18.359873
72.795 18.022806
72.800 17.833
72.805 17.81974
72.810 17.295624
72.815 17.397738
72.820 17.035307
72.825 17.255493
72.830 16.948597
72.835 16.552338
72.840 16.430794
72.845 16.418978
72.850 16.520033
72.855 17.057159
72.860 16.824003
72.865 17.456856
72.870 17.660952
72.875 17.767185
72.880 17.880678
72.885 17.752621
72.890 17.874743
72.895 17.944244
72.900 17.670443
72.905 17.438656
72.910 17.475422
72.915 17.601395
72.920 17.908674
72.925 17.980986
72.930 18.309277
72.935 18.648832
72.940 18.837128
72.945 18.340445
72.950 17.463102
72.955 17.229343
72.960 16.983002
72.965 15.949733
72.970 15.471512
72.975 15.679812
72.980 16.607555
72.985 17.428413
72.990 17.506504
72.995 17.800005
73.000 17.784943
