!@!!GADDS PLOTSO FILE: Chi integration type
!@!!Title/SampleName: map-92
!@!!Comment: ?
!@!!User: Bruker Instrument Administrator
!@!!Site: University of Illinois Chicago
!@!!Frame: map-92_01_000.gfrm
!@!!Wavelengths    1.54184   1.54056   1.54439
!@!!Frame angles: 2Theta: 63.000 Omega: 50.000 Phi: 0.000 Chi: 90.000
!@!!Integration range: 2Theta: 53.000 to 73.000  Gamma: -105.000 to -75.000
!@!!Integration method: bin normalized
!@!N
!@!SS
!@!M
!@!L 0.0 0.0 0.0 0.0
!@!XDegrees
!@!YCounts
53.000 6.820762
53.005 7.215191
53.010 7.611508
53.015 8.061729
53.020 8.566581
53.025 9.119333
53.030 8.992245
53.035 8.999636
53.040 8.752774
53.045 8.294708
53.050 8.00545
53.055 7.873012
53.060 7.731103
53.065 7.698741
53.070 7.528455
53.075 7.585942
53.080 7.333526
53.085 7.765329
53.090 8.111497
53.095 8.791585
53.100 8.768128
53.105 8.761703
53.110 8.857908
53.115 9.0549
53.120 9.192089
53.125 8.670568
53.130 8.301777
53.135 8.398326
53.140 8.394432
53.145 8.577538
53.150 8.859109
53.155 8.556105
53.160 8.816749
53.165 9.137162
53.170 9.206176
53.175 9.211283
53.180 9.059569
53.185 9.224077
53.190 9.172029
53.195 9.075866
53.200 8.833889
53.205 8.739834
53.210 8.966743
53.215 9.122844
53.220 8.565867
53.225 8.481905
53.230 8.618022
53.235 8.650325
53.240 8.929815
53.245 8.782568
53.250 8.968355
53.255 9.48249
53.260 9.619407
53.265 9.600839
53.270 9.472435
53.275 9.353132
53.280 9.343745
53.285 9.015834
53.290 8.88326
53.295 8.523371
53.300 8.345031
53.305 8.465399
53.310 8.242037
53.315 8.266857
53.320 8.342365
53.325 8.730721
53.330 9.443632
53.335 9.257968
53.340 9.110212
53.345 8.804158
53.350 8.764535
53.355 8.842524
53.360 8.286243
53.365 8.187907
53.370 8.576387
53.375 8.696241
53.380 8.895657
53.385 8.653817
53.390 8.770926
53.395 8.769154
53.400 8.404314
53.405 8.078732
53.410 8.111314
53.415 7.942123
53.420 7.820043
53.425 7.96414
53.430 8.169149
53.435 8.354826
53.440 8.922232
53.445 9.135876
53.450 9.253042
53.455 9.458521
53.460 9.291424
53.465 9.113179
53.470 9.271195
53.475 9.32708
53.480 9.117367
53.485 8.805427
53.490 8.69066
53.495 8.574511
53.500 8.46771
53.505 8.303052
53.510 8.512487
53.515 8.796485
53.520 8.820679
53.525 8.999104
53.530 9.525548
53.535 9.645275
53.540 9.411659
53.545 9.253817
53.550 9.673352
53.555 9.592855
53.560 9.147416
53.565 8.574137
53.570 8.775516
53.575 9.021973
53.580 9.000716
53.585 8.986867
53.590 9.630928
53.595 10.070039
53.600 10.118924
53.605 9.743101
53.610 9.422045
53.615 9.188576
53.620 8.897734
53.625 8.626227
53.630 8.766274
53.635 9.1116
53.640 8.999608
53.645 9.112239
53.650 9.481684
53.655 9.59783
53.660 10.114235
53.665 9.998498
53.670 10.052551
53.675 10.084742
53.680 9.818548
53.685 9.716633
53.690 9.089572
53.695 8.575553
53.700 8.291986
53.705 8.434437
53.710 8.952646
53.715 9.454186
53.720 9.46853
53.725 9.494022
53.730 9.463844
53.735 9.870984
53.740 9.650403
53.745 9.692481
53.750 9.401483
53.755 9.411333
53.760 9.366945
53.765 8.955595
53.770 8.483228
53.775 8.290907
53.780 8.300184
53.785 8.730561
53.790 8.801625
53.795 9.032894
53.800 9.387218
53.805 9.397786
53.810 9.412051
53.815 9.379008
53.820 9.162619
53.825 9.579459
53.830 9.404431
53.835 9.350607
53.840 9.537202
53.845 9.444011
53.850 9.316641
53.855 9.392487
53.860 9.615874
53.865 9.293251
53.870 9.493198
53.875 9.277375
53.880 9.01442
53.885 8.876857
53.890 9.291641
53.895 9.696315
53.900 10.434769
53.905 10.73944
53.910 10.886459
53.915 11.345539
53.920 11.504005
53.925 11.079965
53.930 10.523336
53.935 9.857914
53.940 9.544221
53.945 9.316483
53.950 8.978457
53.955 8.934856
53.960 8.810048
53.965 8.859845
53.970 8.810863
53.975 9.193785
53.980 8.862409
53.985 8.912504
53.990 8.92392
53.995 9.053087
54.000 8.945244
54.005 9.090376
54.010 9.27452
54.015 9.790148
54.020 9.552771
54.025 8.985747
54.030 9.096977
54.035 9.329416
54.040 9.061811
54.045 9.105271
54.050 9.241459
54.055 9.741029
54.060 10.230475
54.065 10.116794
54.070 10.295961
54.075 10.041367
54.080 9.676857
54.085 9.46002
54.090 9.261064
54.095 9.159431
54.100 9.05068
54.105 9.075431
54.110 9.531972
54.115 9.474658
54.120 9.174136
54.125 8.971806
54.130 9.247334
54.135 9.229963
54.140 9.523247
54.145 9.603661
54.150 9.803091
54.155 10.763083
54.160 10.880508
54.165 10.85464
54.170 10.927371
54.175 10.714583
54.180 10.591277
54.185 10.457922
54.190 10.203532
54.195 10.327935
54.200 10.111506
54.205 9.705638
54.210 9.436633
54.215 9.451092
54.220 9.597045
54.225 9.44077
54.230 9.65458
54.235 10.258173
54.240 10.776947
54.245 11.094584
54.250 11.007461
54.255 10.70813
54.260 11.031883
54.265 10.634319
54.270 10.492239
54.275 10.274443
54.280 10.5343
54.285 10.358986
54.290 10.268572
54.295 10.04254
54.300 9.944218
54.305 9.81321
54.310 9.633199
54.315 9.245771
54.320 9.489017
54.325 9.155551
54.330 9.109705
54.335 9.293426
54.340 9.135677
54.345 9.248776
54.350 9.043079
54.355 9.080837
54.360 9.519526
54.365 9.4176
54.370 9.361877
54.375 9.63224
54.380 9.667529
54.385 9.827242
54.390 10.009017
54.395 10.141618
54.400 10.16192
54.405 10.526807
54.410 10.544021
54.415 10.685757
54.420 10.842282
54.425 10.593679
54.430 10.127031
54.435 9.994771
54.440 9.82585
54.445 9.695936
54.450 9.502317
54.455 9.710569
54.460 9.977668
54.465 10.289941
54.470 10.544019
54.475 10.584081
54.480 10.392696
54.485 10.347533
54.490 10.297745
54.495 10.247964
54.500 10.423571
54.505 10.150568
54.510 9.950851
54.515 10.128531
54.520 10.197509
54.525 9.5595
54.530 9.519718
54.535 9.644745
54.540 9.90973
54.545 9.941283
54.550 9.763391
54.555 9.349049
54.560 9.935885
54.565 9.978285
54.570 10.049132
54.575 10.010676
54.580 10.178629
54.585 10.565776
54.590 11.183018
54.595 10.770617
54.600 10.740216
54.605 10.592125
54.610 10.918625
54.615 11.211857
54.620 10.939818
54.625 10.519547
54.630 10.53336
54.635 10.455038
54.640 10.338647
54.645 10.331334
54.650 10.136542
54.655 9.974257
54.660 10.172756
54.665 10.168332
54.670 10.361619
54.675 9.862807
54.680 9.36454
54.685 9.172092
54.690 9.314501
54.695 9.60218
54.700 9.57932
54.705 9.968035
54.710 10.421991
54.715 10.726288
54.720 10.978652
54.725 11.094423
54.730 11.525016
54.735 11.601686
54.740 11.4394
54.745 11.963114
54.750 11.876421
54.755 11.925709
54.760 11.732974
54.765 11.45727
54.770 11.149038
54.775 11.239724
54.780 10.887428
54.785 10.932705
54.790 10.759646
54.795 10.687632
54.800 10.917354
54.805 10.890346
54.810 10.768551
54.815 10.612665
54.820 10.623588
54.825 10.872539
54.830 10.746263
54.835 10.840636
54.840 10.371684
54.845 10.328532
54.850 10.675215
54.855 10.590981
54.860 10.746471
54.865 10.595952
54.870 10.667689
54.875 10.944069
54.880 10.704295
54.885 10.406075
54.890 10.306212
54.895 10.195346
54.900 9.894192
54.905 9.815265
54.910 10.102407
54.915 10.54694
54.920 10.878804
54.925 10.759865
54.930 10.815753
54.935 11.446362
54.940 11.814631
54.945 11.80851
54.950 11.676796
54.955 11.388394
54.960 11.320616
54.965 11.118669
54.970 10.501901
54.975 10.225112
54.980 10.517251
54.985 11.011898
54.990 11.412144
54.995 11.425854
55.000 11.331101
55.005 11.327055
55.010 11.241072
55.015 10.635466
55.020 9.878267
55.025 10.016813
55.030 10.100834
55.035 10.068731
55.040 10.18356
55.045 10.384869
55.050 10.740452
55.055 10.832744
55.060 10.822184
55.065 10.966619
55.070 10.819122
55.075 10.516136
55.080 10.428047
55.085 10.447504
55.090 10.239326
55.095 10.179439
55.100 10.460276
55.105 10.674738
55.110 11.099717
55.115 10.656042
55.120 9.837354
55.125 9.475135
55.130 9.292412
55.135 9.699537
55.140 9.990487
55.145 9.81619
55.150 10.333229
55.155 10.753944
55.160 11.44363
55.165 11.501896
55.170 11.133723
55.175 10.991259
55.180 11.26514
55.185 11.493337
55.190 11.604952
55.195 11.54983
55.200 11.580678
55.205 11.505575
55.210 11.328099
55.215 11.417484
55.220 12.171086
55.225 12.462766
55.230 11.873593
55.235 11.656907
55.240 11.637094
55.245 11.662279
55.250 11.339311
55.255 10.988773
55.260 11.265898
55.265 11.86513
55.270 12.110569
55.275 12.174431
55.280 12.177114
55.285 12.265385
55.290 11.369473
55.295 11.362178
55.300 11.396927
55.305 11.341669
55.310 11.17648
55.315 10.920211
55.320 10.807113
55.325 11.472443
55.330 10.734163
55.335 10.71693
55.340 11.122761
55.345 11.865568
55.350 11.853654
55.355 11.717327
55.360 11.562451
55.365 11.478705
55.370 10.941148
55.375 10.77112
55.380 10.199121
55.385 10.629044
55.390 10.818839
55.395 10.91886
55.400 11.258357
55.405 11.394689
55.410 11.119911
55.415 11.486919
55.420 11.106001
55.425 10.924482
55.430 11.244036
55.435 11.039842
55.440 10.686088
55.445 10.85122
55.450 10.780725
55.455 10.764656
55.460 10.928289
55.465 11.034441
55.470 11.323077
55.475 11.703499
55.480 11.562461
55.485 11.274881
55.490 11.465106
55.495 11.506972
55.500 11.483557
55.505 11.845053
55.510 11.6259
55.515 11.796081
55.520 11.984393
55.525 11.658981
55.530 11.223145
55.535 11.119214
55.540 10.457372
55.545 10.122012
55.550 10.167715
55.555 9.980423
55.560 10.452277
55.565 10.884071
55.570 10.453993
55.575 10.878584
55.580 11.22701
55.585 11.40239
55.590 11.562022
55.595 11.447043
55.600 11.148858
55.605 11.763449
55.610 11.815503
55.615 11.974569
55.620 11.806584
55.625 11.904782
55.630 11.780532
55.635 11.405661
55.640 11.069839
55.645 10.886956
55.650 11.01342
55.655 11.253177
55.660 10.944132
55.665 10.804314
55.670 10.653597
55.675 10.824514
55.680 11.107786
55.685 10.731668
55.690 10.88986
55.695 11.500929
55.700 12.392075
55.705 12.716756
55.710 12.709377
55.715 12.986694
55.720 13.079073
55.725 12.906403
55.730 12.185851
55.735 11.613511
55.740 11.421092
55.745 10.986147
55.750 10.940057
55.755 10.966599
55.760 10.686155
55.765 10.965297
55.770 11.238552
55.775 11.723353
55.780 11.702123
55.785 11.527013
55.790 11.192527
55.795 11.623884
55.800 11.557055
55.805 11.044576
55.810 10.598409
55.815 10.476572
55.820 10.606676
55.825 10.957046
55.830 10.646401
55.835 10.960809
55.840 10.800577
55.845 11.148152
55.850 11.601413
55.855 11.730742
55.860 11.830429
55.865 11.808381
55.870 11.779502
55.875 12.420293
55.880 12.002568
55.885 11.792771
55.890 11.718723
55.895 11.516507
55.900 11.333567
55.905 11.556445
55.910 11.688875
55.915 11.867479
55.920 11.861578
55.925 11.795362
55.930 11.890775
55.935 12.103097
55.940 11.550011
55.945 11.231984
55.950 11.229298
55.955 11.551692
55.960 12.025613
55.965 11.870374
55.970 11.840401
55.975 12.4069
55.980 12.491706
55.985 12.152948
55.990 11.585061
55.995 11.497685
56.000 11.63713
56.005 11.441138
56.010 10.998453
56.015 11.423385
56.020 11.692142
56.025 11.597743
56.030 11.806165
56.035 11.816524
56.040 12.310471
56.045 12.687602
56.050 12.544425
56.055 12.904696
56.060 12.395433
56.065 12.007777
56.070 11.937829
56.075 12.116453
56.080 12.217815
56.085 12.555071
56.090 12.563325
56.095 12.985746
56.100 13.067965
56.105 12.832186
56.110 12.630497
56.115 12.94979
56.120 12.231016
56.125 11.916304
56.130 11.932775
56.135 12.41563
56.140 12.923124
56.145 12.933574
56.150 12.756169
56.155 13.314353
56.160 13.393776
56.165 13.548548
56.170 13.534297
56.175 12.741792
56.180 12.037054
56.185 11.539054
56.190 11.545697
56.195 11.57181
56.200 11.235583
56.205 11.275454
56.210 12.040292
56.215 13.036242
56.220 13.099852
56.225 12.328322
56.230 12.133599
56.235 12.219007
56.240 11.969789
56.245 11.76127
56.250 11.007981
56.255 11.339187
56.260 11.819813
56.265 11.868192
56.270 11.462134
56.275 11.608626
56.280 11.378601
56.285 12.103332
56.290 11.904832
56.295 11.431071
56.300 11.508571
56.305 11.75437
56.310 11.525553
56.315 11.885982
56.320 11.089253
56.325 11.105707
56.330 11.643187
56.335 11.909039
56.340 12.416402
56.345 12.407632
56.350 12.224231
56.355 12.791747
56.360 12.808931
56.365 12.368649
56.370 11.740399
56.375 10.930386
56.380 10.488695
56.385 10.73512
56.390 10.401711
56.395 10.947854
56.400 11.083677
56.405 11.153062
56.410 11.520375
56.415 11.910131
56.420 12.302211
56.425 12.444606
56.430 12.240849
56.435 12.47031
56.440 12.866838
56.445 13.063408
56.450 12.824515
56.455 12.330117
56.460 12.627965
56.465 12.494471
56.470 12.553816
56.475 12.667407
56.480 12.447678
56.485 12.609426
56.490 12.867478
56.495 12.654345
56.500 12.489277
56.505 12.439471
56.510 11.99148
56.515 11.751316
56.520 12.138945
56.525 11.888167
56.530 12.095548
56.535 12.441963
56.540 12.57199
56.545 13.169517
56.550 13.229362
56.555 12.96427
56.560 12.835002
56.565 12.121335
56.570 11.720736
56.575 11.851265
56.580 12.114945
56.585 11.764366
56.590 11.490602
56.595 11.405389
56.600 11.707008
56.605 11.781806
56.610 11.461351
56.615 11.325542
56.620 12.086576
56.625 12.449677
56.630 12.560879
56.635 12.829737
56.640 13.051153
56.645 13.083968
56.650 12.692692
56.655 12.710422
56.660 13.141382
56.665 13.579983
56.670 13.548408
56.675 13.074105
56.680 13.142356
56.685 12.984667
56.690 12.372251
56.695 12.428423
56.700 12.033566
56.705 11.9926
56.710 12.348349
56.715 12.199662
56.720 12.331421
56.725 11.899718
56.730 11.456763
56.735 11.932764
56.740 11.876792
56.745 11.933666
56.750 12.469605
56.755 13.327161
56.760 13.95381
56.765 14.265635
56.770 14.279725
56.775 14.089566
56.780 14.001597
56.785 13.565293
56.790 13.482409
56.795 13.425417
56.800 13.490096
56.805 13.624496
56.810 14.060575
56.815 14.266047
56.820 14.359646
56.825 13.86096
56.830 13.671356
56.835 13.187867
56.840 13.568006
56.845 13.771944
56.850 13.634604
56.855 13.48124
56.860 13.425164
56.865 13.359792
56.870 13.843693
56.875 13.628616
56.880 13.431714
56.885 13.042648
56.890 13.11218
56.895 13.417279
56.900 13.658413
56.905 13.052595
56.910 12.968102
56.915 12.995084
56.920 13.23227
56.925 13.388097
56.930 13.516568
56.935 13.389997
56.940 13.59368
56.945 13.618201
56.950 13.899179
56.955 14.04845
56.960 13.689163
56.965 12.911014
56.970 12.872894
56.975 13.041826
56.980 13.028117
56.985 12.663821
56.990 12.804381
56.995 13.200808
57.000 13.558349
57.005 13.427438
57.010 12.712805
57.015 12.670296
57.020 12.533588
57.025 12.541825
57.030 12.253707
57.035 12.454881
57.040 12.589755
57.045 12.656651
57.050 12.732355
57.055 12.729991
57.060 12.123267
57.065 12.39702
57.070 12.429708
57.075 11.844463
57.080 11.958043
57.085 11.533195
57.090 12.169524
57.095 12.517559
57.100 12.271575
57.105 12.196034
57.110 12.818544
57.115 12.885839
57.120 12.985936
57.125 12.980377
57.130 12.843254
57.135 12.854238
57.140 12.987259
57.145 13.118356
57.150 13.069268
57.155 12.894918
57.160 12.625108
57.165 12.735739
57.170 13.162694
57.175 12.990878
57.180 12.44988
57.185 12.281452
57.190 12.105391
57.195 12.077691
57.200 12.480464
57.205 12.44588
57.210 13.107139
57.215 13.548564
57.220 13.802889
57.225 13.895243
57.230 13.73229
57.235 13.60686
57.240 13.45669
57.245 13.081358
57.250 12.586555
57.255 12.255121
57.260 12.673589
57.265 13.007357
57.270 12.763761
57.275 12.543748
57.280 12.214401
57.285 12.193695
57.290 12.347765
57.295 11.838303
57.300 11.50274
57.305 11.439496
57.310 11.598985
57.315 11.538286
57.320 11.908306
57.325 11.722965
57.330 11.869928
57.335 12.054875
57.340 11.947143
57.345 11.888905
57.350 12.561927
57.355 12.692818
57.360 13.129231
57.365 13.070979
57.370 13.22568
57.375 13.552812
57.380 13.639195
57.385 13.444537
57.390 13.198547
57.395 13.293204
57.400 13.472074
57.405 13.148838
57.410 12.714002
57.415 12.94909
57.420 12.906441
57.425 12.744354
57.430 12.322526
57.435 12.505014
57.440 12.690247
57.445 12.903242
57.450 13.055848
57.455 13.836287
57.460 14.217607
57.465 14.389394
57.470 14.776779
57.475 14.734692
57.480 14.833314
57.485 15.092719
57.490 14.49379
57.495 14.921206
57.500 15.107476
57.505 14.822533
57.510 14.6583
57.515 14.16371
57.520 13.366994
57.525 13.320066
57.530 13.170052
57.535 13.083447
57.540 12.866462
57.545 12.877627
57.550 12.990466
57.555 13.634665
57.560 13.967872
57.565 14.012533
57.570 13.884281
57.575 13.879192
57.580 14.171059
57.585 14.028456
57.590 13.918744
57.595 14.055833
57.600 13.853806
57.605 13.666862
57.610 13.732191
57.615 13.475379
57.620 13.568398
57.625 13.531716
57.630 13.561481
57.635 13.56484
57.640 13.338629
57.645 13.324893
57.650 13.592434
57.655 13.542914
57.660 12.996339
57.665 12.388518
57.670 12.619241
57.675 13.338705
57.680 13.364728
57.685 13.180039
57.690 13.577166
57.695 13.962526
57.700 13.85234
57.705 13.590212
57.710 13.498629
57.715 13.679001
57.720 13.813492
57.725 13.576769
57.730 14.00932
57.735 14.498259
57.740 14.597544
57.745 14.629792
57.750 14.418499
57.755 14.46839
57.760 14.67595
57.765 14.500364
57.770 14.197448
57.775 13.905646
57.780 13.749743
57.785 14.065317
57.790 14.080449
57.795 14.083649
57.800 13.913315
57.805 14.54763
57.810 14.938429
57.815 14.869116
57.820 14.915109
57.825 14.574413
57.830 14.490272
57.835 14.860308
57.840 14.733802
57.845 14.527564
57.850 14.544553
57.855 14.70003
57.860 14.760484
57.865 14.486509
57.870 14.657423
57.875 15.2362
57.880 15.563572
57.885 15.505512
57.890 14.818753
57.895 14.506112
57.900 14.903497
57.905 14.809605
57.910 13.98709
57.915 13.976727
57.920 14.177466
57.925 14.298528
57.930 14.258678
57.935 14.066276
57.940 13.647358
57.945 13.994406
57.950 13.978215
57.955 14.295872
57.960 15.345299
57.965 15.990564
57.970 16.625626
57.975 17.232624
57.980 17.705389
57.985 18.142138
57.990 17.90752
57.995 17.146389
58.000 16.63983
58.005 16.141382
58.010 15.967542
58.015 15.470123
58.020 14.74359
58.025 14.660213
58.030 14.72401
58.035 15.209334
58.040 15.177988
58.045 14.969809
58.050 15.562234
58.055 15.861094
58.060 15.670342
58.065 16.129025
58.070 15.971398
58.075 15.555689
58.080 15.055193
58.085 14.957203
58.090 15.39281
58.095 15.862622
58.100 15.724512
58.105 15.873948
58.110 16.180397
58.115 16.245228
58.120 15.961086
58.125 15.811214
58.130 15.595058
58.135 15.711309
58.140 15.825458
58.145 16.442253
58.150 17.022959
58.155 16.965019
58.160 16.792566
58.165 16.955444
58.170 16.919794
58.175 16.452072
58.180 15.922936
58.185 15.518069
58.190 15.25184
58.195 15.521643
58.200 15.429074
58.205 15.822767
58.210 16.357416
58.215 16.414284
58.220 16.377922
58.225 16.212299
58.230 16.452456
58.235 16.634659
58.240 16.413198
58.245 16.308247
58.250 16.482191
58.255 16.772568
58.260 16.967381
58.265 16.246502
58.270 15.716501
58.275 15.975353
58.280 15.789493
58.285 15.81247
58.290 15.566605
58.295 15.706614
58.300 15.906174
58.305 16.14356
58.310 16.137119
58.315 16.824982
58.320 17.18981
58.325 17.650139
58.330 17.975702
58.335 18.601391
58.340 19.01396
58.345 18.776615
58.350 18.479935
58.355 18.32905
58.360 18.178375
58.365 18.065834
58.370 17.377802
58.375 16.829819
58.380 16.523344
58.385 16.205931
58.390 16.652098
58.395 16.517338
58.400 16.947046
58.405 17.728233
58.410 17.976643
58.415 18.060085
58.420 18.636801
58.425 18.943617
58.430 19.019487
58.435 19.257153
58.440 19.897326
58.445 20.858669
58.450 21.643669
58.455 21.953287
58.460 22.259604
58.465 22.657833
58.470 21.840437
58.475 20.977453
58.480 20.866615
58.485 20.804073
58.490 21.537657
58.495 21.860079
58.500 22.689604
58.505 23.912941
58.510 24.84602
58.515 25.259848
58.520 26.494368
58.525 26.602922
58.530 26.840645
58.535 26.876986
58.540 27.146626
58.545 27.922995
58.550 28.242495
58.555 27.980095
58.560 28.47051
58.565 28.90044
58.570 29.186138
58.575 29.241055
58.580 28.647118
58.585 28.52087
58.590 29.57099
58.595 29.731998
58.600 30.083101
58.605 31.505741
58.610 32.331516
58.615 32.660313
58.620 32.818954
58.625 32.807079
58.630 33.814014
58.635 34.51247
58.640 34.717327
58.645 34.891068
58.650 35.874115
58.655 36.410423
58.660 36.454617
58.665 36.110348
58.670 35.6092
58.675 35.374176
58.680 35.224354
58.685 35.128422
58.690 35.486244
58.695 35.540775
58.700 36.12579
58.705 36.774807
58.710 36.216919
58.715 36.417099
58.720 36.355885
58.725 36.479958
58.730 36.508373
58.735 35.88689
58.740 35.691044
58.745 36.04594
58.750 35.337204
58.755 34.421715
58.760 34.272949
58.765 34.378963
58.770 33.857029
58.775 33.285881
58.780 32.96558
58.785 32.585411
58.790 32.572128
58.795 31.816185
58.800 31.566988
58.805 31.571108
58.810 31.155703
58.815 30.924355
58.820 31.109726
58.825 30.27354
58.830 29.451817
58.835 28.444748
58.840 28.472589
58.845 28.19636
58.850 27.840204
58.855 28.377449
58.860 28.336805
58.865 28.62962
58.870 28.6481
58.875 28.046267
58.880 27.671097
58.885 26.763237
58.890 26.032909
58.895 26.148045
58.900 25.915367
58.905 24.927992
58.910 24.046263
58.915 23.559725
58.920 22.961092
58.925 21.920469
58.930 21.922937
58.935 21.659281
58.940 21.2845
58.945 21.523762
58.950 21.879412
58.955 21.882219
58.960 22.582304
58.965 22.095613
58.970 21.792414
58.975 21.806902
58.980 21.464338
58.985 21.112997
58.990 21.197559
58.995 20.73678
59.000 20.660677
59.005 20.288319
59.010 19.936369
59.015 19.87146
59.020 19.237879
59.025 19.265566
59.030 19.323683
59.035 18.880331
59.040 18.549004
59.045 18.200888
59.050 18.152012
59.055 18.246445
59.060 17.664017
59.065 17.490286
59.070 17.096933
59.075 17.766333
59.080 18.715775
59.085 18.309055
59.090 18.066435
59.095 17.501568
59.100 16.927187
59.105 16.774454
59.110 15.679008
59.115 14.100502
59.120 14.284681
59.125 14.42669
59.130 14.804694
59.135 15.418523
59.140 15.554083
59.145 15.643426
59.150 16.226694
59.155 16.313765
59.160 16.082047
59.165 16.37236
59.170 16.513084
59.175 16.870291
59.180 16.460489
59.185 15.54806
59.190 15.538424
59.195 15.50099
59.200 15.247562
59.205 15.120134
59.210 14.78361
59.215 14.652626
59.220 14.857213
59.225 14.932907
59.230 15.355677
59.235 15.489932
59.240 15.40925
59.245 15.40303
59.250 16.194674
59.255 15.880611
59.260 15.912034
59.265 15.913749
59.270 15.520165
59.275 15.566892
59.280 16.012394
59.285 15.962034
59.290 16.618105
59.295 15.886161
59.300 15.647735
59.305 15.457313
59.310 14.836379
59.315 14.7092
59.320 14.740548
59.325 14.800892
59.330 15.275453
59.335 15.250534
59.340 15.129103
59.345 15.11307
59.350 14.472314
59.355 13.995356
59.360 13.345072
59.365 12.82526
59.370 12.567109
59.375 13.137668
59.380 13.336595
59.385 13.262333
59.390 13.793762
59.395 14.442346
59.400 14.825582
59.405 14.704226
59.410 14.198987
59.415 14.128699
59.420 14.174272
59.425 14.038421
59.430 14.061145
59.435 13.841105
59.440 14.331461
59.445 14.497812
59.450 14.606091
59.455 14.916166
59.460 14.517956
59.465 14.10629
59.470 14.270662
59.475 14.543737
59.480 14.694632
59.485 14.782418
59.490 14.787172
59.495 14.744719
59.500 14.865444
59.505 14.746645
59.510 14.338346
59.515 14.454564
59.520 15.058273
59.525 15.411283
59.530 15.592466
59.535 15.605384
59.540 15.830343
59.545 16.036922
59.550 15.833478
59.555 15.386267
59.560 15.225398
59.565 15.482357
59.570 14.736186
59.575 14.322102
59.580 14.089928
59.585 14.317527
59.590 14.047646
59.595 13.659716
59.600 13.256971
59.605 13.267108
59.610 13.312368
59.615 13.365108
59.620 13.267747
59.625 13.120586
59.630 13.403587
59.635 13.549282
59.640 14.14624
59.645 14.026996
59.650 14.009314
59.655 13.878075
59.660 14.193012
59.665 14.07955
59.670 14.265437
59.675 14.529632
59.680 14.668206
59.685 14.354482
59.690 13.944771
59.695 13.826551
59.700 14.465551
59.705 14.497296
59.710 14.386367
59.715 14.62936
59.720 14.52107
59.725 14.530721
59.730 14.681083
59.735 14.089592
59.740 13.990011
59.745 13.794862
59.750 13.790381
59.755 14.62195
59.760 15.049667
59.765 14.888961
59.770 15.488331
59.775 15.507342
59.780 15.783423
59.785 16.197262
59.790 15.77508
59.795 15.571795
59.800 15.241616
59.805 15.121661
59.810 14.920798
59.815 14.521683
59.820 13.989321
59.825 14.383297
59.830 14.765359
59.835 15.091496
59.840 15.331763
59.845 15.659792
59.850 15.625322
59.855 16.056265
59.860 15.418457
59.865 15.025125
59.870 14.732306
59.875 14.013243
59.880 13.953947
59.885 13.624567
59.890 13.467554
59.895 14.349773
59.900 14.833864
59.905 14.734016
59.910 15.047459
59.915 15.054828
59.920 15.371604
59.925 15.454156
59.930 14.961583
59.935 15.079293
59.940 15.459367
59.945 15.016422
59.950 15.045055
59.955 15.595542
59.960 15.928054
59.965 15.770613
59.970 15.165038
59.975 15.155971
59.980 15.462899
59.985 15.67068
59.990 14.979674
59.995 14.600022
60.000 14.400084
60.005 14.558673
60.010 14.368503
60.015 14.235571
60.020 14.067986
60.025 14.235022
60.030 13.964473
60.035 14.048248
60.040 14.730178
60.045 15.221949
60.050 15.2907
60.055 14.958049
60.060 14.701746
60.065 15.344468
60.070 15.713458
60.075 14.925598
60.080 14.540527
60.085 14.913153
60.090 15.466571
60.095 15.876444
60.100 15.477433
60.105 15.604733
60.110 15.724006
60.115 15.369768
60.120 15.023874
60.125 14.639761
60.130 14.154078
60.135 14.263535
60.140 13.763332
60.145 13.36792
60.150 13.045794
60.155 13.243805
60.160 13.119457
60.165 13.775966
60.170 13.625123
60.175 14.221638
60.180 15.319002
60.185 16.117617
60.190 16.364391
60.195 16.483017
60.200 16.034958
60.205 16.184155
60.210 15.948021
60.215 15.452371
60.220 15.993876
60.225 16.664085
60.230 16.654232
60.235 16.414759
60.240 16.238722
60.245 16.383404
60.250 16.828121
60.255 16.035637
60.260 15.542054
60.265 15.896785
60.270 16.168253
60.275 15.611927
60.280 15.029504
60.285 14.621017
60.290 14.616187
60.295 14.586779
60.300 14.283389
60.305 14.647016
60.310 15.640932
60.315 16.394375
60.320 16.476879
60.325 16.660505
60.330 16.643185
60.335 17.05579
60.340 17.069204
60.345 17.091887
60.350 16.494421
60.355 16.30541
60.360 15.760063
60.365 15.506365
60.370 15.331581
60.375 14.841536
60.380 14.624826
60.385 14.980426
60.390 15.241056
60.395 15.654237
60.400 15.474455
60.405 15.103335
60.410 15.04473
60.415 15.253929
60.420 15.346398
60.425 15.10437
60.430 15.072359
60.435 15.388477
60.440 15.357081
60.445 15.166794
60.450 14.774245
60.455 15.015914
60.460 15.22464
60.465 15.060123
60.470 14.550025
60.475 14.583963
60.480 14.665602
60.485 14.039007
60.490 13.390926
60.495 13.184756
60.500 13.12498
60.505 13.539231
60.510 13.764437
60.515 13.887207
60.520 14.29384
60.525 14.298438
60.530 14.22404
60.535 14.580022
60.540 14.37048
60.545 14.539951
60.550 14.802688
60.555 14.989035
60.560 15.147947
60.565 15.340139
60.570 15.660233
60.575 16.155949
60.580 15.817503
60.585 15.700064
60.590 15.905137
60.595 15.946499
60.600 15.981936
60.605 15.157346
60.610 15.380535
60.615 16.208902
60.620 16.128012
60.625 16.276669
60.630 16.397591
60.635 16.401876
60.640 16.411957
60.645 16.021582
60.650 15.527173
60.655 15.409176
60.660 15.18902
60.665 15.097707
60.670 15.161915
60.675 15.461574
60.680 15.210412
60.685 15.528202
60.690 16.001881
60.695 16.614935
60.700 16.621153
60.705 16.50248
60.710 16.271936
60.715 16.486521
60.720 16.112627
60.725 15.427421
60.730 14.655519
60.735 14.876652
60.740 15.160536
60.745 15.755723
60.750 16.470133
60.755 17.081842
60.760 17.488701
60.765 17.92
60.770 17.71888
60.775 17.621925
60.780 17.240444
60.785 16.806942
60.790 16.58708
60.795 16.669643
60.800 16.141996
60.805 15.760759
60.810 15.691613
60.815 15.210522
60.820 14.529341
60.825 13.984003
60.830 14.088367
60.835 14.323913
60.840 14.560685
60.845 15.044886
60.850 15.757581
60.855 16.370218
60.860 16.436697
60.865 16.285896
60.870 16.578447
60.875 16.341164
60.880 15.427229
60.885 15.20269
60.890 15.158234
60.895 15.185038
60.900 14.836979
60.905 14.546803
60.910 14.895376
60.915 14.897015
60.920 14.527134
60.925 14.567876
60.930 14.392044
60.935 14.433377
60.940 14.607183
60.945 14.512823
60.950 14.912375
60.955 15.300266
60.960 15.053141
60.965 14.934985
60.970 15.049891
60.975 14.962019
60.980 14.799059
60.985 14.541614
60.990 14.843393
60.995 14.788327
61.000 15.160721
61.005 14.867292
61.010 14.844643
61.015 14.885296
61.020 15.204717
61.025 14.99628
61.030 14.831917
61.035 14.595049
61.040 14.636006
61.045 14.354624
61.050 14.07861
61.055 13.230124
61.060 13.074394
61.065 13.706394
61.070 13.956692
61.075 14.081069
61.080 15.174067
61.085 15.957433
61.090 16.891939
61.095 16.954638
61.100 16.37578
61.105 16.45462
61.110 16.75036
61.115 16.103975
61.120 15.545191
61.125 15.720138
61.130 15.650462
61.135 15.981273
61.140 15.826386
61.145 16.003788
61.150 15.898561
61.155 15.932203
61.160 15.554446
61.165 15.953864
61.170 15.983801
61.175 15.541384
61.180 15.244789
61.185 15.403354
61.190 15.752864
61.195 16.211103
61.200 16.36758
61.205 17.231802
61.210 18.021881
61.215 18.181265
61.220 18.246044
61.225 18.393503
61.230 18.220102
61.235 17.578018
61.240 16.442141
61.245 16.042538
61.250 16.035532
61.255 15.764293
61.260 15.108654
61.265 15.192084
61.270 15.611876
61.275 15.672814
61.280 15.549102
61.285 15.592742
61.290 16.057119
61.295 16.140022
61.300 15.36886
61.305 15.059319
61.310 15.248792
61.315 15.540438
61.320 15.813723
61.325 15.418598
61.330 14.91169
61.335 15.49712
61.340 15.892353
61.345 15.933476
61.350 15.972951
61.355 15.907632
61.360 16.527267
61.365 16.85372
61.370 16.234091
61.375 16.16523
61.380 16.360577
61.385 16.318954
61.390 16.289597
61.395 15.785244
61.400 15.906351
61.405 16.285444
61.410 15.96191
61.415 15.666323
61.420 15.479387
61.425 15.54345
61.430 15.656884
61.435 15.653818
61.440 15.743275
61.445 15.958401
61.450 16.153215
61.455 16.167383
61.460 15.803864
61.465 16.308933
61.470 16.107965
61.475 16.165375
61.480 16.14184
61.485 15.989782
61.490 16.018
61.495 16.116779
61.500 15.744678
61.505 15.824594
61.510 15.847412
61.515 15.559718
61.520 15.183709
61.525 15.126369
61.530 15.216608
61.535 15.625511
61.540 15.650526
61.545 15.805198
61.550 16.918116
61.555 17.692047
61.560 17.694151
61.565 17.731382
61.570 17.385975
61.575 18.07048
61.580 18.24873
61.585 17.483679
61.590 17.04278
61.595 16.673422
61.600 16.042669
61.605 15.805985
61.610 15.609454
61.615 15.257345
61.620 14.819252
61.625 14.642013
61.630 14.838437
61.635 15.528613
61.640 15.590265
61.645 14.85243
61.650 14.839335
61.655 15.175933
61.660 15.603004
61.665 15.384464
61.670 14.554169
61.675 14.554761
61.680 14.453083
61.685 14.514457
61.690 14.525824
61.695 14.194323
61.700 14.367559
61.705 15.108134
61.710 15.434899
61.715 16.063322
61.720 16.195883
61.725 15.772199
61.730 15.736004
61.735 15.752563
61.740 15.376143
61.745 15.175857
61.750 14.600435
61.755 14.042226
61.760 14.355301
61.765 14.41476
61.770 14.389622
61.775 14.462087
61.780 14.534696
61.785 14.680405
61.790 15.390519
61.795 15.486967
61.800 15.55789
61.805 15.992959
61.810 16.192471
61.815 16.281071
61.820 15.883967
61.825 15.359845
61.830 15.16677
61.835 15.141683
61.840 14.940066
61.845 14.44803
61.850 14.148374
61.855 14.424968
61.860 14.729207
61.865 14.85808
61.870 14.977769
61.875 15.598495
61.880 16.210936
61.885 16.521091
61.890 16.196489
61.895 16.365238
61.900 16.244947
61.905 15.83166
61.910 15.536997
61.915 15.318984
61.920 15.1337
61.925 15.074319
61.930 14.958405
61.935 15.540938
61.940 16.029959
61.945 15.613162
61.950 15.830762
61.955 16.184216
61.960 16.294825
61.965 16.404015
61.970 16.589537
61.975 16.772949
61.980 16.762028
61.985 16.253622
61.990 15.987893
61.995 16.36664
62.000 16.126873
62.005 15.553864
62.010 15.206965
62.015 15.402838
62.020 15.554808
62.025 15.521483
62.030 15.422098
62.035 15.507626
62.040 15.524856
62.045 15.592278
62.050 15.86165
62.055 16.115158
62.060 16.153379
62.065 16.404085
62.070 16.609369
62.075 16.313091
62.080 16.700319
62.085 16.408194
62.090 16.239296
62.095 16.655123
62.100 16.632414
62.105 16.293798
62.110 16.836281
62.115 16.495502
62.120 16.925436
62.125 17.584501
62.130 17.923672
62.135 17.74439
62.140 17.646408
62.145 17.353136
62.150 17.403965
62.155 17.316217
62.160 17.436724
62.165 16.989172
62.170 16.979187
62.175 17.159899
62.180 16.954874
62.185 16.496471
62.190 16.235907
62.195 15.346121
62.200 14.949169
62.205 14.964888
62.210 15.41611
62.215 16.235823
62.220 16.212141
62.225 16.271353
62.230 16.452209
62.235 16.650366
62.240 16.819092
62.245 16.534159
62.250 15.830386
62.255 15.771305
62.260 15.799961
62.265 15.723271
62.270 15.699144
62.275 15.179082
62.280 14.921264
62.285 14.932881
62.290 14.866681
62.295 14.967962
62.300 15.328687
62.305 15.088863
62.310 14.885944
62.315 14.614409
62.320 14.873086
62.325 14.860763
62.330 14.480875
62.335 14.258862
62.340 14.90499
62.345 15.575209
62.350 16.13299
62.355 15.736436
62.360 15.307899
62.365 15.53316
62.370 15.370416
62.375 15.141718
62.380 15.10477
62.385 14.824959
62.390 15.507173
62.395 16.029623
62.400 15.838682
62.405 16.044601
62.410 16.443245
62.415 16.308338
62.420 16.093767
62.425 15.601385
62.430 15.196941
62.435 15.327035
62.440 15.518073
62.445 15.141954
62.450 15.325576
62.455 15.825061
62.460 16.669525
62.465 17.22784
62.470 17.330606
62.475 17.36553
62.480 17.313829
62.485 17.405975
62.490 17.184519
62.495 17.293009
62.500 17.618883
62.505 17.593998
62.510 17.172174
62.515 17.377913
62.520 17.192358
62.525 16.991552
62.530 16.696953
62.535 16.142576
62.540 16.178425
62.545 16.389608
62.550 16.292799
62.555 16.467054
62.560 16.851223
62.565 16.196934
62.570 16.066816
62.575 16.142548
62.580 15.798623
62.585 15.740934
62.590 14.969795
62.595 14.034186
62.600 14.071984
62.605 14.278835
62.610 14.186668
62.615 14.214474
62.620 13.933928
62.625 14.446949
62.630 14.77928
62.635 15.423683
62.640 15.73942
62.645 15.984076
62.650 16.233097
62.655 16.362396
62.660 16.335665
62.665 16.530079
62.670 16.320604
62.675 16.109091
62.680 15.902472
62.685 15.749743
62.690 16.399061
62.695 16.682144
62.700 16.435057
62.705 16.571135
62.710 16.657845
62.715 17.119135
62.720 17.493092
62.725 17.534847
62.730 17.837914
62.735 18.239403
62.740 17.75989
62.745 17.857599
62.750 17.83674
62.755 17.471972
62.760 17.445221
62.765 17.14937
62.770 17.160107
62.775 17.557455
62.780 17.280981
62.785 16.952593
62.790 16.666891
62.795 16.631754
62.800 16.576853
62.805 16.333363
62.810 15.867961
62.815 15.764457
62.820 15.989431
62.825 15.846739
62.830 14.956994
62.835 15.446616
62.840 15.826154
62.845 16.499893
62.850 16.509699
62.855 15.999846
62.860 16.603527
62.865 16.778267
62.870 16.377045
62.875 16.239908
62.880 15.526434
62.885 15.465144
62.890 15.768742
62.895 15.819019
62.900 16.695648
62.905 16.656031
62.910 16.5114
62.915 16.836716
62.920 17.262243
62.925 17.197485
62.930 16.989674
62.935 16.60235
62.940 17.070787
62.945 17.188206
62.950 17.411903
62.955 17.157032
62.960 17.001463
62.965 16.693153
62.970 16.898415
62.975 17.090786
62.980 16.934752
62.985 16.728996
62.990 16.769548
62.995 17.342543
63.000 17.398479
63.005 17.487246
63.010 17.512514
63.015 17.51569
63.020 17.581274
63.025 17.57892
63.030 16.916859
63.035 17.701256
63.040 17.744738
63.045 17.274696
63.050 17.776474
63.055 17.892559
63.060 17.941853
63.065 18.081858
63.070 17.584898
63.075 17.259083
63.080 17.238787
63.085 17.080509
63.090 16.636271
63.095 16.709864
63.100 16.985382
63.105 16.484245
63.110 16.372952
63.115 16.570833
63.120 16.420069
63.125 16.741663
63.130 16.544083
63.135 16.2831
63.140 16.183239
63.145 16.384996
63.150 16.42996
63.155 16.301571
63.160 16.242064
63.165 16.524183
63.170 17.359188
63.175 17.874039
63.180 17.755999
63.185 17.743244
63.190 17.786894
63.195 17.576139
63.200 17.710562
63.205 17.153778
63.210 17.279505
63.215 17.095108
63.220 16.980854
63.225 16.828434
63.230 16.609283
63.235 16.18716
63.240 15.991959
63.245 15.514277
63.250 15.612834
63.255 15.759933
63.260 16.250217
63.265 16.182863
63.270 16.204983
63.275 16.540396
63.280 17.113262
63.285 16.769987
63.290 16.338089
63.295 16.041739
63.300 15.961722
63.305 15.826504
63.310 15.614036
63.315 15.349736
63.320 15.892247
63.325 16.068842
63.330 16.292751
63.335 16.081949
63.340 16.127073
63.345 16.085495
63.350 16.120449
63.355 16.154968
63.360 16.002075
63.365 15.999173
63.370 16.722866
63.375 17.488462
63.380 17.738773
63.385 17.65929
63.390 17.867098
63.395 18.364014
63.400 18.470577
63.405 18.238325
63.410 17.351002
63.415 17.339787
63.420 17.493404
63.425 16.96982
63.430 16.84038
63.435 16.740704
63.440 16.880709
63.445 17.229427
63.450 16.955553
63.455 17.467348
63.460 17.315197
63.465 17.658365
63.470 17.993883
63.475 17.523966
63.480 17.655201
63.485 17.645226
63.490 16.938841
63.495 17.313663
63.500 17.04125
63.505 16.980877
63.510 16.784847
63.515 16.681875
63.520 16.831211
63.525 16.593178
63.530 16.394497
63.535 16.450581
63.540 16.485678
63.545 16.703165
63.550 16.84623
63.555 16.805208
63.560 16.738319
63.565 16.771097
63.570 16.853802
63.575 17.022717
63.580 17.123137
63.585 17.068083
63.590 17.611521
63.595 17.452433
63.600 17.132669
63.605 16.402313
63.610 16.313122
63.615 16.406584
63.620 16.016602
63.625 16.124384
63.630 16.830257
63.635 17.026308
63.640 17.66947
63.645 17.924051
63.650 17.99024
63.655 18.497112
63.660 18.514782
63.665 18.798058
63.670 19.226387
63.675 18.966896
63.680 18.337984
63.685 17.979607
63.690 17.633081
63.695 17.175364
63.700 17.227367
63.705 16.864321
63.710 17.415163
63.715 18.027449
63.720 18.677998
63.725 18.850534
63.730 18.8339
63.735 18.575104
63.740 18.109499
63.745 17.181185
63.750 16.698559
63.755 15.832125
63.760 16.071777
63.765 16.208376
63.770 16.129801
63.775 17.208103
63.780 17.358356
63.785 17.354939
63.790 17.34815
63.795 17.111742
63.800 16.868334
63.805 16.902046
63.810 16.709522
63.815 17.31897
63.820 17.98004
63.825 18.339437
63.830 18.408354
63.835 19.047569
63.840 19.701921
63.845 19.609735
63.850 19.516171
63.855 19.305769
63.860 19.438946
63.865 19.427788
63.870 18.74864
63.875 18.443501
63.880 18.339788
63.885 18.160753
63.890 18.405146
63.895 18.146852
63.900 18.049631
63.905 18.27211
63.910 18.112671
63.915 18.452267
63.920 18.259094
63.925 17.842344
63.930 17.900446
63.935 18.240273
63.940 18.368988
63.945 19.050436
63.950 18.389265
63.955 18.783928
63.960 19.407894
63.965 20.435917
63.970 20.671907
63.975 20.569763
63.980 20.301712
63.985 20.768007
63.990 21.329765
63.995 21.608852
64.000 21.187397
64.005 20.985624
64.010 21.505405
64.015 22.389927
64.020 22.841314
64.025 22.665308
64.030 21.934143
64.035 21.313305
64.040 20.891363
64.045 20.820225
64.050 20.164618
64.055 19.694185
64.060 19.472946
64.065 20.122213
64.070 20.900427
64.075 21.991524
64.080 21.541042
64.085 21.913568
64.090 22.055655
64.095 21.976883
64.100 22.060987
64.105 22.102028
64.110 21.969822
64.115 22.651573
64.120 22.776363
64.125 23.483583
64.130 23.93442
64.135 24.144413
64.140 24.002926
64.145 24.099268
64.150 23.732485
64.155 23.51701
64.160 23.04969
64.165 23.362085
64.170 24.028278
64.175 24.743582
64.180 24.953514
64.185 26.030806
64.190 27.098408
64.195 27.915737
64.200 27.769209
64.205 27.548336
64.210 28.160318
64.215 28.4056
64.220 28.887918
64.225 29.527475
64.230 30.528116
64.235 32.054104
64.240 32.586075
64.245 33.146496
64.250 33.668736
64.255 34.159222
64.260 34.577751
64.265 34.829041
64.270 35.480679
64.275 35.925068
64.280 36.375233
64.285 36.600941
64.290 37.409107
64.295 37.696712
64.300 37.594753
64.305 37.073376
64.310 37.525879
64.315 37.97929
64.320 37.666092
64.325 38.136448
64.330 38.728916
64.335 39.103729
64.340 40.031834
64.345 41.617687
64.350 42.820332
64.355 43.694668
64.360 44.75655
64.365 46.1782
64.370 47.649204
64.375 48.361744
64.380 47.838409
64.385 48.466785
64.390 50.063679
64.395 51.376892
64.400 52.00536
64.405 52.173344
64.410 52.190475
64.415 52.354595
64.420 52.31031
64.425 52.125282
64.430 51.440701
64.435 51.978779
64.440 51.986641
64.445 52.9846
64.450 52.70697
64.455 52.116219
64.460 52.037365
64.465 52.78653
64.470 53.1026
64.475 53.421356
64.480 53.767555
64.485 54.682896
64.490 55.222507
64.495 55.032284
64.500 54.209507
64.505 53.006966
64.510 53.088352
64.515 52.721828
64.520 52.285572
64.525 51.750484
64.530 51.579506
64.535 50.981377
64.540 50.191006
64.545 48.634575
64.550 47.763447
64.555 47.036415
64.560 46.135441
64.565 45.145752
64.570 45.130901
64.575 45.141586
64.580 45.743702
64.585 45.396851
64.590 44.659855
64.595 44.405846
64.600 43.43182
64.605 41.691082
64.610 41.233837
64.615 40.697544
64.620 40.206715
64.625 39.411308
64.630 39.477936
64.635 39.758499
64.640 39.76091
64.645 39.02755
64.650 37.560055
64.655 37.166965
64.660 37.58202
64.665 37.479717
64.670 36.21566
64.675 35.314686
64.680 33.639038
64.685 33.081543
64.690 32.123844
64.695 31.160547
64.700 30.812277
64.705 31.012243
64.710 30.704
64.715 30.579729
64.720 30.354836
64.725 29.763697
64.730 29.113558
64.735 28.584873
64.740 28.634468
64.745 28.55793
64.750 28.402403
64.755 28.662085
64.760 29.129967
64.765 29.050108
64.770 28.608114
64.775 27.295321
64.780 26.443056
64.785 26.146128
64.790 25.226416
64.795 24.684601
64.800 24.580732
64.805 24.775124
64.810 24.872356
64.815 24.623592
64.820 24.67605
64.825 25.395916
64.830 25.726353
64.835 25.307232
64.840 24.877529
64.845 24.969971
64.850 24.950071
64.855 24.139112
64.860 23.733614
64.865 23.391455
64.870 23.201929
64.875 23.097193
64.880 23.511951
64.885 23.319475
64.890 23.600983
64.895 23.32708
64.900 23.662481
64.905 24.253139
64.910 24.261969
64.915 23.943928
64.920 24.279572
64.925 24.045612
64.930 23.941092
64.935 24.278063
64.940 24.861731
64.945 25.436901
64.950 25.823423
64.955 26.455135
64.960 27.085207
64.965 27.473324
64.970 27.79459
64.975 27.981432
64.980 28.642836
64.985 29.402168
64.990 29.102644
64.995 30.03336
65.000 30.593519
65.005 31.207581
65.010 31.457279
65.015 31.039785
65.020 31.670248
65.025 32.146912
65.030 32.345787
65.035 32.642197
65.040 32.719189
65.045 32.785213
65.050 32.998619
65.055 32.681915
65.060 32.879288
65.065 32.953056
65.070 32.759117
65.075 32.983494
65.080 33.556435
65.085 34.628387
65.090 35.654202
65.095 36.107155
65.100 36.549667
65.105 37.270084
65.110 37.327358
65.115 36.723324
65.120 36.261917
65.125 35.973839
65.130 36.292027
65.135 35.807854
65.140 35.661198
65.145 35.466328
65.150 36.38134
65.155 37.060707
65.160 37.955173
65.165 38.509266
65.170 38.603508
65.175 38.274887
65.180 38.707634
65.185 38.993176
65.190 38.721176
65.195 38.971611
65.200 39.703098
65.205 40.250458
65.210 40.450233
65.215 40.766396
65.220 40.603802
65.225 40.499123
65.230 40.519062
65.235 40.209709
65.240 40.670277
65.245 41.09473
65.250 41.305061
65.255 41.715252
65.260 42.053276
65.265 41.549187
65.270 41.921673
65.275 41.922977
65.280 41.872253
65.285 41.268749
65.290 40.495975
65.295 39.925293
65.300 39.603233
65.305 39.593304
65.310 40.097706
65.315 40.434223
65.320 39.941444
65.325 40.280357
65.330 40.741375
65.335 41.422901
65.340 41.185558
65.345 40.637531
65.350 40.262215
65.355 40.83255
65.360 40.430264
65.365 39.877769
65.370 39.381084
65.375 39.322552
65.380 39.107021
65.385 39.260319
65.390 39.672218
65.395 40.451893
65.400 40.837318
65.405 41.125782
65.410 40.568897
65.415 39.953411
65.420 39.768208
65.425 39.057301
65.430 38.570835
65.435 38.079384
65.440 37.449879
65.445 37.613972
65.450 37.984886
65.455 38.129276
65.460 38.71907
65.465 39.173847
65.470 39.504517
65.475 39.967445
65.480 40.24255
65.485 40.467804
65.490 40.004215
65.495 39.098713
65.500 39.498798
65.505 39.611046
65.510 39.420322
65.515 39.282394
65.520 38.750038
65.525 38.507584
65.530 38.562897
65.535 37.985043
65.540 37.65694
65.545 36.477608
65.550 36.239178
65.555 36.755161
65.560 36.711514
65.565 36.407536
65.570 36.297718
65.575 36.271
65.580 37.420418
65.585 37.353107
65.590 36.844936
65.595 36.606327
65.600 35.992908
65.605 35.437057
65.610 34.713413
65.615 33.886787
65.620 33.78249
65.625 33.615311
65.630 33.768837
65.635 33.874847
65.640 33.227505
65.645 33.026546
65.650 32.190296
65.655 32.064869
65.660 31.578043
65.665 31.357994
65.670 31.499071
65.675 31.651329
65.680 31.929985
65.685 31.504282
65.690 30.000454
65.695 29.083286
65.700 28.760305
65.705 28.253891
65.710 27.960775
65.715 27.492708
65.720 27.733751
65.725 28.668524
65.730 29.33976
65.735 28.851948
65.740 29.119246
65.745 28.50407
65.750 27.75268
65.755 27.51055
65.760 26.561316
65.765 26.317026
65.770 26.786827
65.775 26.343142
65.780 26.621563
65.785 26.640739
65.790 26.204002
65.795 25.843237
65.800 24.980696
65.805 23.833481
65.810 23.467997
65.815 23.408058
65.820 23.703283
65.825 23.141563
65.830 23.202824
65.835 22.991213
65.840 23.080467
65.845 23.014538
65.850 21.99118
65.855 20.731855
65.860 20.988611
65.865 21.484688
65.870 21.408995
65.875 21.937763
65.880 22.323574
65.885 22.735468
65.890 23.464262
65.895 22.729416
65.900 22.325188
65.905 22.660267
65.910 21.751778
65.915 21.480782
65.920 21.265682
65.925 20.870384
65.930 21.761404
65.935 22.18944
65.940 22.403332
65.945 22.730154
65.950 22.612087
65.955 22.243105
65.960 22.301231
65.965 21.759394
65.970 21.522223
65.975 20.936834
65.980 21.294085
65.985 21.166615
65.990 21.304924
65.995 21.201925
66.000 20.938311
66.005 20.452213
66.010 19.929123
66.015 20.000446
66.020 20.071344
66.025 19.786774
66.030 19.567816
66.035 20.033468
66.040 19.926783
66.045 19.899107
66.050 19.299078
66.055 19.581993
66.060 19.538591
66.065 19.867529
66.070 19.480452
66.075 19.509003
66.080 19.734457
66.085 19.879753
66.090 19.363642
66.095 19.035212
66.100 18.105192
66.105 17.457249
66.110 17.03367
66.115 16.94149
66.120 16.971207
66.125 16.792105
66.130 17.352036
66.135 17.863508
66.140 18.598856
66.145 19.061884
66.150 19.139681
66.155 18.726219
66.160 18.917536
66.165 18.131006
66.170 17.695963
66.175 17.579254
66.180 17.740389
66.185 17.588816
66.190 17.545349
66.195 17.498247
66.200 18.188192
66.205 17.916563
66.210 18.060825
66.215 18.408609
66.220 18.345583
66.225 18.169781
66.230 17.724472
66.235 18.356651
66.240 18.892326
66.245 18.324833
66.250 17.677109
66.255 17.804527
66.260 18.018122
66.265 17.918221
66.270 17.083241
66.275 16.940176
66.280 17.042768
66.285 17.222036
66.290 17.440817
66.295 17.422346
66.300 17.590904
66.305 17.986702
66.310 17.906664
66.315 17.235554
66.320 16.976112
66.325 16.850645
66.330 16.841057
66.335 17.121552
66.340 16.718578
66.345 17.212484
66.350 18.244989
66.355 18.362684
66.360 18.623758
66.365 18.973911
66.370 18.861773
66.375 18.826822
66.380 18.173933
66.385 17.672407
66.390 17.637753
66.395 17.950108
66.400 18.2176
66.405 18.408257
66.410 18.331005
66.415 18.72287
66.420 18.822294
66.425 18.595297
66.430 18.203457
66.435 17.723181
66.440 17.660625
66.445 17.942514
66.450 17.737001
66.455 17.48423
66.460 17.448606
66.465 17.140697
66.470 17.166834
66.475 16.777994
66.480 16.571386
66.485 16.600775
66.490 16.692427
66.495 17.064421
66.500 17.021736
66.505 17.548868
66.510 18.017914
66.515 17.686714
66.520 17.52253
66.525 18.053368
66.530 17.650917
66.535 17.720097
66.540 17.453217
66.545 17.518707
66.550 17.997089
66.555 18.566389
66.560 18.439178
66.565 18.609507
66.570 18.746111
66.575 18.570175
66.580 17.888477
66.585 17.778812
66.590 17.512409
66.595 17.853909
66.600 17.672018
66.605 17.74682
66.610 17.898806
66.615 18.421118
66.620 19.120916
66.625 18.925314
66.630 18.860899
66.635 19.467327
66.640 18.717417
66.645 18.804991
66.650 18.676785
66.655 17.981026
66.660 17.744402
66.665 17.021225
66.670 16.553553
66.675 17.135981
66.680 17.217037
66.685 17.065586
66.690 17.111729
66.695 17.244877
66.700 17.582895
66.705 17.753637
66.710 17.371122
66.715 17.178984
66.720 17.52692
66.725 17.290628
66.730 16.888752
66.735 16.365231
66.740 16.382879
66.745 16.157894
66.750 16.077509
66.755 16.321175
66.760 16.466183
66.765 17.347414
66.770 17.705395
66.775 17.745165
66.780 18.390329
66.785 18.42116
66.790 18.220982
66.795 18.7586
66.800 18.559608
66.805 18.547091
66.810 18.522455
66.815 18.484337
66.820 18.683798
66.825 18.307262
66.830 18.050995
66.835 17.919697
66.840 17.549549
66.845 17.205372
66.850 17.032528
66.855 16.781328
66.860 16.908464
66.865 16.640162
66.870 16.871811
66.875 17.285864
66.880 17.058764
66.885 16.987001
66.890 17.003613
66.895 17.063801
66.900 17.238605
66.905 17.600235
66.910 17.464127
66.915 17.980246
66.920 18.299099
66.925 18.52696
66.930 18.615065
66.935 19.156168
66.940 18.856295
66.945 18.68784
66.950 18.032478
66.955 17.746944
66.960 17.627256
66.965 17.324898
66.970 16.726761
66.975 16.783215
66.980 17.420828
66.985 17.996134
66.990 17.734295
66.995 18.159548
67.000 18.174791
67.005 18.03631
67.010 17.974993
67.015 17.622324
67.020 17.675035
67.025 17.844494
67.030 17.374203
67.035 17.099331
67.040 17.083235
67.045 17.514061
67.050 17.709288
67.055 17.727985
67.060 17.979179
67.065 18.163153
67.070 18.54003
67.075 18.72555
67.080 18.257006
67.085 17.651264
67.090 17.368671
67.095 17.287941
67.100 17.392691
67.105 16.398232
67.110 16.385788
67.115 16.708033
67.120 17.562885
67.125 17.980467
67.130 18.025736
67.135 17.981905
67.140 18.685234
67.145 18.982517
67.150 19.1437
67.155 18.730297
67.160 18.543938
67.165 18.093277
67.170 18.347647
67.175 18.436684
67.180 18.424446
67.185 18.311159
67.190 18.232157
67.195 17.784863
67.200 17.783232
67.205 17.373669
67.210 17.318365
67.215 17.116638
67.220 16.862196
67.225 17.023087
67.230 17.478893
67.235 17.750935
67.240 18.112597
67.245 17.869591
67.250 17.278009
67.255 17.190628
67.260 17.198446
67.265 17.775246
67.270 18.06546
67.275 17.945183
67.280 18.049721
67.285 18.694363
67.290 18.992752
67.295 19.10564
67.300 18.439253
67.305 17.997692
67.310 17.862091
67.315 17.920761
67.320 18.248257
67.325 18.20706
67.330 17.847078
67.335 17.628834
67.340 17.628141
67.345 17.905756
67.350 17.819172
67.355 17.491743
67.360 17.631975
67.365 18.19132
67.370 18.521994
67.375 18.95747
67.380 18.982763
67.385 18.445955
67.390 17.960661
67.395 17.486036
67.400 17.265043
67.405 17.334049
67.410 17.102411
67.415 17.096306
67.420 17.507507
67.425 17.580599
67.430 17.528957
67.435 17.469769
67.440 17.295122
67.445 17.564878
67.450 17.942804
67.455 18.153938
67.460 18.403429
67.465 18.6329
67.470 18.75359
67.475 18.762661
67.480 18.558386
67.485 18.07723
67.490 17.739344
67.495 17.749275
67.500 17.90778
67.505 17.781071
67.510 17.340952
67.515 17.017191
67.520 17.575096
67.525 17.409697
67.530 17.381794
67.535 16.876499
67.540 16.412666
67.545 17.072573
67.550 16.927969
67.555 16.444794
67.560 16.533916
67.565 16.213919
67.570 16.686869
67.575 16.749023
67.580 16.189535
67.585 15.990796
67.590 15.687278
67.595 16.098543
67.600 16.238802
67.605 16.721323
67.610 17.261267
67.615 18.115116
67.620 19.094946
67.625 19.873802
67.630 20.021839
67.635 19.966164
67.640 19.688229
67.645 19.279022
67.650 19.022562
67.655 18.946917
67.660 18.279833
67.665 17.538774
67.670 17.538139
67.675 17.693974
67.680 17.995058
67.685 18.459333
67.690 18.353916
67.695 18.513308
67.700 19.115307
67.705 19.035608
67.710 18.666731
67.715 18.246534
67.720 17.672911
67.725 17.822334
67.730 18.60317
67.735 18.201921
67.740 17.92062
67.745 17.934
67.750 18.317352
67.755 18.250669
67.760 18.532084
67.765 17.647741
67.770 17.560957
67.775 17.712856
67.780 17.463577
67.785 16.910765
67.790 16.598137
67.795 16.270269
67.800 17.124296
67.805 17.708368
67.810 18.372122
67.815 18.700924
67.820 19.158922
67.825 19.223682
67.830 19.391548
67.835 18.582647
67.840 18.239922
67.845 17.916279
67.850 17.601839
67.855 17.579046
67.860 17.495655
67.865 17.508806
67.870 17.761528
67.875 17.504332
67.880 17.366343
67.885 17.698345
67.890 18.462706
67.895 18.840342
67.900 19.40358
67.905 19.71488
67.910 20.360741
67.915 21.127401
67.920 21.043743
67.925 20.262409
67.930 19.998232
67.935 18.900806
67.940 18.959578
67.945 18.582659
67.950 17.886454
67.955 17.853426
67.960 17.407383
67.965 17.349253
67.970 17.729689
67.975 17.245148
67.980 17.414417
67.985 17.907188
67.990 18.159082
67.995 19.211208
68.000 19.619265
68.005 20.191437
68.010 20.603621
68.015 20.35527
68.020 19.652718
68.025 19.494968
68.030 18.722862
68.035 17.982378
68.040 17.635736
68.045 17.119017
68.050 16.868587
68.055 17.091389
68.060 16.905558
68.065 17.255468
68.070 17.901897
68.075 18.003075
68.080 18.677485
68.085 19.251719
68.090 19.014761
68.095 19.270931
68.100 19.606186
68.105 19.774025
68.110 20.489677
68.115 20.460348
68.120 20.248922
68.125 20.859669
68.130 20.971546
68.135 20.850281
68.140 20.583664
68.145 20.59062
68.150 20.624899
68.155 20.256689
68.160 19.863146
68.165 19.770678
68.170 19.629902
68.175 19.049896
68.180 18.117573
68.185 18.517597
68.190 19.446011
68.195 20.352678
68.200 20.783693
68.205 21.09053
68.210 21.788782
68.215 22.109528
68.220 21.489784
68.225 21.135105
68.230 19.887476
68.235 19.825253
68.240 19.983351
68.245 20.674854
68.250 21.246428
68.255 22.348942
68.260 22.895252
68.265 24.039829
68.270 24.134983
68.275 24.075962
68.280 24.345224
68.285 24.280716
68.290 23.941935
68.295 24.024164
68.300 24.20405
68.305 24.344509
68.310 24.581974
68.315 25.407396
68.320 26.114609
68.325 26.677523
68.330 27.027548
68.335 27.301321
68.340 27.663069
68.345 28.409838
68.350 28.440012
68.355 28.514133
68.360 28.42605
68.365 28.958948
68.370 28.566938
68.375 28.704296
68.380 28.516232
68.385 28.752514
68.390 29.268677
68.395 29.95188
68.400 30.088112
68.405 30.811089
68.410 31.050629
68.415 32.022686
68.420 32.587742
68.425 32.185215
68.430 31.773264
68.435 32.084805
68.440 32.634804
68.445 32.479652
68.450 32.487896
68.455 32.227737
68.460 33.599831
68.465 33.538219
68.470 32.879662
68.475 32.524616
68.480 33.101177
68.485 33.415005
68.490 34.252193
68.495 34.355751
68.500 34.769531
68.505 35.821136
68.510 35.834126
68.515 36.061909
68.520 36.374569
68.525 36.408379
68.530 36.493454
68.535 36.704655
68.540 36.588715
68.545 37.297447
68.550 37.765968
68.555 37.944397
68.560 38.175694
68.565 38.133629
68.570 37.175434
68.575 36.337807
68.580 35.616467
68.585 34.466404
68.590 34.483322
68.595 34.42683
68.600 34.942661
68.605 36.11129
68.610 36.427635
68.615 36.529549
68.620 37.0797
68.625 36.682793
68.630 37.046471
68.635 37.326591
68.640 37.178131
68.645 38.24712
68.650 38.736626
68.655 38.249321
68.660 38.632813
68.665 38.257977
68.670 37.742287
68.675 37.404957
68.680 37.109497
68.685 37.151394
68.690 37.34227
68.695 36.403023
68.700 35.428017
68.705 35.367744
68.710 34.836971
68.715 33.957504
68.720 32.980515
68.725 32.384239
68.730 32.061363
68.735 33.299278
68.740 32.82692
68.745 33.128262
68.750 33.649632
68.755 33.943027
68.760 34.738987
68.765 34.627705
68.770 34.219013
68.775 33.601696
68.780 32.97583
68.785 32.281239
68.790 32.000694
68.795 31.333914
68.800 31.261343
68.805 31.732349
68.810 32.890556
68.815 33.797916
68.820 34.234238
68.825 34.837742
68.830 34.508179
68.835 34.705044
68.840 34.380333
68.845 33.991791
68.850 33.811672
68.855 33.505157
68.860 32.716877
68.865 32.604397
68.870 31.824608
68.875 31.571003
68.880 31.900036
68.885 31.455303
68.890 31.645414
68.895 32.709747
68.900 33.268696
68.905 32.816799
68.910 32.129677
68.915 31.09264
68.920 31.042604
68.925 30.513126
68.930 29.934868
68.935 29.117441
68.940 29.234377
68.945 29.334002
68.950 29.473913
68.955 29.403725
68.960 29.342415
68.965 29.068539
68.970 28.823959
68.975 28.842321
68.980 28.739334
68.985 28.622297
68.990 28.359167
68.995 27.701073
69.000 28.047264
69.005 28.117447
69.010 27.519274
69.015 27.289038
69.020 27.264893
69.025 26.99843
69.030 26.625277
69.035 26.199759
69.040 25.880035
69.045 26.001869
69.050 26.263618
69.055 26.024477
69.060 26.306835
69.065 26.66576
69.070 26.127558
69.075 26.540701
69.080 26.208542
69.085 25.595789
69.090 25.842447
69.095 25.841125
69.100 25.627352
69.105 24.922216
69.110 24.125351
69.115 23.745314
69.120 23.276392
69.125 22.669018
69.130 22.117111
69.135 21.793461
69.140 21.672112
69.145 21.461168
69.150 21.18717
69.155 21.677347
69.160 21.893005
69.165 22.65419
69.170 23.204126
69.175 23.735416
69.180 23.693607
69.185 23.641876
69.190 23.105959
69.195 22.252634
69.200 21.140379
69.205 20.127907
69.210 18.687111
69.215 18.530783
69.220 19.099157
69.225 19.649599
69.230 19.932823
69.235 20.103991
69.240 20.61657
69.245 20.899401
69.250 20.672813
69.255 20.120173
69.260 20.20035
69.265 20.598669
69.270 21.260778
69.275 21.197538
69.280 21.389055
69.285 21.308254
69.290 20.953484
69.295 20.545771
69.300 19.858894
69.305 19.313549
69.310 19.956577
69.315 20.130983
69.320 20.091869
69.325 20.023384
69.330 19.637547
69.335 20.23312
69.340 20.595833
69.345 20.652905
69.350 20.691584
69.355 20.57959
69.360 20.751966
69.365 20.75543
69.370 19.40733
69.375 18.029615
69.380 17.246218
69.385 16.876534
69.390 16.971844
69.395 16.761452
69.400 16.976122
69.405 17.707264
69.410 18.436827
69.415 18.718859
69.420 19.480478
69.425 19.356882
69.430 19.346874
69.435 19.33172
69.440 19.508547
69.445 19.828833
69.450 20.197588
69.455 20.316467
69.460 19.935745
69.465 19.602966
69.470 19.124025
69.475 18.745787
69.480 18.28138
69.485 17.74202
69.490 18.084635
69.495 18.822443
69.500 19.002234
69.505 18.773504
69.510 18.515657
69.515 18.921822
69.520 18.957863
69.525 18.499399
69.530 18.089293
69.535 18.501587
69.540 18.556545
69.545 18.776678
69.550 18.567167
69.555 18.637207
69.560 18.690826
69.565 18.579704
69.570 18.685236
69.575 19.125298
69.580 18.645624
69.585 18.739231
69.590 18.362114
69.595 18.506475
69.600 18.49744
69.605 18.395067
69.610 18.070942
69.615 18.280128
69.620 18.161543
69.625 18.591087
69.630 18.712967
69.635 18.925913
69.640 18.851896
69.645 18.935356
69.650 19.126112
69.655 18.497786
69.660 17.957666
69.665 17.716228
69.670 18.1089
69.675 18.530109
69.680 18.627998
69.685 18.611433
69.690 19.33176
69.695 19.662346
69.700 20.182133
69.705 19.704065
69.710 19.069937
69.715 18.771225
69.720 18.741045
69.725 19.160826
69.730 18.961889
69.735 18.243071
69.740 18.48229
69.745 18.699249
69.750 18.601763
69.755 17.969206
69.760 17.343233
69.765 17.295256
69.770 17.528387
69.775 17.625568
69.780 17.736889
69.785 17.787497
69.790 18.032961
69.795 18.013035
69.800 17.988165
69.805 17.751328
69.810 17.64382
69.815 17.737917
69.820 17.948961
69.825 18.019867
69.830 17.868193
69.835 18.133314
69.840 18.394701
69.845 18.264925
69.850 18.281096
69.855 17.87364
69.860 17.857233
69.865 18.239029
69.870 18.012947
69.875 18.150358
69.880 18.196039
69.885 18.621088
69.890 19.291761
69.895 19.373009
69.900 19.375248
69.905 19.672159
69.910 19.81126
69.915 20.053545
69.920 19.524786
69.925 19.243696
69.930 19.10853
69.935 18.829535
69.940 18.727268
69.945 18.474968
69.950 18.189821
69.955 18.60375
69.960 18.825743
69.965 19.10434
69.970 18.863729
69.975 19.457161
69.980 19.142757
69.985 19.058331
69.990 18.755329
69.995 18.190298
70.000 17.82616
70.005 17.48872
70.010 16.890129
70.015 16.952793
70.020 17.180876
70.025 17.255245
70.030 18.136312
70.035 18.136564
70.040 17.939749
70.045 18.062191
70.050 17.758095
70.055 17.813272
70.060 17.729321
70.065 17.602364
70.070 19.025211
70.075 19.532942
70.080 19.117203
70.085 19.49629
70.090 19.731859
70.095 19.723013
70.100 19.405201
70.105 18.596909
70.110 18.64814
70.115 18.91161
70.120 18.816576
70.125 18.128937
70.130 18.350721
70.135 18.298214
70.140 18.172525
70.145 18.271555
70.150 18.79343
70.155 18.321959
70.160 18.879187
70.165 18.820414
70.170 18.636299
70.175 19.152725
70.180 19.059795
70.185 18.402525
70.190 18.911974
70.195 18.512306
70.200 18.218748
70.205 17.565931
70.210 17.651491
70.215 18.195454
70.220 18.191895
70.225 17.833172
70.230 17.91781
70.235 18.381929
70.240 18.535057
70.245 18.216637
70.250 17.749025
70.255 18.156694
70.260 18.423473
70.265 18.111504
70.270 17.919477
70.275 17.582788
70.280 16.754427
70.285 17.037682
70.290 17.131432
70.295 17.546244
70.300 17.53162
70.305 17.895082
70.310 18.292658
70.315 18.612627
70.320 18.59544
70.325 18.157873
70.330 17.858011
70.335 18.240774
70.340 18.338478
70.345 18.491072
70.350 18.435261
70.355 17.970144
70.360 17.778687
70.365 17.656418
70.370 17.543358
70.375 17.213978
70.380 17.025599
70.385 16.622959
70.390 16.555246
70.395 17.000679
70.400 17.170597
70.405 17.118299
70.410 17.045193
70.415 17.298342
70.420 17.81838
70.425 18.357933
70.430 18.480429
70.435 18.573526
70.440 18.704224
70.445 18.650068
70.450 18.746546
70.455 18.089819
70.460 17.731216
70.465 17.503363
70.470 17.728708
70.475 17.449154
70.480 17.479849
70.485 17.634499
70.490 17.988699
70.495 18.004435
70.500 18.205061
70.505 18.029818
70.510 18.232794
70.515 18.272968
70.520 18.239054
70.525 18.589373
70.530 19.465794
70.535 19.171574
70.540 19.554037
70.545 19.895254
70.550 20.124603
70.555 20.221973
70.560 19.820705
70.565 19.342737
70.570 19.493326
70.575 18.997458
70.580 18.719276
70.585 18.639275
70.590 18.691656
70.595 18.843584
70.600 18.687054
70.605 18.44833
70.610 18.337912
70.615 18.204781
70.620 18.323259
70.625 18.015274
70.630 18.07897
70.635 18.336544
70.640 18.521278
70.645 18.952122
70.650 19.251593
70.655 19.43536
70.660 19.120621
70.665 18.480572
70.670 18.032288
70.675 18.207668
70.680 18.023729
70.685 17.882891
70.690 18.327452
70.695 18.385298
70.700 18.328287
70.705 18.284798
70.710 18.441496
70.715 18.315807
70.720 18.576403
70.725 17.951002
70.730 18.657455
70.735 18.647856
70.740 18.483168
70.745 18.73811
70.750 17.829752
70.755 17.42465
70.760 17.901718
70.765 17.687176
70.770 17.770477
70.775 17.841204
70.780 17.478767
70.785 17.764771
70.790 18.004988
70.795 17.098934
70.800 16.541407
70.805 16.522902
70.810 16.393049
70.815 16.039829
70.820 16.446497
70.825 16.50157
70.830 16.609358
70.835 17.437948
70.840 17.384899
70.845 17.806065
70.850 17.853205
70.855 17.701962
70.860 17.976809
70.865 18.511078
70.870 18.197105
70.875 18.453846
70.880 18.337421
70.885 18.344267
70.890 18.551168
70.895 18.767441
70.900 18.40729
70.905 18.308458
70.910 18.580053
70.915 18.627821
70.920 18.149641
70.925 17.811388
70.930 17.698643
70.935 17.898401
70.940 18.197477
70.945 17.97394
70.950 18.43469
70.955 18.723392
70.960 18.369864
70.965 18.437075
70.970 18.236507
70.975 17.42075
70.980 16.769173
70.985 16.668715
70.990 17.094564
70.995 17.039108
71.000 17.247017
71.005 17.56831
71.010 18.077194
71.015 18.527596
71.020 18.510353
71.025 18.167395
71.030 18.269577
71.035 17.863838
71.040 17.678196
71.045 17.285851
71.050 17.168934
71.055 17.384615
71.060 17.063927
71.065 16.880754
71.070 16.817039
71.075 17.068937
71.080 17.630291
71.085 18.191126
71.090 17.908567
71.095 17.952299
71.100 17.854757
71.105 17.438255
71.110 17.095446
71.115 16.54665
71.120 16.25856
71.125 16.402451
71.130 16.150949
71.135 16.500486
71.140 16.886986
71.145 16.863848
71.150 16.454891
71.155 16.562828
71.160 16.92598
71.165 16.8799
71.170 16.993961
71.175 16.968971
71.180 17.532299
71.185 17.875713
71.190 17.370869
71.195 17.666779
71.200 18.110399
71.205 17.733
71.210 18.110989
71.215 18.64765
71.220 18.501347
71.225 18.613142
71.230 18.906311
71.235 19.423807
71.240 19.645565
71.245 18.972624
71.250 18.320955
71.255 18.709841
71.260 19.12495
71.265 18.826021
71.270 18.778421
71.275 18.633387
71.280 19.090555
71.285 19.343763
71.290 19.18198
71.295 18.921816
71.300 18.150303
71.305 17.901697
71.310 18.055717
71.315 17.492249
71.320 17.244789
71.325 17.368612
71.330 17.32386
71.335 17.801144
71.340 17.513357
71.345 17.559284
71.350 17.723513
71.355 16.993385
71.360 16.463135
71.365 16.410542
71.370 16.521223
71.375 16.612858
71.380 16.496696
71.385 16.72942
71.390 16.906427
71.395 16.803276
71.400 16.961342
71.405 16.968939
71.410 16.870037
71.415 16.931597
71.420 17.125057
71.425 17.7029
71.430 18.057508
71.435 17.925856
71.440 18.153584
71.445 18.454411
71.450 18.352726
71.455 18.507469
71.460 18.70001
71.465 18.802904
71.470 18.633959
71.475 18.476645
71.480 18.59852
71.485 18.502153
71.490 18.210495
71.495 17.405609
71.500 17.203041
71.505 17.382597
71.510 16.909973
71.515 16.501671
71.520 16.466206
71.525 16.69462
71.530 16.688726
71.535 17.195219
71.540 17.139828
71.545 17.400278
71.550 17.770958
71.555 17.457443
71.560 17.403877
71.565 17.440971
71.570 16.854214
71.575 16.800291
71.580 16.704477
71.585 16.314137
71.590 16.332523
71.595 16.563665
71.600 17.324562
71.605 17.553394
71.610 17.6779
71.615 17.262058
71.620 17.951611
71.625 18.518723
71.630 18.240625
71.635 17.573767
71.640 17.409706
71.645 17.835434
71.650 18.418398
71.655 18.019049
71.660 17.390274
71.665 17.553125
71.670 18.036362
71.675 18.49477
71.680 18.17573
71.685 17.807592
71.690 17.603298
71.695 18.028341
71.700 18.01086
71.705 17.372231
71.710 16.824778
71.715 17.405365
71.720 17.935633
71.725 18.537439
71.730 18.685102
71.735 18.927246
71.740 19.651888
71.745 20.04044
71.750 19.913006
71.755 19.573244
71.760 19.533176
71.765 19.38887
71.770 19.099606
71.775 18.822327
71.780 18.500414
71.785 18.06971
71.790 17.668369
71.795 17.367004
71.800 16.830952
71.805 16.987259
71.810 17.292238
71.815 17.363409
71.820 17.86599
71.825 18.311378
71.830 18.391615
71.835 18.626492
71.840 18.359339
71.845 18.428278
71.850 19.036453
71.855 18.649572
71.860 18.365688
71.865 18.430155
71.870 18.84359
71.875 19.317078
71.880 19.071526
71.885 19.162909
71.890 19.486668
71.895 19.134718
71.900 18.854004
71.905 18.887251
71.910 18.564028
71.915 18.401697
71.920 17.811068
71.925 17.73374
71.930 18.191948
71.935 18.266249
71.940 17.860455
71.945 17.537174
71.950 16.871788
71.955 16.631683
71.960 16.455826
71.965 16.133228
71.970 16.159414
71.975 16.386618
71.980 16.899191
71.985 18.221712
71.990 18.690479
71.995 18.89966
72.000 19.08131
72.005 19.088718
72.010 18.916353
72.015 18.77548
72.020 18.441912
72.025 18.644138
72.030 18.659893
72.035 18.392021
72.040 18.701439
72.045 19.091352
72.050 18.719189
72.055 18.467945
72.060 18.385405
72.065 18.361118
72.070 18.303558
72.075 18.207848
72.080 18.093092
72.085 17.793404
72.090 17.672985
72.095 17.653814
72.100 17.850042
72.105 18.147943
72.110 17.555407
72.115 17.223925
72.120 17.256733
72.125 17.181147
72.130 17.204479
72.135 17.243313
72.140 17.446205
72.145 17.660683
72.150 17.668287
72.155 17.795259
72.160 17.828491
72.165 17.604734
72.170 17.478251
72.175 17.434263
72.180 17.318781
72.185 17.800554
72.190 17.763393
72.195 17.791681
72.200 17.234142
72.205 16.988762
72.210 16.437128
72.215 16.285063
72.220 15.986341
72.225 16.054552
72.230 16.635118
72.235 17.409966
72.240 18.152828
72.245 18.790482
72.250 18.860109
72.255 18.797981
72.260 18.810909
72.265 18.231665
72.270 17.562147
72.275 16.939222
72.280 16.913109
72.285 17.179708
72.290 17.102386
72.295 16.705095
72.300 16.551304
72.305 16.568882
72.310 16.838806
72.315 16.857738
72.320 16.622723
72.325 16.643875
72.330 17.2827
72.335 17.803511
72.340 18.129013
72.345 18.016405
72.350 18.19454
72.355 18.30407
72.360 18.346167
72.365 17.135138
72.370 16.748085
72.375 16.775288
72.380 16.621294
72.385 16.76018
72.390 16.743643
72.395 16.622574
72.400 17.06312
72.405 16.907259
72.410 16.413656
72.415 16.875105
72.420 17.788559
72.425 17.969378
72.430 18.015448
72.435 17.986317
72.440 18.052166
72.445 18.05706
72.450 17.696732
72.455 17.033693
72.460 16.57333
72.465 17.17749
72.470 17.541176
72.475 17.988083
72.480 18.211075
72.485 17.769123
72.490 17.39307
72.495 17.457085
72.500 17.495703
72.505 17.03406
72.510 17.062954
72.515 17.015909
72.520 17.068964
72.525 17.479362
72.530 17.395229
72.535 17.197342
72.540 17.403101
72.545 17.006163
72.550 17.301888
72.555 17.404434
72.560 17.354227
72.565 17.518406
72.570 17.476807
72.575 17.196894
72.580 17.418264
72.585 17.097668
72.590 17.454147
72.595 17.552715
72.600 18.247128
72.605 18.489992
72.610 18.498466
72.615 18.423615
72.620 18.035831
72.625 17.13209
72.630 17.048721
72.635 15.946956
72.640 15.885924
72.645 16.089758
72.650 16.183079
72.655 16.946934
72.660 17.659618
72.665 17.682289
72.670 17.871704
72.675 17.63588
72.680 17.260183
72.685 17.127176
72.690 17.000456
72.695 16.874687
72.700 17.664644
72.705 18.034882
72.710 17.798576
72.715 18.075516
72.720 18.172951
72.725 18.20717
72.730 17.797714
72.735 17.353243
72.740 17.080723
72.745 17.075619
72.750 16.636026
72.755 16.609774
72.760 16.570612
72.765 17.082283
72.770 17.265465
72.775 18.152185
72.780 18.704967
72.785 18.634516
72.790 18.453077
72.795 17.857336
72.800 17.077141
72.805 16.245661
72.810 15.819815
72.815 15.276287
72.820 15.215935
72.825 15.685962
72.830 15.429782
72.835 16.391115
72.840 17.031986
72.845 17.08745
72.850 17.72711
72.855 18.175928
72.860 18.151876
72.865 18.042294
72.870 18.05077
72.875 18.328629
72.880 18.6996
72.885 18.255968
72.890 17.842121
72.895 17.972107
72.900 17.517797
72.905 17.152355
72.910 16.040133
72.915 15.513655
72.920 15.744
72.925 15.889564
72.930 16.33692
72.935 16.39397
72.940 16.372652
72.945 16.741571
72.950 16.772762
72.955 16.666578
72.960 16.758169
72.965 16.595192
72.970 16.457748
72.975 16.502953
72.980 16.556479
72.985 17.079281
72.990 17.218155
72.995 16.547667
73.000 16.769983
