!@!!GADDS PLOTSO FILE: Chi integration type
!@!!Title/SampleName: map-ff
!@!!Comment: ?
!@!!User: Bruker Instrument Administrator
!@!!Site: University of Illinois Chicago
!@!!Frame: map-ff_01_000.gfrm
!@!!Wavelengths    1.54184   1.54056   1.54439
!@!!Frame angles: 2Theta: 63.000 Omega: 50.000 Phi: 0.000 Chi: 90.000
!@!!Integration range: 2Theta: 53.000 to 73.000  Gamma: -105.000 to -75.000
!@!!Integration method: bin normalized
!@!N
!@!SS
!@!M
!@!L 0.0 0.0 0.0 0.0
!@!XDegrees
!@!YCounts
53.000 8.037476
53.005 8.234037
53.010 8.937909
53.015 9.000423
53.020 8.204495
53.025 8.268697
53.030 8.617339
53.035 8.734625
53.040 8.373994
53.045 7.701451
53.050 7.887349
53.055 8.248569
53.060 8.808702
53.065 8.818817
53.070 8.973947
53.075 9.359244
53.080 9.041338
53.085 8.946425
53.090 8.959015
53.095 8.256974
53.100 7.998337
53.105 7.975273
53.110 8.004467
53.115 8.450623
53.120 8.254992
53.125 8.18774
53.130 8.959874
53.135 9.273471
53.140 8.879177
53.145 8.72683
53.150 8.912436
53.155 8.965858
53.160 8.918935
53.165 8.939178
53.170 8.900532
53.175 8.774697
53.180 8.389712
53.185 8.065288
53.190 8.373286
53.195 8.472822
53.200 8.607979
53.205 8.783421
53.210 8.920463
53.215 9.320229
53.220 8.938381
53.225 8.768934
53.230 8.721725
53.235 8.579102
53.240 8.466491
53.245 8.299211
53.250 8.141077
53.255 8.455667
53.260 8.62098
53.265 8.519242
53.270 8.62456
53.275 8.86503
53.280 8.821488
53.285 8.915598
53.290 8.533717
53.295 8.393242
53.300 8.585454
53.305 8.628058
53.310 8.96776
53.315 9.394589
53.320 9.614828
53.325 10.008881
53.330 10.18251
53.335 10.0011
53.340 9.805863
53.345 9.615605
53.350 9.513266
53.355 9.7672
53.360 9.676578
53.365 9.550154
53.370 9.45162
53.375 9.240194
53.380 9.182014
53.385 9.219307
53.390 9.017359
53.395 8.81317
53.400 8.750648
53.405 8.979951
53.410 9.185583
53.415 9.076698
53.420 8.699802
53.425 8.640121
53.430 8.819274
53.435 8.980385
53.440 8.847072
53.445 8.942505
53.450 9.190523
53.455 9.462827
53.460 9.516827
53.465 9.267984
53.470 9.351065
53.475 9.221046
53.480 9.120326
53.485 9.569686
53.490 9.423127
53.495 9.490176
53.500 9.549726
53.505 9.946505
53.510 10.406584
53.515 10.184065
53.520 9.572405
53.525 9.26335
53.530 8.937415
53.535 9.034426
53.540 8.85647
53.545 8.71796
53.550 8.429549
53.555 8.738577
53.560 9.312784
53.565 9.211947
53.570 9.113697
53.575 8.507765
53.580 8.525799
53.585 8.616931
53.590 8.634395
53.595 8.756455
53.600 8.955485
53.605 8.480381
53.610 8.690725
53.615 8.73969
53.620 9.189971
53.625 9.131474
53.630 8.672876
53.635 9.573622
53.640 10.114991
53.645 10.169751
53.650 10.061509
53.655 9.47212
53.660 9.899762
53.665 9.56239
53.670 8.728735
53.675 9.160125
53.680 9.172916
53.685 9.519236
53.690 9.593946
53.695 8.949126
53.700 8.845299
53.705 8.711726
53.710 8.253795
53.715 8.526921
53.720 8.434376
53.725 8.418092
53.730 9.016072
53.735 9.199697
53.740 9.212607
53.745 9.327229
53.750 9.15727
53.755 9.302384
53.760 9.483685
53.765 9.279009
53.770 9.205368
53.775 9.369018
53.780 9.824714
53.785 9.905526
53.790 10.208945
53.795 9.661564
53.800 9.958621
53.805 10.426871
53.810 10.01438
53.815 9.383378
53.820 8.963176
53.825 8.606821
53.830 8.503022
53.835 8.315572
53.840 8.273178
53.845 8.291667
53.850 8.616716
53.855 8.897803
53.860 8.976032
53.865 9.081427
53.870 8.603167
53.875 8.066525
53.880 8.023657
53.885 7.975953
53.890 7.734693
53.895 7.922218
53.900 8.155225
53.905 8.590694
53.910 9.095836
53.915 8.986753
53.920 8.890433
53.925 8.93385
53.930 9.083793
53.935 9.279207
53.940 9.491981
53.945 9.585214
53.950 9.410647
53.955 9.546836
53.960 9.69917
53.965 9.739088
53.970 9.529617
53.975 9.387177
53.980 9.533518
53.985 9.981788
53.990 10.001894
53.995 10.267952
54.000 9.971674
54.005 9.858909
54.010 9.762945
54.015 9.498452
54.020 9.386047
54.025 9.496222
54.030 9.273304
54.035 9.711553
54.040 9.747123
54.045 9.635145
54.050 9.837585
54.055 9.704609
54.060 9.546304
54.065 9.837465
54.070 9.567436
54.075 9.5194
54.080 9.504398
54.085 9.478289
54.090 9.21688
54.095 8.881147
54.100 8.185173
54.105 8.160719
54.110 7.99346
54.115 7.881352
54.120 7.987789
54.125 8.126478
54.130 8.873906
54.135 9.21009
54.140 9.422351
54.145 9.737503
54.150 9.94947
54.155 10.224442
54.160 10.329656
54.165 9.829861
54.170 9.695632
54.175 9.85351
54.180 9.887254
54.185 9.937371
54.190 10.151013
54.195 10.133543
54.200 10.676765
54.205 10.725471
54.210 10.345572
54.215 10.169624
54.220 9.756697
54.225 9.589809
54.230 9.763257
54.235 9.426962
54.240 9.312684
54.245 9.364423
54.250 9.547999
54.255 9.662168
54.260 9.768236
54.265 9.756852
54.270 10.265495
54.275 10.775335
54.280 10.746074
54.285 10.754197
54.290 10.9565
54.295 11.223602
54.300 11.507904
54.305 11.035978
54.310 10.92522
54.315 11.026819
54.320 10.679119
54.325 10.004077
54.330 9.494374
54.335 9.512793
54.340 9.374059
54.345 9.397472
54.350 9.379527
54.355 9.992318
54.360 10.280768
54.365 10.304295
54.370 9.94008
54.375 9.842792
54.380 9.610641
54.385 9.397459
54.390 9.093406
54.395 9.36974
54.400 9.734119
54.405 9.936505
54.410 10.00433
54.415 9.731842
54.420 9.428602
54.425 9.307055
54.430 8.905813
54.435 8.726637
54.440 9.084626
54.445 9.607155
54.450 9.729937
54.455 9.874532
54.460 10.088778
54.465 10.346339
54.470 10.416264
54.475 9.811174
54.480 9.791934
54.485 9.675008
54.490 9.567119
54.495 9.252208
54.500 9.289137
54.505 9.164068
54.510 9.023472
54.515 9.463453
54.520 9.503856
54.525 9.77127
54.530 9.788878
54.535 9.837041
54.540 9.680032
54.545 9.744583
54.550 9.797576
54.555 9.891242
54.560 10.011265
54.565 9.978101
54.570 9.919867
54.575 9.837165
54.580 9.813151
54.585 10.232191
54.590 10.530714
54.595 10.01831
54.600 9.802416
54.605 10.320042
54.610 10.581055
54.615 10.387402
54.620 9.809964
54.625 9.990131
54.630 10.327669
54.635 10.386879
54.640 10.04021
54.645 10.354619
54.650 10.406686
54.655 10.407636
54.660 10.483551
54.665 10.46598
54.670 10.370698
54.675 10.633739
54.680 10.791705
54.685 10.972271
54.690 11.517161
54.695 11.499983
54.700 11.68259
54.705 11.503066
54.710 10.928331
54.715 10.875847
54.720 10.608592
54.725 9.905664
54.730 9.865498
54.735 9.610153
54.740 9.420382
54.745 9.374815
54.750 9.737696
54.755 9.981987
54.760 9.822271
54.765 9.638563
54.770 9.614299
54.775 10.006989
54.780 9.795137
54.785 9.073638
54.790 8.568803
54.795 8.866095
54.800 9.079987
54.805 9.50655
54.810 9.772112
54.815 9.787803
54.820 10.188089
54.825 10.520454
54.830 10.399666
54.835 10.452003
54.840 9.913556
54.845 9.918021
54.850 10.14803
54.855 10.250437
54.860 10.818877
54.865 10.865458
54.870 10.98519
54.875 11.418064
54.880 11.886552
54.885 11.565932
54.890 11.396328
54.895 10.970643
54.900 10.771674
54.905 10.733371
54.910 10.733581
54.915 10.334853
54.920 10.778317
54.925 10.884214
54.930 11.273648
54.935 11.490635
54.940 11.477479
54.945 11.629162
54.950 11.836854
54.955 11.611781
54.960 11.301905
54.965 10.998933
54.970 10.770742
54.975 10.485016
54.980 10.047155
54.985 9.613419
54.990 9.461397
54.995 9.862069
55.000 9.751764
55.005 9.75331
55.010 9.472849
55.015 10.237714
55.020 10.573446
55.025 10.773602
55.030 10.379206
55.035 10.527426
55.040 10.688469
55.045 11.077908
55.050 10.59605
55.055 10.696816
55.060 10.5782
55.065 10.808703
55.070 10.780583
55.075 10.674912
55.080 10.437307
55.085 10.214953
55.090 9.848272
55.095 9.771737
55.100 9.747954
55.105 9.995799
55.110 9.858525
55.115 9.68082
55.120 9.842999
55.125 10.071523
55.130 10.136521
55.135 10.23487
55.140 10.581536
55.145 10.747311
55.150 10.869283
55.155 11.01019
55.160 10.873903
55.165 10.528941
55.170 10.483626
55.175 10.78377
55.180 11.101596
55.185 11.312515
55.190 11.685861
55.195 11.686415
55.200 11.713358
55.205 11.286068
55.210 10.576921
55.215 10.483033
55.220 10.327358
55.225 10.221842
55.230 10.342552
55.235 10.562034
55.240 10.970618
55.245 11.121958
55.250 11.195511
55.255 11.304977
55.260 11.046603
55.265 11.097064
55.270 11.171573
55.275 10.874164
55.280 10.834641
55.285 10.659943
55.290 10.547311
55.295 10.617956
55.300 10.756637
55.305 10.670686
55.310 10.867373
55.315 10.848492
55.320 10.758268
55.325 11.135696
55.330 11.354446
55.335 11.507593
55.340 11.139121
55.345 10.955984
55.350 10.985539
55.355 10.835719
55.360 10.676942
55.365 10.884074
55.370 10.499994
55.375 10.628855
55.380 10.583943
55.385 10.774506
55.390 11.402045
55.395 12.043868
55.400 11.734219
55.405 12.151159
55.410 12.246408
55.415 12.327653
55.420 12.01673
55.425 11.440497
55.430 11.051361
55.435 11.498343
55.440 11.568776
55.445 11.966872
55.450 12.236907
55.455 12.497128
55.460 12.134895
55.465 11.817983
55.470 10.87638
55.475 10.218788
55.480 10.1531
55.485 10.086331
55.490 10.076704
55.495 9.915018
55.500 10.27994
55.505 11.084271
55.510 11.458598
55.515 11.127535
55.520 10.841539
55.525 10.916758
55.530 11.137245
55.535 11.09732
55.540 11.24741
55.545 11.111793
55.550 11.890633
55.555 12.802949
55.560 13.037221
55.565 13.225074
55.570 12.783408
55.575 12.506408
55.580 12.730534
55.585 11.775895
55.590 11.39286
55.595 11.996037
55.600 12.529905
55.605 12.819405
55.610 12.585688
55.615 11.761484
55.620 12.136532
55.625 12.115387
55.630 11.075423
55.635 10.574634
55.640 10.595593
55.645 10.914021
55.650 11.66743
55.655 11.289713
55.660 11.028966
55.665 11.358592
55.670 11.345487
55.675 11.230393
55.680 11.032013
55.685 11.284622
55.690 11.275044
55.695 11.743206
55.700 11.874219
55.705 12.03744
55.710 12.203513
55.715 12.445345
55.720 12.339294
55.725 12.302719
55.730 12.434954
55.735 12.038087
55.740 12.173128
55.745 12.147659
55.750 11.722636
55.755 11.734926
55.760 11.574084
55.765 11.049776
55.770 11.423491
55.775 11.823965
55.780 11.684094
55.785 11.896413
55.790 11.529014
55.795 11.467539
55.800 11.567093
55.805 10.98085
55.810 10.652662
55.815 10.980984
55.820 10.416
55.825 10.092856
55.830 10.345154
55.835 10.929863
55.840 11.331997
55.845 11.235194
55.850 11.399554
55.855 11.736136
55.860 12.075098
55.865 11.874903
55.870 11.487082
55.875 11.813795
55.880 12.067943
55.885 11.904654
55.890 11.828596
55.895 11.72444
55.900 11.729265
55.905 11.402265
55.910 10.775219
55.915 10.578903
55.920 11.011188
55.925 11.248577
55.930 11.382305
55.935 11.580006
55.940 12.17628
55.945 12.840976
55.950 13.095892
55.955 13.118304
55.960 13.755181
55.965 13.776596
55.970 13.710334
55.975 14.088652
55.980 14.01268
55.985 14.012162
55.990 13.826056
55.995 13.119085
56.000 13.106678
56.005 13.084315
56.010 13.344847
56.015 13.371376
56.020 13.047281
56.025 13.122543
56.030 13.206877
56.035 13.377165
56.040 13.058039
56.045 12.007378
56.050 11.75598
56.055 11.491743
56.060 11.120385
56.065 10.866669
56.070 10.77999
56.075 10.95903
56.080 11.342134
56.085 11.633561
56.090 11.831758
56.095 12.095763
56.100 12.255318
56.105 11.982903
56.110 11.375075
56.115 11.55861
56.120 11.243786
56.125 11.091646
56.130 10.840414
56.135 10.993586
56.140 11.386136
56.145 11.467271
56.150 11.503266
56.155 11.760989
56.160 11.942986
56.165 11.927149
56.170 11.606895
56.175 11.833716
56.180 11.704904
56.185 11.093489
56.190 10.773075
56.195 10.423287
56.200 11.030138
56.205 10.943737
56.210 10.40874
56.215 10.805557
56.220 11.103534
56.225 11.572718
56.230 12.465597
56.235 12.463549
56.240 12.724901
56.245 13.210366
56.250 13.350342
56.255 13.332221
56.260 12.85292
56.265 12.453512
56.270 12.547972
56.275 12.289653
56.280 12.081364
56.285 12.55262
56.290 13.261792
56.295 13.545602
56.300 13.479167
56.305 13.514499
56.310 13.90071
56.315 13.679909
56.320 12.7325
56.325 11.992624
56.330 12.376631
56.335 12.271891
56.340 12.124378
56.345 11.917521
56.350 11.793672
56.355 12.189507
56.360 12.096671
56.365 11.481185
56.370 11.13131
56.375 10.260406
56.380 9.953021
56.385 10.264797
56.390 10.401061
56.395 10.604907
56.400 11.12043
56.405 11.623822
56.410 12.421745
56.415 13.111021
56.420 13.153735
56.425 13.062198
56.430 13.292867
56.435 13.131746
56.440 13.056324
56.445 12.839101
56.450 12.629422
56.455 12.673327
56.460 12.747182
56.465 12.520024
56.470 12.805675
56.475 12.884252
56.480 12.502947
56.485 12.203013
56.490 12.286749
56.495 12.226992
56.500 12.231959
56.505 12.175454
56.510 12.363615
56.515 12.582949
56.520 12.375613
56.525 11.982193
56.530 11.813591
56.535 11.489108
56.540 11.696695
56.545 11.357733
56.550 11.313633
56.555 11.423146
56.560 11.10058
56.565 11.549219
56.570 11.847713
56.575 11.820178
56.580 12.262576
56.585 12.474423
56.590 12.594233
56.595 12.556813
56.600 12.19093
56.605 12.047699
56.610 11.887913
56.615 11.435305
56.620 10.842289
56.625 10.756406
56.630 11.277485
56.635 11.814197
56.640 11.686766
56.645 11.87432
56.650 12.539966
56.655 13.228429
56.660 13.592484
56.665 13.317868
56.670 12.985728
56.675 13.433535
56.680 13.550347
56.685 13.30757
56.690 12.770965
56.695 12.099702
56.700 12.047654
56.705 11.847622
56.710 11.619305
56.715 11.205623
56.720 11.568402
56.725 12.412794
56.730 13.45924
56.735 13.454057
56.740 13.64333
56.745 13.64878
56.750 13.805806
56.755 13.960189
56.760 13.721739
56.765 13.132056
56.770 13.31881
56.775 12.868441
56.780 12.597838
56.785 12.6308
56.790 12.55901
56.795 12.401551
56.800 12.243125
56.805 12.769103
56.810 13.311448
56.815 13.56172
56.820 13.346074
56.825 13.361163
56.830 13.815217
56.835 14.383409
56.840 13.757824
56.845 13.368932
56.850 13.42096
56.855 13.222723
56.860 12.653436
56.865 12.182401
56.870 12.051002
56.875 12.274236
56.880 12.202703
56.885 12.240801
56.890 12.685863
56.895 12.937787
56.900 12.688992
56.905 12.723253
56.910 12.772341
56.915 12.685734
56.920 12.803266
56.925 12.97717
56.930 13.324897
56.935 13.255369
56.940 12.945496
56.945 12.911378
56.950 12.813776
56.955 12.666186
56.960 12.384587
56.965 12.312607
56.970 12.461218
56.975 12.701599
56.980 13.174006
56.985 13.529981
56.990 13.660199
56.995 13.753168
57.000 13.598785
57.005 13.654374
57.010 13.175763
57.015 12.708209
57.020 12.598411
57.025 12.396976
57.030 12.340671
57.035 12.869699
57.040 13.300596
57.045 13.593072
57.050 13.740285
57.055 13.79653
57.060 13.704681
57.065 13.998749
57.070 13.964489
57.075 14.082358
57.080 14.427227
57.085 14.387609
57.090 14.381113
57.095 14.398745
57.100 13.784932
57.105 13.363703
57.110 12.834145
57.115 12.352962
57.120 12.690645
57.125 12.460483
57.130 12.962193
57.135 13.480866
57.140 13.566301
57.145 13.911473
57.150 14.050372
57.155 13.499906
57.160 13.360617
57.165 12.819203
57.170 12.291892
57.175 11.999153
57.180 11.977378
57.185 11.890332
57.190 12.392349
57.195 12.151779
57.200 12.547312
57.205 12.775868
57.210 13.031459
57.215 12.722171
57.220 12.701155
57.225 12.364503
57.230 12.656732
57.235 12.660347
57.240 12.827571
57.245 12.713541
57.250 12.739777
57.255 13.059922
57.260 13.051748
57.265 13.205547
57.270 13.275875
57.275 13.143073
57.280 13.124021
57.285 13.000762
57.290 12.444028
57.295 12.433955
57.300 12.238314
57.305 12.105873
57.310 12.033075
57.315 12.064541
57.320 12.580272
57.325 13.041403
57.330 13.416598
57.335 13.67661
57.340 13.90143
57.345 13.808858
57.350 14.197398
57.355 13.680045
57.360 13.762419
57.365 13.790172
57.370 13.649301
57.375 13.750738
57.380 13.747652
57.385 13.129501
57.390 13.4104
57.395 13.323569
57.400 12.762241
57.405 12.220907
57.410 12.166258
57.415 12.239808
57.420 12.661844
57.425 12.216354
57.430 12.491259
57.435 12.740679
57.440 12.888949
57.445 12.945963
57.450 13.207756
57.455 13.402946
57.460 13.639154
57.465 13.729452
57.470 14.078352
57.475 14.431576
57.480 14.400233
57.485 14.170252
57.490 14.592457
57.495 14.84611
57.500 14.637401
57.505 14.340197
57.510 14.360677
57.515 14.623757
57.520 15.139533
57.525 14.788672
57.530 15.227125
57.535 15.637019
57.540 15.426187
57.545 15.115026
57.550 14.899676
57.555 14.702087
57.560 15.176295
57.565 14.979158
57.570 15.302835
57.575 15.948802
57.580 16.10289
57.585 15.983952
57.590 16.061886
57.595 15.67817
57.600 15.008857
57.605 14.307595
57.610 13.824975
57.615 13.663216
57.620 13.760609
57.625 13.684031
57.630 13.719709
57.635 13.921359
57.640 13.916371
57.645 14.298253
57.650 14.329273
57.655 14.65694
57.660 14.707359
57.665 14.48557
57.670 14.360085
57.675 14.433254
57.680 14.460619
57.685 14.746471
57.690 14.35158
57.695 13.65138
57.700 13.684627
57.705 14.013561
57.710 14.314729
57.715 14.181259
57.720 14.061571
57.725 13.988655
57.730 14.452687
57.735 14.727999
57.740 14.64023
57.745 14.775657
57.750 15.060803
57.755 15.085144
57.760 15.040625
57.765 14.784739
57.770 14.609089
57.775 14.754798
57.780 14.791399
57.785 14.920093
57.790 14.868839
57.795 15.2921
57.800 15.631366
57.805 15.800861
57.810 15.581793
57.815 15.270593
57.820 15.032642
57.825 15.229375
57.830 15.763161
57.835 15.879677
57.840 15.680764
57.845 15.845227
57.850 16.081335
57.855 16.428923
57.860 16.248276
57.865 15.763491
57.870 16.338602
57.875 16.706469
57.880 16.652637
57.885 16.403181
57.890 15.865105
57.895 15.630457
57.900 15.149174
57.905 14.285197
57.910 13.829554
57.915 14.065522
57.920 14.625612
57.925 15.110269
57.930 15.552958
57.935 15.783178
57.940 15.868748
57.945 15.955956
57.950 15.710414
57.955 15.68417
57.960 15.318431
57.965 15.09369
57.970 14.934834
57.975 14.703535
57.980 14.492964
57.985 14.443314
57.990 13.999012
57.995 14.125329
58.000 13.842996
58.005 14.403105
58.010 15.145457
58.015 15.466397
58.020 15.941367
58.025 16.509842
58.030 16.879625
58.035 17.278078
58.040 17.201553
58.045 16.733654
58.050 16.305067
58.055 15.717803
58.060 15.522051
58.065 15.476644
58.070 15.674611
58.075 15.981193
58.080 16.477625
58.085 16.894196
58.090 17.073681
58.095 16.93815
58.100 16.856276
58.105 16.503334
58.110 15.611147
58.115 14.891549
58.120 15.014938
58.125 15.039587
58.130 14.89331
58.135 14.689219
58.140 14.836911
58.145 15.455701
58.150 16.189333
58.155 16.872934
58.160 16.961901
58.165 17.154341
58.170 17.580338
58.175 17.594913
58.180 17.624592
58.185 17.409727
58.190 16.659542
58.195 16.77862
58.200 16.339153
58.205 15.843081
58.210 16.08534
58.215 15.825781
58.220 15.198783
58.225 14.796803
58.230 14.820866
58.235 15.825565
58.240 16.247965
58.245 15.97884
58.250 16.222363
58.255 16.769321
58.260 17.568638
58.265 17.914927
58.270 17.085629
58.275 16.717976
58.280 16.958147
58.285 17.739061
58.290 17.652538
58.295 17.185686
58.300 17.271555
58.305 18.153744
58.310 18.625065
58.315 18.69183
58.320 18.212473
58.325 18.531847
58.330 18.773695
58.335 18.829767
58.340 19.012466
58.345 19.496502
58.350 19.770424
58.355 19.752985
58.360 19.454803
58.365 19.747822
58.370 19.476879
58.375 19.370359
58.380 19.235924
58.385 19.407082
58.390 20.461552
58.395 21.011196
58.400 21.099655
58.405 22.208738
58.410 22.666286
58.415 22.911098
58.420 23.680889
58.425 23.128178
58.430 23.840897
58.435 24.548138
58.440 23.834454
58.445 24.065397
58.450 24.423599
58.455 24.35597
58.460 24.87101
58.465 24.479029
58.470 24.53713
58.475 25.03293
58.480 24.827038
58.485 24.332361
58.490 24.781931
58.495 25.017826
58.500 25.122328
58.505 24.720375
58.510 24.72073
58.515 25.017208
58.520 25.606787
58.525 25.959188
58.530 26.624908
58.535 27.209866
58.540 27.6647
58.545 27.804428
58.550 28.714087
58.555 29.521835
58.560 29.823648
58.565 29.733189
58.570 30.278017
58.575 30.97504
58.580 31.783127
58.585 31.491158
58.590 32.078659
58.595 32.509575
58.600 33.274258
58.605 33.167854
58.610 32.774582
58.615 32.41914
58.620 32.367439
58.625 32.62606
58.630 33.120762
58.635 32.859482
58.640 33.201653
58.645 33.746403
58.650 34.26009
58.655 34.114223
58.660 33.742947
58.665 33.149536
58.670 33.30764
58.675 33.052906
58.680 32.21307
58.685 31.8571
58.690 31.859745
58.695 31.411629
58.700 31.262775
58.705 30.515528
58.710 30.488602
58.715 30.625011
58.720 30.308216
58.725 30.339951
58.730 30.895166
58.735 31.017174
58.740 31.325289
58.745 31.6059
58.750 31.587477
58.755 30.984545
58.760 30.004763
58.765 29.380573
58.770 28.634621
58.775 28.130445
58.780 27.721045
58.785 27.15041
58.790 27.391247
58.795 27.948151
58.800 27.21591
58.805 27.792873
58.810 28.155659
58.815 27.415377
58.820 27.847448
58.825 27.695845
58.830 27.25193
58.835 26.965418
58.840 25.83448
58.845 24.938366
58.850 24.527447
58.855 23.725233
58.860 23.353548
58.865 22.180508
58.870 21.75852
58.875 22.003389
58.880 21.771671
58.885 21.897997
58.890 21.891531
58.895 21.355097
58.900 21.702728
58.905 21.411903
58.910 20.899187
58.915 20.853828
58.920 21.041939
58.925 20.918545
58.930 20.979828
58.935 20.683821
58.940 20.152277
58.945 19.586164
58.950 18.604546
58.955 17.579567
58.960 17.301191
58.965 17.515503
58.970 17.401798
58.975 18.64019
58.980 19.547115
58.985 19.869968
58.990 20.241919
58.995 20.428972
59.000 20.587572
59.005 20.805117
59.010 19.343596
59.015 18.629736
59.020 18.800869
59.025 18.677584
59.030 18.284002
59.035 17.453796
59.040 17.719057
59.045 18.028093
59.050 17.91058
59.055 17.643629
59.060 17.262081
59.065 17.011724
59.070 16.908558
59.075 16.238037
59.080 15.653617
59.085 15.009512
59.090 14.925445
59.095 15.337825
59.100 15.748161
59.105 15.590006
59.110 15.53709
59.115 16.045429
59.120 16.351973
59.125 16.325411
59.130 15.61425
59.135 15.40822
59.140 15.468766
59.145 15.673229
59.150 15.764484
59.155 16.046383
59.160 16.242052
59.165 16.786449
59.170 17.04155
59.175 17.246634
59.180 16.77985
59.185 16.229261
59.190 16.276964
59.195 15.797091
59.200 15.20846
59.205 15.089232
59.210 14.900925
59.215 15.617893
59.220 15.886011
59.225 15.698368
59.230 16.015484
59.235 15.967381
59.240 16.091042
59.245 16.072214
59.250 15.693151
59.255 15.012212
59.260 14.672561
59.265 14.148604
59.270 14.438948
59.275 13.948415
59.280 13.861668
59.285 14.352163
59.290 15.236691
59.295 15.919359
59.300 16.255894
59.305 15.967097
59.310 16.282927
59.315 16.310684
59.320 15.545543
59.325 15.534302
59.330 15.814656
59.335 16.408911
59.340 16.391663
59.345 16.108864
59.350 15.6733
59.355 15.945878
59.360 15.371256
59.365 14.607458
59.370 14.376403
59.375 14.307368
59.380 14.211057
59.385 14.234624
59.390 14.136071
59.395 13.896111
59.400 13.98422
59.405 13.514287
59.410 13.699862
59.415 14.166721
59.420 14.701727
59.425 15.040742
59.430 15.37572
59.435 15.207356
59.440 14.885764
59.445 14.526409
59.450 14.053281
59.455 13.562566
59.460 13.265653
59.465 13.016751
59.470 13.492381
59.475 14.150001
59.480 14.500692
59.485 15.052642
59.490 15.149568
59.495 15.147657
59.500 14.9405
59.505 14.609203
59.510 14.602549
59.515 14.61312
59.520 14.596421
59.525 14.740881
59.530 14.844328
59.535 15.289021
59.540 15.431772
59.545 15.065536
59.550 14.853575
59.555 14.87626
59.560 14.70642
59.565 15.292516
59.570 15.313272
59.575 15.27539
59.580 15.94399
59.585 15.528655
59.590 15.189726
59.595 16.089985
59.600 16.346819
59.605 16.531054
59.610 16.833658
59.615 16.59363
59.620 16.64204
59.625 16.518507
59.630 15.465075
59.635 14.64738
59.640 14.381964
59.645 14.251959
59.650 14.399463
59.655 14.326132
59.660 14.242623
59.665 13.966055
59.670 13.802106
59.675 13.674888
59.680 13.765493
59.685 13.543295
59.690 13.735236
59.695 14.400547
59.700 15.389506
59.705 15.780582
59.710 16.392796
59.715 16.607206
59.720 16.709167
59.725 16.758533
59.730 16.432932
59.735 15.674897
59.740 15.48985
59.745 15.046447
59.750 14.658138
59.755 14.742417
59.760 14.791007
59.765 14.791515
59.770 14.84812
59.775 15.503971
59.780 15.525263
59.785 15.541133
59.790 15.912507
59.795 16.025017
59.800 15.911925
59.805 15.705529
59.810 14.875563
59.815 15.284174
59.820 15.524839
59.825 15.305864
59.830 15.462906
59.835 15.921234
59.840 16.363413
59.845 16.987997
59.850 16.586594
59.855 16.033375
59.860 15.913955
59.865 15.723108
59.870 15.518434
59.875 15.389437
59.880 15.008018
59.885 15.053041
59.890 15.120043
59.895 15.132368
59.900 15.128817
59.905 15.367045
59.910 15.252892
59.915 15.21357
59.920 15.144824
59.925 15.642443
59.930 15.847731
59.935 15.249792
59.940 14.661494
59.945 14.303689
59.950 14.062097
59.955 14.458117
59.960 14.357424
59.965 13.753053
59.970 14.239622
59.975 15.0336
59.980 15.172851
59.985 15.498574
59.990 15.194038
59.995 14.944483
60.000 14.806935
60.005 15.167909
60.010 15.060524
60.015 14.776073
60.020 14.791317
60.025 14.904604
60.030 15.597746
60.035 16.032953
60.040 15.84345
60.045 15.65871
60.050 15.999945
60.055 15.914463
60.060 15.32234
60.065 14.676701
60.070 14.487417
60.075 14.238205
60.080 13.723915
60.085 13.8944
60.090 13.895477
60.095 13.840012
60.100 13.823656
60.105 13.768279
60.110 13.825226
60.115 13.861214
60.120 13.451393
60.125 13.657563
60.130 13.855966
60.135 13.75609
60.140 14.107842
60.145 14.209278
60.150 14.404163
60.155 14.086419
60.160 13.937863
60.165 13.804981
60.170 14.167754
60.175 13.825875
60.180 13.559464
60.185 13.985026
60.190 14.572523
60.195 15.213593
60.200 15.577122
60.205 15.149952
60.210 14.935163
60.215 15.051033
60.220 15.08529
60.225 14.627158
60.230 14.154459
60.235 14.157017
60.240 13.976859
60.245 14.304195
60.250 14.012297
60.255 13.473695
60.260 13.350387
60.265 13.255963
60.270 12.93899
60.275 12.80114
60.280 12.957669
60.285 13.723452
60.290 14.670543
60.295 14.608742
60.300 14.757335
60.305 15.277044
60.310 15.808333
60.315 15.468448
60.320 14.791722
60.325 14.992282
60.330 15.737169
60.335 15.888669
60.340 16.207314
60.345 16.363337
60.350 16.552917
60.355 16.726244
60.360 15.869048
60.365 15.042279
60.370 14.951392
60.375 14.525476
60.380 14.566184
60.385 14.428279
60.390 14.284711
60.395 15.052427
60.400 15.175352
60.405 15.200368
60.410 15.050794
60.415 15.317616
60.420 15.67783
60.425 15.49595
60.430 15.276644
60.435 14.97825
60.440 14.854479
60.445 15.186014
60.450 14.485539
60.455 14.332428
60.460 14.19538
60.465 14.226067
60.470 15.017564
60.475 15.685773
60.480 15.147479
60.485 15.181124
60.490 15.501019
60.495 15.488885
60.500 15.530709
60.505 15.606572
60.510 15.006752
60.515 15.167586
60.520 15.234737
60.525 14.971296
60.530 15.100939
60.535 14.825831
60.540 14.224554
60.545 14.254638
60.550 14.653406
60.555 14.859962
60.560 14.523841
60.565 14.589244
60.570 14.577558
60.575 15.310222
60.580 15.599961
60.585 15.048819
60.590 14.917497
60.595 15.502808
60.600 15.692574
60.605 15.607577
60.610 15.254084
60.615 15.230927
60.620 15.821274
60.625 15.75087
60.630 15.294518
60.635 15.251362
60.640 15.489471
60.645 15.629616
60.650 15.802055
60.655 14.97523
60.660 14.913156
60.665 15.066854
60.670 14.873813
60.675 14.661594
60.680 14.238448
60.685 14.130259
60.690 14.611628
60.695 14.423541
60.700 14.056977
60.705 14.259749
60.710 13.933778
60.715 13.96816
60.720 13.899587
60.725 14.442935
60.730 14.863346
60.735 15.097259
60.740 14.777556
60.745 14.857593
60.750 14.789104
60.755 14.555308
60.760 14.083007
60.765 14.354511
60.770 14.424921
60.775 14.495393
60.780 14.881788
60.785 15.055633
60.790 15.138279
60.795 15.173305
60.800 15.45401
60.805 15.421196
60.810 15.568083
60.815 15.318674
60.820 14.939745
60.825 15.350677
60.830 15.7207
60.835 15.198803
60.840 15.326778
60.845 15.034159
60.850 15.820923
60.855 16.336525
60.860 16.027914
60.865 15.81195
60.870 16.174698
60.875 15.779167
60.880 15.486052
60.885 14.417596
60.890 14.026729
60.895 13.849145
60.900 13.961766
60.905 13.938364
60.910 14.348677
60.915 15.165213
60.920 15.060862
60.925 15.3902
60.930 15.121394
60.935 14.502367
60.940 14.605021
60.945 14.406738
60.950 14.424235
60.955 15.135639
60.960 15.497519
60.965 16.347239
60.970 16.676645
60.975 16.386148
60.980 16.689686
60.985 16.440683
60.990 16.099432
60.995 15.17174
61.000 14.682148
61.005 14.531528
61.010 14.373391
61.015 14.412581
61.020 15.116032
61.025 15.251611
61.030 15.749876
61.035 15.672146
61.040 15.837889
61.045 16.044678
61.050 15.927001
61.055 15.37382
61.060 14.629247
61.065 14.586695
61.070 14.373773
61.075 14.258459
61.080 14.515625
61.085 15.271565
61.090 15.422617
61.095 15.991131
61.100 16.114891
61.105 16.411993
61.110 16.371466
61.115 16.253807
61.120 15.77859
61.125 15.775688
61.130 16.078859
61.135 16.626171
61.140 16.702839
61.145 16.393007
61.150 15.856592
61.155 15.286583
61.160 15.678552
61.165 15.371861
61.170 14.83973
61.175 15.139829
61.180 15.770742
61.185 15.920289
61.190 16.174454
61.195 16.54756
61.200 17.006159
61.205 17.448143
61.210 17.435635
61.215 17.859819
61.220 18.073124
61.225 18.5226
61.230 17.602551
61.235 16.81617
61.240 16.0455
61.245 16.24128
61.250 15.9821
61.255 16.245619
61.260 15.569727
61.265 15.685376
61.270 15.902129
61.275 16.005108
61.280 15.92783
61.285 15.970428
61.290 15.730357
61.295 15.792171
61.300 15.595391
61.305 15.763211
61.310 15.925688
61.315 15.269114
61.320 15.148584
61.325 15.264981
61.330 15.93761
61.335 16.041788
61.340 16.237417
61.345 16.371149
61.350 16.700743
61.355 16.699625
61.360 16.757513
61.365 16.831118
61.370 16.561262
61.375 16.453894
61.380 16.43618
61.385 16.579329
61.390 16.136154
61.395 15.427315
61.400 15.313972
61.405 15.696087
61.410 15.342379
61.415 15.173559
61.420 14.948269
61.425 15.170453
61.430 15.187451
61.435 14.798761
61.440 14.724375
61.445 14.503788
61.450 14.709908
61.455 15.10403
61.460 14.905387
61.465 15.143414
61.470 15.386446
61.475 15.890808
61.480 16.307262
61.485 16.221861
61.490 16.152807
61.495 16.224096
61.500 16.245663
61.505 16.210068
61.510 16.139177
61.515 16.087374
61.520 15.641545
61.525 16.061363
61.530 16.443874
61.535 16.503893
61.540 16.292654
61.545 16.682253
61.550 17.205343
61.555 17.923134
61.560 17.601118
61.565 17.545099
61.570 17.579515
61.575 17.892509
61.580 17.248684
61.585 17.313061
61.590 17.076168
61.595 17.056458
61.600 16.858591
61.605 16.742147
61.610 16.80953
61.615 16.700722
61.620 16.133696
61.625 15.719364
61.630 15.783375
61.635 15.829486
61.640 16.002888
61.645 15.871293
61.650 16.013668
61.655 16.191675
61.660 16.111414
61.665 15.701686
61.670 15.723745
61.675 15.865756
61.680 15.772925
61.685 16.117151
61.690 16.643393
61.695 17.064718
61.700 17.456667
61.705 17.656176
61.710 16.996208
61.715 16.744089
61.720 16.151356
61.725 15.396904
61.730 15.137298
61.735 14.77424
61.740 14.658612
61.745 14.891718
61.750 14.774918
61.755 15.40597
61.760 15.147808
61.765 15.421652
61.770 15.818845
61.775 16.433352
61.780 16.937307
61.785 17.104403
61.790 17.085247
61.795 17.974794
61.800 18.1877
61.805 18.354298
61.810 17.806477
61.815 17.417629
61.820 17.043911
61.825 16.739223
61.830 16.365543
61.835 16.14888
61.840 15.908375
61.845 15.929354
61.850 15.944618
61.855 16.372869
61.860 16.533232
61.865 16.383764
61.870 16.125782
61.875 16.572269
61.880 16.974272
61.885 17.009544
61.890 17.192171
61.895 17.754538
61.900 18.067623
61.905 17.804613
61.910 17.029222
61.915 16.389639
61.920 16.549522
61.925 16.551895
61.930 15.777119
61.935 15.535853
61.940 15.482862
61.945 15.7809
61.950 16.237926
61.955 16.307493
61.960 16.056023
61.965 15.741669
61.970 15.734225
61.975 16.402636
61.980 16.471802
61.985 16.557634
61.990 16.479618
61.995 16.763573
62.000 17.080164
62.005 17.394419
62.010 17.029352
62.015 16.53529
62.020 16.540413
62.025 16.582481
62.030 15.614021
62.035 15.587065
62.040 15.196739
62.045 14.862392
62.050 14.999153
62.055 14.770986
62.060 14.881173
62.065 15.154988
62.070 15.050985
62.075 15.600812
62.080 16.35787
62.085 16.383368
62.090 16.1485
62.095 15.774945
62.100 15.876288
62.105 15.388827
62.110 15.275069
62.115 15.667309
62.120 15.871299
62.125 15.82562
62.130 15.756978
62.135 16.113451
62.140 16.420099
62.145 15.929055
62.150 15.57629
62.155 15.649695
62.160 16.062281
62.165 16.294039
62.170 16.527802
62.175 16.860044
62.180 17.039421
62.185 16.76359
62.190 16.219288
62.195 16.076832
62.200 16.220333
62.205 15.153141
62.210 14.731711
62.215 14.909806
62.220 14.938661
62.225 15.020261
62.230 15.213065
62.235 14.782487
62.240 14.806477
62.245 14.955945
62.250 14.742042
62.255 14.933459
62.260 15.220126
62.265 15.178845
62.270 15.802968
62.275 16.906773
62.280 17.401569
62.285 17.502886
62.290 17.39859
62.295 17.76667
62.300 17.597708
62.305 17.205576
62.310 16.42318
62.315 15.575043
62.320 15.503214
62.325 15.810554
62.330 15.27442
62.335 14.976912
62.340 14.963793
62.345 14.870958
62.350 15.152441
62.355 14.738153
62.360 14.571547
62.365 15.072398
62.370 15.322365
62.375 15.677168
62.380 15.773233
62.385 15.904253
62.390 16.136908
62.395 15.823581
62.400 15.305654
62.405 15.158003
62.410 16.040524
62.415 17.321203
62.420 17.62793
62.425 17.622726
62.430 17.846102
62.435 18.027575
62.440 18.337589
62.445 17.243101
62.450 16.913555
62.455 17.363832
62.460 17.535881
62.465 17.606655
62.470 18.072243
62.475 17.755081
62.480 17.46324
62.485 16.816782
62.490 16.451729
62.495 16.311962
62.500 15.968593
62.505 15.634968
62.510 15.769344
62.515 15.760839
62.520 15.325379
62.525 15.189221
62.530 15.158123
62.535 15.292487
62.540 15.197301
62.545 15.371275
62.550 15.896696
62.555 16.093262
62.560 15.911525
62.565 16.319326
62.570 16.525373
62.575 16.865694
62.580 16.638535
62.585 16.408115
62.590 16.714909
62.595 16.887407
62.600 16.823851
62.605 16.741001
62.610 16.310009
62.615 15.964722
62.620 15.521577
62.625 15.000093
62.630 15.121292
62.635 14.973868
62.640 15.014177
62.645 15.052664
62.650 15.629601
62.655 16.588388
62.660 17.436159
62.665 17.578054
62.670 17.529568
62.675 18.057074
62.680 18.428991
62.685 18.513296
62.690 18.18346
62.695 18.171539
62.700 18.079391
62.705 17.880589
62.710 17.190269
62.715 17.08007
62.720 16.63855
62.725 16.95863
62.730 16.588184
62.735 16.370359
62.740 16.985729
62.745 17.09
62.750 16.881269
62.755 17.208637
62.760 16.801777
62.765 16.412066
62.770 15.957937
62.775 15.59542
62.780 15.170127
62.785 14.77344
62.790 14.365221
62.795 14.033782
62.800 14.479651
62.805 14.682731
62.810 14.519821
62.815 15.039758
62.820 15.812102
62.825 16.334425
62.830 16.8449
62.835 16.682384
62.840 16.834766
62.845 17.040228
62.850 17.005497
62.855 16.907133
62.860 16.391401
62.865 15.937065
62.870 15.662101
62.875 15.661592
62.880 15.571117
62.885 15.768468
62.890 15.984314
62.895 16.230246
62.900 16.437925
62.905 17.279722
62.910 16.979132
62.915 17.30604
62.920 17.230143
62.925 17.011095
62.930 16.941088
62.935 16.768814
62.940 16.160892
62.945 15.795436
62.950 15.643477
62.955 15.962234
62.960 16.227386
62.965 16.328098
62.970 16.723949
62.975 17.064308
62.980 17.610121
62.985 17.399641
62.990 16.833164
62.995 16.82725
63.000 16.577024
63.005 16.156994
63.010 16.279131
63.015 16.206699
63.020 16.825163
63.025 17.343498
63.030 17.820175
63.035 18.272038
63.040 18.536066
63.045 18.434484
63.050 18.69433
63.055 18.538542
63.060 18.416368
63.065 17.638918
63.070 17.386911
63.075 17.599045
63.080 17.845369
63.085 17.745718
63.090 17.001698
63.095 16.74308
63.100 17.237177
63.105 17.247986
63.110 16.998781
63.115 16.73564
63.120 17.121399
63.125 17.744415
63.130 18.317701
63.135 18.308641
63.140 19.273243
63.145 19.52022
63.150 19.131569
63.155 18.678421
63.160 18.200153
63.165 17.5942
63.170 16.753435
63.175 15.934511
63.180 15.805989
63.185 15.996901
63.190 15.819605
63.195 15.654999
63.200 15.657238
63.205 16.211708
63.210 16.847191
63.215 16.900972
63.220 16.974113
63.225 16.661774
63.230 17.167152
63.235 17.555693
63.240 17.249741
63.245 17.064304
63.250 17.027029
63.255 17.112532
63.260 17.827909
63.265 17.601742
63.270 17.060865
63.275 16.982214
63.280 16.706074
63.285 17.133184
63.290 17.32653
63.295 16.859907
63.300 17.257387
63.305 17.889956
63.310 18.285637
63.315 18.932034
63.320 19.125908
63.325 19.338261
63.330 19.656651
63.335 19.748348
63.340 19.571375
63.345 19.109455
63.350 17.67939
63.355 17.476389
63.360 17.044117
63.365 16.697329
63.370 16.410036
63.375 16.771858
63.380 16.945164
63.385 17.002254
63.390 16.725731
63.395 17.276218
63.400 17.528889
63.405 17.426941
63.410 17.395302
63.415 18.057934
63.420 18.77669
63.425 19.004526
63.430 19.189013
63.435 19.041735
63.440 18.425722
63.445 17.786095
63.450 16.98144
63.455 16.69861
63.460 16.120478
63.465 16.092279
63.470 16.47983
63.475 17.303349
63.480 17.600651
63.485 17.602739
63.490 17.97434
63.495 18.20944
63.500 17.766264
63.505 17.328197
63.510 17.243008
63.515 17.162811
63.520 17.162537
63.525 16.651693
63.530 16.385801
63.535 16.6952
63.540 17.172243
63.545 17.336666
63.550 17.297743
63.555 17.252201
63.560 17.690229
63.565 18.350803
63.570 18.088987
63.575 18.168432
63.580 18.160326
63.585 18.179977
63.590 18.135662
63.595 18.162807
63.600 17.317833
63.605 17.351
63.610 17.085241
63.615 17.31003
63.620 17.850338
63.625 18.22234
63.630 18.046911
63.635 18.306171
63.640 18.390978
63.645 18.64138
63.650 18.245901
63.655 18.293587
63.660 18.326288
63.665 18.914448
63.670 19.175896
63.675 18.936684
63.680 18.551783
63.685 18.339903
63.690 18.047871
63.695 18.147026
63.700 18.124754
63.705 17.681793
63.710 17.593971
63.715 18.218594
63.720 18.768429
63.725 18.621695
63.730 18.184307
63.735 18.112225
63.740 18.79878
63.745 18.937494
63.750 18.806936
63.755 19.086849
63.760 19.535616
63.765 19.670811
63.770 19.191614
63.775 18.958477
63.780 19.44544
63.785 19.76955
63.790 19.535021
63.795 18.977634
63.800 18.384922
63.805 18.403357
63.810 18.428743
63.815 18.015188
63.820 17.626427
63.825 17.9648
63.830 18.623089
63.835 19.534262
63.840 19.462709
63.845 19.158401
63.850 18.978704
63.855 18.786718
63.860 18.529398
63.865 18.535152
63.870 18.622793
63.875 19.597095
63.880 19.790709
63.885 20.33746
63.890 20.358912
63.895 20.775492
63.900 21.028763
63.905 20.674442
63.910 20.634693
63.915 20.665688
63.920 20.482428
63.925 20.682653
63.930 20.327339
63.935 20.281752
63.940 20.896358
63.945 21.132877
63.950 21.232285
63.955 20.963381
63.960 20.632959
63.965 20.445469
63.970 20.050526
63.975 19.804432
63.980 19.692556
63.985 19.448437
63.990 19.484913
63.995 20.149744
64.000 20.991011
64.005 21.715794
64.010 22.766113
64.015 23.692911
64.020 24.562777
64.025 25.496632
64.030 25.556921
64.035 26.092012
64.040 26.403059
64.045 26.441954
64.050 26.138584
64.055 26.037127
64.060 25.90029
64.065 25.85162
64.070 25.584532
64.075 25.353964
64.080 25.156719
64.085 26.123947
64.090 27.073141
64.095 27.272358
64.100 27.617819
64.105 27.461454
64.110 27.607248
64.115 27.788956
64.120 27.228912
64.125 27.162329
64.130 27.322237
64.135 28.327002
64.140 29.079117
64.145 30.113394
64.150 30.641386
64.155 30.905172
64.160 31.828964
64.165 33.323452
64.170 33.331505
64.175 33.743591
64.180 33.099033
64.185 33.527302
64.190 33.936825
64.195 33.777126
64.200 33.15366
64.205 32.877666
64.210 33.168186
64.215 33.433228
64.220 33.139027
64.225 33.159306
64.230 33.262142
64.235 33.226997
64.240 33.604881
64.245 33.875839
64.250 34.076599
64.255 35.278755
64.260 36.074013
64.265 37.843964
64.270 38.95665
64.275 39.685986
64.280 40.204117
64.285 40.542877
64.290 40.109348
64.295 40.742153
64.300 40.802101
64.305 40.856743
64.310 40.722824
64.315 40.52459
64.320 41.206852
64.325 42.493881
64.330 42.03371
64.335 41.133514
64.340 41.357594
64.345 41.740372
64.350 41.833866
64.355 42.306709
64.360 42.915276
64.365 43.417671
64.370 44.418888
64.375 44.556335
64.380 44.569733
64.385 44.314465
64.390 43.810993
64.395 43.616386
64.400 44.530365
64.405 44.930737
64.410 44.14465
64.415 43.895508
64.420 44.258991
64.425 44.927246
64.430 44.961426
64.435 44.195972
64.440 43.370308
64.445 43.365902
64.450 43.489941
64.455 43.111229
64.460 41.929688
64.465 41.481899
64.470 40.136227
64.475 39.679298
64.480 39.0252
64.485 38.838406
64.490 38.31414
64.495 37.949547
64.500 37.591042
64.505 37.717762
64.510 37.671112
64.515 38.250221
64.520 37.743587
64.525 37.79422
64.530 37.359512
64.535 37.134052
64.540 37.111309
64.545 36.790943
64.550 36.799
64.555 36.706783
64.560 36.036804
64.565 35.045101
64.570 34.040844
64.575 33.49963
64.580 32.679665
64.585 31.839073
64.590 31.684341
64.595 31.988546
64.600 32.41288
64.605 32.270737
64.610 32.293243
64.615 32.772091
64.620 31.661961
64.625 31.626129
64.630 31.58835
64.635 31.21209
64.640 30.492182
64.645 29.667976
64.650 29.097673
64.655 29.416683
64.660 28.844227
64.665 28.545437
64.670 28.398228
64.675 28.093637
64.680 27.806383
64.685 27.22599
64.690 27.158693
64.695 27.000618
64.700 26.635267
64.705 26.494833
64.710 25.929819
64.715 25.65872
64.720 26.108856
64.725 26.012594
64.730 25.770529
64.735 25.555527
64.740 24.740227
64.745 24.545393
64.750 24.084072
64.755 22.707865
64.760 22.23991
64.765 21.804781
64.770 21.972116
64.775 22.419327
64.780 22.364214
64.785 22.43137
64.790 22.629234
64.795 21.98003
64.800 21.913393
64.805 21.579527
64.810 21.511007
64.815 21.031088
64.820 20.549534
64.825 20.66773
64.830 21.036356
64.835 21.154663
64.840 21.384407
64.845 21.455456
64.850 22.146463
64.855 22.778938
64.860 23.018614
64.865 22.875725
64.870 22.915428
64.875 22.565605
64.880 22.338505
64.885 21.92453
64.890 21.493883
64.895 21.070494
64.900 21.260796
64.905 21.588688
64.910 21.836803
64.915 22.13656
64.920 22.351372
64.925 22.204798
64.930 21.786264
64.935 21.420261
64.940 20.503469
64.945 20.609617
64.950 20.594772
64.955 20.859413
64.960 21.15378
64.965 21.360804
64.970 21.195635
64.975 21.264502
64.980 21.309559
64.985 21.375029
64.990 21.315302
64.995 21.416616
65.000 22.136765
65.005 22.967056
65.010 23.32432
65.015 23.181917
65.020 23.24136
65.025 23.322985
65.030 23.063265
65.035 22.704714
65.040 22.353586
65.045 22.370142
65.050 22.809593
65.055 23.142136
65.060 23.092535
65.065 24.113184
65.070 25.608438
65.075 26.147896
65.080 26.314983
65.085 26.261156
65.090 26.763575
65.095 27.24472
65.100 27.063261
65.105 26.530825
65.110 26.575802
65.115 26.88578
65.120 26.364773
65.125 26.012115
65.130 25.612976
65.135 25.166338
65.140 24.521725
65.145 23.875235
65.150 23.317783
65.155 23.490211
65.160 23.97608
65.165 24.611597
65.170 25.233408
65.175 26.753847
65.180 27.872412
65.185 28.376122
65.190 28.390812
65.195 28.659943
65.200 29.340174
65.205 28.628748
65.210 28.061785
65.215 27.698158
65.220 27.69755
65.225 27.547426
65.230 27.41692
65.235 27.803617
65.240 28.193102
65.245 28.434553
65.250 28.694321
65.255 29.235943
65.260 30.023478
65.265 30.326515
65.270 30.320513
65.275 31.664999
65.280 32.499611
65.285 32.883656
65.290 32.845234
65.295 32.861122
65.300 33.04137
65.305 32.428562
65.310 31.675465
65.315 31.115524
65.320 30.662329
65.325 30.54088
65.330 30.380331
65.335 29.445263
65.340 29.655243
65.345 29.48056
65.350 29.654985
65.355 29.894344
65.360 30.231863
65.365 30.219469
65.370 30.527224
65.375 30.393818
65.380 30.739443
65.385 30.205389
65.390 30.638718
65.395 30.544321
65.400 31.110334
65.405 32.645927
65.410 33.23233
65.415 33.075626
65.420 33.750748
65.425 34.397999
65.430 35.290791
65.435 35.553085
65.440 35.223511
65.445 35.330296
65.450 36.092354
65.455 35.787605
65.460 35.039124
65.465 34.853329
65.470 35.197796
65.475 35.334587
65.480 35.788685
65.485 35.695374
65.490 36.656895
65.495 37.485664
65.500 37.206841
65.505 36.686787
65.510 36.970573
65.515 36.614563
65.520 36.227074
65.525 36.08287
65.530 36.077381
65.535 35.66544
65.540 35.27776
65.545 34.823296
65.550 35.560509
65.555 35.871647
65.560 36.212009
65.565 35.80098
65.570 36.718956
65.575 37.210918
65.580 37.186298
65.585 36.281548
65.590 36.135002
65.595 35.675144
65.600 35.460194
65.605 35.80228
65.610 36.420048
65.615 36.391914
65.620 36.968609
65.625 37.882763
65.630 38.658119
65.635 39.471199
65.640 39.181927
65.645 40.2323
65.650 40.922646
65.655 40.383312
65.660 39.985085
65.665 39.839443
65.670 39.034225
65.675 38.262234
65.680 37.945614
65.685 39.080898
65.690 39.810894
65.695 39.453194
65.700 39.276249
65.705 39.938675
65.710 40.76358
65.715 40.642139
65.720 40.017254
65.725 39.707546
65.730 39.529316
65.735 39.780678
65.740 38.605034
65.745 38.076485
65.750 37.260368
65.755 36.752991
65.760 37.08448
65.765 37.239155
65.770 37.149513
65.775 38.158272
65.780 38.111122
65.785 38.844078
65.790 38.896847
65.795 38.236092
65.800 37.767708
65.805 38.304733
65.810 38.066757
65.815 37.663193
65.820 37.192551
65.825 36.834103
65.830 37.228249
65.835 37.730564
65.840 37.206905
65.845 37.143246
65.850 37.275234
65.855 36.446159
65.860 35.721272
65.865 34.420345
65.870 33.660248
65.875 33.47646
65.880 33.988045
65.885 34.350021
65.890 34.355362
65.895 34.750538
65.900 34.71875
65.905 34.167328
65.910 33.426628
65.915 32.418663
65.920 30.678175
65.925 30.368601
65.930 30.45829
65.935 30.255409
65.940 30.13636
65.945 29.847879
65.950 29.819157
65.955 29.785929
65.960 28.998322
65.965 28.339502
65.970 28.229181
65.975 27.895893
65.980 28.257549
65.985 28.100704
65.990 28.116659
65.995 27.156103
66.000 26.736324
66.005 26.263069
66.010 26.051323
66.015 25.324966
66.020 25.106966
66.025 24.867046
66.030 25.197639
66.035 25.347982
66.040 25.340212
66.045 25.042234
66.050 25.093395
66.055 25.665886
66.060 25.996845
66.065 26.511953
66.070 26.358196
66.075 26.484493
66.080 26.134953
66.085 25.216944
66.090 24.298773
66.095 23.429008
66.100 22.82774
66.105 22.509596
66.110 22.100922
66.115 22.515842
66.120 22.663277
66.125 23.127405
66.130 23.31752
66.135 22.364689
66.140 22.258572
66.145 22.611822
66.150 22.904621
66.155 23.358088
66.160 23.38693
66.165 23.061401
66.170 23.287394
66.175 22.970018
66.180 22.592108
66.185 22.301893
66.190 21.537552
66.195 20.560431
66.200 20.475342
66.205 20.174276
66.210 20.09638
66.215 19.887575
66.220 19.490728
66.225 19.098866
66.230 19.930758
66.235 20.212124
66.240 19.870094
66.245 20.24695
66.250 19.716591
66.255 19.836889
66.260 20.062239
66.265 19.7703
66.270 19.717281
66.275 19.424513
66.280 19.089182
66.285 19.444948
66.290 19.463058
66.295 19.590296
66.300 19.444365
66.305 19.208334
66.310 19.861723
66.315 20.133356
66.320 19.934235
66.325 20.025797
66.330 19.630915
66.335 19.849815
66.340 20.034151
66.345 20.119295
66.350 20.062227
66.355 20.213312
66.360 20.203108
66.365 20.671667
66.370 20.371803
66.375 19.100407
66.380 18.820211
66.385 18.257858
66.390 17.660397
66.395 17.464226
66.400 17.211576
66.405 17.729483
66.410 18.960266
66.415 19.433447
66.420 20.051369
66.425 20.621267
66.430 20.569895
66.435 20.845903
66.440 20.559422
66.445 19.942604
66.450 18.880028
66.455 18.548452
66.460 18.090752
66.465 17.664757
66.470 17.406908
66.475 16.961205
66.480 17.164076
66.485 17.535288
66.490 17.718435
66.495 18.0235
66.500 17.847748
66.505 18.176188
66.510 18.731407
66.515 19.119539
66.520 18.947252
66.525 18.845245
66.530 19.104921
66.535 19.512285
66.540 19.365307
66.545 19.351406
66.550 19.242571
66.555 18.62369
66.560 18.565142
66.565 19.096844
66.570 19.133522
66.575 18.959211
66.580 18.691221
66.585 18.771397
66.590 19.486433
66.595 19.603146
66.600 18.787907
66.605 18.536575
66.610 18.480639
66.615 18.194334
66.620 18.140472
66.625 17.941711
66.630 17.612125
66.635 17.448568
66.640 17.627918
66.645 17.57843
66.650 17.803215
66.655 18.191467
66.660 18.270271
66.665 18.171686
66.670 18.343851
66.675 18.096109
66.680 18.128922
66.685 18.363953
66.690 18.309563
66.695 19.004276
66.700 19.187166
66.705 18.882286
66.710 18.950651
66.715 18.773836
66.720 18.225306
66.725 18.407129
66.730 17.787178
66.735 18.101807
66.740 18.320612
66.745 18.301601
66.750 18.398447
66.755 18.210297
66.760 17.989447
66.765 18.190708
66.770 18.245438
66.775 18.380243
66.780 18.643002
66.785 18.292063
66.790 18.313166
66.795 18.211035
66.800 18.213942
66.805 17.968246
66.810 17.998123
66.815 17.962904
66.820 18.448303
66.825 18.567743
66.830 19.09948
66.835 18.98361
66.840 18.925446
66.845 19.417948
66.850 19.423563
66.855 19.708719
66.860 19.869576
66.865 19.487881
66.870 19.615213
66.875 19.441814
66.880 18.442596
66.885 17.946056
66.890 17.804409
66.895 17.674509
66.900 17.406261
66.905 17.586702
66.910 17.666822
66.915 17.536154
66.920 17.855532
66.925 17.638275
66.930 17.100798
66.935 16.98469
66.940 16.866409
66.945 16.635672
66.950 17.358246
66.955 17.804384
66.960 17.861094
66.965 18.015205
66.970 17.995192
66.975 17.877106
66.980 18.046661
66.985 17.545708
66.990 17.140274
66.995 17.336512
67.000 16.860893
67.005 17.22628
67.010 17.661251
67.015 18.395844
67.020 18.833969
67.025 18.982441
67.030 18.815262
67.035 19.099966
67.040 18.679773
67.045 18.462685
67.050 17.96666
67.055 17.506178
67.060 17.579901
67.065 17.6143
67.070 17.471069
67.075 17.178001
67.080 16.653212
67.085 16.647301
67.090 16.688875
67.095 16.710821
67.100 16.719038
67.105 16.867579
67.110 16.761362
67.115 17.105677
67.120 17.373573
67.125 17.270103
67.130 17.562233
67.135 17.389126
67.140 17.105104
67.145 17.341171
67.150 17.47505
67.155 17.702003
67.160 18.012005
67.165 18.479036
67.170 18.938553
67.175 18.833408
67.180 18.503508
67.185 18.108364
67.190 17.747904
67.195 17.802652
67.200 17.395325
67.205 17.262203
67.210 18.037832
67.215 18.65819
67.220 18.825558
67.225 18.648111
67.230 17.773945
67.235 16.928701
67.240 16.505394
67.245 15.998301
67.250 15.19859
67.255 15.120339
67.260 15.384398
67.265 16.288719
67.270 16.836811
67.275 17.061127
67.280 17.198408
67.285 17.543808
67.290 17.329193
67.295 17.117023
67.300 16.881126
67.305 16.775549
67.310 16.337608
67.315 16.163548
67.320 16.378729
67.325 16.469385
67.330 16.626795
67.335 16.778572
67.340 16.860617
67.345 17.127649
67.350 16.967087
67.355 17.092262
67.360 17.396585
67.365 17.5516
67.370 17.691355
67.375 17.670994
67.380 18.162561
67.385 18.212748
67.390 18.195871
67.395 18.138321
67.400 17.977938
67.405 17.56102
67.410 17.673037
67.415 17.587259
67.420 17.844917
67.425 17.967823
67.430 17.622883
67.435 17.353527
67.440 17.241844
67.445 17.443691
67.450 17.763262
67.455 17.670443
67.460 17.464064
67.465 17.702106
67.470 17.89719
67.475 17.955105
67.480 17.730494
67.485 17.774418
67.490 17.698534
67.495 17.645372
67.500 17.964336
67.505 18.158779
67.510 19.066658
67.515 19.220627
67.520 18.702389
67.525 18.385206
67.530 18.343586
67.535 18.276325
67.540 17.806082
67.545 17.216589
67.550 17.201986
67.555 17.675619
67.560 18.107416
67.565 18.125877
67.570 18.394777
67.575 18.927057
67.580 19.19603
67.585 19.135744
67.590 18.6567
67.595 18.105305
67.600 17.423771
67.605 16.712067
67.610 16.792622
67.615 16.800932
67.620 17.08279
67.625 17.575632
67.630 18.569668
67.635 19.131086
67.640 19.435698
67.645 19.062628
67.650 18.971823
67.655 18.620354
67.660 18.482748
67.665 18.540623
67.670 18.65465
67.675 19.471071
67.680 19.961727
67.685 20.284405
67.690 19.986227
67.695 19.565771
67.700 18.504868
67.705 18.517874
67.710 17.422113
67.715 16.57806
67.720 16.188303
67.725 17.18144
67.730 17.602823
67.735 18.114719
67.740 17.560373
67.745 17.772646
67.750 18.334295
67.755 18.839096
67.760 19.021757
67.765 19.083147
67.770 19.105978
67.775 20.042992
67.780 19.956871
67.785 19.393856
67.790 19.26329
67.795 18.915796
67.800 18.835402
67.805 19.1474
67.810 18.551489
67.815 19.164993
67.820 19.396311
67.825 19.13579
67.830 19.503935
67.835 19.299509
67.840 18.985088
67.845 19.262983
67.850 19.338013
67.855 19.558558
67.860 19.538698
67.865 18.726418
67.870 18.686747
67.875 18.072929
67.880 17.00843
67.885 16.577051
67.890 16.573891
67.895 16.952351
67.900 17.593271
67.905 18.078917
67.910 18.41445
67.915 18.464216
67.920 18.519962
67.925 17.876629
67.930 17.995564
67.935 18.111763
67.940 17.835135
67.945 17.884775
67.950 18.164103
67.955 18.310406
67.960 18.738371
67.965 18.882463
67.970 18.907389
67.975 19.42429
67.980 20.178438
67.985 20.367695
67.990 20.236092
67.995 19.906239
68.000 19.273033
68.005 19.948954
68.010 19.517691
68.015 18.862823
68.020 19.135864
68.025 18.749296
68.030 18.966244
68.035 19.294889
68.040 18.473934
68.045 18.630953
68.050 18.615694
68.055 18.420185
68.060 18.736296
68.065 18.352097
68.070 17.545366
68.075 17.571932
68.080 18.027843
68.085 18.419331
68.090 18.387978
68.095 18.591896
68.100 18.676584
68.105 18.944843
68.110 19.390308
68.115 19.061464
68.120 18.698153
68.125 18.59111
68.130 18.62735
68.135 18.923893
68.140 19.462568
68.145 19.212841
68.150 19.047506
68.155 19.573162
68.160 19.930763
68.165 19.759621
68.170 19.473848
68.175 19.046579
68.180 19.221989
68.185 19.84144
68.190 19.149069
68.195 18.633581
68.200 18.718847
68.205 18.634863
68.210 18.734505
68.215 18.189333
68.220 17.962933
68.225 18.374718
68.230 18.568521
68.235 18.478638
68.240 19.130556
68.245 18.628025
68.250 19.094515
68.255 19.460054
68.260 19.437359
68.265 19.787355
68.270 20.561441
68.275 20.124714
68.280 20.557167
68.285 20.114775
68.290 19.341768
68.295 19.219061
68.300 19.368042
68.305 18.969761
68.310 19.585381
68.315 19.826643
68.320 19.865566
68.325 21.225533
68.330 21.858656
68.335 21.349947
68.340 21.138748
68.345 20.987696
68.350 21.81164
68.355 21.906824
68.360 21.789692
68.365 21.842962
68.370 21.910374
68.375 21.717216
68.380 22.058994
68.385 22.230955
68.390 22.265705
68.395 22.883884
68.400 23.029957
68.405 23.946774
68.410 24.668114
68.415 24.743553
68.420 24.940067
68.425 25.370815
68.430 24.768503
68.435 24.882137
68.440 24.725712
68.445 24.223494
68.450 24.315802
68.455 23.837626
68.460 23.78237
68.465 23.876013
68.470 24.2647
68.475 24.407148
68.480 24.815857
68.485 24.709133
68.490 24.74073
68.495 24.767252
68.500 24.788277
68.505 24.448246
68.510 24.583345
68.515 24.950932
68.520 25.229969
68.525 25.898331
68.530 26.017881
68.535 26.066437
68.540 26.03927
68.545 26.438231
68.550 27.104658
68.555 28.149145
68.560 28.339308
68.565 29.062511
68.570 29.668917
68.575 30.150558
68.580 29.427925
68.585 28.843063
68.590 28.246553
68.595 28.342779
68.600 28.274857
68.605 28.025602
68.610 28.103102
68.615 28.496319
68.620 28.716608
68.625 29.761398
68.630 29.967999
68.635 30.005823
68.640 30.088833
68.645 29.710815
68.650 29.622589
68.655 28.589384
68.660 27.740335
68.665 27.739494
68.670 28.817778
68.675 30.154881
68.680 30.69105
68.685 31.410336
68.690 32.389679
68.695 32.527744
68.700 32.343071
68.705 31.505053
68.710 31.353439
68.715 32.18335
68.720 32.335571
68.725 32.85252
68.730 33.330704
68.735 33.796303
68.740 34.096935
68.745 33.837669
68.750 33.35228
68.755 33.124908
68.760 33.402027
68.765 34.040291
68.770 33.584274
68.775 33.85886
68.780 35.068001
68.785 35.030411
68.790 34.962662
68.795 34.760784
68.800 34.389156
68.805 33.93174
68.810 33.528477
68.815 33.540012
68.820 34.280113
68.825 34.486481
68.830 34.573811
68.835 34.877228
68.840 36.004196
68.845 35.626171
68.850 35.26799
68.855 35.178455
68.860 35.477543
68.865 35.5228
68.870 35.41748
68.875 34.799759
68.880 34.45126
68.885 34.071957
68.890 33.938442
68.895 33.872032
68.900 33.874573
68.905 33.097107
68.910 33.164684
68.915 33.656181
68.920 34.052795
68.925 33.845684
68.930 33.769115
68.935 33.993973
68.940 34.380047
68.945 34.133839
68.950 33.465839
68.955 33.094719
68.960 33.429695
68.965 34.180794
68.970 35.259357
68.975 35.997196
68.980 36.446449
68.985 36.842644
68.990 37.457684
68.995 36.840801
69.000 35.674099
69.005 34.563999
69.010 34.149521
69.015 34.300201
69.020 34.195648
69.025 33.526154
69.030 33.442703
69.035 32.720181
69.040 32.422062
69.045 32.16848
69.050 31.653938
69.055 30.955276
69.060 30.721138
69.065 30.873899
69.070 31.73723
69.075 31.488947
69.080 31.090746
69.085 31.4893
69.090 32.15617
69.095 32.260223
69.100 32.030548
69.105 32.257477
69.110 31.492411
69.115 31.171581
69.120 30.455183
69.125 30.070431
69.130 30.02277
69.135 29.305422
69.140 28.497179
69.145 28.84326
69.150 28.788668
69.155 28.505587
69.160 27.949461
69.165 27.790556
69.170 27.907017
69.175 28.340685
69.180 28.618435
69.185 28.751316
69.190 28.462542
69.195 28.820385
69.200 28.511692
69.205 27.725224
69.210 27.036247
69.215 26.930332
69.220 27.484608
69.225 27.385756
69.230 26.68804
69.235 26.477238
69.240 25.837486
69.245 25.371031
69.250 25.247143
69.255 24.064774
69.260 24.602274
69.265 24.707146
69.270 24.233006
69.275 24.156673
69.280 22.967981
69.285 22.095556
69.290 22.372215
69.295 22.201612
69.300 22.951473
69.305 23.19681
69.310 23.571699
69.315 24.145088
69.320 24.489689
69.325 23.875622
69.330 23.328239
69.335 23.260427
69.340 23.700527
69.345 23.318937
69.350 23.425228
69.355 22.97691
69.360 23.359238
69.365 22.901739
69.370 21.892792
69.375 21.284723
69.380 21.138847
69.385 20.791285
69.390 21.171675
69.395 20.473509
69.400 21.157101
69.405 22.150652
69.410 22.01088
69.415 21.493931
69.420 21.167803
69.425 21.061386
69.430 21.616646
69.435 21.249203
69.440 20.985792
69.445 21.369249
69.450 22.432081
69.455 22.222475
69.460 21.579058
69.465 20.810057
69.470 20.410402
69.475 20.317724
69.480 19.991579
69.485 19.408432
69.490 19.55842
69.495 19.515808
69.500 19.747536
69.505 19.725517
69.510 19.461445
69.515 19.72126
69.520 19.785753
69.525 20.135687
69.530 20.304279
69.535 20.19853
69.540 20.678984
69.545 20.851206
69.550 20.356409
69.555 20.226805
69.560 19.867777
69.565 19.509941
69.570 19.310793
69.575 19.182379
69.580 19.171228
69.585 19.015182
69.590 18.895796
69.595 19.391689
69.600 19.452829
69.605 18.873751
69.610 18.731112
69.615 18.877735
69.620 19.041374
69.625 19.707586
69.630 19.51453
69.635 20.27043
69.640 20.409546
69.645 20.214365
69.650 19.664289
69.655 19.326998
69.660 18.914106
69.665 18.549578
69.670 18.005999
69.675 18.483065
69.680 18.593029
69.685 18.805803
69.690 19.075741
69.695 18.671963
69.700 19.001154
69.705 19.213594
69.710 18.688341
69.715 18.320196
69.720 18.712748
69.725 18.337126
69.730 18.664782
69.735 18.385582
69.740 18.238308
69.745 18.235363
69.750 18.081013
69.755 17.972063
69.760 18.340391
69.765 18.650476
69.770 19.267828
69.775 19.449238
69.780 19.91667
69.785 20.538492
69.790 20.490515
69.795 20.517603
69.800 19.7957
69.805 19.205311
69.810 19.346292
69.815 19.28289
69.820 19.086365
69.825 19.271267
69.830 20.063843
69.835 21.143362
69.840 21.103588
69.845 21.12923
69.850 21.054754
69.855 21.316496
69.860 21.163843
69.865 20.478865
69.870 20.10774
69.875 20.459473
69.880 20.51297
69.885 20.354147
69.890 20.511164
69.895 19.36635
69.900 19.415735
69.905 19.264488
69.910 19.057526
69.915 19.064638
69.920 19.067257
69.925 18.61739
69.930 18.850105
69.935 18.362709
69.940 18.255735
69.945 17.912149
69.950 17.404013
69.955 17.32328
69.960 17.429712
69.965 17.055683
69.970 16.756479
69.975 16.788139
69.980 17.300167
69.985 17.8631
69.990 18.364824
69.995 18.497385
70.000 18.977564
70.005 19.241814
70.010 19.054176
70.015 18.803089
70.020 18.147778
70.025 18.11426
70.030 18.079224
70.035 18.012793
70.040 17.718315
70.045 17.451712
70.050 17.324053
70.055 17.813139
70.060 17.750322
70.065 17.698296
70.070 17.742027
70.075 17.9765
70.080 17.919201
70.085 18.151138
70.090 17.950489
70.095 17.724232
70.100 18.360415
70.105 18.510088
70.110 18.734257
70.115 18.778921
70.120 18.455122
70.125 18.714163
70.130 18.858046
70.135 18.344198
70.140 18.037039
70.145 18.143875
70.150 18.635473
70.155 18.808535
70.160 19.064369
70.165 18.747917
70.170 18.858644
70.175 19.365234
70.180 19.30015
70.185 19.102192
70.190 18.402981
70.195 17.780304
70.200 17.43601
70.205 17.379082
70.210 17.216049
70.215 16.96607
70.220 16.918882
70.225 17.167549
70.230 17.220402
70.235 17.675184
70.240 18.244249
70.245 18.290823
70.250 18.446728
70.255 18.7791
70.260 18.790436
70.265 18.729649
70.270 18.549761
70.275 17.759218
70.280 17.556206
70.285 17.814636
70.290 17.58095
70.295 17.746222
70.300 18.10977
70.305 17.568104
70.310 17.957504
70.315 18.361984
70.320 18.518951
70.325 18.504295
70.330 18.528362
70.335 18.339418
70.340 18.482353
70.345 18.847149
70.350 18.399748
70.355 17.830933
70.360 18.073957
70.365 17.708874
70.370 17.765388
70.375 17.42802
70.380 16.799942
70.385 16.779568
70.390 16.701694
70.395 16.62512
70.400 17.21006
70.405 17.652782
70.410 17.748768
70.415 18.021276
70.420 18.177998
70.425 18.546261
70.430 18.211763
70.435 17.874323
70.440 18.042339
70.445 17.650299
70.450 17.450037
70.455 17.357683
70.460 17.609028
70.465 17.673193
70.470 17.236828
70.475 17.526203
70.480 18.103706
70.485 18.061855
70.490 18.01882
70.495 17.705065
70.500 17.340395
70.505 17.272585
70.510 16.811953
70.515 17.206482
70.520 17.26796
70.525 17.353817
70.530 17.623438
70.535 18.165941
70.540 18.494629
70.545 18.29834
70.550 17.675594
70.555 17.25271
70.560 16.470089
70.565 16.291412
70.570 16.594236
70.575 16.278061
70.580 16.99497
70.585 17.969429
70.590 18.035524
70.595 18.716717
70.600 19.223543
70.605 19.009977
70.610 19.636992
70.615 20.084145
70.620 19.483692
70.625 19.372597
70.630 19.106871
70.635 18.979761
70.640 19.018631
70.645 18.512442
70.650 17.907539
70.655 18.216105
70.660 18.656544
70.665 18.974762
70.670 18.976444
70.675 18.688988
70.680 18.187828
70.685 18.146763
70.690 18.518126
70.695 18.483656
70.700 17.973295
70.705 17.918633
70.710 18.624203
70.715 18.440807
70.720 18.648569
70.725 18.323538
70.730 18.554712
70.735 18.34668
70.740 18.407495
70.745 18.296267
70.750 18.454781
70.755 18.442827
70.760 18.691761
70.765 18.589285
70.770 18.826479
70.775 18.487326
70.780 18.381592
70.785 17.797235
70.790 18.144369
70.795 17.684343
70.800 17.4823
70.805 17.68848
70.810 17.849817
70.815 18.223066
70.820 18.485685
70.825 18.11688
70.830 18.234533
70.835 18.215548
70.840 17.780378
70.845 17.411814
70.850 17.70178
70.855 17.746429
70.860 17.888464
70.865 18.57383
70.870 18.478817
70.875 18.38056
70.880 18.578505
70.885 18.144072
70.890 17.92045
70.895 17.79294
70.900 17.865074
70.905 17.999949
70.910 18.560129
70.915 18.509491
70.920 18.372986
70.925 18.127201
70.930 17.927139
70.935 17.011549
70.940 16.939095
70.945 16.897682
70.950 17.304531
70.955 17.186258
70.960 17.75211
70.965 17.75168
70.970 18.242373
70.975 18.416815
70.980 18.052092
70.985 17.695084
70.990 18.062603
70.995 17.271551
71.000 17.065462
71.005 16.694815
71.010 16.530479
71.015 16.40099
71.020 16.695969
71.025 16.852919
71.030 17.60593
71.035 18.517132
71.040 18.619364
71.045 18.307121
71.050 18.653854
71.055 18.815956
71.060 18.34894
71.065 17.564713
71.070 16.578291
71.075 16.620075
71.080 16.786804
71.085 16.512783
71.090 16.053385
71.095 16.225964
71.100 16.802301
71.105 17.112825
71.110 16.84021
71.115 16.576717
71.120 16.822422
71.125 17.317419
71.130 17.107224
71.135 16.533823
71.140 16.64126
71.145 16.655865
71.150 16.873911
71.155 17.023298
71.160 17.360792
71.165 18.227846
71.170 18.329967
71.175 18.237906
71.180 18.456587
71.185 18.192648
71.190 17.769852
71.195 17.685564
71.200 17.600773
71.205 18.000017
71.210 18.222218
71.215 18.955976
71.220 19.142185
71.225 18.795784
71.230 18.075352
71.235 18.460924
71.240 18.090275
71.245 17.578188
71.250 16.889956
71.255 16.769876
71.260 17.536133
71.265 18.724703
71.270 18.854755
71.275 19.0182
71.280 19.410606
71.285 19.56658
71.290 19.759661
71.295 18.991165
71.300 17.77817
71.305 17.371626
71.310 17.362503
71.315 17.053608
71.320 16.908276
71.325 16.936378
71.330 17.391682
71.335 17.032078
71.340 16.945419
71.345 17.0326
71.350 17.246904
71.355 16.990416
71.360 17.211443
71.365 17.364435
71.370 17.618029
71.375 17.89934
71.380 17.481297
71.385 17.502493
71.390 17.791626
71.395 18.131523
71.400 17.972059
71.405 17.907429
71.410 17.173717
71.415 17.796127
71.420 18.031519
71.425 17.776466
71.430 17.403364
71.435 18.026505
71.440 18.511715
71.445 19.137157
71.450 18.860268
71.455 19.115379
71.460 19.181604
71.465 19.429573
71.470 18.981472
71.475 18.708263
71.480 19.097843
71.485 19.041597
71.490 19.031025
71.495 18.848656
71.500 18.285227
71.505 18.207548
71.510 18.483618
71.515 18.586515
71.520 19.55719
71.525 19.815718
71.530 19.995977
71.535 20.527491
71.540 21.133532
71.545 20.917574
71.550 20.393604
71.555 19.702543
71.560 19.16293
71.565 19.255985
71.570 18.870132
71.575 18.184031
71.580 18.244755
71.585 18.256058
71.590 17.553316
71.595 17.650726
71.600 17.528074
71.605 17.233286
71.610 17.337931
71.615 17.545319
71.620 17.720335
71.625 18.419708
71.630 18.363346
71.635 18.831375
71.640 19.127348
71.645 19.122112
71.650 18.86656
71.655 18.846626
71.660 18.175446
71.665 17.957438
71.670 17.654501
71.675 17.552826
71.680 17.388958
71.685 17.302612
71.690 17.041565
71.695 17.289547
71.700 17.195431
71.705 16.643045
71.710 16.892738
71.715 16.402443
71.720 16.389011
71.725 16.719748
71.730 16.665092
71.735 17.116911
71.740 16.919155
71.745 16.646559
71.750 17.388393
71.755 17.500826
71.760 17.979483
71.765 17.618742
71.770 17.78965
71.775 18.194695
71.780 18.084883
71.785 17.555643
71.790 17.067614
71.795 16.74205
71.800 16.628599
71.805 16.266867
71.810 16.184355
71.815 16.473711
71.820 16.503956
71.825 16.895201
71.830 17.011005
71.835 16.666857
71.840 16.642736
71.845 16.694452
71.850 16.74966
71.855 16.527126
71.860 16.251173
71.865 16.391815
71.870 17.065058
71.875 18.113697
71.880 18.295576
71.885 18.26683
71.890 18.360163
71.895 18.075474
71.900 17.966053
71.905 17.565689
71.910 16.665344
71.915 16.283205
71.920 16.247486
71.925 16.291044
71.930 16.540684
71.935 16.880379
71.940 16.423477
71.945 16.497349
71.950 16.899748
71.955 16.955404
71.960 16.87081
71.965 17.329065
71.970 17.166422
71.975 17.523434
71.980 18.023989
71.985 18.139185
71.990 18.349895
71.995 18.466341
72.000 18.381678
72.005 18.410025
72.010 17.81761
72.015 17.019413
72.020 16.694054
72.025 16.55884
72.030 16.220911
72.035 16.00942
72.040 16.429089
72.045 16.331089
72.050 16.059336
72.055 16.184174
72.060 16.213209
72.065 16.5215
72.070 16.746071
72.075 16.704617
72.080 17.242811
72.085 17.392906
72.090 17.305227
72.095 17.369923
72.100 17.584707
72.105 17.458595
72.110 17.390368
72.115 17.133684
72.120 17.300772
72.125 17.287437
72.130 17.037743
72.135 16.695324
72.140 16.480841
72.145 17.050661
72.150 17.535112
72.155 17.648386
72.160 17.882769
72.165 18.342155
72.170 18.341801
72.175 18.355413
72.180 18.192322
72.185 18.104631
72.190 18.084547
72.195 17.996897
72.200 18.0993
72.205 18.379843
72.210 18.390928
72.215 18.506613
72.220 18.232126
72.225 17.912874
72.230 17.738176
72.235 17.858797
72.240 18.090353
72.245 18.078476
72.250 17.882435
72.255 17.977436
72.260 18.193304
72.265 17.659063
72.270 17.156075
72.275 17.200466
72.280 17.547747
72.285 17.662212
72.290 17.928335
72.295 18.291294
72.300 18.708389
72.305 19.049934
72.310 19.110489
72.315 19.399225
72.320 19.199873
72.325 18.888388
72.330 18.962305
72.335 18.986109
72.340 18.845808
72.345 18.299593
72.350 18.287354
72.355 18.831694
72.360 18.445183
72.365 18.115149
72.370 17.469574
72.375 17.088539
72.380 17.134018
72.385 16.494423
72.390 16.293001
72.395 16.535227
72.400 16.354763
72.405 16.498037
72.410 16.60372
72.415 16.674322
72.420 17.105696
72.425 16.726006
72.430 17.273201
72.435 17.865335
72.440 18.175747
72.445 18.18713
72.450 18.11797
72.455 18.477299
72.460 18.668646
72.465 17.949013
72.470 18.123665
72.475 18.405502
72.480 18.603542
72.485 18.311584
72.490 18.365875
72.495 18.690147
72.500 19.080805
72.505 18.492821
72.510 17.854378
72.515 17.307226
72.520 17.038952
72.525 16.959259
72.530 16.313469
72.535 16.016693
72.540 16.487257
72.545 16.351852
72.550 16.855743
72.555 17.021244
72.560 16.87458
72.565 16.839226
72.570 16.558392
72.575 16.154915
72.580 16.74814
72.585 16.704027
72.590 16.493975
72.595 16.557938
72.600 16.946287
72.605 17.29513
72.610 17.17318
72.615 17.01647
72.620 17.25741
72.625 17.984411
72.630 17.988743
72.635 17.89995
72.640 17.580572
72.645 17.93494
72.650 17.665197
72.655 17.401209
72.660 17.127375
72.665 16.986301
72.670 17.004633
72.675 17.818272
72.680 17.029839
72.685 16.554352
72.690 16.806566
72.695 17.07725
72.700 17.483191
72.705 17.357592
72.710 16.758224
72.715 17.502319
72.720 17.825741
72.725 18.313683
72.730 17.97533
72.735 18.084087
72.740 17.92461
72.745 18.216923
72.750 17.845453
72.755 17.31436
72.760 16.899702
72.765 17.164265
72.770 16.994459
72.775 16.995501
72.780 17.053738
72.785 17.76528
72.790 17.328066
72.795 16.97286
72.800 16.855768
72.805 17.288437
72.810 16.973484
72.815 16.753351
72.820 16.926884
72.825 16.806322
72.830 16.647673
72.835 16.731459
72.840 16.873398
72.845 17.487574
72.850 16.978067
72.855 16.123604
72.860 15.875425
72.865 15.827826
72.870 15.637805
72.875 14.907197
72.880 14.861467
72.885 15.224031
72.890 15.746648
72.895 15.811288
72.900 15.707476
72.905 15.333385
72.910 15.523226
72.915 15.122083
72.920 14.709317
72.925 14.998623
72.930 15.158911
72.935 15.199953
72.940 15.409765
72.945 15.582232
72.950 16.141283
72.955 16.26
72.960 15.787074
72.965 15.464088
72.970 15.332195
72.975 14.944274
72.980 15.122888
72.985 14.588248
72.990 15.012502
72.995 14.872927
73.000 14.820662
