!@!!GADDS PLOTSO FILE: Chi integration type
!@!!Title/SampleName: map-141
!@!!Comment: ?
!@!!User: Bruker Instrument Administrator
!@!!Site: University of Illinois Chicago
!@!!Frame: map-141_01_000.gfrm
!@!!Wavelengths    1.54184   1.54056   1.54439
!@!!Frame angles: 2Theta: 63.000 Omega: 50.000 Phi: 0.000 Chi: 90.000
!@!!Integration range: 2Theta: 53.000 to 73.000  Gamma: -105.000 to -75.000
!@!!Integration method: bin normalized
!@!N
!@!SS
!@!M
!@!L 0.0 0.0 0.0 0.0
!@!XDegrees
!@!YCounts
53.000 10.804388
53.005 10.7612
53.010 11.076353
53.015 10.928487
53.020 11.08396
53.025 11.018372
53.030 10.841811
53.035 10.273993
53.040 10.140744
53.045 9.564659
53.050 9.00211
53.055 9.391765
53.060 9.501817
53.065 9.769793
53.070 9.828171
53.075 10.310464
53.080 10.999352
53.085 10.992193
53.090 10.977067
53.095 11.058575
53.100 10.799548
53.105 10.407792
53.110 10.259571
53.115 10.207714
53.120 10.50875
53.125 10.121591
53.130 9.747543
53.135 9.958602
53.140 10.117648
53.145 9.941875
53.150 9.404909
53.155 9.392469
53.160 9.856502
53.165 10.124215
53.170 9.966253
53.175 9.899093
53.180 10.330773
53.185 10.645354
53.190 10.857243
53.195 10.669898
53.200 10.785089
53.205 10.803735
53.210 10.676799
53.215 10.62598
53.220 10.662127
53.225 10.873068
53.230 10.688108
53.235 10.636399
53.240 11.002364
53.245 11.022763
53.250 10.945287
53.255 10.682381
53.260 10.530398
53.265 10.421684
53.270 10.518509
53.275 10.334703
53.280 10.380898
53.285 10.367979
53.290 10.47232
53.295 11.137436
53.300 11.384436
53.305 11.452412
53.310 11.561891
53.315 11.494988
53.320 11.312621
53.325 10.954054
53.330 10.061303
53.335 9.625653
53.340 9.688808
53.345 9.450405
53.350 9.099788
53.355 9.333026
53.360 10.017884
53.365 10.467227
53.370 10.519072
53.375 10.721105
53.380 10.954996
53.385 11.411883
53.390 11.068009
53.395 10.801086
53.400 10.92748
53.405 10.804931
53.410 10.64804
53.415 10.799984
53.420 10.803734
53.425 10.793742
53.430 10.875388
53.435 11.031064
53.440 10.974724
53.445 10.948708
53.450 10.806481
53.455 10.665001
53.460 10.625863
53.465 10.501474
53.470 11.083841
53.475 11.489397
53.480 11.632836
53.485 11.354952
53.490 11.233731
53.495 11.399627
53.500 10.67362
53.505 9.955422
53.510 9.478475
53.515 8.980156
53.520 9.441419
53.525 9.755558
53.530 9.651505
53.535 9.81503
53.540 9.885377
53.545 10.0345
53.550 10.512975
53.555 10.776548
53.560 10.286703
53.565 10.217425
53.570 10.09381
53.575 10.518804
53.580 10.632481
53.585 9.99507
53.590 9.479292
53.595 9.961856
53.600 10.310667
53.605 10.84606
53.610 10.717182
53.615 10.971344
53.620 11.41371
53.625 12.077316
53.630 11.883801
53.635 11.504808
53.640 11.204022
53.645 10.996846
53.650 10.451898
53.655 10.361941
53.660 10.119244
53.665 10.297651
53.670 10.591843
53.675 10.459809
53.680 10.621974
53.685 11.030815
53.690 11.145681
53.695 10.920835
53.700 10.767904
53.705 10.755571
53.710 10.74438
53.715 10.593941
53.720 10.333373
53.725 9.922336
53.730 9.879292
53.735 9.287992
53.740 9.057125
53.745 9.095943
53.750 9.111244
53.755 9.631894
53.760 10.135246
53.765 10.889225
53.770 11.061649
53.775 11.43158
53.780 11.564863
53.785 11.351787
53.790 11.035513
53.795 11.21659
53.800 11.2901
53.805 11.861686
53.810 11.783581
53.815 11.660752
53.820 11.630756
53.825 11.408095
53.830 11.113103
53.835 10.547049
53.840 9.994703
53.845 10.071715
53.850 10.557457
53.855 10.957896
53.860 11.01657
53.865 10.810689
53.870 11.017586
53.875 11.06218
53.880 11.561523
53.885 11.563824
53.890 11.123878
53.895 11.43534
53.900 11.765564
53.905 11.742352
53.910 11.263532
53.915 10.516701
53.920 10.558095
53.925 10.876166
53.930 10.731238
53.935 10.344215
53.940 10.335324
53.945 10.841747
53.950 11.324678
53.955 10.782722
53.960 10.43522
53.965 10.250764
53.970 10.607431
53.975 10.76094
53.980 10.392418
53.985 10.006091
53.990 10.332389
53.995 10.615413
54.000 10.553188
54.005 10.53009
54.010 10.428388
54.015 10.97819
54.020 11.004327
54.025 10.936829
54.030 10.89986
54.035 11.051822
54.040 11.029038
54.045 11.45178
54.050 11.484221
54.055 11.258634
54.060 10.81918
54.065 10.903518
54.070 10.950999
54.075 10.613015
54.080 9.934552
54.085 9.948601
54.090 10.487528
54.095 10.610104
54.100 11.102187
54.105 11.53636
54.110 11.604541
54.115 11.608208
54.120 11.393581
54.125 11.419946
54.130 11.228851
54.135 10.214057
54.140 9.886173
54.145 9.925471
54.150 9.773928
54.155 9.65312
54.160 9.581836
54.165 9.942988
54.170 10.040457
54.175 10.272538
54.180 10.716032
54.185 11.035253
54.190 11.261991
54.195 11.458282
54.200 11.563405
54.205 11.979413
54.210 11.758923
54.215 11.77876
54.220 12.019853
54.225 12.013876
54.230 11.954231
54.235 11.84447
54.240 11.996331
54.245 11.855889
54.250 11.473355
54.255 11.002286
54.260 10.827157
54.265 10.864251
54.270 10.931765
54.275 10.953605
54.280 11.085244
54.285 11.263054
54.290 11.519218
54.295 11.601409
54.300 11.646345
54.305 11.533514
54.310 11.695543
54.315 11.745363
54.320 11.896009
54.325 11.736604
54.330 11.577127
54.335 11.85258
54.340 12.127389
54.345 12.162462
54.350 11.753883
54.355 11.651775
54.360 11.733434
54.365 11.773842
54.370 11.410104
54.375 11.084128
54.380 11.45574
54.385 11.890758
54.390 11.985081
54.395 11.753809
54.400 12.089056
54.405 12.592959
54.410 12.455124
54.415 12.480422
54.420 12.640793
54.425 12.944197
54.430 12.71316
54.435 12.244783
54.440 11.716262
54.445 11.455071
54.450 11.133637
54.455 10.908598
54.460 10.821145
54.465 11.385682
54.470 11.734538
54.475 12.067452
54.480 12.140171
54.485 11.778727
54.490 11.658981
54.495 11.735345
54.500 11.379653
54.505 10.685052
54.510 10.900348
54.515 10.932906
54.520 11.082129
54.525 10.985834
54.530 10.836383
54.535 11.016885
54.540 11.114673
54.545 10.704831
54.550 10.446357
54.555 10.464069
54.560 10.510545
54.565 10.247637
54.570 10.544946
54.575 10.471512
54.580 10.69026
54.585 10.868203
54.590 10.732327
54.595 10.813486
54.600 10.96706
54.605 10.870136
54.610 10.981782
54.615 10.799588
54.620 10.68069
54.625 10.745529
54.630 10.870194
54.635 10.910666
54.640 11.057088
54.645 11.427116
54.650 12.368143
54.655 12.697346
54.660 12.664901
54.665 13.076674
54.670 13.028521
54.675 12.392605
54.680 12.129413
54.685 11.406323
54.690 11.315263
54.695 11.342531
54.700 10.845215
54.705 10.644876
54.710 11.025518
54.715 10.993698
54.720 11.054217
54.725 10.832059
54.730 10.70531
54.735 10.755419
54.740 10.877645
54.745 10.595849
54.750 10.842134
54.755 11.042231
54.760 11.00229
54.765 10.86322
54.770 11.373764
54.775 11.50202
54.780 11.493623
54.785 11.556932
54.790 11.833835
54.795 12.042747
54.800 12.172092
54.805 12.096436
54.810 11.686874
54.815 11.440989
54.820 11.227841
54.825 11.199254
54.830 11.265323
54.835 11.446907
54.840 11.315798
54.845 11.819983
54.850 12.384238
54.855 11.877338
54.860 11.746453
54.865 11.409592
54.870 10.861789
54.875 11.675954
54.880 11.747683
54.885 11.801006
54.890 12.457491
54.895 12.324585
54.900 12.496202
54.905 12.881366
54.910 12.373433
54.915 12.524848
54.920 12.412475
54.925 12.181972
54.930 11.990905
54.935 11.826127
54.940 11.749787
54.945 11.648958
54.950 11.58239
54.955 11.271258
54.960 11.698477
54.965 11.863632
54.970 11.830039
54.975 11.336572
54.980 11.350652
54.985 11.727442
54.990 11.868459
54.995 11.926061
55.000 12.381148
55.005 12.107858
55.010 12.002909
55.015 11.894984
55.020 11.696654
55.025 11.69743
55.030 12.022868
55.035 12.206925
55.040 13.022156
55.045 13.399377
55.050 13.896727
55.055 13.641768
55.060 13.864464
55.065 13.420687
55.070 13.006384
55.075 13.017141
55.080 12.853583
55.085 12.074709
55.090 11.795358
55.095 11.458107
55.100 11.266697
55.105 11.315846
55.110 11.13685
55.115 11.322966
55.120 11.379695
55.125 11.314415
55.130 11.365724
55.135 11.702813
55.140 11.863702
55.145 11.85849
55.150 12.223816
55.155 12.60461
55.160 12.884804
55.165 13.370771
55.170 13.469649
55.175 13.794695
55.180 13.909225
55.185 13.745469
55.190 13.647229
55.195 13.635528
55.200 13.502131
55.205 13.122665
55.210 12.987614
55.215 12.774429
55.220 13.010496
55.225 13.02744
55.230 12.958877
55.235 12.860406
55.240 12.481987
55.245 12.233107
55.250 11.952122
55.255 11.869889
55.260 12.23297
55.265 11.744162
55.270 11.508562
55.275 11.838026
55.280 11.585828
55.285 11.404752
55.290 10.83812
55.295 10.765192
55.300 11.360324
55.305 11.85122
55.310 11.841793
55.315 11.896708
55.320 12.105842
55.325 11.808452
55.330 11.018582
55.335 10.75384
55.340 10.632381
55.345 10.924742
55.350 11.554594
55.355 11.863909
55.360 12.466434
55.365 12.89763
55.370 12.433239
55.375 12.415238
55.380 12.042335
55.385 11.68908
55.390 11.802194
55.395 11.805884
55.400 11.87914
55.405 12.265332
55.410 12.346897
55.415 12.665559
55.420 12.857396
55.425 12.823959
55.430 13.039457
55.435 12.888523
55.440 12.691916
55.445 12.420142
55.450 12.215522
55.455 12.278964
55.460 12.306715
55.465 12.354199
55.470 12.82028
55.475 12.718164
55.480 12.464887
55.485 12.418849
55.490 12.340355
55.495 12.399736
55.500 12.295623
55.505 11.747372
55.510 12.068042
55.515 12.430285
55.520 12.57468
55.525 12.421299
55.530 11.923985
55.535 12.422651
55.540 12.725032
55.545 12.506014
55.550 12.173046
55.555 11.94699
55.560 12.164069
55.565 12.072861
55.570 12.073429
55.575 11.757236
55.580 12.379498
55.585 12.52761
55.590 12.124123
55.595 12.075395
55.600 11.679343
55.605 11.516083
55.610 11.7116
55.615 11.003121
55.620 11.019587
55.625 11.399489
55.630 11.489251
55.635 11.377102
55.640 11.50808
55.645 11.795635
55.650 12.094524
55.655 12.471937
55.660 12.296319
55.665 12.760153
55.670 13.209104
55.675 12.917824
55.680 12.635104
55.685 12.696778
55.690 12.587172
55.695 12.318476
55.700 12.005615
55.705 12.266513
55.710 12.384725
55.715 12.29607
55.720 12.314501
55.725 12.666604
55.730 13.155032
55.735 13.300894
55.740 12.809032
55.745 13.454499
55.750 13.745311
55.755 13.392164
55.760 13.17487
55.765 13.224159
55.770 13.145681
55.775 13.3362
55.780 12.733274
55.785 12.278728
55.790 11.899582
55.795 11.678554
55.800 11.568993
55.805 11.722657
55.810 11.664775
55.815 11.948489
55.820 12.073485
55.825 12.119375
55.830 12.376786
55.835 12.333862
55.840 12.279889
55.845 12.632172
55.850 12.725286
55.855 12.812478
55.860 12.576961
55.865 12.513161
55.870 12.410974
55.875 12.259631
55.880 11.737444
55.885 11.649879
55.890 11.755762
55.895 11.849919
55.900 11.885519
55.905 12.082381
55.910 12.566624
55.915 12.507177
55.920 12.708688
55.925 12.803466
55.930 12.761892
55.935 12.869316
55.940 12.887512
55.945 12.50685
55.950 12.956251
55.955 13.378477
55.960 13.563875
55.965 13.594879
55.970 13.537268
55.975 13.839865
55.980 14.298915
55.985 14.131264
55.990 13.535012
55.995 13.881786
56.000 13.992763
56.005 13.493271
56.010 13.008537
56.015 12.481267
56.020 12.646933
56.025 13.218271
56.030 12.988873
56.035 13.090403
56.040 13.004481
56.045 12.917535
56.050 13.251657
56.055 12.853424
56.060 12.656423
56.065 12.347798
56.070 12.378085
56.075 12.74894
56.080 13.035058
56.085 12.784306
56.090 12.5706
56.095 12.544304
56.100 12.478752
56.105 12.489899
56.110 12.480725
56.115 12.213134
56.120 12.141901
56.125 12.302865
56.130 12.290927
56.135 12.269685
56.140 12.195015
56.145 11.812542
56.150 12.175819
56.155 12.760807
56.160 12.948189
56.165 12.629384
56.170 12.748425
56.175 13.107312
56.180 13.457283
56.185 13.155171
56.190 13.305361
56.195 13.116471
56.200 13.802724
56.205 13.869188
56.210 13.640843
56.215 14.0895
56.220 14.351115
56.225 14.368392
56.230 14.926147
56.235 14.921875
56.240 15.294502
56.245 15.943217
56.250 15.896912
56.255 15.822089
56.260 15.957566
56.265 15.530725
56.270 15.545227
56.275 15.396285
56.280 14.444796
56.285 13.896282
56.290 13.440386
56.295 13.073464
56.300 12.621163
56.305 12.688161
56.310 12.679076
56.315 12.491756
56.320 12.428741
56.325 12.326892
56.330 12.420723
56.335 12.387847
56.340 12.196245
56.345 12.154531
56.350 12.507325
56.355 12.72764
56.360 12.813721
56.365 13.09671
56.370 13.256545
56.375 13.501828
56.380 13.543429
56.385 13.751185
56.390 13.797194
56.395 13.798932
56.400 13.917504
56.405 13.776627
56.410 13.319324
56.415 12.90466
56.420 13.067896
56.425 13.200694
56.430 13.178553
56.435 12.55899
56.440 12.60446
56.445 12.970057
56.450 13.668794
56.455 13.930028
56.460 13.669336
56.465 14.072958
56.470 14.883583
56.475 14.768463
56.480 14.703004
56.485 14.073641
56.490 14.551602
56.495 15.269916
56.500 15.062547
56.505 15.004348
56.510 15.153987
56.515 15.433439
56.520 15.768421
56.525 15.078593
56.530 14.760118
56.535 14.505652
56.540 14.130909
56.545 14.050473
56.550 13.615691
56.555 13.680436
56.560 13.407063
56.565 13.369917
56.570 13.432846
56.575 13.848973
56.580 14.088073
56.585 14.367256
56.590 14.492648
56.595 14.71727
56.600 14.166252
56.605 13.884757
56.610 13.65804
56.615 13.584121
56.620 13.324104
56.625 13.429157
56.630 13.465533
56.635 13.959645
56.640 14.382587
56.645 14.213428
56.650 14.017735
56.655 14.058387
56.660 14.121379
56.665 14.169025
56.670 13.581119
56.675 13.204441
56.680 12.964289
56.685 12.601601
56.690 12.502391
56.695 12.387717
56.700 12.861751
56.705 12.986667
56.710 13.322271
56.715 13.788923
56.720 14.340989
56.725 14.207488
56.730 14.163128
56.735 14.593717
56.740 15.186131
56.745 15.205739
56.750 15.156513
56.755 15.201709
56.760 15.476469
56.765 15.333316
56.770 14.975462
56.775 14.808093
56.780 15.639011
56.785 15.77803
56.790 15.786375
56.795 15.66662
56.800 15.384244
56.805 15.459683
56.810 15.210215
56.815 14.066142
56.820 13.730594
56.825 13.618201
56.830 13.712136
56.835 14.015485
56.840 13.940389
56.845 13.416847
56.850 13.485346
56.855 13.666451
56.860 13.678304
56.865 13.465327
56.870 13.173228
56.875 13.021059
56.880 13.432228
56.885 13.457639
56.890 13.562825
56.895 13.754181
56.900 13.759781
56.905 13.891244
56.910 14.028882
56.915 14.150906
56.920 14.111831
56.925 14.336355
56.930 13.771564
56.935 13.871127
56.940 14.11419
56.945 14.509489
56.950 14.91312
56.955 15.092535
56.960 14.947419
56.965 15.234887
56.970 15.329298
56.975 15.09496
56.980 15.161322
56.985 15.027822
56.990 14.499429
56.995 14.085324
57.000 13.722474
57.005 13.324262
57.010 13.44762
57.015 13.186949
57.020 12.972412
57.025 13.322646
57.030 13.592298
57.035 14.157801
57.040 14.874611
57.045 15.01868
57.050 15.208136
57.055 15.480741
57.060 14.993932
57.065 14.742255
57.070 14.216676
57.075 13.691514
57.080 13.563457
57.085 13.675715
57.090 13.476712
57.095 13.800218
57.100 14.128807
57.105 14.170236
57.110 14.02863
57.115 13.625855
57.120 12.957997
57.125 12.589729
57.130 12.482303
57.135 12.486398
57.140 12.877333
57.145 13.10121
57.150 13.007429
57.155 13.017779
57.160 13.195808
57.165 13.635549
57.170 12.999778
57.175 12.022328
57.180 11.65475
57.185 12.137693
57.190 13.202836
57.195 13.332211
57.200 12.93125
57.205 13.152045
57.210 13.715362
57.215 13.763302
57.220 13.259857
57.225 12.89711
57.230 12.877036
57.235 13.057295
57.240 13.229927
57.245 13.397039
57.250 13.49859
57.255 13.356481
57.260 13.088617
57.265 13.00762
57.270 13.750662
57.275 13.875586
57.280 13.78601
57.285 13.842758
57.290 13.979477
57.295 14.114151
57.300 13.927393
57.305 13.497571
57.310 13.617735
57.315 13.69253
57.320 13.525914
57.325 13.175545
57.330 13.101367
57.335 13.512076
57.340 13.441648
57.345 13.337223
57.350 13.146121
57.355 13.396454
57.360 13.69783
57.365 13.800096
57.370 13.837815
57.375 13.965293
57.380 13.958529
57.385 14.205376
57.390 14.642099
57.395 14.90024
57.400 14.728276
57.405 14.065091
57.410 14.025322
57.415 13.681925
57.420 12.949858
57.425 12.456135
57.430 12.397566
57.435 12.730254
57.440 13.437379
57.445 13.513486
57.450 13.427978
57.455 14.08637
57.460 13.928749
57.465 13.709184
57.470 13.768676
57.475 13.7596
57.480 13.83002
57.485 14.67405
57.490 14.701991
57.495 14.88998
57.500 15.029471
57.505 14.558482
57.510 13.998304
57.515 13.731462
57.520 13.201872
57.525 13.360282
57.530 13.130623
57.535 13.076914
57.540 13.069071
57.545 13.412928
57.550 13.775819
57.555 13.726714
57.560 13.748699
57.565 14.152894
57.570 14.570327
57.575 14.808304
57.580 15.307454
57.585 15.317117
57.590 15.458279
57.595 15.299112
57.600 15.25838
57.605 14.726726
57.610 14.55669
57.615 13.893421
57.620 13.770287
57.625 14.133155
57.630 14.535085
57.635 14.433867
57.640 14.556611
57.645 14.377893
57.650 14.595296
57.655 14.628367
57.660 14.321032
57.665 14.38388
57.670 14.269011
57.675 14.489887
57.680 14.690342
57.685 14.745601
57.690 14.612369
57.695 14.692161
57.700 14.373683
57.705 14.505153
57.710 14.822248
57.715 15.17697
57.720 15.524973
57.725 15.754743
57.730 16.013613
57.735 16.032881
57.740 15.497832
57.745 15.139137
57.750 15.035992
57.755 14.558258
57.760 14.377229
57.765 14.202971
57.770 14.183162
57.775 14.507857
57.780 14.243174
57.785 13.753559
57.790 13.934111
57.795 13.654326
57.800 13.712741
57.805 13.381417
57.810 13.38864
57.815 13.82441
57.820 14.24792
57.825 14.172302
57.830 14.347365
57.835 14.297801
57.840 14.491247
57.845 14.806229
57.850 14.591709
57.855 14.566684
57.860 14.58257
57.865 14.108103
57.870 14.101426
57.875 13.925538
57.880 13.711987
57.885 13.188499
57.890 12.650483
57.895 12.581799
57.900 12.726554
57.905 12.776811
57.910 12.556106
57.915 12.44468
57.920 12.786181
57.925 13.345295
57.930 13.532638
57.935 14.117654
57.940 14.060058
57.945 14.32641
57.950 14.448889
57.955 14.892072
57.960 15.360946
57.965 15.472491
57.970 15.571816
57.975 16.186884
57.980 16.642769
57.985 16.731335
57.990 16.170502
57.995 15.873452
58.000 15.736658
58.005 15.219462
58.010 15.155483
58.015 14.62767
58.020 14.861004
58.025 15.119422
58.030 15.061852
58.035 15.409399
58.040 15.340328
58.045 15.427967
58.050 15.4162
58.055 15.221739
58.060 15.611133
58.065 15.417961
58.070 15.385028
58.075 15.68756
58.080 15.453759
58.085 15.469866
58.090 15.689435
58.095 15.108871
58.100 15.195259
58.105 15.252587
58.110 14.956902
58.115 14.94822
58.120 15.241922
58.125 15.032979
58.130 15.211961
58.135 15.117579
58.140 15.202699
58.145 15.398686
58.150 15.613249
58.155 15.867545
58.160 15.848977
58.165 15.761387
58.170 15.322392
58.175 14.848226
58.180 14.98338
58.185 14.48783
58.190 14.156121
58.195 14.291612
58.200 14.320853
58.205 15.058199
58.210 15.227137
58.215 14.728235
58.220 14.679977
58.225 14.156154
58.230 13.655946
58.235 13.817635
58.240 13.702657
58.245 13.386337
58.250 13.66104
58.255 13.920666
58.260 14.53721
58.265 14.80125
58.270 14.165604
58.275 13.657439
58.280 13.904648
58.285 13.84188
58.290 14.241594
58.295 13.92575
58.300 14.470675
58.305 15.469087
58.310 15.50709
58.315 15.352647
58.320 15.326362
58.325 14.679746
58.330 15.084153
58.335 15.084115
58.340 14.786585
58.345 14.883743
58.350 14.480379
58.355 14.459908
58.360 15.091615
58.365 14.901924
58.370 14.633446
58.375 14.563382
58.380 14.779226
58.385 15.194839
58.390 15.401928
58.395 15.247477
58.400 15.082349
58.405 15.066626
58.410 14.817251
58.415 14.223428
58.420 14.295599
58.425 14.46139
58.430 14.210248
58.435 14.3101
58.440 14.962313
58.445 15.544739
58.450 16.19944
58.455 15.983204
58.460 15.637635
58.465 15.850697
58.470 15.829392
58.475 15.079209
58.480 14.405603
58.485 14.179139
58.490 14.040882
58.495 14.138211
58.500 13.996783
58.505 13.941288
58.510 13.833881
58.515 13.773369
58.520 13.717052
58.525 14.028548
58.530 14.049942
58.535 14.18391
58.540 14.525098
58.545 15.00318
58.550 15.133524
58.555 15.332613
58.560 15.580767
58.565 15.954227
58.570 16.579367
58.575 16.88258
58.580 16.575033
58.585 16.664989
58.590 16.789713
58.595 16.416086
58.600 15.906008
58.605 15.106769
58.610 14.863121
58.615 15.705567
58.620 15.739844
58.625 15.759432
58.630 16.351526
58.635 16.649967
58.640 16.520592
58.645 16.343756
58.650 15.597712
58.655 15.4374
58.660 15.357679
58.665 15.403835
58.670 15.245693
58.675 15.93697
58.680 15.97829
58.685 16.600428
58.690 17.512218
58.695 17.799612
58.700 17.628813
58.705 17.515081
58.710 17.255495
58.715 17.449116
58.720 17.749144
58.725 17.433523
58.730 16.8846
58.735 16.852995
58.740 17.204525
58.745 17.113016
58.750 16.93021
58.755 16.760414
58.760 17.144348
58.765 17.748898
58.770 18.352688
58.775 18.044779
58.780 17.928001
58.785 17.971331
58.790 17.202805
58.795 16.359827
58.800 15.718429
58.805 14.939035
58.810 15.162313
58.815 15.331739
58.820 15.774747
58.825 16.67942
58.830 16.635096
58.835 16.394281
58.840 16.537741
58.845 16.31465
58.850 15.743247
58.855 15.13528
58.860 15.117718
58.865 15.296768
58.870 15.309114
58.875 15.041914
58.880 14.977715
58.885 15.169765
58.890 15.504885
58.895 15.610094
58.900 15.704672
58.905 15.626312
58.910 16.71843
58.915 17.264406
58.920 17.500483
58.925 16.970615
58.930 16.048279
58.935 15.882545
58.940 16.134281
58.945 15.666531
58.950 14.934607
58.955 14.973015
58.960 15.570253
58.965 16.397017
58.970 16.533335
58.975 16.663271
58.980 16.557688
58.985 16.918722
58.990 16.58078
58.995 15.954472
59.000 15.556745
59.005 15.440556
59.010 15.077806
59.015 15.0518
59.020 15.127016
59.025 15.238151
59.030 15.267648
59.035 15.564219
59.040 15.929655
59.045 15.651941
59.050 15.435675
59.055 15.552684
59.060 15.71749
59.065 15.58747
59.070 15.409682
59.075 15.069505
59.080 14.82722
59.085 15.080409
59.090 14.665875
59.095 14.76325
59.100 14.954947
59.105 14.743814
59.110 14.764682
59.115 15.412651
59.120 15.115639
59.125 15.349081
59.130 15.41641
59.135 15.555148
59.140 15.7678
59.145 16.35564
59.150 16.507309
59.155 16.646488
59.160 16.39093
59.165 16.226646
59.170 16.004904
59.175 15.973283
59.180 15.44979
59.185 15.014195
59.190 15.451051
59.195 15.696148
59.200 15.295448
59.205 15.273884
59.210 15.694779
59.215 15.799764
59.220 15.837051
59.225 15.606463
59.230 15.931576
59.235 16.178514
59.240 15.93517
59.245 15.890093
59.250 16.415403
59.255 16.595037
59.260 16.440018
59.265 16.138132
59.270 16.548559
59.275 16.931751
59.280 16.487637
59.285 15.594212
59.290 15.660139
59.295 15.95705
59.300 16.172598
59.305 15.829582
59.310 16.026909
59.315 16.421616
59.320 17.033684
59.325 16.685881
59.330 16.552099
59.335 16.538517
59.340 16.641443
59.345 16.383327
59.350 16.16568
59.355 16.178207
59.360 16.448673
59.365 16.296793
59.370 15.498143
59.375 15.21755
59.380 15.049994
59.385 15.331596
59.390 15.568856
59.395 15.042061
59.400 15.813574
59.405 16.448095
59.410 16.567753
59.415 16.48444
59.420 16.74081
59.425 16.515285
59.430 17.369804
59.435 16.719975
59.440 16.975756
59.445 17.103418
59.450 17.444035
59.455 17.094604
59.460 17.103943
59.465 16.716148
59.470 16.631115
59.475 16.459681
59.480 16.591427
59.485 16.284327
59.490 16.610626
59.495 17.210751
59.500 17.167505
59.505 17.507139
59.510 17.672012
59.515 18.039555
59.520 18.04833
59.525 17.844473
59.530 17.697577
59.535 17.827322
59.540 17.813704
59.545 17.338297
59.550 16.992243
59.555 17.040266
59.560 17.467045
59.565 17.69001
59.570 17.557909
59.575 17.38567
59.580 17.635401
59.585 17.692814
59.590 18.146832
59.595 17.56864
59.600 16.854095
59.605 17.117355
59.610 17.809469
59.615 18.095299
59.620 17.911386
59.625 18.0124
59.630 18.556261
59.635 19.258133
59.640 19.249588
59.645 18.896997
59.650 18.960682
59.655 18.876762
59.660 18.545958
59.665 18.360275
59.670 18.500008
59.675 17.900572
59.680 17.883739
59.685 17.646906
59.690 17.829718
59.695 17.066067
59.700 17.376144
59.705 17.072142
59.710 17.53689
59.715 18.176098
59.720 18.728369
59.725 19.40637
59.730 20.096411
59.735 20.210188
59.740 20.56422
59.745 20.886337
59.750 20.430229
59.755 20.126705
59.760 19.949461
59.765 20.198952
59.770 19.744831
59.775 19.51602
59.780 19.228052
59.785 19.242123
59.790 19.428486
59.795 19.159094
59.800 19.304911
59.805 19.846355
59.810 19.704338
59.815 19.849606
59.820 20.073215
59.825 19.879066
59.830 19.704441
59.835 19.296503
59.840 19.348022
59.845 20.092512
59.850 20.510115
59.855 20.26614
59.860 19.753231
59.865 19.665499
59.870 19.763689
59.875 19.522663
59.880 19.066984
59.885 18.766109
59.890 18.978127
59.895 19.175949
59.900 18.982904
59.905 18.90641
59.910 19.163115
59.915 18.759361
59.920 18.599333
59.925 18.933289
59.930 19.48852
59.935 19.864677
59.940 19.75708
59.945 19.730873
59.950 20.09878
59.955 20.063633
59.960 19.713272
59.965 19.543034
59.970 19.828146
59.975 19.780069
59.980 19.580536
59.985 19.978689
59.990 20.297358
59.995 20.543917
60.000 20.640442
60.005 20.926163
60.010 21.35581
60.015 21.873068
60.020 21.582844
60.025 20.834501
60.030 20.060415
60.035 19.484938
60.040 19.190544
60.045 19.337299
60.050 19.458199
60.055 19.761454
60.060 20.406239
60.065 20.770117
60.070 21.14542
60.075 21.415178
60.080 21.265524
60.085 21.215151
60.090 20.909546
60.095 20.559038
60.100 21.222633
60.105 21.264189
60.110 20.392248
60.115 20.103354
60.120 19.708282
60.125 19.729883
60.130 19.99618
60.135 19.8631
60.140 20.179218
60.145 20.361202
60.150 20.069925
60.155 19.993641
60.160 19.864847
60.165 19.989527
60.170 19.662727
60.175 19.321795
60.180 19.644588
60.185 20.193499
60.190 20.30047
60.195 19.91157
60.200 19.300512
60.205 19.283026
60.210 19.530573
60.215 19.286293
60.220 19.0865
60.225 18.916611
60.230 19.535643
60.235 19.885124
60.240 19.511187
60.245 18.647488
60.250 18.19286
60.255 18.155746
60.260 18.227577
60.265 17.988239
60.270 17.719425
60.275 17.569759
60.280 18.310738
60.285 18.446217
60.290 18.622389
60.295 18.887917
60.300 18.499426
60.305 18.73531
60.310 18.923058
60.315 18.614964
60.320 18.378962
60.325 18.290171
60.330 17.867128
60.335 18.101299
60.340 18.355249
60.345 18.740385
60.350 19.550858
60.355 19.586725
60.360 18.999063
60.365 18.799274
60.370 18.151485
60.375 17.955997
60.380 17.500887
60.385 16.687321
60.390 17.120083
60.395 16.927851
60.400 16.49288
60.405 16.037251
60.410 15.405253
60.415 15.276127
60.420 14.975024
60.425 14.487622
60.430 15.081788
60.435 16.232946
60.440 17.29952
60.445 17.928392
60.450 18.651764
60.455 19.184944
60.460 19.182882
60.465 19.235722
60.470 19.048443
60.475 19.267818
60.480 19.10881
60.485 18.362848
60.490 18.23082
60.495 17.934855
60.500 17.316414
60.505 17.266068
60.510 17.093246
60.515 16.604145
60.520 17.14328
60.525 17.276335
60.530 17.6474
60.535 17.792168
60.540 17.525467
60.545 17.30924
60.550 17.587479
60.555 17.91292
60.560 18.693981
60.565 19.052814
60.570 18.734169
60.575 18.721104
60.580 18.331516
60.585 17.893562
60.590 17.614826
60.595 17.080931
60.600 17.055124
60.605 17.628654
60.610 17.152407
60.615 17.462938
60.620 17.708311
60.625 17.164951
60.630 17.272177
60.635 17.190636
60.640 16.668528
60.645 17.571848
60.650 17.598822
60.655 17.782143
60.660 17.969023
60.665 17.554628
60.670 17.623514
60.675 18.224092
60.680 17.52627
60.685 17.362379
60.690 17.008833
60.695 17.058973
60.700 16.802374
60.705 16.82729
60.710 17.118324
60.715 17.071329
60.720 17.321005
60.725 17.321571
60.730 17.013382
60.735 17.5151
60.740 17.068548
60.745 16.588037
60.750 16.372683
60.755 16.742706
60.760 17.414215
60.765 18.028008
60.770 17.945267
60.775 17.334148
60.780 17.709274
60.785 18.060213
60.790 17.935396
60.795 17.472132
60.800 17.086092
60.805 16.90947
60.810 17.39039
60.815 17.225328
60.820 16.482529
60.825 15.918926
60.830 16.195501
60.835 15.872679
60.840 15.985273
60.845 15.906962
60.850 16.021793
60.855 16.129
60.860 15.6847
60.865 15.639619
60.870 15.707644
60.875 16.047245
60.880 16.12923
60.885 16.129301
60.890 16.655745
60.895 16.907646
60.900 16.901897
60.905 17.236967
60.910 16.928923
60.915 16.927958
60.920 16.918917
60.925 16.79398
60.930 17.061281
60.935 17.164415
60.940 17.257166
60.945 16.721746
60.950 16.357368
60.955 16.134527
60.960 15.804835
60.965 15.339803
60.970 14.753005
60.975 14.501541
60.980 15.208313
60.985 15.107944
60.990 15.206299
60.995 15.495357
61.000 16.041586
61.005 16.038031
61.010 15.549693
61.015 15.229786
61.020 15.970066
61.025 16.584072
61.030 16.076916
61.035 15.49953
61.040 15.784287
61.045 15.789731
61.050 16.229874
61.055 16.245831
61.060 16.218443
61.065 16.746782
61.070 16.732334
61.075 16.705927
61.080 16.998425
61.085 16.646975
61.090 15.995989
61.095 15.048793
61.100 15.143587
61.105 15.531458
61.110 15.296906
61.115 15.277976
61.120 14.838867
61.125 14.941616
61.130 15.259771
61.135 15.045181
61.140 14.807957
61.145 14.98294
61.150 14.604362
61.155 14.797641
61.160 14.944921
61.165 14.795119
61.170 14.872453
61.175 15.03631
61.180 15.440076
61.185 16.182528
61.190 16.1038
61.195 16.41959
61.200 16.905907
61.205 16.963242
61.210 17.03993
61.215 17.188332
61.220 17.138052
61.225 17.349394
61.230 16.939341
61.235 16.590097
61.240 16.303005
61.245 16.074226
61.250 15.979815
61.255 16.128454
61.260 15.968949
61.265 15.975695
61.270 15.990311
61.275 16.284388
61.280 16.556232
61.285 16.350298
61.290 15.710059
61.295 15.891006
61.300 16.247318
61.305 16.518757
61.310 16.638569
61.315 16.222876
61.320 16.255323
61.325 16.777544
61.330 16.45557
61.335 16.3666
61.340 16.432867
61.345 16.986631
61.350 17.521019
61.355 18.001339
61.360 17.96504
61.365 17.932644
61.370 17.718605
61.375 17.139572
61.380 16.752554
61.385 16.451212
61.390 15.655844
61.395 14.986789
61.400 14.8348
61.405 14.424695
61.410 14.334414
61.415 14.415242
61.420 14.629306
61.425 15.040496
61.430 15.589028
61.435 16.387014
61.440 17.196924
61.445 17.174284
61.450 17.011976
61.455 16.775888
61.460 16.568354
61.465 16.354269
61.470 15.812846
61.475 15.175726
61.480 15.570935
61.485 15.078679
61.490 14.994455
61.495 15.034634
61.500 15.213975
61.505 15.570248
61.510 15.839962
61.515 15.496818
61.520 15.621599
61.525 16.093519
61.530 16.34601
61.535 16.499418
61.540 16.314804
61.545 16.094097
61.550 16.461988
61.555 16.452183
61.560 16.284267
61.565 15.79046
61.570 16.054087
61.575 16.198458
61.580 16.879509
61.585 16.894667
61.590 17.041069
61.595 16.969845
61.600 17.176638
61.605 16.577671
61.610 16.159218
61.615 15.074374
61.620 15.20871
61.625 15.099514
61.630 15.11852
61.635 14.601326
61.640 14.932222
61.645 14.796064
61.650 14.966565
61.655 14.463971
61.660 14.763341
61.665 14.601398
61.670 15.568648
61.675 15.376477
61.680 15.551788
61.685 16.620008
61.690 17.199739
61.695 17.028212
61.700 17.010326
61.705 16.225571
61.710 16.055326
61.715 15.619113
61.720 14.504813
61.725 14.199103
61.730 14.64096
61.735 15.478023
61.740 15.731285
61.745 15.910732
61.750 16.564619
61.755 16.631588
61.760 15.775802
61.765 15.108284
61.770 14.619639
61.775 14.763829
61.780 14.809569
61.785 14.773092
61.790 15.497935
61.795 16.226582
61.800 16.191391
61.805 15.990294
61.810 16.025599
61.815 16.014294
61.820 16.201271
61.825 15.643424
61.830 15.350786
61.835 15.362368
61.840 15.877156
61.845 15.688204
61.850 15.469811
61.855 16.72056
61.860 17.539736
61.865 18.233204
61.870 18.104675
61.875 17.597403
61.880 18.11384
61.885 18.437267
61.890 17.436115
61.895 16.768225
61.900 16.776979
61.905 16.718315
61.910 16.615725
61.915 16.229815
61.920 16.12657
61.925 15.521253
61.930 15.51541
61.935 15.197449
61.940 15.542167
61.945 16.070763
61.950 16.321518
61.955 16.799452
61.960 16.881815
61.965 16.24473
61.970 16.439163
61.975 16.178062
61.980 15.923913
61.985 15.963928
61.990 15.696716
61.995 15.460856
62.000 15.716947
62.005 15.576549
62.010 15.803091
62.015 15.439792
62.020 14.82577
62.025 14.608741
62.030 15.13353
62.035 15.509144
62.040 16.080866
62.045 16.280468
62.050 16.220108
62.055 16.605585
62.060 16.400705
62.065 15.992336
62.070 15.891929
62.075 15.431305
62.080 15.254169
62.085 15.549511
62.090 15.293585
62.095 15.329719
62.100 15.636645
62.105 15.697186
62.110 15.778387
62.115 15.946103
62.120 16.189919
62.125 16.424742
62.130 16.988899
62.135 16.93248
62.140 16.888367
62.145 17.003141
62.150 16.453394
62.155 16.169716
62.160 16.186119
62.165 15.843966
62.170 16.074289
62.175 16.324781
62.180 16.492189
62.185 16.773783
62.190 16.545851
62.195 16.468494
62.200 16.612371
62.205 16.113129
62.210 16.052513
62.215 15.573129
62.220 15.072441
62.225 15.768171
62.230 15.793519
62.235 15.523784
62.240 15.572912
62.245 15.493566
62.250 16.060898
62.255 16.709591
62.260 16.385168
62.265 16.291288
62.270 16.261232
62.275 16.299885
62.280 15.74905
62.285 15.943892
62.290 15.889467
62.295 15.66521
62.300 16.105232
62.305 16.795565
62.310 17.219109
62.315 17.311609
62.320 17.359083
62.325 17.565802
62.330 17.393593
62.335 16.766638
62.340 15.878739
62.345 15.587165
62.350 15.705507
62.355 15.736731
62.360 15.893116
62.365 15.979488
62.370 16.457365
62.375 17.005455
62.380 17.22633
62.385 17.52244
62.390 17.367506
62.395 17.176018
62.400 17.016748
62.405 16.670307
62.410 16.722441
62.415 16.360052
62.420 15.542732
62.425 15.060434
62.430 15.293332
62.435 15.705291
62.440 15.800552
62.445 15.901506
62.450 16.445948
62.455 16.774073
62.460 16.744417
62.465 16.763458
62.470 16.73863
62.475 17.008005
62.480 16.846027
62.485 16.70162
62.490 16.325331
62.495 16.217529
62.500 15.873573
62.505 15.415217
62.510 14.643381
62.515 14.109989
62.520 14.185151
62.525 14.469749
62.530 14.515348
62.535 14.763927
62.540 15.505666
62.545 15.991426
62.550 16.105661
62.555 15.86209
62.560 16.012281
62.565 15.748307
62.570 15.250371
62.575 14.584968
62.580 14.744
62.585 15.163141
62.590 15.119361
62.595 15.294976
62.600 15.76957
62.605 16.234495
62.610 16.604376
62.615 16.540245
62.620 15.985771
62.625 16.004229
62.630 15.754591
62.635 16.01903
62.640 16.492754
62.645 17.000744
62.650 16.783453
62.655 16.933554
62.660 16.952883
62.665 16.890591
62.670 16.694422
62.675 16.609444
62.680 16.168713
62.685 16.268894
62.690 16.545809
62.695 16.343941
62.700 16.224735
62.705 16.468231
62.710 16.253883
62.715 16.569017
62.720 16.683044
62.725 16.33172
62.730 16.878258
62.735 17.007816
62.740 16.562008
62.745 16.887817
62.750 16.732145
62.755 16.292818
62.760 16.700348
62.765 16.982857
62.770 17.079224
62.775 16.682945
62.780 16.604885
62.785 16.826654
62.790 17.104456
62.795 16.681633
62.800 16.153202
62.805 16.592546
62.810 16.70863
62.815 15.781162
62.820 15.70316
62.825 15.748735
62.830 16.182451
62.835 16.485424
62.840 16.254768
62.845 16.539587
62.850 17.089685
62.855 17.219061
62.860 17.291578
62.865 17.481939
62.870 17.437777
62.875 17.30122
62.880 17.145563
62.885 16.747633
62.890 16.3825
62.895 16.500631
62.900 16.254433
62.905 15.982976
62.910 15.337366
62.915 15.278564
62.920 15.730578
62.925 16.070795
62.930 15.592774
62.935 15.479116
62.940 15.67997
62.945 16.451969
62.950 16.366116
62.955 15.696575
62.960 15.56404
62.965 15.681775
62.970 16.097374
62.975 16.034805
62.980 15.540112
62.985 15.436387
62.990 16.067577
62.995 16.07395
63.000 15.860179
63.005 15.539471
63.010 15.931226
63.015 15.785813
63.020 15.944044
63.025 15.751028
63.030 15.84593
63.035 15.887385
63.040 15.586319
63.045 15.521697
63.050 15.917233
63.055 16.222895
63.060 16.457438
63.065 16.297422
63.070 16.602551
63.075 16.77033
63.080 16.73333
63.085 17.070456
63.090 17.329582
63.095 17.296255
63.100 17.623846
63.105 17.827639
63.110 17.635534
63.115 17.350695
63.120 17.080656
63.125 16.893066
63.130 16.806007
63.135 16.750486
63.140 16.571976
63.145 16.338688
63.150 16.040495
63.155 15.732616
63.160 15.22576
63.165 15.128838
63.170 14.356317
63.175 13.886985
63.180 14.036754
63.185 14.496864
63.190 14.446022
63.195 14.677737
63.200 14.261826
63.205 14.540598
63.210 14.951605
63.215 15.218199
63.220 15.285287
63.225 15.183213
63.230 14.551292
63.235 14.802767
63.240 15.562297
63.245 15.988603
63.250 16.319111
63.255 16.289047
63.260 16.733202
63.265 17.230436
63.270 17.224888
63.275 16.94013
63.280 16.169617
63.285 16.418346
63.290 16.452953
63.295 16.438377
63.300 17.192816
63.305 17.69879
63.310 17.654003
63.315 17.966627
63.320 17.614937
63.325 17.71364
63.330 17.693501
63.335 16.873302
63.340 16.058233
63.345 16.024504
63.350 15.919294
63.355 15.929739
63.360 15.642997
63.365 15.491612
63.370 15.536332
63.375 16.047014
63.380 16.20248
63.385 16.540411
63.390 16.31921
63.395 16.400497
63.400 16.890163
63.405 17.270584
63.410 17.707399
63.415 17.557999
63.420 16.753008
63.425 16.840866
63.430 16.814129
63.435 16.226778
63.440 15.917754
63.445 15.348528
63.450 15.405931
63.455 15.889892
63.460 15.959137
63.465 16.246422
63.470 16.046144
63.475 15.661857
63.480 15.593364
63.485 15.831986
63.490 16.030064
63.495 16.034279
63.500 15.851192
63.505 16.82127
63.510 17.171003
63.515 17.304468
63.520 17.540169
63.525 17.622768
63.530 17.933451
63.535 18.002705
63.540 17.414106
63.545 17.479719
63.550 17.113514
63.555 17.363445
63.560 17.629053
63.565 17.549715
63.570 17.342001
63.575 17.522488
63.580 17.759819
63.585 17.820137
63.590 17.535503
63.595 17.456036
63.600 17.623089
63.605 17.840672
63.610 17.381628
63.615 16.924068
63.620 17.370996
63.625 16.394926
63.630 15.346626
63.635 15.048407
63.640 15.575231
63.645 16.433941
63.650 16.657528
63.655 16.154575
63.660 16.65131
63.665 17.791906
63.670 18.031553
63.675 17.739857
63.680 17.487324
63.685 17.729441
63.690 18.241537
63.695 18.259867
63.700 17.316853
63.705 16.650328
63.710 16.5161
63.715 16.314899
63.720 16.03742
63.725 15.454873
63.730 15.767786
63.735 16.444822
63.740 16.671148
63.745 16.514605
63.750 15.895961
63.755 16.085754
63.760 16.439915
63.765 16.09469
63.770 16.031841
63.775 16.439804
63.780 16.711746
63.785 17.055149
63.790 17.011158
63.795 17.146128
63.800 17.286283
63.805 17.714214
63.810 18.017359
63.815 18.446737
63.820 18.477022
63.825 18.525307
63.830 18.659946
63.835 18.883335
63.840 18.742949
63.845 18.028381
63.850 17.732395
63.855 17.609629
63.860 17.779142
63.865 17.977026
63.870 17.511827
63.875 16.738459
63.880 16.622778
63.885 16.64893
63.890 16.508217
63.895 15.794081
63.900 15.565145
63.905 15.970523
63.910 16.560352
63.915 16.733763
63.920 16.769106
63.925 17.022943
63.930 17.875496
63.935 17.901331
63.940 17.59153
63.945 17.34812
63.950 17.093124
63.955 17.848711
63.960 18.39683
63.965 18.297396
63.970 18.719374
63.975 18.945782
63.980 19.415775
63.985 19.823185
63.990 19.385769
63.995 19.626013
64.000 19.802944
64.005 19.816462
64.010 19.567245
64.015 19.917068
64.020 20.61857
64.025 20.747608
64.030 20.141291
64.035 19.556473
64.040 18.861536
64.045 18.675619
64.050 18.186476
64.055 17.518652
64.060 16.886694
64.065 17.557718
64.070 18.200003
64.075 18.717897
64.080 18.590061
64.085 18.511324
64.090 18.907351
64.095 19.185505
64.100 18.217825
64.105 17.580429
64.110 17.802246
64.115 18.215996
64.120 17.682606
64.125 16.712278
64.130 16.707552
64.135 17.590738
64.140 18.263124
64.145 17.784361
64.150 17.866095
64.155 18.39283
64.160 18.868368
64.165 18.688904
64.170 17.933552
64.175 17.694208
64.180 17.801807
64.185 17.57786
64.190 17.582096
64.195 17.377483
64.200 17.486408
64.205 17.382349
64.210 17.188946
64.215 17.285355
64.220 17.285896
64.225 16.874935
64.230 17.415049
64.235 17.024317
64.240 17.441584
64.245 17.60523
64.250 17.65395
64.255 18.270508
64.260 18.531847
64.265 18.653093
64.270 18.687038
64.275 18.233812
64.280 17.954346
64.285 18.083134
64.290 18.136644
64.295 17.824465
64.300 17.635895
64.305 17.931833
64.310 18.242189
64.315 18.261768
64.320 17.74497
64.325 17.262152
64.330 17.528156
64.335 17.761618
64.340 17.852291
64.345 18.201002
64.350 18.220301
64.355 18.477865
64.360 18.391768
64.365 18.318396
64.370 17.766895
64.375 17.431295
64.380 17.369301
64.385 17.465837
64.390 17.386986
64.395 17.905912
64.400 18.015556
64.405 18.602079
64.410 18.957098
64.415 18.410706
64.420 18.352766
64.425 18.602043
64.430 18.633682
64.435 18.868784
64.440 18.890266
64.445 19.501663
64.450 20.276657
64.455 20.210173
64.460 19.937302
64.465 20.004242
64.470 20.063341
64.475 19.41473
64.480 18.540174
64.485 18.409885
64.490 18.799362
64.495 18.698147
64.500 17.966822
64.505 18.48662
64.510 18.742235
64.515 18.688498
64.520 18.593929
64.525 18.234095
64.530 18.620155
64.535 19.237926
64.540 18.849636
64.545 19.225252
64.550 19.948879
64.555 20.424726
64.560 20.634029
64.565 20.274765
64.570 19.674952
64.575 19.071507
64.580 18.533346
64.585 18.035654
64.590 17.685698
64.595 17.571692
64.600 17.43947
64.605 17.381777
64.610 18.157001
64.615 18.295815
64.620 18.353836
64.625 18.522327
64.630 18.858461
64.635 19.360428
64.640 19.580446
64.645 19.043058
64.650 19.603823
64.655 19.669176
64.660 19.689228
64.665 19.597288
64.670 19.840864
64.675 20.428856
64.680 20.477871
64.685 20.162294
64.690 20.314667
64.695 20.407845
64.700 20.975018
64.705 20.327473
64.710 19.346424
64.715 19.351013
64.720 19.601727
64.725 19.741184
64.730 19.258327
64.735 18.563475
64.740 18.754902
64.745 19.303881
64.750 19.409365
64.755 19.033657
64.760 18.81735
64.765 19.199205
64.770 19.169735
64.775 18.996971
64.780 19.12793
64.785 19.470938
64.790 20.496117
64.795 20.918432
64.800 20.767775
64.805 20.897009
64.810 21.507826
64.815 21.870382
64.820 21.395832
64.825 20.86956
64.830 20.455639
64.835 20.452238
64.840 20.581509
64.845 19.991625
64.850 19.533031
64.855 20.246813
64.860 20.482738
64.865 20.927858
64.870 21.408552
64.875 21.646708
64.880 22.456913
64.885 22.834364
64.890 22.717789
64.895 23.499454
64.900 23.766407
64.905 23.480862
64.910 24.314726
64.915 24.725067
64.920 24.836935
64.925 24.332458
64.930 23.098618
64.935 22.617706
64.940 22.573977
64.945 21.785006
64.950 21.120514
64.955 21.53809
64.960 22.346918
64.965 22.982952
64.970 23.614925
64.975 24.133942
64.980 24.568983
64.985 24.989275
64.990 24.956438
64.995 24.607912
65.000 23.806433
65.005 24.063044
65.010 24.65794
65.015 24.362955
65.020 24.3176
65.025 24.542557
65.030 24.958744
65.035 26.620377
65.040 26.569227
65.045 26.510193
65.050 26.893604
65.055 26.994223
65.060 27.0002
65.065 27.025389
65.070 26.331648
65.075 26.179939
65.080 25.741976
65.085 25.703365
65.090 25.185566
65.095 25.111231
65.100 24.669548
65.105 24.63868
65.110 24.45376
65.115 24.662043
65.120 24.905966
65.125 25.011127
65.130 24.542297
65.135 24.299839
65.140 24.06848
65.145 23.625011
65.150 23.722029
65.155 23.881842
65.160 23.859104
65.165 23.902819
65.170 24.272911
65.175 24.593706
65.180 24.953712
65.185 24.068598
65.190 23.263506
65.195 23.867558
65.200 24.409727
65.205 24.430889
65.210 24.043804
65.215 23.701935
65.220 24.139679
65.225 24.196045
65.230 23.994955
65.235 24.143789
65.240 24.082052
65.245 24.385702
65.250 24.504841
65.255 24.449326
65.260 24.373312
65.265 24.248695
65.270 24.724438
65.275 24.985769
65.280 24.991621
65.285 25.127579
65.290 25.165615
65.295 24.960772
65.300 24.570007
65.305 23.716593
65.310 23.427679
65.315 23.523716
65.320 23.459656
65.325 23.071821
65.330 23.526482
65.335 23.531942
65.340 23.098543
65.345 22.746616
65.350 22.246256
65.355 22.358419
65.360 22.933874
65.365 22.967175
65.370 22.748587
65.375 22.562143
65.380 23.145781
65.385 23.275059
65.390 23.143761
65.395 22.456867
65.400 22.284389
65.405 22.923758
65.410 23.917135
65.415 23.756538
65.420 23.141119
65.425 23.214985
65.430 23.514574
65.435 23.189968
65.440 23.022465
65.445 22.27895
65.450 21.769436
65.455 21.976938
65.460 21.942669
65.465 22.170992
65.470 22.381952
65.475 21.950951
65.480 21.317036
65.485 21.676836
65.490 22.235189
65.495 22.796335
65.500 22.960632
65.505 23.289032
65.510 23.960184
65.515 24.668043
65.520 24.930965
65.525 24.687117
65.530 24.745626
65.535 24.812426
65.540 25.433121
65.545 25.42326
65.550 25.569038
65.555 25.918671
65.560 26.208878
65.565 25.138628
65.570 24.464355
65.575 24.170681
65.580 24.85338
65.585 24.804094
65.590 24.423353
65.595 24.693727
65.600 25.797094
65.605 26.113855
65.610 25.618813
65.615 25.607859
65.620 25.513601
65.625 25.460772
65.630 24.967964
65.635 24.562485
65.640 24.428537
65.645 24.987236
65.650 25.569885
65.655 26.468636
65.660 27.181734
65.665 27.812019
65.670 28.138374
65.675 28.13566
65.680 28.001682
65.685 27.750437
65.690 27.682259
65.695 27.809734
65.700 27.939093
65.705 28.06109
65.710 28.822428
65.715 28.917736
65.720 28.783346
65.725 28.990828
65.730 29.171255
65.735 29.318781
65.740 29.577877
65.745 29.459253
65.750 29.680531
65.755 29.1399
65.760 28.80444
65.765 27.97953
65.770 27.694389
65.775 27.901508
65.780 28.378857
65.785 28.756355
65.790 29.752476
65.795 30.088524
65.800 30.292242
65.805 30.217342
65.810 29.85726
65.815 29.544117
65.820 29.415251
65.825 29.120039
65.830 29.455854
65.835 29.892187
65.840 30.396526
65.845 31.449526
65.850 31.675406
65.855 32.319271
65.860 32.241493
65.865 32.524445
65.870 32.455494
65.875 32.612099
65.880 32.240414
65.885 31.788273
65.890 31.524668
65.895 31.788822
65.900 31.953688
65.905 31.799963
65.910 31.754669
65.915 31.881044
65.920 31.780674
65.925 31.77199
65.930 31.748171
65.935 31.663683
65.940 31.949594
65.945 31.905365
65.950 31.996553
65.955 32.421062
65.960 32.806988
65.965 32.344898
65.970 32.754795
65.975 32.615101
65.980 32.24403
65.985 32.303207
65.990 31.950397
65.995 31.914679
66.000 32.047619
66.005 32.104885
66.010 32.215504
66.015 32.308231
66.020 32.067867
66.025 33.198921
66.030 32.757763
66.035 32.711254
66.040 32.715984
66.045 33.040016
66.050 32.578152
66.055 32.739723
66.060 32.178997
66.065 32.954735
66.070 33.102947
66.075 32.794998
66.080 32.226433
66.085 32.353294
66.090 32.079887
66.095 32.365906
66.100 32.58387
66.105 32.321407
66.110 32.373035
66.115 32.982719
66.120 32.688488
66.125 33.015049
66.130 33.177643
66.135 32.992241
66.140 33.138123
66.145 33.182652
66.150 33.592335
66.155 34.143795
66.160 34.322563
66.165 33.832348
66.170 33.575348
66.175 33.899117
66.180 33.393772
66.185 33.148659
66.190 33.04417
66.195 32.965256
66.200 32.820374
66.205 32.972679
66.210 32.484455
66.215 32.297569
66.220 32.322327
66.225 32.293236
66.230 32.201115
66.235 32.284039
66.240 32.622147
66.245 33.110836
66.250 33.224022
66.255 32.410473
66.260 32.022999
66.265 31.377968
66.270 30.588646
66.275 29.571825
66.280 28.867826
66.285 29.013971
66.290 29.003887
66.295 29.384613
66.300 30.618975
66.305 30.286272
66.310 29.804106
66.315 29.295399
66.320 29.424202
66.325 29.263313
66.330 28.628946
66.335 27.212132
66.340 26.96847
66.345 27.379431
66.350 27.268703
66.355 27.121632
66.360 26.826023
66.365 26.436647
66.370 26.982512
66.375 27.493103
66.380 27.574329
66.385 27.65123
66.390 27.644236
66.395 27.885433
66.400 28.029545
66.405 27.387861
66.410 27.017284
66.415 27.622175
66.420 28.413372
66.425 28.744272
66.430 28.532026
66.435 28.550751
66.440 28.5175
66.445 28.150177
66.450 27.657671
66.455 26.902514
66.460 25.807993
66.465 25.980742
66.470 25.760532
66.475 25.904085
66.480 25.962812
66.485 25.604153
66.490 25.754602
66.495 25.941528
66.500 25.546713
66.505 25.114674
66.510 24.666672
66.515 24.192682
66.520 23.947006
66.525 23.784449
66.530 23.79974
66.535 23.508486
66.540 23.830496
66.545 24.710197
66.550 24.793587
66.555 24.564312
66.560 24.676697
66.565 24.595449
66.570 24.393127
66.575 23.926065
66.580 23.427275
66.585 23.330639
66.590 23.370632
66.595 23.370234
66.600 23.464378
66.605 23.941479
66.610 23.976641
66.615 23.538671
66.620 23.457785
66.625 23.653469
66.630 23.157534
66.635 23.244719
66.640 23.282667
66.645 23.81325
66.650 23.662886
66.655 23.846748
66.660 23.210295
66.665 23.101143
66.670 23.055042
66.675 22.919794
66.680 22.756119
66.685 22.879702
66.690 22.515621
66.695 21.939671
66.700 21.647131
66.705 21.081709
66.710 20.66646
66.715 20.064865
66.720 20.011274
66.725 19.464678
66.730 20.18174
66.735 20.465662
66.740 20.551071
66.745 20.726368
66.750 20.705196
66.755 20.391356
66.760 21.267302
66.765 21.606272
66.770 22.07095
66.775 21.79635
66.780 21.475067
66.785 21.683947
66.790 21.582294
66.795 20.743994
66.800 19.752666
66.805 19.334364
66.810 19.868919
66.815 20.632238
66.820 20.471945
66.825 20.506939
66.830 20.654242
66.835 21.058163
66.840 20.397217
66.845 20.410313
66.850 19.651552
66.855 19.002073
66.860 19.287874
66.865 19.734604
66.870 19.499479
66.875 19.579357
66.880 18.656609
66.885 18.567141
66.890 18.641771
66.895 18.526896
66.900 17.843763
66.905 17.886993
66.910 18.140591
66.915 18.687073
66.920 19.345448
66.925 19.583382
66.930 19.997547
66.935 20.83515
66.940 21.431108
66.945 21.612295
66.950 21.301065
66.955 20.828979
66.960 20.749899
66.965 19.933279
66.970 19.189569
66.975 18.684221
66.980 18.667532
66.985 18.738985
66.990 19.040619
66.995 18.887512
67.000 19.695389
67.005 19.889015
67.010 20.105883
67.015 20.163666
67.020 19.719954
67.025 19.683323
67.030 19.833384
67.035 19.165344
67.040 19.126167
67.045 18.638594
67.050 18.631966
67.055 19.320044
67.060 19.289406
67.065 19.362724
67.070 19.595463
67.075 19.629683
67.080 20.123619
67.085 20.064714
67.090 19.47715
67.095 20.086205
67.100 20.138346
67.105 19.847431
67.110 19.910088
67.115 19.975765
67.120 19.84712
67.125 20.122004
67.130 19.616896
67.135 19.455362
67.140 18.765892
67.145 18.462269
67.150 18.004139
67.155 18.050182
67.160 17.710375
67.165 17.701334
67.170 17.600657
67.175 17.484112
67.180 17.52742
67.185 18.216854
67.190 18.087212
67.195 18.1929
67.200 18.097452
67.205 18.593412
67.210 19.600607
67.215 20.128845
67.220 20.30854
67.225 20.815071
67.230 21.043037
67.235 21.027359
67.240 20.910927
67.245 20.525326
67.250 20.135668
67.255 20.017599
67.260 19.725466
67.265 19.25581
67.270 19.035559
67.275 18.774832
67.280 18.911587
67.285 18.96368
67.290 18.937418
67.295 19.06818
67.300 19.622658
67.305 20.007896
67.310 20.616549
67.315 20.405354
67.320 19.996742
67.325 19.390795
67.330 19.149553
67.335 18.716976
67.340 18.279428
67.345 18.029034
67.350 18.116379
67.355 18.181387
67.360 18.664036
67.365 18.543209
67.370 18.418339
67.375 18.491728
67.380 18.96307
67.385 19.026157
67.390 19.184988
67.395 19.380154
67.400 19.520245
67.405 19.848948
67.410 19.935215
67.415 19.649057
67.420 20.436743
67.425 20.178631
67.430 19.406546
67.435 19.259155
67.440 19.781326
67.445 19.903421
67.450 19.713587
67.455 18.835442
67.460 18.797922
67.465 19.091551
67.470 19.283234
67.475 18.401377
67.480 18.006424
67.485 17.733555
67.490 17.716639
67.495 18.121895
67.500 18.382353
67.505 18.483822
67.510 18.481934
67.515 18.885477
67.520 19.390808
67.525 19.176748
67.530 18.794353
67.535 18.396828
67.540 18.249298
67.545 18.270308
67.550 17.830683
67.555 17.617706
67.560 17.594793
67.565 17.609032
67.570 17.944792
67.575 17.88735
67.580 17.931215
67.585 18.276808
67.590 18.701389
67.595 19.351776
67.600 19.812592
67.605 19.400713
67.610 19.620855
67.615 19.608355
67.620 19.448761
67.625 19.517776
67.630 19.512142
67.635 19.713953
67.640 20.115438
67.645 19.833988
67.650 19.807264
67.655 19.778734
67.660 19.370293
67.665 19.064354
67.670 19.067801
67.675 19.332392
67.680 19.80162
67.685 19.397657
67.690 19.146513
67.695 18.910814
67.700 18.355448
67.705 17.91201
67.710 17.018927
67.715 16.536886
67.720 16.920956
67.725 17.438972
67.730 17.416834
67.735 17.585995
67.740 17.822746
67.745 18.207966
67.750 18.534655
67.755 18.608738
67.760 17.652546
67.765 17.563499
67.770 18.124483
67.775 18.365179
67.780 18.193628
67.785 17.717724
67.790 17.411591
67.795 18.444704
67.800 18.645462
67.805 18.009275
67.810 17.659603
67.815 18.001532
67.820 18.411736
67.825 18.503576
67.830 18.457893
67.835 18.72381
67.840 18.814207
67.845 19.146828
67.850 19.104078
67.855 19.309834
67.860 19.436728
67.865 20.055449
67.870 20.151423
67.875 19.971703
67.880 19.998039
67.885 20.199247
67.890 19.996935
67.895 20.378527
67.900 19.720072
67.905 19.839003
67.910 19.872196
67.915 19.826916
67.920 20.002705
67.925 20.079166
67.930 20.070225
67.935 20.160847
67.940 19.810553
67.945 20.027645
67.950 19.908352
67.955 19.862638
67.960 19.853411
67.965 19.382963
67.970 19.742462
67.975 20.253942
67.980 20.748085
67.985 21.05991
67.990 20.666742
67.995 20.439821
68.000 19.991344
68.005 19.566984
68.010 19.34376
68.015 19.087568
68.020 18.928885
68.025 19.661882
68.030 19.396008
68.035 19.702126
68.040 19.283945
68.045 18.718533
68.050 18.859348
68.055 18.286596
68.060 17.822725
68.065 17.795948
68.070 18.176626
68.075 19.013338
68.080 19.065987
68.085 18.513161
68.090 18.160713
68.095 18.233484
68.100 18.606359
68.105 18.122662
68.110 17.744434
68.115 17.909149
68.120 18.860189
68.125 19.119127
68.130 19.240093
68.135 19.138657
68.140 19.083424
68.145 18.89809
68.150 18.740608
68.155 18.119062
68.160 18.048277
68.165 17.645863
68.170 17.243322
68.175 16.874327
68.180 17.024214
68.185 16.839796
68.190 16.780962
68.195 17.160105
68.200 17.377066
68.205 18.163355
68.210 18.708296
68.215 19.063961
68.220 18.751316
68.225 18.829754
68.230 18.094641
68.235 17.847807
68.240 17.4238
68.245 17.677219
68.250 18.254829
68.255 18.231327
68.260 18.867163
68.265 19.742247
68.270 19.766634
68.275 19.86614
68.280 19.218882
68.285 19.084148
68.290 19.471434
68.295 19.358589
68.300 19.832771
68.305 20.074825
68.310 20.169802
68.315 20.478239
68.320 20.454357
68.325 20.321688
68.330 19.761686
68.335 19.233755
68.340 19.276485
68.345 19.581127
68.350 19.59565
68.355 19.16991
68.360 18.70775
68.365 18.734253
68.370 18.247742
68.375 17.533405
68.380 18.1061
68.385 18.022093
68.390 18.947287
68.395 19.394842
68.400 19.723372
68.405 20.146759
68.410 20.149775
68.415 19.570732
68.420 18.821651
68.425 18.605007
68.430 19.138422
68.435 18.783445
68.440 18.731886
68.445 18.554358
68.450 17.937098
68.455 18.159636
68.460 17.952822
68.465 17.076641
68.470 16.782467
68.475 16.839872
68.480 17.130037
68.485 17.321989
68.490 17.725859
68.495 17.227083
68.500 17.000521
68.505 17.173391
68.510 17.129303
68.515 17.594995
68.520 17.617527
68.525 17.539524
68.530 17.911957
68.535 18.434555
68.540 18.556751
68.545 18.523561
68.550 18.511248
68.555 19.198202
68.560 19.164843
68.565 19.438482
68.570 19.387547
68.575 19.670511
68.580 19.642479
68.585 19.613565
68.590 19.672548
68.595 20.036978
68.600 20.199854
68.605 20.444057
68.610 20.40016
68.615 20.165131
68.620 19.491398
68.625 18.884903
68.630 18.753399
68.635 18.910309
68.640 18.725876
68.645 18.441589
68.650 18.305906
68.655 19.199574
68.660 19.928389
68.665 19.743519
68.670 19.539259
68.675 20.00605
68.680 20.134361
68.685 20.641752
68.690 20.354084
68.695 19.680372
68.700 19.216673
68.705 19.180668
68.710 19.207113
68.715 19.620922
68.720 18.85759
68.725 18.849024
68.730 18.4764
68.735 18.536156
68.740 18.327681
68.745 18.169346
68.750 18.452646
68.755 18.727966
68.760 19.151865
68.765 20.113968
68.770 20.974829
68.775 21.095922
68.780 21.113716
68.785 20.99481
68.790 20.964914
68.795 20.800747
68.800 21.053389
68.805 20.289169
68.810 20.348618
68.815 20.425539
68.820 20.036451
68.825 19.66045
68.830 18.897436
68.835 18.614637
68.840 18.572647
68.845 17.900826
68.850 17.5546
68.855 17.148764
68.860 17.656784
68.865 18.171566
68.870 18.222105
68.875 18.320213
68.880 18.873793
68.885 19.186609
68.890 19.746021
68.895 20.134624
68.900 20.012949
68.905 20.72583
68.910 21.356749
68.915 21.788708
68.920 22.061014
68.925 22.273232
68.930 22.036526
68.935 22.170855
68.940 21.64011
68.945 21.018478
68.950 20.630928
68.955 19.993332
68.960 19.551769
68.965 19.553513
68.970 18.989786
68.975 19.324509
68.980 19.257116
68.985 19.508938
68.990 20.246109
68.995 20.172382
69.000 20.313057
69.005 20.229191
69.010 19.92688
69.015 19.951033
69.020 19.784613
69.025 19.525805
69.030 19.931202
69.035 20.039328
69.040 20.404015
69.045 20.94371
69.050 21.742525
69.055 21.907425
69.060 21.595081
69.065 21.863787
69.070 21.98317
69.075 22.028723
69.080 22.090508
69.085 21.838781
69.090 21.989809
69.095 21.998678
69.100 22.655466
69.105 22.857868
69.110 23.188797
69.115 22.702261
69.120 22.625423
69.125 22.407082
69.130 22.371235
69.135 21.882868
69.140 21.561142
69.145 21.491089
69.150 22.340994
69.155 23.624548
69.160 23.927044
69.165 24.233397
69.170 24.484489
69.175 24.710154
69.180 24.579313
69.185 23.347546
69.190 22.93796
69.195 22.94067
69.200 22.489742
69.205 22.130146
69.210 21.80188
69.215 22.21294
69.220 22.421606
69.225 22.114553
69.230 22.445408
69.235 22.363792
69.240 22.570047
69.245 22.986403
69.250 23.48978
69.255 23.051748
69.260 22.668575
69.265 23.233232
69.270 23.911047
69.275 24.230305
69.280 23.684317
69.285 23.249353
69.290 24.54355
69.295 24.564964
69.300 23.77636
69.305 23.085842
69.310 23.305458
69.315 23.992353
69.320 23.683697
69.325 23.120934
69.330 23.240026
69.335 23.167143
69.340 23.185091
69.345 23.400095
69.350 23.973989
69.355 23.836086
69.360 23.531338
69.365 23.956717
69.370 24.346506
69.375 24.739275
69.380 24.633293
69.385 24.229792
69.390 25.250628
69.395 25.437965
69.400 25.223049
69.405 24.378195
69.410 24.271658
69.415 24.13633
69.420 24.384121
69.425 24.112675
69.430 24.604599
69.435 25.181725
69.440 26.155613
69.445 26.375599
69.450 26.746677
69.455 26.897478
69.460 27.127542
69.465 27.242176
69.470 27.189226
69.475 27.178576
69.480 27.028063
69.485 26.730755
69.490 26.702053
69.495 26.664434
69.500 26.49007
69.505 26.218557
69.510 26.6026
69.515 26.876181
69.520 27.152285
69.525 27.382853
69.530 26.787008
69.535 27.107409
69.540 27.672733
69.545 27.289083
69.550 27.361181
69.555 26.82959
69.560 26.293537
69.565 26.451847
69.570 26.743034
69.575 26.818796
69.580 27.148344
69.585 27.050587
69.590 27.184633
69.595 27.712324
69.600 28.380308
69.605 28.014709
69.610 27.284689
69.615 27.283699
69.620 27.348459
69.625 27.424654
69.630 26.811632
69.635 26.02564
69.640 26.153265
69.645 26.28824
69.650 25.944191
69.655 25.102762
69.660 24.923649
69.665 24.909595
69.670 24.907928
69.675 24.903116
69.680 24.766962
69.685 25.077696
69.690 25.634182
69.695 26.122387
69.700 27.372326
69.705 27.400551
69.710 27.536406
69.715 27.970686
69.720 27.961697
69.725 27.555096
69.730 26.618076
69.735 26.076374
69.740 26.27643
69.745 26.277079
69.750 25.906357
69.755 25.73287
69.760 25.661236
69.765 25.37215
69.770 25.375429
69.775 25.545824
69.780 24.853895
69.785 24.011719
69.790 23.992599
69.795 24.106321
69.800 24.065012
69.805 22.953943
69.810 22.000647
69.815 22.1572
69.820 22.323782
69.825 21.782892
69.830 22.201872
69.835 21.798567
69.840 21.968552
69.845 21.93922
69.850 22.227638
69.855 21.867031
69.860 21.663132
69.865 20.730877
69.870 21.367125
69.875 21.571793
69.880 21.847467
69.885 21.467638
69.890 21.886497
69.895 21.799158
69.900 21.920759
69.905 21.241381
69.910 20.855913
69.915 20.810989
69.920 20.525297
69.925 19.871492
69.930 20.287283
69.935 20.22957
69.940 20.341747
69.945 20.779333
69.950 20.920059
69.955 21.559959
69.960 21.830341
69.965 21.994574
69.970 21.761803
69.975 21.630749
69.980 21.533447
69.985 21.316399
69.990 21.139275
69.995 20.934586
70.000 19.828247
70.005 19.515394
70.010 19.05105
70.015 18.57291
70.020 18.072372
70.025 18.192225
70.030 18.710688
70.035 19.076004
70.040 19.433338
70.045 19.610628
70.050 19.737518
70.055 19.951326
70.060 19.429028
70.065 19.120565
70.070 18.974894
70.075 18.394302
70.080 18.22249
70.085 17.917004
70.090 17.842058
70.095 17.837551
70.100 18.130472
70.105 18.702322
70.110 18.670097
70.115 18.499592
70.120 18.467997
70.125 18.984753
70.130 19.028332
70.135 18.347315
70.140 18.028391
70.145 18.433306
70.150 18.749756
70.155 19.790319
70.160 19.756857
70.165 19.465166
70.170 19.291498
70.175 18.743547
70.180 18.500694
70.185 17.971256
70.190 17.270315
70.195 17.186655
70.200 17.298103
70.205 17.188139
70.210 17.503744
70.215 17.870314
70.220 17.671669
70.225 17.272388
70.230 17.244247
70.235 16.982336
70.240 17.30414
70.245 17.065531
70.250 16.806063
70.255 17.229977
70.260 17.277571
70.265 17.343674
70.270 18.077709
70.275 18.416422
70.280 18.135735
70.285 17.994379
70.290 16.99663
70.295 16.862202
70.300 17.305359
70.305 17.271357
70.310 17.400961
70.315 18.02635
70.320 18.268553
70.325 18.324871
70.330 17.867002
70.335 17.642006
70.340 18.043713
70.345 17.839457
70.350 17.977764
70.355 18.292747
70.360 19.17827
70.365 19.3603
70.370 19.208988
70.375 19.379709
70.380 19.294563
70.385 18.621195
70.390 18.783293
70.395 18.581284
70.400 18.366789
70.405 18.485327
70.410 17.822514
70.415 18.01996
70.420 17.690985
70.425 17.510925
70.430 17.427685
70.435 17.337866
70.440 16.805437
70.445 15.955496
70.450 15.952783
70.455 15.971725
70.460 15.859326
70.465 16.368881
70.470 16.826237
70.475 17.649471
70.480 18.37215
70.485 18.478632
70.490 18.81354
70.495 19.089975
70.500 18.512318
70.505 19.065151
70.510 19.021662
70.515 19.138342
70.520 19.166489
70.525 18.818916
70.530 18.761681
70.535 19.340322
70.540 18.785721
70.545 18.742069
70.550 18.525991
70.555 18.781317
70.560 19.330433
70.565 19.503967
70.570 19.035997
70.575 18.537111
70.580 19.033499
70.585 18.431273
70.590 17.812704
70.595 17.255917
70.600 16.914724
70.605 17.551399
70.610 18.090149
70.615 17.190538
70.620 17.551313
70.625 17.996107
70.630 18.072069
70.635 17.677326
70.640 17.251404
70.645 17.346113
70.650 17.883535
70.655 18.058722
70.660 18.199419
70.665 18.12365
70.670 18.286873
70.675 17.975077
70.680 18.216654
70.685 18.276678
70.690 18.140648
70.695 18.302639
70.700 18.166508
70.705 17.741194
70.710 17.485954
70.715 17.059597
70.720 16.71348
70.725 16.661016
70.730 16.635893
70.735 17.336243
70.740 17.722824
70.745 17.044081
70.750 16.711498
70.755 16.005575
70.760 15.807546
70.765 15.835079
70.770 15.630119
70.775 15.545883
70.780 15.922066
70.785 16.47167
70.790 17.295305
70.795 17.059206
70.800 17.060627
70.805 17.33824
70.810 17.381332
70.815 17.148247
70.820 16.880167
70.825 16.614683
70.830 16.737402
70.835 16.204035
70.840 16.454422
70.845 17.115814
70.850 17.543833
70.855 17.373627
70.860 17.371937
70.865 17.660343
70.870 17.592466
70.875 16.8027
70.880 16.674788
70.885 17.032192
70.890 17.803925
70.895 17.803051
70.900 17.415817
70.905 17.214449
70.910 17.025225
70.915 16.780251
70.920 16.013159
70.925 16.000704
70.930 16.097528
70.935 16.113359
70.940 15.736804
70.945 16.138992
70.950 15.933123
70.955 15.531812
70.960 15.050286
70.965 15.289876
70.970 15.993288
70.975 16.293379
70.980 16.298328
70.985 16.461044
70.990 16.775913
70.995 16.489672
71.000 16.106314
71.005 15.889102
71.010 16.141645
71.015 16.519852
71.020 16.530794
71.025 16.828991
71.030 17.375074
71.035 17.593485
71.040 17.808632
71.045 17.057068
71.050 16.71431
71.055 16.8472
71.060 17.027861
71.065 16.840958
71.070 16.367435
71.075 16.262245
71.080 16.891193
71.085 17.053383
71.090 17.145916
71.095 16.890633
71.100 16.907619
71.105 17.018944
71.110 17.089487
71.115 16.729198
71.120 16.414095
71.125 16.198439
71.130 16.060282
71.135 16.065924
71.140 16.33239
71.145 16.060429
71.150 15.942732
71.155 16.094315
71.160 15.938229
71.165 15.645341
71.170 15.27539
71.175 14.846848
71.180 15.223463
71.185 15.524996
71.190 15.497573
71.195 15.587414
71.200 15.943593
71.205 16.080624
71.210 16.405554
71.215 16.57937
71.220 16.770479
71.225 16.924314
71.230 17.987284
71.235 18.518835
71.240 18.694328
71.245 18.561367
71.250 18.972679
71.255 19.143091
71.260 19.064598
71.265 18.265167
71.270 18.11939
71.275 18.224411
71.280 17.799664
71.285 17.08601
71.290 16.61285
71.295 16.299843
71.300 15.995705
71.305 15.804741
71.310 15.622317
71.315 15.690507
71.320 15.878687
71.325 16.255697
71.330 16.877892
71.335 17.634056
71.340 17.798828
71.345 18.105593
71.350 18.551384
71.355 18.084869
71.360 17.374434
71.365 16.565563
71.370 15.797453
71.375 15.642603
71.380 15.657689
71.385 15.853907
71.390 16.061552
71.395 16.587717
71.400 16.985626
71.405 17.529896
71.410 18.052273
71.415 18.403662
71.420 18.109901
71.425 18.534376
71.430 18.792828
71.435 19.097658
71.440 19.072716
71.445 18.255537
71.450 17.527027
71.455 17.690918
71.460 17.83695
71.465 17.654779
71.470 17.357313
71.475 16.624313
71.480 16.902927
71.485 16.94915
71.490 17.125765
71.495 17.297604
71.500 17.272495
71.505 17.449247
71.510 18.001871
71.515 18.07288
71.520 18.470366
71.525 18.335257
71.530 17.864946
71.535 17.769747
71.540 18.148548
71.545 17.712809
71.550 17.541918
71.555 17.021494
71.560 16.946186
71.565 16.542088
71.570 15.830502
71.575 16.052588
71.580 16.520653
71.585 16.702171
71.590 16.675594
71.595 16.751074
71.600 17.493601
71.605 17.363554
71.610 16.813065
71.615 16.428715
71.620 16.232859
71.625 16.222729
71.630 16.046152
71.635 15.589311
71.640 15.548733
71.645 15.959
71.650 16.004627
71.655 16.125633
71.660 16.51845
71.665 16.585737
71.670 17.583744
71.675 17.876333
71.680 17.572186
71.685 17.521
71.690 17.47934
71.695 17.702511
71.700 17.43158
71.705 17.167309
71.710 17.251915
71.715 17.278671
71.720 17.534485
71.725 17.448107
71.730 17.525675
71.735 17.79775
71.740 18.334629
71.745 18.160185
71.750 18.066151
71.755 18.03215
71.760 17.80057
71.765 17.508829
71.770 17.319355
71.775 17.04199
71.780 17.021357
71.785 17.163687
71.790 17.164808
71.795 17.317091
71.800 18.098524
71.805 17.622217
71.810 17.456869
71.815 16.87879
71.820 16.843073
71.825 16.580759
71.830 16.093233
71.835 15.741461
71.840 15.816468
71.845 16.223291
71.850 16.957541
71.855 16.669947
71.860 16.627974
71.865 16.806303
71.870 17.053928
71.875 17.643517
71.880 18.181669
71.885 18.037844
71.890 18.326836
71.895 18.189917
71.900 17.174492
71.905 16.653
71.910 16.496191
71.915 15.268608
71.920 15.093185
71.925 15.127198
71.930 15.378252
71.935 16.098705
71.940 16.226711
71.945 16.361526
71.950 17.4224
71.955 17.859802
71.960 17.862558
71.965 17.838785
71.970 18.250814
71.975 18.363247
71.980 18.382074
71.985 18.390965
71.990 18.285385
71.995 18.843035
72.000 18.811304
72.005 18.808891
72.010 18.887444
72.015 18.563164
72.020 18.057116
72.025 17.800173
72.030 17.644859
72.035 17.182375
72.040 16.79067
72.045 16.337904
72.050 16.801565
72.055 16.872046
72.060 16.61886
72.065 16.886112
72.070 17.078077
72.075 17.348364
72.080 17.504856
72.085 16.905985
72.090 16.977558
72.095 17.121529
72.100 16.787733
72.105 16.903263
72.110 16.252911
72.115 16.033331
72.120 15.865689
72.125 16.190571
72.130 16.676704
72.135 17.09923
72.140 17.125471
72.145 17.698889
72.150 18.283346
72.155 18.814816
72.160 18.509678
72.165 17.93878
72.170 17.689268
72.175 17.375912
72.180 16.982609
72.185 15.978984
72.190 15.95898
72.195 15.96772
72.200 16.265409
72.205 16.254873
72.210 16.259884
72.215 16.389368
72.220 16.749811
72.225 17.247253
72.230 17.533154
72.235 17.521347
72.240 17.661755
72.245 17.585733
72.250 17.856846
72.255 17.69066
72.260 17.392876
72.265 17.021898
72.270 16.81179
72.275 16.741173
72.280 17.025269
72.285 16.970545
72.290 16.685301
72.295 16.027641
72.300 15.855567
72.305 16.142132
72.310 16.454807
72.315 16.707024
72.320 16.974709
72.325 16.882311
72.330 17.123053
72.335 17.841053
72.340 17.618816
72.345 17.687801
72.350 17.073177
72.355 16.894876
72.360 17.180601
72.365 17.259682
72.370 17.024168
72.375 17.311897
72.380 17.078449
72.385 17.575212
72.390 17.34664
72.395 16.508869
72.400 16.263714
72.405 16.044064
72.410 15.620827
72.415 15.80778
72.420 16.018806
72.425 16.528221
72.430 17.002735
72.435 17.35713
72.440 17.307671
72.445 17.786377
72.450 17.346979
72.455 17.091839
72.460 17.013165
72.465 16.639875
72.470 16.205017
72.475 16.132345
72.480 15.473825
72.485 15.234329
72.490 15.381032
72.495 15.589687
72.500 15.872715
72.505 15.647326
72.510 15.216356
72.515 15.623368
72.520 16.139709
72.525 16.323517
72.530 16.216671
72.535 16.121124
72.540 16.552742
72.545 16.620663
72.550 16.318319
72.555 15.865943
72.560 15.142428
72.565 15.165972
72.570 15.642762
72.575 15.966496
72.580 16.507729
72.585 16.703264
72.590 16.447758
72.595 16.664171
72.600 17.433424
72.605 17.403008
72.610 17.356739
72.615 17.30146
72.620 17.673887
72.625 18.304256
72.630 18.506599
72.635 17.746956
72.640 17.302494
72.645 17.205877
72.650 16.547808
72.655 16.632669
72.660 16.151968
72.665 15.068975
72.670 15.219213
72.675 15.320404
72.680 15.474846
72.685 15.691065
72.690 15.058105
72.695 15.381598
72.700 15.821709
72.705 15.924507
72.710 15.529382
72.715 14.794162
72.720 14.94326
72.725 15.202131
72.730 15.130421
72.735 14.905519
72.740 15.032697
72.745 15.518035
72.750 15.563446
72.755 14.996408
72.760 14.905587
72.765 15.169349
72.770 15.232516
72.775 14.884475
72.780 15.226981
72.785 15.152588
72.790 15.748483
72.795 15.82649
72.800 15.874688
72.805 15.875593
72.810 15.775831
72.815 15.916535
72.820 16.077604
72.825 15.685817
72.830 15.272702
72.835 15.339836
72.840 15.541749
72.845 15.233787
72.850 14.724518
72.855 14.243888
72.860 13.96593
72.865 13.976796
72.870 13.949445
72.875 13.712957
72.880 13.878376
72.885 14.15064
72.890 14.447625
72.895 14.812348
72.900 14.507954
72.905 14.738545
72.910 14.753729
72.915 14.909103
72.920 15.031199
72.925 15.357682
72.930 15.454524
72.935 15.438669
72.940 14.711987
72.945 14.62497
72.950 14.658741
72.955 15.161619
72.960 15.27757
72.965 15.652941
72.970 16.194681
72.975 16.872593
72.980 17.057489
72.985 16.784502
72.990 15.996424
72.995 16.048515
73.000 15.89091
