!@!!GADDS PLOTSO FILE: Chi integration type
!@!!Title/SampleName: map-f0
!@!!Comment: ?
!@!!User: Bruker Instrument Administrator
!@!!Site: University of Illinois Chicago
!@!!Frame: map-f0_01_000.gfrm
!@!!Wavelengths    1.54184   1.54056   1.54439
!@!!Frame angles: 2Theta: 63.000 Omega: 50.000 Phi: 0.000 Chi: 90.000
!@!!Integration range: 2Theta: 53.000 to 73.000  Gamma: -105.000 to -75.000
!@!!Integration method: bin normalized
!@!N
!@!SS
!@!M
!@!L 0.0 0.0 0.0 0.0
!@!XDegrees
!@!YCounts
53.000 6.655711
53.005 6.95838
53.010 6.714989
53.015 6.819848
53.020 7.296736
53.025 7.504256
53.030 8.372487
53.035 8.756413
53.040 8.799777
53.045 9.06146
53.050 8.88614
53.055 8.634714
53.060 8.521441
53.065 7.977196
53.070 7.913469
53.075 7.92405
53.080 8.002147
53.085 8.250777
53.090 8.472713
53.095 8.615475
53.100 8.524847
53.105 8.470826
53.110 8.421537
53.115 8.190749
53.120 8.038634
53.125 7.78801
53.130 7.96865
53.135 8.175838
53.140 8.478503
53.145 8.683722
53.150 8.132215
53.155 8.145829
53.160 7.968692
53.165 7.496041
53.170 7.196011
53.175 6.962815
53.180 7.098371
53.185 7.462443
53.190 7.671541
53.195 8.059492
53.200 8.164179
53.205 7.920567
53.210 8.08043
53.215 8.241203
53.220 8.634644
53.225 8.943365
53.230 9.100453
53.235 9.339896
53.240 9.443203
53.245 9.224032
53.250 9.182093
53.255 8.588536
53.260 8.422836
53.265 7.985063
53.270 8.2482
53.275 8.271998
53.280 8.456363
53.285 8.693771
53.290 8.813773
53.295 8.852457
53.300 8.57219
53.305 8.276558
53.310 8.098575
53.315 7.921412
53.320 7.787827
53.325 7.938666
53.330 8.462658
53.335 9.086858
53.340 9.082157
53.345 9.212203
53.350 9.346446
53.355 9.185517
53.360 9.199212
53.365 9.186687
53.370 9.268582
53.375 9.3717
53.380 9.324533
53.385 9.207056
53.390 8.867074
53.395 9.153154
53.400 8.796528
53.405 8.377052
53.410 8.395247
53.415 8.802672
53.420 8.866419
53.425 8.899308
53.430 8.448932
53.435 8.723001
53.440 9.047529
53.445 8.858108
53.450 8.790235
53.455 9.294749
53.460 9.197587
53.465 9.830244
53.470 9.935848
53.475 9.449703
53.480 9.629058
53.485 9.43958
53.490 9.594578
53.495 9.278253
53.500 8.875633
53.505 8.69383
53.510 8.612797
53.515 8.385125
53.520 8.129413
53.525 8.015951
53.530 8.226389
53.535 8.319507
53.540 8.721426
53.545 8.92205
53.550 9.050088
53.555 9.219207
53.560 8.830589
53.565 8.698853
53.570 8.257234
53.575 7.947308
53.580 7.94396
53.585 7.771745
53.590 7.838246
53.595 8.277355
53.600 8.446021
53.605 8.575748
53.610 8.87605
53.615 9.046431
53.620 9.210732
53.625 9.292861
53.630 9.160612
53.635 8.664021
53.640 8.784303
53.645 8.643723
53.650 8.369813
53.655 7.917935
53.660 7.60882
53.665 7.901494
53.670 8.166656
53.675 8.107174
53.680 7.790802
53.685 7.852596
53.690 8.445009
53.695 8.797559
53.700 8.694571
53.705 8.449018
53.710 8.463121
53.715 8.541123
53.720 8.641121
53.725 8.44913
53.730 8.210599
53.735 8.213899
53.740 8.374434
53.745 8.662416
53.750 8.934554
53.755 8.836846
53.760 9.015729
53.765 9.286239
53.770 9.578115
53.775 9.486446
53.780 9.325688
53.785 9.229257
53.790 8.978726
53.795 8.825233
53.800 8.932738
53.805 8.694604
53.810 8.622525
53.815 8.515042
53.820 8.471042
53.825 8.361305
53.830 8.392505
53.835 8.513992
53.840 9.069283
53.845 9.196348
53.850 9.15697
53.855 9.398887
53.860 9.287394
53.865 8.95653
53.870 8.791973
53.875 8.402602
53.880 8.513725
53.885 8.607913
53.890 8.617573
53.895 8.990444
53.900 9.183602
53.905 9.227013
53.910 9.154981
53.915 8.811152
53.920 8.393354
53.925 8.438088
53.930 8.063508
53.935 7.684537
53.940 7.355158
53.945 7.296898
53.950 7.918378
53.955 8.226707
53.960 8.120231
53.965 8.492158
53.970 8.750616
53.975 8.880606
53.980 9.059279
53.985 8.762759
53.990 8.876239
53.995 9.069559
54.000 9.413931
54.005 9.209432
54.010 9.301581
54.015 9.742123
54.020 10.048059
54.025 9.958458
54.030 9.417583
54.035 8.918751
54.040 9.289487
54.045 9.236418
54.050 9.025558
54.055 8.745321
54.060 8.946191
54.065 9.108508
54.070 9.297165
54.075 9.098213
54.080 8.656569
54.085 8.576442
54.090 8.722078
54.095 8.680285
54.100 9.214061
54.105 9.203664
54.110 9.453867
54.115 9.384689
54.120 8.976267
54.125 9.050567
54.130 9.3961
54.135 9.400633
54.140 9.194752
54.145 9.340625
54.150 9.789635
54.155 9.833503
54.160 9.960056
54.165 9.630752
54.170 9.703928
54.175 9.726461
54.180 9.681879
54.185 9.771945
54.190 9.576672
54.195 9.269952
54.200 9.306377
54.205 9.167211
54.210 9.556059
54.215 9.330854
54.220 9.291791
54.225 9.270998
54.230 9.516428
54.235 9.60976
54.240 9.636216
54.245 9.694242
54.250 9.709887
54.255 9.990341
54.260 10.750685
54.265 10.794703
54.270 10.876114
54.275 10.947177
54.280 10.642716
54.285 10.775498
54.290 10.317539
54.295 9.683036
54.300 9.714991
54.305 9.134756
54.310 8.884281
54.315 8.866778
54.320 8.605897
54.325 8.564637
54.330 8.39955
54.335 8.787975
54.340 9.406757
54.345 9.661651
54.350 9.443627
54.355 9.457777
54.360 9.477279
54.365 9.731873
54.370 9.645597
54.375 9.974866
54.380 9.820218
54.385 10.124178
54.390 10.21719
54.395 10.114344
54.400 10.249766
54.405 10.040956
54.410 9.704151
54.415 9.719443
54.420 9.677632
54.425 9.412971
54.430 9.388374
54.435 9.382555
54.440 9.606556
54.445 9.728456
54.450 9.816918
54.455 10.089553
54.460 10.488015
54.465 10.333597
54.470 9.740971
54.475 9.562976
54.480 9.963669
54.485 9.733068
54.490 9.532081
54.495 9.66599
54.500 9.96003
54.505 10.220406
54.510 10.126517
54.515 10.105424
54.520 10.332249
54.525 10.201868
54.530 10.114636
54.535 9.795823
54.540 9.634438
54.545 10.038103
54.550 9.935362
54.555 10.316829
54.560 10.211488
54.565 9.950467
54.570 10.111588
54.575 10.286487
54.580 10.133753
54.585 10.73508
54.590 10.720334
54.595 10.622848
54.600 10.811968
54.605 10.745364
54.610 10.100318
54.615 9.579001
54.620 9.285059
54.625 9.667827
54.630 9.936429
54.635 10.270966
54.640 10.576742
54.645 10.646107
54.650 10.652829
54.655 10.632393
54.660 10.56189
54.665 10.47598
54.670 10.494924
54.675 10.736114
54.680 10.634673
54.685 10.790753
54.690 10.589808
54.695 10.700994
54.700 10.519615
54.705 10.409957
54.710 10.473178
54.715 10.718282
54.720 10.027431
54.725 9.503794
54.730 9.419007
54.735 9.59966
54.740 9.638386
54.745 9.88654
54.750 9.954754
54.755 10.603145
54.760 10.927953
54.765 10.95745
54.770 11.258815
54.775 11.297684
54.780 11.428391
54.785 11.361929
54.790 11.203143
54.795 11.028375
54.800 10.678153
54.805 10.170483
54.810 9.625608
54.815 9.403595
54.820 9.413158
54.825 9.361898
54.830 9.931375
54.835 10.158601
54.840 9.976681
54.845 10.319261
54.850 10.810465
54.855 10.830013
54.860 10.809729
54.865 10.991391
54.870 11.384936
54.875 11.733317
54.880 11.208794
54.885 10.786014
54.890 10.952079
54.895 11.186332
54.900 11.02697
54.905 11.092263
54.910 11.260178
54.915 11.824457
54.920 12.1057
54.925 12.118154
54.930 11.817203
54.935 11.458729
54.940 11.22023
54.945 11.070433
54.950 11.177188
54.955 11.232949
54.960 11.614051
54.965 11.441208
54.970 11.265069
54.975 11.216294
54.980 11.594979
54.985 11.804718
54.990 11.735394
54.995 11.490256
55.000 12.005055
55.005 11.921024
55.010 11.951833
55.015 12.035479
55.020 11.699324
55.025 11.768175
55.030 11.629192
55.035 11.319494
55.040 11.024689
55.045 10.877677
55.050 10.455257
55.055 10.680418
55.060 10.686355
55.065 10.814449
55.070 11.022048
55.075 11.807112
55.080 11.710596
55.085 11.230273
55.090 10.321594
55.095 10.478193
55.100 10.289215
55.105 9.896255
55.110 9.415952
55.115 9.307799
55.120 9.09935
55.125 9.486109
55.130 9.073349
55.135 9.475492
55.140 9.616999
55.145 9.327898
55.150 9.322681
55.155 9.735287
55.160 9.80658
55.165 9.693044
55.170 9.279695
55.175 9.532508
55.180 9.863154
55.185 9.94912
55.190 10.112647
55.195 10.4144
55.200 10.850817
55.205 10.546013
55.210 10.286318
55.215 10.491839
55.220 10.904341
55.225 10.895854
55.230 10.69903
55.235 10.962342
55.240 11.32564
55.245 11.613278
55.250 11.485969
55.255 10.586884
55.260 10.507483
55.265 10.431455
55.270 10.215588
55.275 10.11526
55.280 9.906927
55.285 10.124137
55.290 10.402946
55.295 10.02719
55.300 9.885685
55.305 10.007317
55.310 10.006016
55.315 10.158353
55.320 10.210093
55.325 10.587144
55.330 10.723536
55.335 10.883885
55.340 11.088943
55.345 11.358573
55.350 11.349301
55.355 11.335108
55.360 11.720185
55.365 11.706175
55.370 11.770174
55.375 11.419976
55.380 11.059337
55.385 10.947448
55.390 10.80349
55.395 10.632015
55.400 10.490528
55.405 10.249684
55.410 10.608771
55.415 10.612161
55.420 10.498251
55.425 10.22156
55.430 10.278124
55.435 10.437939
55.440 11.116877
55.445 11.266511
55.450 11.313537
55.455 11.498347
55.460 11.553568
55.465 11.292447
55.470 11.502234
55.475 11.083323
55.480 11.018794
55.485 11.007133
55.490 10.705386
55.495 10.60419
55.500 10.455096
55.505 10.15295
55.510 9.926378
55.515 10.012996
55.520 10.191767
55.525 10.812125
55.530 11.001427
55.535 11.093819
55.540 10.65526
55.545 10.523746
55.550 10.414975
55.555 10.585103
55.560 10.107083
55.565 9.378437
55.570 9.227736
55.575 9.537781
55.580 9.72249
55.585 9.592454
55.590 9.158419
55.595 9.398222
55.600 10.035148
55.605 10.468565
55.610 10.6876
55.615 10.731541
55.620 10.876992
55.625 11.340324
55.630 11.366155
55.635 11.28142
55.640 11.174189
55.645 11.227666
55.650 11.205871
55.655 11.239262
55.660 10.824708
55.665 11.413368
55.670 11.640735
55.675 11.689444
55.680 11.378405
55.685 11.488195
55.690 11.806324
55.695 11.774776
55.700 11.113037
55.705 11.458084
55.710 11.657259
55.715 11.811518
55.720 11.984345
55.725 11.814663
55.730 11.844146
55.735 11.272141
55.740 10.487988
55.745 10.211109
55.750 10.044164
55.755 9.406266
55.760 9.142637
55.765 9.061316
55.770 9.403403
55.775 9.822554
55.780 10.17517
55.785 10.671217
55.790 11.144608
55.795 11.318157
55.800 11.615355
55.805 11.463879
55.810 11.080815
55.815 11.061756
55.820 11.413632
55.825 11.574838
55.830 11.434964
55.835 11.724145
55.840 12.009509
55.845 12.0863
55.850 11.708958
55.855 10.991652
55.860 10.630826
55.865 10.516982
55.870 10.251247
55.875 10.091921
55.880 9.757257
55.885 9.593313
55.890 9.648746
55.895 9.94558
55.900 9.945745
55.905 10.294886
55.910 10.982078
55.915 11.502569
55.920 12.077
55.925 12.034973
55.930 11.871562
55.935 11.871109
55.940 11.3981
55.945 10.837335
55.950 10.528571
55.955 9.958023
55.960 10.041568
55.965 10.100459
55.970 10.215798
55.975 10.295471
55.980 10.075447
55.985 10.739168
55.990 10.894693
55.995 10.817707
56.000 11.180377
56.005 11.379042
56.010 11.740303
56.015 11.781703
56.020 11.629472
56.025 11.864528
56.030 11.830513
56.035 11.896259
56.040 11.506421
56.045 11.50246
56.050 11.539105
56.055 11.436545
56.060 11.681596
56.065 11.689978
56.070 11.280897
56.075 11.365275
56.080 11.245514
56.085 11.268786
56.090 11.082383
56.095 11.322369
56.100 11.493958
56.105 11.560017
56.110 11.615599
56.115 11.607799
56.120 11.380181
56.125 10.770238
56.130 9.939163
56.135 9.528834
56.140 9.826551
56.145 9.940197
56.150 9.82913
56.155 10.054417
56.160 10.244524
56.165 10.85447
56.170 11.315573
56.175 10.934057
56.180 10.714874
56.185 10.35742
56.190 10.247725
56.195 10.237345
56.200 9.927344
56.205 9.418005
56.210 9.366879
56.215 10.202428
56.220 10.818069
56.225 11.451581
56.230 12.181871
56.235 12.464499
56.240 13.060095
56.245 13.432413
56.250 12.766785
56.255 12.574701
56.260 12.656402
56.265 12.230445
56.270 12.034191
56.275 11.31966
56.280 11.171211
56.285 11.572544
56.290 11.095963
56.295 10.605453
56.300 10.871652
56.305 11.19861
56.310 12.179399
56.315 12.493196
56.320 13.069487
56.325 13.175774
56.330 12.731987
56.335 12.359688
56.340 12.401145
56.345 11.676496
56.350 10.988409
56.355 10.693075
56.360 10.918076
56.365 11.28393
56.370 11.689043
56.375 11.627195
56.380 11.605518
56.385 11.921514
56.390 11.973491
56.395 12.025
56.400 12.085685
56.405 11.872475
56.410 11.97471
56.415 12.009149
56.420 11.439383
56.425 11.114307
56.430 11.443007
56.435 11.216447
56.440 11.637813
56.445 11.94684
56.450 12.215586
56.455 12.292416
56.460 12.293572
56.465 12.105529
56.470 12.363141
56.475 12.06051
56.480 11.91929
56.485 12.17767
56.490 12.926985
56.495 12.997922
56.500 12.759302
56.505 12.06782
56.510 11.597763
56.515 11.424957
56.520 11.434218
56.525 11.054562
56.530 11.027449
56.535 11.243341
56.540 11.575033
56.545 11.50249
56.550 11.23296
56.555 11.118295
56.560 11.328161
56.565 11.470309
56.570 11.434512
56.575 11.534029
56.580 11.695712
56.585 11.584949
56.590 11.214549
56.595 11.104914
56.600 10.764732
56.605 10.579927
56.610 10.617625
56.615 11.057383
56.620 11.208089
56.625 11.182909
56.630 11.010392
56.635 11.340797
56.640 11.355145
56.645 11.594707
56.650 11.197616
56.655 11.173623
56.660 11.095623
56.665 10.777868
56.670 10.460062
56.675 10.590613
56.680 10.322064
56.685 10.623691
56.690 11.07576
56.695 11.588118
56.700 11.615012
56.705 11.58501
56.710 11.619672
56.715 12.126533
56.720 12.227165
56.725 12.380192
56.730 12.083277
56.735 12.604095
56.740 12.952184
56.745 12.986049
56.750 12.636498
56.755 12.713811
56.760 12.552197
56.765 13.293776
56.770 13.801515
56.775 14.090117
56.780 13.76141
56.785 13.486262
56.790 13.314338
56.795 13.098892
56.800 12.455554
56.805 11.90973
56.810 11.466686
56.815 11.428513
56.820 11.237334
56.825 11.062974
56.830 11.024106
56.835 10.71645
56.840 10.811176
56.845 11.13103
56.850 11.319731
56.855 11.291862
56.860 11.191279
56.865 11.929706
56.870 12.640964
56.875 12.524366
56.880 12.546288
56.885 12.202299
56.890 12.339745
56.895 13.022224
56.900 12.562678
56.905 12.446039
56.910 12.326319
56.915 12.11027
56.920 12.17978
56.925 12.229455
56.930 11.748514
56.935 11.863667
56.940 11.238366
56.945 10.740541
56.950 10.520136
56.955 10.564216
56.960 10.578868
56.965 11.179259
56.970 11.320434
56.975 11.386296
56.980 12.216906
56.985 12.862479
56.990 12.958809
56.995 12.748057
57.000 12.487062
57.005 12.46227
57.010 12.971004
57.015 12.879988
57.020 12.853469
57.025 13.177441
57.030 13.181684
57.035 12.68775
57.040 12.375599
57.045 12.455753
57.050 12.04415
57.055 12.03308
57.060 12.287417
57.065 12.693896
57.070 13.222138
57.075 13.813593
57.080 14.021074
57.085 14.358853
57.090 14.222442
57.095 14.050726
57.100 13.706511
57.105 13.409329
57.110 12.597127
57.115 12.289189
57.120 12.093817
57.125 12.00934
57.130 11.609721
57.135 11.998504
57.140 12.217072
57.145 13.045568
57.150 13.493732
57.155 13.80776
57.160 14.086337
57.165 14.534307
57.170 14.6079
57.175 14.436525
57.180 13.963473
57.185 13.15482
57.190 13.358866
57.195 13.455239
57.200 12.977064
57.205 12.425614
57.210 12.134212
57.215 12.825701
57.220 13.530204
57.225 13.301429
57.230 12.839248
57.235 12.726806
57.240 13.226308
57.245 13.291659
57.250 13.525709
57.255 13.474403
57.260 13.037966
57.265 13.452012
57.270 13.87585
57.275 13.434572
57.280 13.677272
57.285 13.103879
57.290 12.4967
57.295 12.831645
57.300 13.080849
57.305 12.889666
57.310 12.928078
57.315 12.43957
57.320 12.699862
57.325 13.202823
57.330 13.071469
57.335 12.863006
57.340 12.666808
57.345 12.805332
57.350 12.861588
57.355 12.57715
57.360 12.676603
57.365 12.286702
57.370 12.133441
57.375 12.594545
57.380 12.712186
57.385 12.914544
57.390 12.847508
57.395 13.465137
57.400 14.219879
57.405 14.448853
57.410 14.274888
57.415 14.665704
57.420 14.977309
57.425 14.981818
57.430 14.386971
57.435 13.72925
57.440 13.938026
57.445 14.373545
57.450 14.101357
57.455 13.464744
57.460 13.541014
57.465 13.558404
57.470 14.26933
57.475 13.789154
57.480 12.858441
57.485 12.817297
57.490 12.951548
57.495 13.069952
57.500 13.130502
57.505 12.681748
57.510 12.842597
57.515 12.858841
57.520 12.541074
57.525 12.57992
57.530 12.337262
57.535 12.469905
57.540 12.611205
57.545 12.665268
57.550 12.930253
57.555 13.478253
57.560 13.630833
57.565 14.021767
57.570 14.157776
57.575 14.369493
57.580 14.871514
57.585 14.904945
57.590 14.60368
57.595 14.235252
57.600 14.075251
57.605 13.732264
57.610 13.71083
57.615 13.549452
57.620 13.283834
57.625 13.349632
57.630 13.540797
57.635 13.151313
57.640 13.379179
57.645 13.109661
57.650 12.799738
57.655 12.985328
57.660 13.048359
57.665 13.172066
57.670 12.794635
57.675 12.334382
57.680 12.140552
57.685 12.088258
57.690 12.22331
57.695 12.023917
57.700 12.012871
57.705 12.555065
57.710 12.835982
57.715 13.267765
57.720 13.08117
57.725 13.40092
57.730 13.653901
57.735 13.186905
57.740 12.954815
57.745 12.782184
57.750 13.061877
57.755 13.78584
57.760 13.803411
57.765 14.094441
57.770 14.606528
57.775 14.864508
57.780 15.322377
57.785 15.25273
57.790 14.638941
57.795 13.846664
57.800 13.150099
57.805 13.030167
57.810 12.759175
57.815 12.574507
57.820 12.63592
57.825 13.042839
57.830 12.908585
57.835 13.076445
57.840 12.954261
57.845 13.102931
57.850 13.235711
57.855 13.354861
57.860 13.389897
57.865 14.193679
57.870 14.663836
57.875 15.208321
57.880 15.195921
57.885 15.043963
57.890 15.091782
57.895 15.296687
57.900 15.119133
57.905 15.002152
57.910 15.156239
57.915 14.954379
57.920 14.790054
57.925 14.490941
57.930 14.546206
57.935 15.006331
57.940 15.11935
57.945 14.885556
57.950 15.319915
57.955 15.272038
57.960 15.3668
57.965 15.164249
57.970 14.650404
57.975 14.458498
57.980 14.736306
57.985 14.786613
57.990 14.950133
57.995 15.252023
58.000 14.856739
58.005 15.08642
58.010 15.300299
58.015 15.022633
58.020 15.308045
58.025 15.178995
58.030 14.344265
58.035 14.488121
58.040 14.765494
58.045 14.608191
58.050 14.790955
58.055 14.929171
58.060 15.57926
58.065 16.161982
58.070 16.262142
58.075 16.394133
58.080 16.810638
58.085 16.358271
58.090 15.555322
58.095 15.016047
58.100 14.995181
58.105 14.742045
58.110 14.390557
58.115 13.959066
58.120 14.36055
58.125 14.780803
58.130 14.705667
58.135 15.312078
58.140 15.457013
58.145 16.064669
58.150 15.892552
58.155 15.663545
58.160 15.33985
58.165 15.615505
58.170 15.41408
58.175 14.966013
58.180 14.433654
58.185 14.459091
58.190 14.832063
58.195 14.984592
58.200 14.951308
58.205 14.796877
58.210 15.576613
58.215 16.129244
58.220 15.72375
58.225 15.770377
58.230 15.78088
58.235 16.327765
58.240 16.73707
58.245 16.238684
58.250 16.549522
58.255 17.488464
58.260 17.685099
58.265 17.701935
58.270 17.209656
58.275 17.452892
58.280 18.283163
58.285 18.36227
58.290 18.405617
58.295 18.279442
58.300 18.439625
58.305 19.017851
58.310 19.489061
58.315 19.059708
58.320 18.685259
58.325 18.748718
58.330 19.073349
58.335 19.17082
58.340 19.119011
58.345 19.181063
58.350 19.149231
58.355 18.99515
58.360 18.848984
58.365 18.797781
58.370 18.927536
58.375 18.585333
58.380 18.522013
58.385 19.561956
58.390 20.326712
58.395 20.811243
58.400 21.126955
58.405 21.063713
58.410 21.069824
58.415 21.267813
58.420 21.54814
58.425 21.475355
58.430 21.51042
58.435 21.842415
58.440 22.283091
58.445 22.455515
58.450 22.305275
58.455 22.037512
58.460 22.791815
58.465 23.138058
58.470 22.928295
58.475 23.505852
58.480 23.784334
58.485 23.715574
58.490 23.987144
58.495 24.27203
58.500 23.947124
58.505 23.91691
58.510 23.540178
58.515 23.621082
58.520 24.054956
58.525 24.524324
58.530 24.670696
58.535 25.978008
58.540 26.86685
58.545 27.727272
58.550 28.232901
58.555 28.800829
58.560 29.203808
58.565 28.770649
58.570 28.647457
58.575 28.555096
58.580 28.600477
58.585 29.239506
58.590 29.72563
58.595 30.514208
58.600 31.923189
58.605 32.586155
58.610 32.880459
58.615 33.07679
58.620 33.19936
58.625 33.79406
58.630 34.292862
58.635 33.809837
58.640 34.386284
58.645 34.698315
58.650 34.945557
58.655 34.296936
58.660 33.721092
58.665 33.24004
58.670 33.104103
58.675 32.504383
58.680 32.074631
58.685 31.298227
58.690 31.473305
58.695 31.46372
58.700 31.355991
58.705 31.495605
58.710 31.366632
58.715 31.297401
58.720 31.881496
58.725 31.520689
58.730 31.060745
58.735 31.186922
58.740 30.876534
58.745 30.689388
58.750 31.145971
58.755 31.139151
58.760 31.763264
58.765 31.156134
58.770 30.958508
58.775 31.852802
58.780 32.261475
58.785 31.734579
58.790 31.591625
58.795 30.893209
58.800 30.03248
58.805 29.093357
58.810 27.328472
58.815 26.549601
58.820 26.476204
58.825 25.894402
58.830 25.456829
58.835 25.692154
58.840 25.427282
58.845 24.953253
58.850 23.700302
58.855 23.018055
58.860 22.914549
58.865 22.634245
58.870 21.587296
58.875 21.460291
58.880 21.51804
58.885 21.825289
58.890 21.8489
58.895 21.305185
58.900 21.364298
58.905 21.479603
58.910 21.552176
58.915 21.025248
58.920 20.295712
58.925 19.620489
58.930 19.729099
58.935 19.767414
58.940 19.408802
58.945 19.339828
58.950 19.796614
58.955 20.295521
58.960 20.468473
58.965 20.38205
58.970 19.983881
58.975 20.427893
58.980 20.066175
58.985 19.583477
58.990 19.216646
58.995 19.205034
59.000 18.409786
59.005 17.895798
59.010 18.050482
59.015 18.135754
59.020 18.154686
59.025 18.309299
59.030 18.392254
59.035 19.043896
59.040 19.373077
59.045 18.994705
59.050 18.308359
59.055 17.950146
59.060 17.594662
59.065 16.971945
59.070 16.876041
59.075 16.115068
59.080 15.927999
59.085 16.345737
59.090 15.831917
59.095 15.54608
59.100 15.308771
59.105 15.328759
59.110 15.544812
59.115 15.216882
59.120 14.800449
59.125 15.143766
59.130 14.843287
59.135 14.933713
59.140 14.606878
59.145 14.575269
59.150 14.594279
59.155 14.869527
59.160 15.03573
59.165 15.102314
59.170 15.226331
59.175 15.3392
59.180 15.037389
59.185 15.125537
59.190 15.117624
59.195 14.657361
59.200 15.200839
59.205 15.22907
59.210 14.941534
59.215 14.512665
59.220 13.933225
59.225 13.802894
59.230 14.337831
59.235 13.900966
59.240 13.699969
59.245 13.681693
59.250 13.648335
59.255 14.222758
59.260 13.853065
59.265 13.195874
59.270 13.096094
59.275 13.543198
59.280 14.063304
59.285 14.535624
59.290 14.51258
59.295 14.651596
59.300 14.784062
59.305 14.958607
59.310 14.479029
59.315 14.040748
59.320 14.027454
59.325 13.578489
59.330 13.966178
59.335 14.360309
59.340 14.127566
59.345 13.912522
59.350 13.756941
59.355 13.761909
59.360 13.783851
59.365 13.321856
59.370 13.117699
59.375 12.727386
59.380 13.25997
59.385 13.53414
59.390 13.572618
59.395 13.755008
59.400 14.116611
59.405 14.166557
59.410 14.286998
59.415 13.821617
59.420 13.575276
59.425 13.1135
59.430 12.903676
59.435 12.381442
59.440 12.58399
59.445 12.700725
59.450 12.791794
59.455 13.085567
59.460 13.740368
59.465 14.450314
59.470 14.836987
59.475 14.866522
59.480 15.305828
59.485 15.732757
59.490 15.651151
59.495 15.217115
59.500 14.911075
59.505 14.808642
59.510 14.52922
59.515 14.104873
59.520 13.881914
59.525 13.683161
59.530 13.504007
59.535 13.757598
59.540 14.049806
59.545 14.381701
59.550 14.7306
59.555 14.891847
59.560 15.297924
59.565 15.452401
59.570 15.020845
59.575 14.194484
59.580 14.333942
59.585 14.150679
59.590 14.008302
59.595 14.417807
59.600 14.552736
59.605 14.671502
59.610 15.037776
59.615 14.625247
59.620 14.947889
59.625 14.614329
59.630 14.054473
59.635 14.267201
59.640 14.105538
59.645 13.91397
59.650 14.053207
59.655 13.630161
59.660 13.957016
59.665 14.296818
59.670 14.482025
59.675 14.813414
59.680 14.921625
59.685 15.106473
59.690 15.357606
59.695 14.958399
59.700 14.70704
59.705 14.516226
59.710 14.504799
59.715 14.493483
59.720 14.103762
59.725 13.885964
59.730 14.173654
59.735 14.099921
59.740 13.828831
59.745 14.142219
59.750 14.564033
59.755 14.556268
59.760 14.751198
59.765 14.343131
59.770 14.484068
59.775 14.440931
59.780 14.261574
59.785 13.941156
59.790 14.274319
59.795 14.409204
59.800 14.775836
59.805 14.508738
59.810 15.066877
59.815 15.432122
59.820 15.536422
59.825 15.004816
59.830 14.655887
59.835 14.389826
59.840 14.494018
59.845 14.240849
59.850 13.510063
59.855 13.59786
59.860 13.473111
59.865 13.821049
59.870 14.37881
59.875 14.527608
59.880 14.446968
59.885 14.627997
59.890 14.966743
59.895 14.926906
59.900 14.822671
59.905 14.356095
59.910 14.076781
59.915 13.75521
59.920 13.571456
59.925 13.671015
59.930 14.316009
59.935 14.399073
59.940 14.405038
59.945 13.897981
59.950 13.995502
59.955 13.983624
59.960 13.701867
59.965 13.66961
59.970 13.697297
59.975 13.706313
59.980 13.998264
59.985 13.977779
59.990 13.976414
59.995 13.948779
60.000 13.877845
60.005 13.903747
60.010 13.899335
60.015 14.396126
60.020 15.015164
60.025 15.035773
60.030 15.415847
60.035 15.258315
60.040 15.393413
60.045 15.884386
60.050 15.568425
60.055 15.288074
60.060 15.031171
60.065 14.95602
60.070 14.639187
60.075 14.375555
60.080 14.090302
60.085 14.210547
60.090 14.09151
60.095 14.119431
60.100 13.732036
60.105 14.043551
60.110 14.33162
60.115 14.389937
60.120 14.489412
60.125 15.044734
60.130 15.39475
60.135 15.706788
60.140 15.632836
60.145 15.261103
60.150 15.075472
60.155 15.160008
60.160 14.636578
60.165 14.68892
60.170 15.167205
60.175 14.877236
60.180 15.311746
60.185 16.104038
60.190 16.099861
60.195 16.148972
60.200 15.900434
60.205 15.841499
60.210 16.522285
60.215 16.664051
60.220 15.680388
60.225 15.600718
60.230 15.700142
60.235 15.680093
60.240 15.274667
60.245 15.146209
60.250 15.045351
60.255 15.139436
60.260 14.984617
60.265 15.179308
60.270 14.941932
60.275 14.771076
60.280 14.525304
60.285 14.401445
60.290 14.599277
60.295 14.980597
60.300 14.681856
60.305 14.998714
60.310 15.004841
60.315 14.988494
60.320 14.922078
60.325 14.56793
60.330 14.516448
60.335 14.887964
60.340 15.041615
60.345 14.974616
60.350 14.536001
60.355 14.569898
60.360 14.250659
60.365 14.22477
60.370 13.921101
60.375 13.743099
60.380 14.049424
60.385 14.578705
60.390 14.761879
60.395 15.197736
60.400 14.730949
60.405 14.514121
60.410 14.59312
60.415 14.543612
60.420 14.346382
60.425 14.212306
60.430 14.599162
60.435 15.316006
60.440 15.506417
60.445 15.631176
60.450 15.557508
60.455 15.464183
60.460 15.472924
60.465 14.800555
60.470 15.302944
60.475 15.27153
60.480 15.059713
60.485 14.755446
60.490 14.552698
60.495 14.139234
60.500 14.221716
60.505 13.194114
60.510 13.033105
60.515 13.24382
60.520 13.540885
60.525 14.08907
60.530 14.374537
60.535 14.26533
60.540 14.493725
60.545 14.608364
60.550 14.753327
60.555 15.024037
60.560 14.787527
60.565 15.142565
60.570 15.287251
60.575 15.511219
60.580 16.387526
60.585 16.57243
60.590 16.454657
60.595 16.710562
60.600 16.479656
60.605 17.102877
60.610 17.149801
60.615 16.604584
60.620 16.329617
60.625 15.825275
60.630 15.489721
60.635 15.419744
60.640 15.262426
60.645 15.331124
60.650 15.623722
60.655 15.565153
60.660 16.088072
60.665 16.309296
60.670 16.619812
60.675 16.219841
60.680 15.917266
60.685 15.358516
60.690 14.95836
60.695 14.872289
60.700 14.312039
60.705 14.179088
60.710 14.270073
60.715 14.512783
60.720 14.713248
60.725 14.772715
60.730 14.813786
60.735 15.270443
60.740 14.73728
60.745 14.699065
60.750 14.703281
60.755 14.859844
60.760 14.886809
60.765 14.843115
60.770 14.713498
60.775 14.620314
60.780 14.161612
60.785 14.03475
60.790 14.356756
60.795 14.625141
60.800 14.418109
60.805 14.152681
60.810 14.495629
60.815 14.671567
60.820 14.612483
60.825 14.35692
60.830 14.228215
60.835 14.368427
60.840 14.47117
60.845 14.24774
60.850 14.241275
60.855 14.21417
60.860 13.932364
60.865 13.49182
60.870 13.349421
60.875 13.25251
60.880 13.854403
60.885 13.656816
60.890 13.621485
60.895 14.082156
60.900 14.521197
60.905 14.667844
60.910 14.701704
60.915 13.954968
60.920 13.775873
60.925 13.648664
60.930 14.071593
60.935 14.045441
60.940 13.988766
60.945 14.252724
60.950 14.509237
60.955 14.931789
60.960 15.218673
60.965 14.574921
60.970 14.330232
60.975 14.767878
60.980 14.84203
60.985 14.936728
60.990 14.679224
60.995 14.355096
61.000 14.740644
61.005 14.865062
61.010 14.69165
61.015 14.804385
61.020 15.15537
61.025 15.25503
61.030 15.240835
61.035 15.142669
61.040 15.087907
61.045 14.970905
61.050 14.628464
61.055 14.21073
61.060 14.045012
61.065 13.834391
61.070 14.26684
61.075 14.587888
61.080 15.305821
61.085 15.376911
61.090 15.990292
61.095 16.029072
61.100 16.028732
61.105 16.091375
61.110 16.32432
61.115 15.479754
61.120 15.52424
61.125 15.093801
61.130 15.452826
61.135 15.247474
61.140 14.510664
61.145 13.758092
61.150 13.788713
61.155 13.697149
61.160 14.224184
61.165 13.89585
61.170 14.154937
61.175 14.711404
61.180 15.063816
61.185 15.279738
61.190 14.730021
61.195 14.129881
61.200 14.895679
61.205 15.510118
61.210 15.46803
61.215 15.721797
61.220 16.126139
61.225 17.067015
61.230 17.161592
61.235 16.322422
61.240 15.763572
61.245 15.6399
61.250 15.561913
61.255 15.217019
61.260 14.975759
61.265 15.126332
61.270 15.530874
61.275 15.561007
61.280 15.509346
61.285 15.517348
61.290 15.843883
61.295 15.926933
61.300 16.038206
61.305 15.64408
61.310 15.446259
61.315 15.00753
61.320 14.844911
61.325 14.422566
61.330 14.75503
61.335 15.486496
61.340 15.753834
61.345 15.951764
61.350 16.383631
61.355 16.156616
61.360 16.096418
61.365 15.583432
61.370 14.8825
61.375 14.730838
61.380 14.723551
61.385 14.378195
61.390 14.51826
61.395 14.247992
61.400 14.448423
61.405 14.610591
61.410 14.602938
61.415 14.598923
61.420 14.75823
61.425 14.727273
61.430 14.862011
61.435 14.625905
61.440 14.316114
61.445 14.587715
61.450 14.087171
61.455 13.989745
61.460 14.439328
61.465 14.749361
61.470 14.720668
61.475 15.353369
61.480 15.005797
61.485 14.88515
61.490 14.729817
61.495 14.773156
61.500 14.852427
61.505 14.625881
61.510 14.019475
61.515 14.160774
61.520 14.604732
61.525 14.495026
61.530 14.154477
61.535 13.993257
61.540 14.782815
61.545 15.861424
61.550 15.833894
61.555 15.996864
61.560 16.516806
61.565 16.958229
61.570 17.613718
61.575 17.329752
61.580 17.141846
61.585 17.889288
61.590 17.923754
61.595 17.472939
61.600 17.213367
61.605 17.01362
61.610 16.940027
61.615 16.783384
61.620 16.369801
61.625 16.389339
61.630 17.053438
61.635 16.95385
61.640 16.797272
61.645 16.533613
61.650 15.869179
61.655 16.297718
61.660 16.693958
61.665 16.192005
61.670 15.991753
61.675 15.919637
61.680 15.917432
61.685 15.962406
61.690 15.299054
61.695 14.87879
61.700 14.554118
61.705 14.838482
61.710 15.134519
61.715 15.104535
61.720 15.306199
61.725 15.139215
61.730 15.170115
61.735 15.370812
61.740 15.021042
61.745 14.635115
61.750 14.674793
61.755 14.635362
61.760 15.084463
61.765 15.185528
61.770 14.72378
61.775 14.803734
61.780 14.906867
61.785 15.150444
61.790 15.574114
61.795 15.367107
61.800 15.451733
61.805 15.9554
61.810 16.004162
61.815 15.983627
61.820 15.433892
61.825 15.265796
61.830 15.177754
61.835 15.121692
61.840 15.438403
61.845 15.632826
61.850 16.118996
61.855 16.527271
61.860 16.436081
61.865 17.074406
61.870 17.418629
61.875 17.521612
61.880 17.919235
61.885 17.692106
61.890 17.690069
61.895 18.026711
61.900 18.045139
61.905 18.021729
61.910 17.784937
61.915 17.091835
61.920 16.881001
61.925 16.56324
61.930 16.291878
61.935 16.037287
61.940 16.196323
61.945 15.83554
61.950 16.126389
61.955 16.155794
61.960 16.043699
61.965 15.768024
61.970 15.96897
61.975 15.611879
61.980 15.311885
61.985 15.285381
61.990 15.576457
61.995 15.688808
62.000 15.326319
62.005 14.957553
62.010 15.047954
62.015 15.568854
62.020 15.671432
62.025 15.887919
62.030 16.180811
62.035 16.52796
62.040 16.67671
62.045 16.630777
62.050 16.658356
62.055 16.365976
62.060 16.382202
62.065 16.292374
62.070 15.734272
62.075 15.479401
62.080 16.042007
62.085 15.9758
62.090 15.845399
62.095 15.034503
62.100 14.308659
62.105 15.109118
62.110 15.415879
62.115 15.267759
62.120 15.005567
62.125 14.68509
62.130 15.398836
62.135 16.632494
62.140 16.36429
62.145 16.149029
62.150 15.819035
62.155 16.305569
62.160 16.857908
62.165 16.626305
62.170 16.393806
62.175 16.827272
62.180 16.857777
62.185 16.826233
62.190 16.63022
62.195 16.395811
62.200 16.616732
62.205 16.24769
62.210 15.706583
62.215 16.09107
62.220 16.383465
62.225 16.486422
62.230 16.603586
62.235 16.184423
62.240 16.377769
62.245 15.877788
62.250 15.148877
62.255 15.144547
62.260 14.902966
62.265 14.576737
62.270 15.161546
62.275 15.43804
62.280 15.295443
62.285 15.147755
62.290 14.588845
62.295 14.637108
62.300 14.951557
62.305 14.464657
62.310 14.253023
62.315 15.540792
62.320 16.405916
62.325 16.859943
62.330 17.487774
62.335 17.461271
62.340 17.600121
62.345 17.638668
62.350 16.419031
62.355 15.592916
62.360 15.446634
62.365 15.304174
62.370 14.94042
62.375 14.618353
62.380 14.405782
62.385 14.745624
62.390 14.977601
62.395 15.144419
62.400 14.702541
62.405 14.980121
62.410 15.418144
62.415 15.908765
62.420 15.777946
62.425 15.702778
62.430 15.63912
62.435 15.860861
62.440 15.661377
62.445 15.605399
62.450 15.405427
62.455 15.71164
62.460 15.568828
62.465 15.002091
62.470 14.819176
62.475 15.151877
62.480 15.243093
62.485 14.8463
62.490 14.480458
62.495 15.145483
62.500 15.566794
62.505 15.585891
62.510 15.221494
62.515 15.478721
62.520 16.34201
62.525 16.404755
62.530 15.838989
62.535 15.827814
62.540 16.471739
62.545 16.309294
62.550 16.141691
62.555 15.973829
62.560 16.308083
62.565 16.464205
62.570 16.593882
62.575 16.437799
62.580 16.107347
62.585 15.759202
62.590 15.360644
62.595 15.294361
62.600 15.288264
62.605 15.504625
62.610 15.885445
62.615 16.263855
62.620 16.623993
62.625 16.983027
62.630 17.195185
62.635 16.90984
62.640 16.37347
62.645 16.450693
62.650 16.640766
62.655 16.490137
62.660 16.355009
62.665 16.133862
62.670 16.839561
62.675 16.876095
62.680 16.676744
62.685 16.430548
62.690 16.635281
62.695 16.151342
62.700 15.905655
62.705 16.109739
62.710 16.374226
62.715 16.480429
62.720 16.598747
62.725 16.207943
62.730 16.765471
62.735 16.98115
62.740 16.529854
62.745 16.416245
62.750 16.310099
62.755 16.60676
62.760 17.200821
62.765 17.143068
62.770 16.730747
62.775 16.522409
62.780 16.309366
62.785 15.92654
62.790 15.834033
62.795 15.275161
62.800 15.186665
62.805 15.193022
62.810 15.133101
62.815 14.908351
62.820 15.057224
62.825 15.252284
62.830 16.011538
62.835 16.135454
62.840 16.723579
62.845 16.6695
62.850 17.11393
62.855 17.162397
62.860 16.900967
62.865 16.337904
62.870 16.632006
62.875 16.466209
62.880 16.526297
62.885 16.285706
62.890 15.997923
62.895 15.938746
62.900 15.80267
62.905 15.628878
62.910 15.303326
62.915 15.159726
62.920 15.351888
62.925 15.502687
62.930 15.610571
62.935 15.75697
62.940 15.643093
62.945 15.393591
62.950 15.556357
62.955 15.68136
62.960 15.663965
62.965 15.672209
62.970 15.723921
62.975 16.058741
62.980 16.568316
62.985 16.443895
62.990 16.369049
62.995 16.382027
63.000 16.999075
63.005 16.651836
63.010 16.889372
63.015 17.023651
63.020 17.305803
63.025 17.454245
63.030 17.551443
63.035 17.16074
63.040 16.586941
63.045 16.068275
63.050 16.015165
63.055 16.189823
63.060 16.183475
63.065 16.157923
63.070 16.05813
63.075 16.839254
63.080 17.057112
63.085 16.708851
63.090 16.128098
63.095 16.0383
63.100 15.830855
63.105 15.184666
63.110 14.665032
63.115 15.110565
63.120 14.930129
63.125 15.763876
63.130 16.238169
63.135 16.454683
63.140 17.267439
63.145 17.464064
63.150 17.41293
63.155 17.288668
63.160 16.126486
63.165 15.706872
63.170 15.6958
63.175 15.587159
63.180 15.318846
63.185 15.211912
63.190 15.485698
63.195 15.794971
63.200 15.985396
63.205 16.073023
63.210 16.662407
63.215 17.282486
63.220 17.270538
63.225 17.09001
63.230 16.898693
63.235 16.283575
63.240 15.892299
63.245 15.11883
63.250 14.983517
63.255 15.248727
63.260 15.292639
63.265 15.763662
63.270 16.176666
63.275 16.206141
63.280 16.47217
63.285 16.557421
63.290 16.498392
63.295 17.420221
63.300 17.806681
63.305 17.921019
63.310 18.315083
63.315 18.31867
63.320 17.887827
63.325 17.730761
63.330 17.433874
63.335 17.132019
63.340 16.851389
63.345 16.371321
63.350 15.941661
63.355 15.73321
63.360 15.85649
63.365 15.331312
63.370 14.999398
63.375 14.638774
63.380 15.026731
63.385 15.378624
63.390 15.727817
63.395 15.844492
63.400 15.765383
63.405 15.763398
63.410 16.443336
63.415 16.300632
63.420 16.166651
63.425 16.423826
63.430 16.231138
63.435 16.432129
63.440 16.685669
63.445 17.032988
63.450 17.166426
63.455 17.535347
63.460 17.63279
63.465 17.822363
63.470 17.739559
63.475 17.612448
63.480 16.89978
63.485 16.535707
63.490 16.301912
63.495 15.788978
63.500 16.003502
63.505 16.330671
63.510 16.113432
63.515 16.583681
63.520 16.649227
63.525 16.419725
63.530 16.31863
63.535 16.155025
63.540 16.005615
63.545 16.509415
63.550 16.18022
63.555 16.328869
63.560 16.83596
63.565 17.004332
63.570 16.97368
63.575 17.259491
63.580 17.204039
63.585 17.248281
63.590 17.202635
63.595 17.579138
63.600 18.007322
63.605 18.566872
63.610 18.540625
63.615 18.308147
63.620 18.738022
63.625 18.709307
63.630 18.338564
63.635 17.810909
63.640 16.950684
63.645 16.909798
63.650 17.083355
63.655 16.951464
63.660 17.733313
63.665 18.040529
63.670 18.146824
63.675 18.092274
63.680 17.552547
63.685 17.479361
63.690 17.205866
63.695 16.523613
63.700 15.962546
63.705 16.390575
63.710 16.950628
63.715 17.513023
63.720 17.603079
63.725 17.315104
63.730 16.96258
63.735 17.332603
63.740 17.04598
63.745 16.571806
63.750 16.20866
63.755 15.753664
63.760 15.861546
63.765 16.475744
63.770 16.689316
63.775 17.06278
63.780 17.930731
63.785 17.827742
63.790 18.102491
63.795 18.197033
63.800 18.240192
63.805 17.964943
63.810 17.640484
63.815 17.403111
63.820 17.445318
63.825 17.263817
63.830 17.405792
63.835 17.163328
63.840 16.960588
63.845 16.779293
63.850 16.710566
63.855 17.032867
63.860 17.103817
63.865 16.731388
63.870 16.953991
63.875 16.911394
63.880 16.609579
63.885 17.142302
63.890 17.42601
63.895 17.736706
63.900 18.458948
63.905 18.467205
63.910 19.258215
63.915 20.037207
63.920 19.859613
63.925 20.235937
63.930 20.690615
63.935 20.912994
63.940 20.891712
63.945 20.479208
63.950 20.46892
63.955 20.526459
63.960 20.849434
63.965 20.475588
63.970 19.934032
63.975 20.340778
63.980 21.237871
63.985 21.542028
63.990 21.340004
63.995 21.403793
64.000 22.217245
64.005 22.737091
64.010 23.571623
64.015 23.969145
64.020 24.63059
64.025 24.704527
64.030 23.96047
64.035 23.875338
64.040 23.996731
64.045 23.64506
64.050 23.389811
64.055 22.985786
64.060 23.376886
64.065 23.505587
64.070 23.034235
64.075 22.336607
64.080 21.685768
64.085 21.771273
64.090 22.133341
64.095 22.13518
64.100 22.989309
64.105 23.77574
64.110 24.585434
64.115 25.307564
64.120 25.168627
64.125 25.328506
64.130 25.732237
64.135 25.630442
64.140 25.694597
64.145 26.164156
64.150 26.228968
64.155 26.597013
64.160 26.542137
64.165 26.125008
64.170 25.554201
64.175 25.392862
64.180 25.666267
64.185 25.89657
64.190 26.797012
64.195 27.756121
64.200 28.445868
64.205 29.244749
64.210 29.512241
64.215 29.517439
64.220 29.098042
64.225 28.603882
64.230 28.783752
64.235 29.021786
64.240 29.736286
64.245 30.579268
64.250 31.267302
64.255 32.548077
64.260 33.551186
64.265 34.177818
64.270 35.065578
64.275 35.107529
64.280 34.526943
64.285 35.257412
64.290 36.296406
64.295 37.40625
64.300 37.632008
64.305 37.751308
64.310 38.424335
64.315 40.059982
64.320 39.754242
64.325 39.498577
64.330 38.671879
64.335 38.33427
64.340 39.422108
64.345 39.679157
64.350 39.402737
64.355 40.239674
64.360 40.966721
64.365 42.173138
64.370 41.93803
64.375 41.867977
64.380 42.101006
64.385 42.352825
64.390 42.122822
64.395 43.585732
64.400 43.8582
64.405 45.146904
64.410 46.177921
64.415 46.398113
64.420 46.595112
64.425 46.227348
64.430 45.957546
64.435 47.180531
64.440 47.656609
64.445 47.497177
64.450 48.254894
64.455 48.510315
64.460 49.183426
64.465 49.21521
64.470 48.623863
64.475 47.679878
64.480 47.152672
64.485 46.933548
64.490 47.107132
64.495 47.614296
64.500 46.901897
64.505 47.246056
64.510 46.349171
64.515 45.560631
64.520 45.185574
64.525 44.18911
64.530 42.92313
64.535 41.736603
64.540 40.376408
64.545 40.279942
64.550 39.462898
64.555 38.331135
64.560 38.405243
64.565 38.429539
64.570 38.504414
64.575 38.389889
64.580 39.405449
64.585 39.157898
64.590 38.783535
64.595 37.708046
64.600 37.044613
64.605 36.151653
64.610 35.567142
64.615 34.710423
64.620 34.881935
64.625 34.788261
64.630 34.249008
64.635 33.654953
64.640 33.215137
64.645 32.844929
64.650 31.50441
64.655 30.75915
64.660 31.031387
64.665 31.689617
64.670 32.289703
64.675 31.762402
64.680 31.808275
64.685 32.394917
64.690 32.288181
64.695 31.432493
64.700 30.958605
64.705 30.125181
64.710 30.077784
64.715 29.523598
64.720 29.228405
64.725 28.248766
64.730 27.582472
64.735 26.924311
64.740 26.610306
64.745 25.866585
64.750 25.306492
64.755 24.824913
64.760 25.00551
64.765 25.007246
64.770 24.82391
64.775 24.187056
64.780 23.928263
64.785 24.081612
64.790 23.91511
64.795 23.885181
64.800 24.270945
64.805 24.364853
64.810 24.930456
64.815 25.430607
64.820 25.005478
64.825 24.777977
64.830 24.65657
64.835 24.263884
64.840 24.070179
64.845 23.521177
64.850 23.276211
64.855 23.349348
64.860 23.039055
64.865 22.777073
64.870 22.526966
64.875 22.161495
64.880 22.351507
64.885 21.623251
64.890 21.114162
64.895 21.179613
64.900 21.461374
64.905 21.231176
64.910 21.375608
64.915 21.436508
64.920 22.216328
64.925 22.825806
64.930 23.454294
64.935 24.044415
64.940 24.732618
64.945 24.878504
64.950 25.110075
64.955 25.873215
64.960 25.795837
64.965 25.841938
64.970 26.216515
64.975 27.282873
64.980 28.032949
64.985 28.497749
64.990 28.758675
64.995 29.400593
65.000 29.994751
65.005 30.308218
65.010 30.511963
65.015 31.024714
65.020 31.817459
65.025 32.016472
65.030 32.370838
65.035 32.186447
65.040 31.676386
65.045 31.333319
65.050 31.293098
65.055 31.294783
65.060 32.114529
65.065 33.312988
65.070 33.826363
65.075 34.393486
65.080 34.95158
65.085 35.37476
65.090 36.154461
65.095 36.198311
65.100 36.022728
65.105 36.421608
65.110 37.087936
65.115 37.648262
65.120 38.23344
65.125 38.568417
65.130 39.307743
65.135 39.911381
65.140 40.268879
65.145 39.604279
65.150 38.756969
65.155 37.681194
65.160 38.015877
65.165 38.350819
65.170 38.236305
65.175 38.516869
65.180 38.415333
65.185 38.767403
65.190 39.172764
65.195 38.669018
65.200 37.949718
65.205 38.169678
65.210 37.834827
65.215 37.918472
65.220 37.466644
65.225 37.483704
65.230 37.215046
65.235 36.70985
65.240 35.52985
65.245 35.019398
65.250 35.372654
65.255 35.900352
65.260 35.248196
65.265 34.266239
65.270 33.730846
65.275 34.716187
65.280 35.500988
65.285 35.320576
65.290 34.985786
65.295 34.92123
65.300 35.156803
65.305 35.782112
65.310 35.506371
65.315 35.201706
65.320 35.515602
65.325 35.458939
65.330 35.867374
65.335 36.361237
65.340 36.296822
65.345 36.253113
65.350 36.181664
65.355 35.575626
65.360 35.668999
65.365 35.119431
65.370 34.175159
65.375 33.373287
65.380 32.647873
65.385 32.151543
65.390 32.225922
65.395 31.877337
65.400 32.088867
65.405 32.711575
65.410 33.572426
65.415 33.981499
65.420 33.899292
65.425 33.696892
65.430 33.430267
65.435 33.385811
65.440 33.389961
65.445 33.395885
65.450 33.498367
65.455 33.500393
65.460 34.361916
65.465 34.774757
65.470 34.990791
65.475 35.029156
65.480 34.73695
65.485 34.725101
65.490 34.973598
65.495 34.169228
65.500 34.708534
65.505 33.71965
65.510 32.856472
65.515 32.700047
65.520 32.690739
65.525 32.75946
65.530 33.196663
65.535 32.550877
65.540 33.212517
65.545 33.573849
65.550 33.06654
65.555 32.902534
65.560 32.762466
65.565 32.450069
65.570 32.660149
65.575 32.652615
65.580 33.238605
65.585 33.43119
65.590 33.525066
65.595 32.994141
65.600 32.774029
65.605 32.423584
65.610 32.068836
65.615 31.761211
65.620 32.285435
65.625 32.748898
65.630 33.218544
65.635 33.501865
65.640 34.500278
65.645 34.012142
65.650 33.313511
65.655 33.330322
65.660 32.720272
65.665 32.908115
65.670 32.9333
65.675 32.279434
65.680 32.692745
65.685 33.384235
65.690 33.379974
65.695 33.879986
65.700 33.58065
65.705 32.850742
65.710 32.901367
65.715 32.093811
65.720 30.788376
65.725 30.039097
65.730 29.113314
65.735 28.953699
65.740 29.146441
65.745 29.029291
65.750 29.669392
65.755 29.782949
65.760 30.077114
65.765 30.123947
65.770 30.15811
65.775 30.071848
65.780 29.757381
65.785 29.487543
65.790 29.272715
65.795 29.263092
65.800 29.479425
65.805 29.31352
65.810 28.679117
65.815 28.40386
65.820 27.664806
65.825 28.341333
65.830 27.877058
65.835 27.057579
65.840 26.972347
65.845 27.371405
65.850 27.518501
65.855 27.117619
65.860 27.095968
65.865 27.260023
65.870 27.060074
65.875 26.838659
65.880 26.22938
65.885 26.26726
65.890 27.031748
65.895 26.173334
65.900 25.898125
65.905 25.53677
65.910 25.387716
65.915 25.448479
65.920 24.917805
65.925 24.263346
65.930 24.297506
65.935 24.130484
65.940 23.677343
65.945 23.730946
65.950 23.680578
65.955 23.610098
65.960 23.669239
65.965 22.914526
65.970 23.03591
65.975 22.898195
65.980 22.21726
65.985 22.443478
65.990 22.184095
65.995 21.553967
66.000 21.485542
66.005 21.366861
66.010 21.861528
66.015 22.209232
66.020 21.647226
66.025 21.905384
66.030 21.819403
66.035 21.866667
66.040 21.556782
66.045 20.786512
66.050 20.341221
66.055 20.219616
66.060 20.164244
66.065 20.396139
66.070 20.244534
66.075 20.425909
66.080 20.517611
66.085 20.686996
66.090 20.383595
66.095 19.819582
66.100 19.787876
66.105 20.237572
66.110 21.033195
66.115 20.862768
66.120 20.282595
66.125 20.544451
66.130 20.351929
66.135 19.47077
66.140 18.220747
66.145 17.311117
66.150 17.820292
66.155 17.961285
66.160 18.192303
66.165 18.589401
66.170 18.633551
66.175 18.86248
66.180 18.355501
66.185 18.455826
66.190 19.00074
66.195 19.285175
66.200 19.319866
66.205 19.479214
66.210 19.878593
66.215 20.123329
66.220 19.630733
66.225 19.131542
66.230 18.905178
66.235 18.800291
66.240 18.810551
66.245 18.617504
66.250 18.485582
66.255 18.553984
66.260 18.475607
66.265 18.651407
66.270 18.71451
66.275 19.101563
66.280 19.111341
66.285 19.125935
66.290 18.994154
66.295 18.48632
66.300 17.991756
66.305 17.686607
66.310 17.387897
66.315 17.216885
66.320 17.346716
66.325 17.798496
66.330 18.312529
66.335 17.918221
66.340 17.099382
66.345 16.772799
66.350 16.734121
66.355 16.764814
66.360 16.33169
66.365 16.561281
66.370 16.940231
66.375 17.539429
66.380 18.062027
66.385 18.689211
66.390 18.930765
66.395 19.106709
66.400 19.180082
66.405 19.245125
66.410 19.591492
66.415 19.462297
66.420 19.08268
66.425 19.03747
66.430 18.68734
66.435 18.568188
66.440 18.43952
66.445 18.424248
66.450 18.677113
66.455 18.987377
66.460 18.952259
66.465 18.772093
66.470 19.138615
66.475 19.600275
66.480 19.444519
66.485 19.269154
66.490 18.717403
66.495 18.551645
66.500 18.77055
66.505 18.601526
66.510 18.316185
66.515 17.647934
66.520 17.213209
66.525 17.116379
66.530 17.21039
66.535 17.269569
66.540 17.200994
66.545 17.032017
66.550 17.245054
66.555 17.244757
66.560 17.536627
66.565 18.025679
66.570 18.265251
66.575 17.7871
66.580 17.527708
66.585 17.715214
66.590 18.33049
66.595 18.41725
66.600 18.12698
66.605 18.39875
66.610 19.04483
66.615 19.597279
66.620 19.501808
66.625 19.050179
66.630 18.64533
66.635 18.297112
66.640 18.063662
66.645 17.723162
66.650 17.429771
66.655 17.274649
66.660 17.760975
66.665 17.597551
66.670 17.39793
66.675 17.280846
66.680 16.792553
66.685 16.752098
66.690 17.12451
66.695 16.768764
66.700 17.068073
66.705 17.226799
66.710 17.40451
66.715 18.087008
66.720 17.757832
66.725 17.139969
66.730 17.006449
66.735 16.373346
66.740 16.236618
66.745 15.725211
66.750 15.990348
66.755 16.307066
66.760 16.921013
66.765 17.438652
66.770 18.364347
66.775 18.425842
66.780 18.614719
66.785 18.439325
66.790 17.877575
66.795 17.320118
66.800 16.828098
66.805 16.608892
66.810 16.504326
66.815 16.576534
66.820 16.80179
66.825 17.435188
66.830 17.439243
66.835 16.986029
66.840 16.766481
66.845 16.952543
66.850 16.76726
66.855 17.011597
66.860 17.166292
66.865 17.146032
66.870 17.825151
66.875 18.21492
66.880 18.829685
66.885 18.576954
66.890 18.285923
66.895 17.84968
66.900 18.306206
66.905 18.339836
66.910 17.627956
66.915 17.272446
66.920 17.398153
66.925 16.88813
66.930 17.06625
66.935 16.652939
66.940 16.989519
66.945 17.458143
66.950 17.648809
66.955 18.320719
66.960 19.210279
66.965 19.587233
66.970 20.195494
66.975 19.764221
66.980 19.834248
66.985 19.252102
66.990 18.51576
66.995 18.167276
67.000 17.557852
67.005 17.461807
67.010 17.668322
67.015 17.697866
67.020 18.104193
67.025 18.16177
67.030 18.003321
67.035 17.661385
67.040 17.541668
67.045 17.461866
67.050 17.497185
67.055 17.189953
67.060 17.330662
67.065 17.458296
67.070 17.296824
67.075 17.665043
67.080 17.880777
67.085 17.567532
67.090 17.929949
67.095 18.01812
67.100 18.772417
67.105 18.769321
67.110 17.876326
67.115 17.325165
67.120 17.816683
67.125 17.576963
67.130 17.673988
67.135 16.862305
67.140 16.704508
67.145 16.949785
67.150 16.67853
67.155 16.033651
67.160 16.170073
67.165 15.96877
67.170 16.097876
67.175 16.062902
67.180 16.087173
67.185 16.776148
67.190 17.225258
67.195 17.649784
67.200 17.614084
67.205 18.226395
67.210 18.104639
67.215 17.745071
67.220 17.4165
67.225 16.61377
67.230 16.365335
67.235 16.686123
67.240 17.130733
67.245 18.090658
67.250 18.042444
67.255 18.132736
67.260 18.212952
67.265 17.933123
67.270 17.379827
67.275 16.860449
67.280 16.936213
67.285 17.347977
67.290 17.326466
67.295 17.391474
67.300 17.885345
67.305 18.773279
67.310 18.486002
67.315 17.833117
67.320 18.121748
67.325 17.925789
67.330 17.802963
67.335 17.392725
67.340 17.230083
67.345 17.403795
67.350 17.673935
67.355 17.217762
67.360 17.242943
67.365 17.570963
67.370 17.672554
67.375 17.737785
67.380 18.1115
67.385 17.959532
67.390 17.882116
67.395 18.458485
67.400 18.403986
67.405 18.204145
67.410 17.658152
67.415 17.280684
67.420 17.21748
67.425 17.683126
67.430 17.442883
67.435 17.540262
67.440 17.836847
67.445 18.144083
67.450 18.334414
67.455 18.601246
67.460 18.5709
67.465 18.554752
67.470 17.654497
67.475 17.28091
67.480 17.665924
67.485 18.356874
67.490 18.202093
67.495 17.695696
67.500 18.17989
67.505 18.558603
67.510 18.514137
67.515 18.180334
67.520 17.878853
67.525 17.890707
67.530 18.113333
67.535 17.546343
67.540 17.219772
67.545 17.048841
67.550 16.793819
67.555 16.098955
67.560 16.178446
67.565 15.724836
67.570 16.1453
67.575 16.536818
67.580 16.847582
67.585 17.215496
67.590 17.724035
67.595 17.967438
67.600 17.594831
67.605 17.504522
67.610 17.824696
67.615 17.536501
67.620 17.784657
67.625 17.809565
67.630 17.951984
67.635 18.099352
67.640 18.037348
67.645 18.146744
67.650 18.669409
67.655 18.799932
67.660 18.627867
67.665 18.379248
67.670 18.339266
67.675 18.415596
67.680 18.119265
67.685 17.385784
67.690 16.938293
67.695 16.796671
67.700 17.044878
67.705 17.147402
67.710 17.059685
67.715 17.296375
67.720 17.39156
67.725 17.151073
67.730 17.212299
67.735 17.384289
67.740 17.450861
67.745 17.483374
67.750 17.332363
67.755 17.334702
67.760 17.892035
67.765 17.9195
67.770 17.91111
67.775 17.879869
67.780 17.721115
67.785 17.746271
67.790 18.093119
67.795 18.261055
67.800 18.339079
67.805 18.041847
67.810 17.934162
67.815 18.057072
67.820 18.551626
67.825 18.372047
67.830 18.026173
67.835 17.688709
67.840 18.038086
67.845 18.234875
67.850 18.213644
67.855 17.766886
67.860 17.760693
67.865 17.681593
67.870 18.13751
67.875 18.018827
67.880 17.189287
67.885 17.287407
67.890 17.369938
67.895 17.529991
67.900 17.820648
67.905 18.190105
67.910 18.554352
67.915 19.154552
67.920 19.317722
67.925 19.094109
67.930 19.230057
67.935 19.715717
67.940 18.842646
67.945 19.002293
67.950 19.197039
67.955 18.567106
67.960 18.599705
67.965 18.114004
67.970 18.112467
67.975 18.549538
67.980 18.225809
67.985 17.646763
67.990 17.444393
67.995 17.41523
68.000 18.116402
68.005 18.18391
68.010 18.2502
68.015 18.076698
68.020 18.682436
68.025 19.088758
68.030 19.058107
68.035 18.515869
68.040 17.95229
68.045 18.171286
68.050 18.768663
68.055 19.525726
68.060 19.435633
68.065 19.369802
68.070 19.467804
68.075 19.697269
68.080 19.463076
68.085 19.415735
68.090 18.520882
68.095 18.690865
68.100 18.754259
68.105 18.734041
68.110 18.886614
68.115 19.448275
68.120 19.317389
68.125 19.94055
68.130 19.906599
68.135 20.009861
68.140 19.959085
68.145 19.376381
68.150 19.684822
68.155 20.018707
68.160 20.100191
68.165 20.23395
68.170 20.338953
68.175 21.149633
68.180 21.993254
68.185 21.609705
68.190 21.549355
68.195 21.218927
68.200 20.863026
68.205 20.86581
68.210 20.941263
68.215 20.809135
68.220 20.27742
68.225 20.150509
68.230 20.503502
68.235 21.463217
68.240 21.507545
68.245 21.114405
68.250 21.133169
68.255 21.686129
68.260 22.065201
68.265 22.230785
68.270 21.531132
68.275 21.30648
68.280 21.266293
68.285 20.873594
68.290 20.811022
68.295 20.775312
68.300 21.159529
68.305 21.859226
68.310 22.992495
68.315 24.047199
68.320 24.810892
68.325 25.325623
68.330 25.692551
68.335 25.314037
68.340 25.124905
68.345 25.161989
68.350 25.564486
68.355 25.590012
68.360 26.243731
68.365 26.265043
68.370 27.309076
68.375 27.801987
68.380 27.943707
68.385 28.225225
68.390 29.466942
68.395 30.101221
68.400 30.401642
68.405 30.6
68.410 31.129837
68.415 31.275597
68.420 31.131083
68.425 31.436165
68.430 30.909275
68.435 30.719587
68.440 30.860527
68.445 30.70735
68.450 30.764658
68.455 30.544849
68.460 30.300009
68.465 31.103815
68.470 32.104904
68.475 32.558186
68.480 33.123524
68.485 34.367645
68.490 34.327835
68.495 33.687962
68.500 33.381157
68.505 33.471859
68.510 33.410042
68.515 32.814617
68.520 31.969107
68.525 32.786949
68.530 32.994606
68.535 32.462399
68.540 32.090294
68.545 31.62921
68.550 31.472071
68.555 32.183216
68.560 32.763287
68.565 33.369217
68.570 33.407425
68.575 32.665436
68.580 32.920952
68.585 33.230106
68.590 32.587879
68.595 30.869858
68.600 30.796684
68.605 30.266951
68.610 30.533482
68.615 30.746689
68.620 30.375525
68.625 30.313343
68.630 31.202335
68.635 30.977448
68.640 31.42415
68.645 31.342367
68.650 31.979607
68.655 31.368593
68.660 31.197491
68.665 30.741426
68.670 30.458796
68.675 30.447363
68.680 30.918943
68.685 30.921652
68.690 32.033054
68.695 32.692341
68.700 33.093536
68.705 33.292847
68.710 33.136978
68.715 32.715626
68.720 32.470844
68.725 31.658123
68.730 31.616947
68.735 31.893318
68.740 31.977873
68.745 32.194572
68.750 31.68405
68.755 31.109724
68.760 31.070835
68.765 31.039175
68.770 31.281483
68.775 31.063745
68.780 30.743904
68.785 31.105637
68.790 31.210854
68.795 31.981857
68.800 31.592846
68.805 31.68396
68.810 32.782616
68.815 32.762585
68.820 32.729389
68.825 32.964867
68.830 32.05954
68.835 31.570967
68.840 30.903286
68.845 30.6612
68.850 30.115152
68.855 29.541077
68.860 29.236383
68.865 29.679737
68.870 30.072021
68.875 29.826488
68.880 28.483364
68.885 28.909136
68.890 29.142635
68.895 29.196947
68.900 29.070402
68.905 28.509998
68.910 28.775949
68.915 28.846691
68.920 28.903275
68.925 29.586727
68.930 29.259817
68.935 28.890314
68.940 30.060825
68.945 30.311007
68.950 29.969481
68.955 29.26899
68.960 28.837872
68.965 29.063343
68.970 29.525326
68.975 29.067097
68.980 29.3491
68.985 30.108547
68.990 30.346735
68.995 29.904566
69.000 30.522774
69.005 29.708263
69.010 28.722527
69.015 28.144848
69.020 27.732449
69.025 27.817781
69.030 27.967478
69.035 27.239798
69.040 27.080713
69.045 27.499899
69.050 27.768047
69.055 27.49663
69.060 26.653496
69.065 26.561544
69.070 25.970858
69.075 26.460447
69.080 26.923964
69.085 27.408405
69.090 28.214062
69.095 28.950127
69.100 28.595619
69.105 28.977257
69.110 27.989454
69.115 27.34584
69.120 26.326313
69.125 25.41851
69.130 24.676136
69.135 24.301064
69.140 23.684246
69.145 23.041855
69.150 22.869095
69.155 22.906628
69.160 22.767601
69.165 22.332352
69.170 21.707926
69.175 21.325523
69.180 21.106285
69.185 20.650991
69.190 20.829115
69.195 20.770914
69.200 21.15551
69.205 21.516991
69.210 21.34627
69.215 20.981731
69.220 20.724207
69.225 20.510469
69.230 20.828213
69.235 20.617809
69.240 20.35297
69.245 20.816444
69.250 21.584421
69.255 21.655479
69.260 21.515789
69.265 21.194408
69.270 21.031673
69.275 21.386541
69.280 21.20949
69.285 20.640247
69.290 20.551306
69.295 20.562233
69.300 20.935244
69.305 21.096693
69.310 21.204611
69.315 20.788013
69.320 21.28377
69.325 20.758522
69.330 19.79092
69.335 19.433077
69.340 19.217422
69.345 18.07312
69.350 18.154913
69.355 17.769079
69.360 18.335066
69.365 18.750847
69.370 18.518063
69.375 18.58312
69.380 19.760897
69.385 20.538668
69.390 20.970751
69.395 20.446707
69.400 19.800592
69.405 19.873638
69.410 19.95178
69.415 19.660877
69.420 19.105604
69.425 18.878628
69.430 19.754553
69.435 20.776888
69.440 21.034502
69.445 21.099632
69.450 21.476948
69.455 21.395542
69.460 21.260223
69.465 20.762943
69.470 20.174046
69.475 19.736319
69.480 19.57341
69.485 19.348829
69.490 18.97847
69.495 18.676046
69.500 18.274
69.505 18.484793
69.510 18.24412
69.515 17.969919
69.520 17.919296
69.525 18.441095
69.530 18.529417
69.535 18.833038
69.540 19.200991
69.545 19.610249
69.550 19.42807
69.555 19.53792
69.560 19.600655
69.565 19.697567
69.570 19.799543
69.575 19.164982
69.580 19.29463
69.585 19.623756
69.590 19.184072
69.595 18.722504
69.600 18.253479
69.605 17.864801
69.610 18.005556
69.615 17.986807
69.620 17.743546
69.625 17.681347
69.630 18.143679
69.635 18.438742
69.640 18.573465
69.645 18.657946
69.650 18.1591
69.655 18.169601
69.660 17.570967
69.665 16.722696
69.670 16.390368
69.675 16.478058
69.680 16.568821
69.685 16.684965
69.690 17.337572
69.695 18.116791
69.700 19.033064
69.705 19.077543
69.710 19.324173
69.715 19.600885
69.720 19.539278
69.725 19.210087
69.730 19.252207
69.735 19.809679
69.740 19.968086
69.745 19.557165
69.750 18.882069
69.755 18.949085
69.760 18.897623
69.765 18.232679
69.770 17.974445
69.775 17.751907
69.780 18.414557
69.785 18.818113
69.790 18.94326
69.795 18.994015
69.800 18.858875
69.805 19.181252
69.810 18.693163
69.815 18.07798
69.820 18.127058
69.825 18.125553
69.830 18.155886
69.835 17.896357
69.840 17.487717
69.845 17.912849
69.850 18.495016
69.855 18.434416
69.860 17.550785
69.865 17.345232
69.870 17.754778
69.875 17.748783
69.880 17.663494
69.885 17.114939
69.890 16.741314
69.895 16.810968
69.900 17.290915
69.905 17.09572
69.910 17.070877
69.915 17.040058
69.920 17.609802
69.925 17.946766
69.930 18.099598
69.935 17.710024
69.940 17.561398
69.945 17.534555
69.950 17.478287
69.955 17.444019
69.960 17.346697
69.965 17.049501
69.970 16.909496
69.975 16.957249
69.980 17.022745
69.985 16.66552
69.990 16.474957
69.995 16.677122
70.000 17.058317
70.005 16.983181
70.010 16.63106
70.015 16.257986
70.020 16.620836
70.025 16.58375
70.030 16.287245
70.035 16.64646
70.040 16.772255
70.045 16.916262
70.050 16.802002
70.055 16.622278
70.060 16.670485
70.065 16.632671
70.070 16.672369
70.075 16.523785
70.080 16.757635
70.085 16.933823
70.090 16.601383
70.095 16.734474
70.100 16.503788
70.105 16.775698
70.110 17.109781
70.115 17.019684
70.120 17.14394
70.125 17.360132
70.130 17.743353
70.135 18.635008
70.140 18.661572
70.145 19.260321
70.150 19.351669
70.155 19.516657
70.160 19.298119
70.165 19.19231
70.170 18.870264
70.175 18.316036
70.180 17.444998
70.185 17.540499
70.190 17.470154
70.195 17.87483
70.200 17.639986
70.205 17.159512
70.210 17.095509
70.215 17.37746
70.220 17.872887
70.225 18.150053
70.230 18.246241
70.235 18.257675
70.240 18.252354
70.245 18.987299
70.250 18.864134
70.255 18.283092
70.260 18.274343
70.265 18.334347
70.270 18.761698
70.275 18.909313
70.280 18.903116
70.285 19.020624
70.290 18.906961
70.295 18.365427
70.300 17.947186
70.305 18.172407
70.310 17.856926
70.315 17.57539
70.320 17.75795
70.325 17.909809
70.330 18.107141
70.335 17.971161
70.340 17.796316
70.345 17.552372
70.350 17.464977
70.355 18.128525
70.360 18.471479
70.365 18.056255
70.370 17.748075
70.375 17.465828
70.380 17.906496
70.385 17.327135
70.390 16.3083
70.395 16.023113
70.400 16.317595
70.405 16.64971
70.410 16.658005
70.415 16.75894
70.420 17.203869
70.425 17.548275
70.430 17.452568
70.435 17.14805
70.440 17.246878
70.445 16.860765
70.450 16.584438
70.455 16.363901
70.460 16.361221
70.465 16.549505
70.470 17.037338
70.475 17.60479
70.480 17.907068
70.485 18.112936
70.490 18.357248
70.495 18.142189
70.500 18.305178
70.505 17.828697
70.510 17.815763
70.515 17.6029
70.520 17.280806
70.525 17.113308
70.530 17.50959
70.535 17.273577
70.540 17.160357
70.545 17.730288
70.550 18.054457
70.555 18.03581
70.560 18.260494
70.565 18.116926
70.570 18.478148
70.575 18.412426
70.580 18.216381
70.585 18.243721
70.590 18.040218
70.595 17.864103
70.600 17.60218
70.605 17.520664
70.610 17.749199
70.615 18.086164
70.620 18.684799
70.625 18.800611
70.630 18.51976
70.635 18.599831
70.640 18.908104
70.645 18.671076
70.650 17.084597
70.655 16.804892
70.660 16.681414
70.665 16.909256
70.670 16.741926
70.675 16.384315
70.680 16.273159
70.685 16.582993
70.690 16.479326
70.695 16.332525
70.700 16.263956
70.705 16.297409
70.710 16.12314
70.715 16.064999
70.720 16.193043
70.725 16.087189
70.730 16.070797
70.735 16.112324
70.740 15.753473
70.745 15.782001
70.750 15.689158
70.755 15.440792
70.760 15.782664
70.765 15.763797
70.770 15.672715
70.775 15.930593
70.780 15.979869
70.785 16.647549
70.790 17.172504
70.795 17.29501
70.800 17.733944
70.805 17.869209
70.810 17.873323
70.815 17.779987
70.820 17.474421
70.825 17.150496
70.830 17.08898
70.835 16.847807
70.840 16.850782
70.845 17.284353
70.850 17.551512
70.855 17.316072
70.860 17.098005
70.865 17.027048
70.870 17.028675
70.875 16.8626
70.880 16.181831
70.885 15.845226
70.890 16.405661
70.895 17.183756
70.900 17.760204
70.905 17.727472
70.910 17.59454
70.915 17.498337
70.920 17.400749
70.925 17.190033
70.930 16.748358
70.935 16.597631
70.940 16.586449
70.945 17.582495
70.950 18.657223
70.955 19.199799
70.960 19.295046
70.965 18.798826
70.970 19.011663
70.975 19.309662
70.980 18.983803
70.985 19.182116
70.990 18.689999
70.995 18.747168
71.000 19.301846
71.005 18.776478
71.010 18.507837
71.015 18.197412
71.020 18.178892
71.025 18.457306
71.030 18.285854
71.035 18.570917
71.040 18.709351
71.045 18.075548
71.050 17.548836
71.055 17.218887
71.060 16.749561
71.065 16.444298
71.070 16.389868
71.075 16.297731
71.080 16.448284
71.085 16.849056
71.090 17.03833
71.095 17.056641
71.100 16.967133
71.105 17.221186
71.110 18.249924
71.115 18.161108
71.120 18.036016
71.125 18.303356
71.130 18.578936
71.135 18.343473
71.140 17.601406
71.145 17.204901
71.150 17.171099
71.155 17.039988
71.160 16.436037
71.165 16.595486
71.170 16.496445
71.175 16.278833
71.180 16.046721
71.185 16.458006
71.190 16.574421
71.195 16.670059
71.200 16.793026
71.205 17.972204
71.210 18.360023
71.215 18.340128
71.220 18.5627
71.225 18.41633
71.230 18.091148
71.235 17.705853
71.240 17.305529
71.245 17.402985
71.250 17.277987
71.255 16.770166
71.260 17.138519
71.265 17.967808
71.270 18.044481
71.275 18.11936
71.280 18.054636
71.285 18.321039
71.290 18.530787
71.295 18.295277
71.300 18.033131
71.305 17.639847
71.310 17.341908
71.315 17.7568
71.320 17.342539
71.325 17.317831
71.330 17.452332
71.335 17.195322
71.340 16.767649
71.345 17.098797
71.350 17.20195
71.355 17.482872
71.360 17.519033
71.365 16.723274
71.370 17.322788
71.375 17.611267
71.380 16.730679
71.385 16.352137
71.390 15.876499
71.395 15.622585
71.400 15.93991
71.405 15.837805
71.410 16.295351
71.415 16.934694
71.420 17.078629
71.425 17.304962
71.430 17.316748
71.435 17.508486
71.440 17.570107
71.445 17.439735
71.450 17.447201
71.455 17.356848
71.460 18.12809
71.465 18.985022
71.470 19.255009
71.475 19.527349
71.480 19.136684
71.485 18.625576
71.490 17.950109
71.495 17.269466
71.500 16.3715
71.505 15.428512
71.510 14.838071
71.515 14.831638
71.520 15.487213
71.525 16.31045
71.530 16.716711
71.535 17.021227
71.540 17.947176
71.545 18.137426
71.550 18.417583
71.555 18.447998
71.560 18.24692
71.565 17.936934
71.570 17.307037
71.575 16.420147
71.580 16.05669
71.585 15.875845
71.590 15.583667
71.595 15.319247
71.600 16.518606
71.605 17.412872
71.610 18.109688
71.615 18.501263
71.620 18.851767
71.625 18.924122
71.630 18.51557
71.635 17.735283
71.640 17.558361
71.645 17.331835
71.650 17.073301
71.655 16.978073
71.660 17.242451
71.665 17.461681
71.670 18.077591
71.675 18.917641
71.680 19.187439
71.685 19.276861
71.690 19.488802
71.695 19.568624
71.700 19.538074
71.705 18.879641
71.710 18.628733
71.715 18.654495
71.720 18.999226
71.725 18.410759
71.730 18.055893
71.735 17.771185
71.740 17.39953
71.745 17.429497
71.750 16.845243
71.755 16.902935
71.760 17.237679
71.765 17.248173
71.770 17.311537
71.775 17.5431
71.780 17.729067
71.785 17.359859
71.790 17.100796
71.795 16.857103
71.800 16.94746
71.805 16.942358
71.810 16.308899
71.815 16.71789
71.820 17.093605
71.825 17.177021
71.830 17.258997
71.835 17.665171
71.840 18.261307
71.845 18.27434
71.850 18.188004
71.855 18.379547
71.860 18.563314
71.865 18.429659
71.870 18.244831
71.875 17.850748
71.880 17.568127
71.885 17.597029
71.890 17.422049
71.895 17.511425
71.900 17.484751
71.905 17.822605
71.910 17.721468
71.915 17.819258
71.920 18.291775
71.925 18.249416
71.930 18.362326
71.935 18.621962
71.940 18.745222
71.945 19.560068
71.950 19.215456
71.955 19.014818
71.960 18.651676
71.965 18.183405
71.970 17.534788
71.975 16.825365
71.980 16.699635
71.985 16.425287
71.990 16.072756
71.995 16.337759
72.000 16.43638
72.005 17.139555
72.010 17.296535
72.015 17.426498
72.020 17.847944
72.025 18.14864
72.030 18.259697
72.035 18.58119
72.040 18.484629
72.045 17.75992
72.050 17.217636
72.055 17.18335
72.060 17.31415
72.065 17.15489
72.070 16.826729
72.075 17.424473
72.080 17.749699
72.085 17.887283
72.090 17.607533
72.095 17.299349
72.100 17.466957
72.105 17.53809
72.110 17.325342
72.115 17.842159
72.120 18.407654
72.125 18.217745
72.130 18.015865
72.135 18.165525
72.140 17.744289
72.145 16.86928
72.150 15.826891
72.155 15.882927
72.160 16.595928
72.165 16.835407
72.170 16.417604
72.175 17.141674
72.180 17.977238
72.185 18.419849
72.190 18.452566
72.195 18.690916
72.200 18.995401
72.205 18.914442
72.210 18.198486
72.215 18.44239
72.220 17.992619
72.225 17.525021
72.230 16.936903
72.235 17.093094
72.240 17.029999
72.245 17.004263
72.250 17.65424
72.255 17.931286
72.260 17.654758
72.265 17.391382
72.270 17.568762
72.275 17.903343
72.280 17.964628
72.285 17.361769
72.290 17.516891
72.295 18.488899
72.300 18.765062
72.305 18.3118
72.310 18.303423
72.315 18.771852
72.320 18.840498
72.325 18.640411
72.330 18.193714
72.335 18.304184
72.340 18.743654
72.345 18.495895
72.350 18.113424
72.355 18.153208
72.360 17.883694
72.365 17.180445
72.370 16.454475
72.375 16.076992
72.380 16.282648
72.385 15.890965
72.390 15.943669
72.395 16.384411
72.400 16.650164
72.405 17.35697
72.410 17.722315
72.415 17.752813
72.420 18.261299
72.425 18.228298
72.430 18.2841
72.435 18.149412
72.440 17.456892
72.445 17.02108
72.450 16.779881
72.455 16.67589
72.460 16.655127
72.465 16.62962
72.470 16.781769
72.475 16.885881
72.480 17.118652
72.485 17.250271
72.490 16.82159
72.495 16.553974
72.500 16.497614
72.505 16.430862
72.510 17.053913
72.515 17.270134
72.520 17.278654
72.525 17.683661
72.530 17.67979
72.535 17.738119
72.540 17.764709
72.545 17.372705
72.550 17.329878
72.555 17.517368
72.560 17.526396
72.565 17.419411
72.570 17.14423
72.575 17.021669
72.580 16.564709
72.585 17.083973
72.590 17.468285
72.595 17.593193
72.600 17.977938
72.605 18.548256
72.610 18.902029
72.615 19.190973
72.620 18.845566
72.625 18.83239
72.630 18.966904
72.635 19.241268
72.640 18.44314
72.645 18.029663
72.650 17.736671
72.655 17.568804
72.660 16.918575
72.665 16.38401
72.670 16.310514
72.675 16.510637
72.680 16.425741
72.685 15.939795
72.690 15.64606
72.695 16.002125
72.700 15.996155
72.705 16.144703
72.710 16.07988
72.715 16.11208
72.720 15.918281
72.725 16.004309
72.730 16.195274
72.735 16.292173
72.740 16.735437
72.745 17.147417
72.750 17.625576
72.755 18.210556
72.760 17.789637
72.765 17.631439
72.770 17.500669
72.775 17.37365
72.780 17.665134
72.785 17.900364
72.790 17.150557
72.795 17.165316
72.800 17.235207
72.805 16.994389
72.810 16.710066
72.815 16.65033
72.820 16.476952
72.825 17.229959
72.830 17.564373
72.835 17.226614
72.840 17.057396
72.845 16.938208
72.850 17.021704
72.855 17.018053
72.860 16.465998
72.865 16.399075
72.870 16.577997
72.875 16.337843
72.880 15.895173
72.885 15.55842
72.890 15.95872
72.895 16.183393
72.900 15.621896
72.905 15.49713
72.910 15.998824
72.915 16.208477
72.920 16.124449
72.925 15.486379
72.930 15.600733
72.935 16.200363
72.940 16.337284
72.945 16.180668
72.950 16.378614
72.955 16.688354
72.960 17.543224
72.965 17.532148
72.970 17.974777
72.975 18.167288
72.980 18.375618
72.985 17.667919
72.990 16.787363
72.995 16.143826
73.000 16.089886
