!@!!GADDS PLOTSO FILE: Chi integration type
!@!!Title/SampleName: map-12
!@!!Comment: ?
!@!!User: Bruker Instrument Administrator
!@!!Site: University of Illinois Chicago
!@!!Frame: map-12_01_000.gfrm
!@!!Wavelengths    1.54184   1.54056   1.54439
!@!!Frame angles: 2Theta: 63.000 Omega: 50.000 Phi: 0.000 Chi: 90.000
!@!!Integration range: 2Theta: 53.000 to 73.000  Gamma: -105.000 to -75.000
!@!!Integration method: bin normalized
!@!N
!@!SS
!@!M
!@!L 0.0 0.0 0.0 0.0
!@!XDegrees
!@!YCounts
53.000 7.794127
53.005 7.5519
53.010 7.222321
53.015 7.306905
53.020 6.972452
53.025 6.614917
53.030 7.074863
53.035 7.310298
53.040 7.19871
53.045 7.176468
53.050 7.417098
53.055 7.981758
53.060 8.326046
53.065 8.183972
53.070 8.249171
53.075 7.919822
53.080 7.926424
53.085 8.009295
53.090 8.208043
53.095 8.656552
53.100 8.759414
53.105 8.766269
53.110 8.865314
53.115 8.765581
53.120 8.607541
53.125 8.491699
53.130 8.456122
53.135 8.799578
53.140 9.15674
53.145 9.27134
53.150 9.341244
53.155 9.511689
53.160 9.311189
53.165 8.857717
53.170 8.376007
53.175 8.398252
53.180 8.85425
53.185 8.709281
53.190 8.089915
53.195 8.222005
53.200 8.417732
53.205 8.422285
53.210 7.867686
53.215 7.812222
53.220 8.119688
53.225 7.750354
53.230 7.284506
53.235 7.343205
53.240 7.756188
53.245 7.824721
53.250 7.226946
53.255 7.474202
53.260 8.067864
53.265 8.426147
53.270 8.537238
53.275 8.377076
53.280 8.737594
53.285 8.978807
53.290 9.221674
53.295 9.226774
53.300 9.313589
53.305 9.389798
53.310 9.39443
53.315 9.273233
53.320 9.409165
53.325 8.829846
53.330 8.734818
53.335 8.269487
53.340 7.938214
53.345 7.79376
53.350 7.921752
53.355 7.909423
53.360 7.917796
53.365 7.97889
53.370 8.43922
53.375 8.619787
53.380 8.654577
53.385 8.679144
53.390 9.391298
53.395 9.707023
53.400 9.780385
53.405 9.985491
53.410 9.979406
53.415 9.9821
53.420 9.758196
53.425 9.125854
53.430 8.895655
53.435 8.996174
53.440 8.757137
53.445 9.205678
53.450 9.304749
53.455 9.413196
53.460 10.014266
53.465 9.946522
53.470 9.907146
53.475 9.818259
53.480 9.235647
53.485 9.262631
53.490 9.191603
53.495 8.505997
53.500 8.541254
53.505 8.721648
53.510 8.812606
53.515 9.182151
53.520 9.10494
53.525 9.315179
53.530 9.020911
53.535 8.971913
53.540 8.829463
53.545 8.745296
53.550 8.419763
53.555 8.402837
53.560 8.520148
53.565 9.285771
53.570 9.429602
53.575 9.582491
53.580 9.618872
53.585 9.561698
53.590 9.358213
53.595 9.404531
53.600 9.356044
53.605 9.102942
53.610 9.305087
53.615 9.315639
53.620 8.957772
53.625 9.197498
53.630 8.666884
53.635 8.513999
53.640 8.639653
53.645 8.251256
53.650 8.413775
53.655 8.402097
53.660 8.268681
53.665 8.212239
53.670 7.784055
53.675 7.40039
53.680 7.240426
53.685 7.163656
53.690 7.419281
53.695 7.714017
53.700 8.183926
53.705 8.457358
53.710 8.806096
53.715 9.492976
53.720 9.648567
53.725 9.61658
53.730 9.504145
53.735 9.905692
53.740 9.939532
53.745 9.921469
53.750 9.882609
53.755 9.540253
53.760 9.453646
53.765 9.428391
53.770 9.360763
53.775 9.434691
53.780 9.198867
53.785 9.201383
53.790 9.615391
53.795 9.602266
53.800 9.321011
53.805 9.053703
53.810 9.429493
53.815 9.799914
53.820 9.590378
53.825 9.808208
53.830 9.530581
53.835 9.394313
53.840 9.460253
53.845 9.312803
53.850 9.27887
53.855 9.410282
53.860 9.325331
53.865 9.344027
53.870 9.523238
53.875 9.25923
53.880 9.115322
53.885 8.966815
53.890 8.741529
53.895 9.012305
53.900 9.539413
53.905 9.463549
53.910 9.407025
53.915 9.906882
53.920 10.342967
53.925 10.619343
53.930 10.207253
53.935 10.012442
53.940 10.254521
53.945 10.483237
53.950 9.814977
53.955 9.650634
53.960 9.707535
53.965 9.949234
53.970 9.871446
53.975 9.631827
53.980 9.172924
53.985 9.249909
53.990 9.213263
53.995 8.961589
54.000 8.952188
54.005 8.858861
54.010 8.857704
54.015 9.42974
54.020 9.481194
54.025 9.275603
54.030 9.041412
54.035 9.230093
54.040 9.521634
54.045 9.647628
54.050 9.440582
54.055 9.702972
54.060 10.247455
54.065 10.22437
54.070 9.978955
54.075 9.623961
54.080 9.620671
54.085 9.470476
54.090 9.007145
54.095 9.012278
54.100 9.195999
54.105 9.428389
54.110 9.701201
54.115 9.677562
54.120 9.671235
54.125 9.586823
54.130 9.595224
54.135 9.638512
54.140 9.544377
54.145 9.848289
54.150 9.645395
54.155 9.838802
54.160 10.423315
54.165 10.213212
54.170 10.115577
54.175 9.731624
54.180 9.566583
54.185 9.77041
54.190 9.687702
54.195 9.241164
54.200 9.426883
54.205 9.36885
54.210 9.269835
54.215 9.087052
54.220 9.028852
54.225 9.084745
54.230 9.123336
54.235 8.952218
54.240 9.188157
54.245 10.090271
54.250 10.677696
54.255 10.672771
54.260 10.959352
54.265 11.126555
54.270 11.087048
54.275 10.996211
54.280 10.444786
54.285 9.882364
54.290 9.920539
54.295 9.954337
54.300 9.883164
54.305 10.108718
54.310 10.018076
54.315 9.96068
54.320 10.259985
54.325 10.033628
54.330 9.977024
54.335 10.323015
54.340 11.016102
54.345 10.75552
54.350 10.902901
54.355 11.041445
54.360 10.793558
54.365 10.769922
54.370 10.482009
54.375 10.385846
54.380 10.73306
54.385 10.597312
54.390 10.553597
54.395 10.140594
54.400 9.99754
54.405 9.829288
54.410 9.617837
54.415 9.71874
54.420 9.691479
54.425 9.805291
54.430 10.283762
54.435 9.937338
54.440 9.856393
54.445 9.905503
54.450 9.81945
54.455 9.584081
54.460 9.680661
54.465 9.469933
54.470 10.292251
54.475 10.677831
54.480 10.760055
54.485 10.615339
54.490 10.823393
54.495 10.703487
54.500 10.683855
54.505 10.226791
54.510 9.812124
54.515 9.731915
54.520 9.74235
54.525 9.658652
54.530 9.445374
54.535 9.422921
54.540 9.339624
54.545 9.370461
54.550 9.877355
54.555 10.349023
54.560 10.499132
54.565 10.757863
54.570 10.750927
54.575 10.97013
54.580 10.763805
54.585 10.23326
54.590 9.936535
54.595 9.711788
54.600 9.94476
54.605 10.09341
54.610 10.135064
54.615 10.458304
54.620 10.469515
54.625 10.388384
54.630 10.274758
54.635 10.288666
54.640 10.316057
54.645 9.926985
54.650 9.647506
54.655 9.685265
54.660 10.115497
54.665 10.396192
54.670 10.779311
54.675 10.756023
54.680 11.032635
54.685 11.372359
54.690 11.31948
54.695 11.264451
54.700 10.831692
54.705 10.510177
54.710 10.267497
54.715 10.321555
54.720 10.350998
54.725 10.361621
54.730 9.889629
54.735 9.609627
54.740 9.799388
54.745 10.019925
54.750 9.786097
54.755 9.408634
54.760 8.862979
54.765 9.2686
54.770 9.294911
54.775 9.170036
54.780 9.150712
54.785 9.384683
54.790 9.973303
54.795 10.447556
54.800 10.787436
54.805 10.925941
54.810 11.242584
54.815 11.487149
54.820 11.43421
54.825 11.680596
54.830 11.441664
54.835 11.453438
54.840 11.454621
54.845 11.090088
54.850 10.879137
54.855 10.529883
54.860 10.015872
54.865 9.900307
54.870 9.853024
54.875 10.030515
54.880 10.728442
54.885 11.133827
54.890 11.749354
54.895 12.1955
54.900 12.627281
54.905 12.070911
54.910 11.676198
54.915 10.970642
54.920 10.783474
54.925 10.709208
54.930 10.590442
54.935 10.411593
54.940 10.755281
54.945 10.723109
54.950 10.511203
54.955 10.176491
54.960 9.941931
54.965 10.03078
54.970 9.952981
54.975 9.852015
54.980 9.569301
54.985 9.996208
54.990 10.290972
54.995 10.691005
55.000 10.873254
55.005 11.004489
55.010 11.075768
55.015 11.345781
55.020 10.825812
55.025 11.183093
55.030 11.328023
55.035 11.269004
55.040 11.353503
55.045 11.630391
55.050 11.775909
55.055 12.249506
55.060 11.743286
55.065 11.192139
55.070 11.231415
55.075 11.419025
55.080 11.130001
55.085 10.786393
55.090 10.438522
55.095 10.501114
55.100 10.671853
55.105 10.453474
55.110 10.264462
55.115 10.420386
55.120 10.555575
55.125 9.813388
55.130 9.666267
55.135 9.763319
55.140 9.83807
55.145 9.77561
55.150 9.573565
55.155 9.653799
55.160 10.207625
55.165 10.123366
55.170 9.9294
55.175 9.795009
55.180 10.104479
55.185 10.550947
55.190 11.003476
55.195 11.377076
55.200 11.276533
55.205 11.412752
55.210 11.496969
55.215 11.277428
55.220 11.159138
55.225 11.028385
55.230 10.870279
55.235 11.360694
55.240 11.68376
55.245 11.727774
55.250 12.104091
55.255 11.902191
55.260 12.092768
55.265 12.037116
55.270 12.022491
55.275 12.147007
55.280 12.231162
55.285 12.035651
55.290 12.254181
55.295 11.626715
55.300 11.271038
55.305 10.510984
55.310 9.960362
55.315 10.097837
55.320 10.084602
55.325 9.768755
55.330 9.939855
55.335 10.174412
55.340 10.54311
55.345 11.013751
55.350 10.793052
55.355 10.548266
55.360 11.364408
55.365 11.886683
55.370 12.09935
55.375 11.702458
55.380 11.460516
55.385 11.617768
55.390 11.656695
55.395 10.951402
55.400 10.549326
55.405 10.912682
55.410 11.346815
55.415 11.198171
55.420 11.255232
55.425 11.524376
55.430 11.479645
55.435 11.726848
55.440 11.621672
55.445 11.782108
55.450 12.03463
55.455 12.083697
55.460 12.385917
55.465 12.463905
55.470 12.476615
55.475 12.394668
55.480 12.406196
55.485 12.148423
55.490 11.780671
55.495 11.968437
55.500 12.052211
55.505 12.195514
55.510 12.398117
55.515 12.254611
55.520 12.188
55.525 12.623369
55.530 12.547911
55.535 12.797372
55.540 12.622925
55.545 12.148411
55.550 12.480674
55.555 12.955013
55.560 12.498417
55.565 12.095833
55.570 11.626857
55.575 11.141488
55.580 10.876471
55.585 10.516924
55.590 9.945393
55.595 10.067368
55.600 10.213401
55.605 10.524513
55.610 11.265173
55.615 11.593064
55.620 11.505098
55.625 11.081703
55.630 10.66564
55.635 10.513913
55.640 10.552855
55.645 10.256742
55.650 10.157249
55.655 10.633571
55.660 11.207223
55.665 11.656157
55.670 11.799877
55.675 11.366481
55.680 11.297253
55.685 11.39781
55.690 11.239937
55.695 11.884706
55.700 11.281845
55.705 11.064668
55.710 11.236927
55.715 11.139535
55.720 11.440325
55.725 11.577938
55.730 11.317479
55.735 11.856162
55.740 11.773749
55.745 11.835269
55.750 11.789503
55.755 11.167895
55.760 11.050704
55.765 10.826759
55.770 11.052564
55.775 11.270954
55.780 11.392858
55.785 11.503038
55.790 11.510722
55.795 10.903179
55.800 10.733891
55.805 10.614595
55.810 10.897179
55.815 11.036646
55.820 11.078976
55.825 11.278284
55.830 11.999259
55.835 12.507193
55.840 12.608602
55.845 12.508916
55.850 12.859284
55.855 13.47457
55.860 13.147701
55.865 12.577143
55.870 12.174444
55.875 11.926504
55.880 11.731364
55.885 11.656898
55.890 11.756426
55.895 12.186818
55.900 12.580618
55.905 13.234447
55.910 13.465044
55.915 13.708908
55.920 13.506535
55.925 13.287967
55.930 13.162683
55.935 13.009274
55.940 12.707669
55.945 12.946262
55.950 12.39069
55.955 12.220182
55.960 12.334699
55.965 12.354225
55.970 12.36406
55.975 12.132701
55.980 12.004945
55.985 11.86487
55.990 11.35071
55.995 11.394669
56.000 11.411776
56.005 11.639621
56.010 11.65952
56.015 11.898426
56.020 11.900784
56.025 12.409741
56.030 12.403133
56.035 11.9155
56.040 11.54483
56.045 11.502173
56.050 11.561335
56.055 12.332952
56.060 12.138273
56.065 12.10167
56.070 12.566227
56.075 12.699176
56.080 12.59832
56.085 12.34419
56.090 11.898862
56.095 11.96507
56.100 11.728048
56.105 11.48004
56.110 11.260412
56.115 11.331808
56.120 11.58952
56.125 11.451333
56.130 11.463355
56.135 11.794891
56.140 12.382952
56.145 12.577554
56.150 12.834389
56.155 12.760177
56.160 12.842898
56.165 12.870443
56.170 12.693442
56.175 12.151644
56.180 11.636182
56.185 11.419668
56.190 11.372309
56.195 11.354337
56.200 11.169124
56.205 11.00504
56.210 11.159925
56.215 11.553984
56.220 11.572401
56.225 11.528803
56.230 11.868759
56.235 12.500289
56.240 12.942564
56.245 13.345842
56.250 12.875945
56.255 12.946965
56.260 12.958693
56.265 12.94678
56.270 12.425953
56.275 12.186485
56.280 11.831245
56.285 12.248604
56.290 12.428496
56.295 12.30399
56.300 12.473767
56.305 12.599578
56.310 12.925944
56.315 12.519249
56.320 11.910443
56.325 11.671819
56.330 11.329687
56.335 11.103255
56.340 10.905773
56.345 10.722505
56.350 11.266669
56.355 11.731354
56.360 12.092565
56.365 12.539941
56.370 12.472448
56.375 12.300613
56.380 12.320479
56.385 11.88461
56.390 11.874172
56.395 12.058592
56.400 12.141307
56.405 11.698111
56.410 11.845675
56.415 12.039616
56.420 12.364191
56.425 12.340792
56.430 12.303937
56.435 12.332276
56.440 13.101954
56.445 12.980634
56.450 12.92189
56.455 12.94398
56.460 12.678961
56.465 12.130501
56.470 11.445244
56.475 10.989176
56.480 11.032407
56.485 10.810339
56.490 11.195959
56.495 11.566821
56.500 11.927803
56.505 12.519142
56.510 13.055433
56.515 13.15164
56.520 13.526288
56.525 13.343836
56.530 12.937938
56.535 13.060628
56.540 12.95462
56.545 13.23595
56.550 13.295736
56.555 13.681308
56.560 14.370042
56.565 14.920969
56.570 14.720628
56.575 14.666819
56.580 14.386703
56.585 14.555731
56.590 14.257614
56.595 13.177825
56.600 13.102868
56.605 13.436028
56.610 13.375654
56.615 13.497423
56.620 13.241655
56.625 13.276473
56.630 13.993327
56.635 13.760224
56.640 13.489511
56.645 13.182088
56.650 12.969651
56.655 12.879622
56.660 12.059445
56.665 11.702073
56.670 11.742193
56.675 11.931689
56.680 11.871318
56.685 11.542116
56.690 12.037378
56.695 12.792176
56.700 13.068011
56.705 13.360312
56.710 13.134948
56.715 13.176944
56.720 13.848421
56.725 13.481368
56.730 13.027452
56.735 12.74761
56.740 12.843869
56.745 13.400142
56.750 13.761848
56.755 13.293614
56.760 13.551742
56.765 13.78373
56.770 13.785429
56.775 13.479717
56.780 12.944736
56.785 12.902279
56.790 13.071009
56.795 12.722919
56.800 12.776641
56.805 12.423818
56.810 12.813328
56.815 13.542689
56.820 13.824239
56.825 14.048311
56.830 14.305971
56.835 14.516666
56.840 14.672245
56.845 13.900625
56.850 13.228312
56.855 12.782507
56.860 12.502437
56.865 12.825142
56.870 12.73475
56.875 13.0197
56.880 13.401062
56.885 14.02956
56.890 14.433261
56.895 14.104375
56.900 13.540007
56.905 13.096764
56.910 12.881491
56.915 12.792465
56.920 12.379106
56.925 12.52532
56.930 12.598083
56.935 12.784178
56.940 13.159012
56.945 13.232522
56.950 13.11898
56.955 13.23491
56.960 13.347444
56.965 13.468098
56.970 13.624501
56.975 13.570604
56.980 13.456772
56.985 13.223436
56.990 12.87098
56.995 13.060156
57.000 13.680209
57.005 13.677565
57.010 13.992291
57.015 14.563865
57.020 15.037934
57.025 15.159204
57.030 14.528835
57.035 13.837343
57.040 13.302853
57.045 12.737369
57.050 12.714039
57.055 12.785542
57.060 12.518651
57.065 12.719845
57.070 12.959683
57.075 13.379601
57.080 13.501801
57.085 12.962985
57.090 12.263612
57.095 12.009263
57.100 11.691372
57.105 11.956832
57.110 12.154993
57.115 11.96209
57.120 12.394778
57.125 12.599262
57.130 12.615951
57.135 12.289012
57.140 12.121505
57.145 11.972731
57.150 12.334991
57.155 11.978592
57.160 12.327055
57.165 12.930747
57.170 13.289608
57.175 13.466056
57.180 13.517661
57.185 13.156373
57.190 13.327938
57.195 13.188375
57.200 13.121731
57.205 12.972332
57.210 12.253337
57.215 11.830977
57.220 11.390593
57.225 11.510732
57.230 11.11181
57.235 11.333379
57.240 11.697668
57.245 12.478647
57.250 13.247849
57.255 14.08898
57.260 14.701353
57.265 15.293205
57.270 15.177434
57.275 15.302354
57.280 15.467547
57.285 14.939004
57.290 14.669748
57.295 14.591673
57.300 14.165205
57.305 13.944989
57.310 13.831915
57.315 14.283344
57.320 15.065027
57.325 14.867014
57.330 14.842458
57.335 14.783798
57.340 14.919585
57.345 15.021967
57.350 14.441483
57.355 14.084764
57.360 14.074185
57.365 14.107354
57.370 14.283056
57.375 14.305919
57.380 13.799582
57.385 13.538691
57.390 13.274513
57.395 13.536898
57.400 13.261502
57.405 13.313144
57.410 13.301879
57.415 13.423777
57.420 13.468577
57.425 13.397687
57.430 12.83883
57.435 13.215244
57.440 13.265428
57.445 12.944061
57.450 12.903844
57.455 12.534653
57.460 12.529524
57.465 12.339931
57.470 12.210748
57.475 12.116047
57.480 12.677871
57.485 12.761713
57.490 13.395297
57.495 13.548293
57.500 14.065951
57.505 13.781724
57.510 13.209453
57.515 12.601866
57.520 12.919614
57.525 12.598596
57.530 12.611936
57.535 12.436038
57.540 13.143183
57.545 13.937483
57.550 14.280161
57.555 14.634645
57.560 15.1185
57.565 15.178175
57.570 14.981433
57.575 14.672137
57.580 13.840582
57.585 13.429868
57.590 13.17465
57.595 13.215481
57.600 13.492072
57.605 13.374599
57.610 13.925537
57.615 14.781388
57.620 15.363159
57.625 14.934363
57.630 14.873993
57.635 15.185855
57.640 15.129602
57.645 14.653911
57.650 14.102755
57.655 13.80927
57.660 14.116202
57.665 13.976212
57.670 14.155824
57.675 14.330197
57.680 14.177166
57.685 14.341141
57.690 14.221417
57.695 14.365739
57.700 14.279865
57.705 13.688005
57.710 13.423955
57.715 13.667478
57.720 13.455171
57.725 13.21523
57.730 13.083047
57.735 12.748909
57.740 13.21319
57.745 13.61308
57.750 13.845324
57.755 14.077785
57.760 14.160269
57.765 14.249952
57.770 14.244598
57.775 14.192804
57.780 13.724392
57.785 13.89805
57.790 13.773194
57.795 13.318566
57.800 13.485932
57.805 14.160408
57.810 14.391017
57.815 14.744466
57.820 14.710987
57.825 14.776425
57.830 14.829427
57.835 14.322598
57.840 13.483992
57.845 13.1551
57.850 12.526564
57.855 11.884923
57.860 11.70217
57.865 11.803226
57.870 12.450992
57.875 12.927349
57.880 13.051155
57.885 13.599499
57.890 13.85589
57.895 13.882166
57.900 13.984544
57.905 13.581464
57.910 12.868181
57.915 12.499283
57.920 12.316132
57.925 12.532342
57.930 12.756065
57.935 12.666698
57.940 12.650675
57.945 13.183137
57.950 13.508205
57.955 13.553019
57.960 13.541717
57.965 13.824721
57.970 14.430516
57.975 14.351727
57.980 14.113577
57.985 14.413746
57.990 14.883359
57.995 15.135601
58.000 14.918288
58.005 14.462782
58.010 14.932161
58.015 14.806322
58.020 14.920916
58.025 14.609259
58.030 14.7801
58.035 14.66511
58.040 14.83592
58.045 14.723409
58.050 14.899121
58.055 14.69735
58.060 15.00566
58.065 14.590009
58.070 14.608318
58.075 15.037053
58.080 14.954337
58.085 15.456048
58.090 15.306845
58.095 15.558003
58.100 16.327551
58.105 16.195103
58.110 15.415521
58.115 15.499432
58.120 15.412243
58.125 15.404181
58.130 14.270502
58.135 13.453772
58.140 13.642067
58.145 13.799226
58.150 13.503044
58.155 12.920725
58.160 12.704571
58.165 13.391967
58.170 13.505533
58.175 13.413363
58.180 12.732285
58.185 12.636717
58.190 12.71006
58.195 13.07681
58.200 12.782166
58.205 12.237463
58.210 12.366086
58.215 13.714696
58.220 14.040389
58.225 14.364972
58.230 14.321659
58.235 14.860884
58.240 15.497128
58.245 15.299368
58.250 14.537366
58.255 14.540196
58.260 14.589099
58.265 14.648013
58.270 14.301783
58.275 14.17874
58.280 14.783624
58.285 14.941719
58.290 14.602614
58.295 14.290383
58.300 14.137497
58.305 14.313872
58.310 14.154258
58.315 13.82564
58.320 13.679781
58.325 14.081394
58.330 13.925168
58.335 13.788259
58.340 13.895719
58.345 13.889857
58.350 14.032908
58.355 14.6171
58.360 14.52308
58.365 14.799782
58.370 15.226336
58.375 15.374759
58.380 15.24563
58.385 14.717213
58.390 14.555635
58.395 14.027351
58.400 13.723345
58.405 13.54463
58.410 13.657333
58.415 13.855994
58.420 14.086103
58.425 14.326087
58.430 15.028273
58.435 14.957952
58.440 14.626217
58.445 14.427888
58.450 14.295924
58.455 14.428753
58.460 14.72833
58.465 14.906793
58.470 15.222799
58.475 15.331672
58.480 15.799598
58.485 15.667789
58.490 15.340694
58.495 15.009637
58.500 14.796582
58.505 14.625146
58.510 14.819448
58.515 14.018948
58.520 14.272759
58.525 14.49146
58.530 14.796608
58.535 14.190771
58.540 14.09082
58.545 14.105876
58.550 14.537972
58.555 14.910402
58.560 15.272968
58.565 15.659638
58.570 16.493811
58.575 17.248802
58.580 17.182777
58.585 17.049927
58.590 16.849583
58.595 16.646194
58.600 15.989603
58.605 15.70936
58.610 15.110068
58.615 14.88272
58.620 14.382881
58.625 14.411387
58.630 14.365178
58.635 14.776219
58.640 14.629899
58.645 14.605423
58.650 15.368928
58.655 15.833301
58.660 15.440175
58.665 15.327455
58.670 14.443694
58.675 14.30602
58.680 14.279091
58.685 13.948269
58.690 14.161091
58.695 14.39574
58.700 14.080714
58.705 14.685624
58.710 14.262793
58.715 14.167054
58.720 14.231617
58.725 13.95066
58.730 13.978745
58.735 14.457826
58.740 14.793019
58.745 15.976933
58.750 15.961941
58.755 15.382423
58.760 15.3566
58.765 15.602685
58.770 15.704194
58.775 15.358523
58.780 14.574418
58.785 14.171193
58.790 14.310538
58.795 14.260382
58.800 13.684729
58.805 13.519033
58.810 13.477901
58.815 14.005036
58.820 14.426746
58.825 14.275314
58.830 14.350911
58.835 14.316895
58.840 14.144026
58.845 14.185513
58.850 14.10395
58.855 14.377207
58.860 14.327929
58.865 14.284215
58.870 14.282084
58.875 14.474589
58.880 14.410357
58.885 14.11201
58.890 13.91718
58.895 14.207354
58.900 14.498071
58.905 14.663076
58.910 14.253531
58.915 14.662735
58.920 15.095876
58.925 15.447802
58.930 15.521107
58.935 15.557752
58.940 15.30215
58.945 15.33748
58.950 15.092104
58.955 14.892511
58.960 15.211966
58.965 15.086963
58.970 14.936785
58.975 15.047828
58.980 15.472956
58.985 15.200991
58.990 14.703529
58.995 14.051041
59.000 13.652847
59.005 13.849082
59.010 14.209269
59.015 14.239496
59.020 14.21327
59.025 14.235025
59.030 14.460879
59.035 14.922439
59.040 15.92274
59.045 15.730491
59.050 15.673961
59.055 16.23369
59.060 16.70693
59.065 16.832077
59.070 16.585741
59.075 15.831377
59.080 15.967178
59.085 15.68661
59.090 15.138353
59.095 15.058346
59.100 14.960534
59.105 14.902676
59.110 14.433847
59.115 13.786909
59.120 13.745198
59.125 14.3904
59.130 14.669542
59.135 14.992128
59.140 15.161174
59.145 15.443791
59.150 15.614782
59.155 15.649912
59.160 15.802699
59.165 15.682083
59.170 15.777224
59.175 15.560428
59.180 15.761164
59.185 15.60975
59.190 15.318076
59.195 15.328028
59.200 15.162282
59.205 14.427052
59.210 14.472016
59.215 15.100678
59.220 15.810093
59.225 16.386986
59.230 16.294247
59.235 16.319613
59.240 16.755594
59.245 17.03097
59.250 16.868332
59.255 16.494068
59.260 16.851557
59.265 17.123081
59.270 16.97971
59.275 17.022066
59.280 17.289989
59.285 17.171627
59.290 17.050386
59.295 16.664774
59.300 15.983115
59.305 15.923353
59.310 16.003994
59.315 15.355908
59.320 15.089033
59.325 15.534292
59.330 15.658257
59.335 16.149477
59.340 16.240225
59.345 16.33638
59.350 16.730268
59.355 17.473635
59.360 17.653322
59.365 17.275711
59.370 16.770144
59.375 16.91617
59.380 16.79508
59.385 16.444132
59.390 16.093348
59.395 15.465918
59.400 15.686092
59.405 16.524742
59.410 16.263309
59.415 15.950019
59.420 15.769523
59.425 15.980784
59.430 16.39719
59.435 15.756516
59.440 15.485495
59.445 16.112555
59.450 16.532291
59.455 16.677647
59.460 16.426199
59.465 16.681864
59.470 16.729027
59.475 16.637901
59.480 16.43103
59.485 16.743643
59.490 16.730762
59.495 16.826061
59.500 16.454956
59.505 16.483187
59.510 16.372236
59.515 16.141882
59.520 15.898232
59.525 15.80095
59.530 15.016313
59.535 14.832978
59.540 15.007195
59.545 15.119825
59.550 15.11616
59.555 14.891884
59.560 15.133659
59.565 15.945227
59.570 16.298023
59.575 16.280079
59.580 16.317253
59.585 16.388115
59.590 16.401875
59.595 16.667107
59.600 17.505863
59.605 17.548716
59.610 18.088566
59.615 18.435184
59.620 18.408567
59.625 17.998672
59.630 17.432905
59.635 16.687611
59.640 16.409321
59.645 16.309813
59.650 15.911783
59.655 16.298586
59.660 17.082314
59.665 17.734985
59.670 18.197451
59.675 18.139593
59.680 17.708319
59.685 18.063831
59.690 18.383545
59.695 18.511675
59.700 18.334248
59.705 18.304197
59.710 18.651836
59.715 18.767775
59.720 18.551441
59.725 18.338776
59.730 18.272976
59.735 18.004801
59.740 17.979761
59.745 18.240393
59.750 18.648724
59.755 18.787027
59.760 19.045736
59.765 18.794756
59.770 18.278818
59.775 18.263306
59.780 18.398359
59.785 18.252426
59.790 17.803291
59.795 17.418255
59.800 17.441965
59.805 17.841312
59.810 18.017412
59.815 17.550156
59.820 17.55863
59.825 17.788696
59.830 17.60651
59.835 18.229706
59.840 18.524708
59.845 18.322178
59.850 18.715981
59.855 18.778948
59.860 19.373415
59.865 19.275967
59.870 18.75923
59.875 18.636002
59.880 18.517178
59.885 17.919182
59.890 18.48189
59.895 18.107241
59.900 17.895432
59.905 18.394693
59.910 18.881655
59.915 19.159998
59.920 18.895193
59.925 18.395657
59.930 18.454746
59.935 19.539251
59.940 19.788254
59.945 18.920496
59.950 18.535746
59.955 19.012457
59.960 19.106808
59.965 18.990601
59.970 18.374859
59.975 17.991272
59.980 18.509336
59.985 18.873436
59.990 19.115648
59.995 19.644714
60.000 20.582207
60.005 20.792904
60.010 20.965313
60.015 21.292984
60.020 21.064724
60.025 20.611
60.030 20.413851
60.035 20.086443
60.040 20.128954
60.045 20.338835
60.050 21.252277
60.055 21.609497
60.060 21.88373
60.065 21.35438
60.070 21.326576
60.075 21.216555
60.080 21.079735
60.085 20.430048
60.090 20.794031
60.095 21.087677
60.100 21.143265
60.105 20.766003
60.110 20.400984
60.115 20.165422
60.120 20.178118
60.125 20.056585
60.130 20.009453
60.135 20.059202
60.140 20.39587
60.145 20.798403
60.150 20.646631
60.155 20.58662
60.160 20.61978
60.165 20.178377
60.170 20.048899
60.175 20.216959
60.180 19.882759
60.185 20.807285
60.190 21.555099
60.195 21.706696
60.200 21.490379
60.205 21.686018
60.210 21.289082
60.215 21.677759
60.220 21.369518
60.225 20.485067
60.230 20.219166
60.235 20.593075
60.240 20.533566
60.245 20.723671
60.250 20.521542
60.255 19.803028
60.260 19.831919
60.265 19.637899
60.270 19.875809
60.275 19.936878
60.280 19.972193
60.285 20.37064
60.290 20.783875
60.295 21.247282
60.300 21.060339
60.305 20.850491
60.310 20.44178
60.315 20.272562
60.320 19.8521
60.325 19.732611
60.330 19.548275
60.335 20.042141
60.340 20.331322
60.345 20.998871
60.350 21.151125
60.355 21.579754
60.360 22.047989
60.365 22.076857
60.370 22.157026
60.375 21.586937
60.380 21.488338
60.385 21.392467
60.390 21.695417
60.395 21.601986
60.400 21.58749
60.405 21.531389
60.410 21.862017
60.415 21.750593
60.420 21.946527
60.425 21.667391
60.430 21.290197
60.435 21.135532
60.440 21.025669
60.445 21.163208
60.450 20.893972
60.455 20.830105
60.460 20.73984
60.465 20.786657
60.470 20.957773
60.475 21.486231
60.480 21.366129
60.485 20.893883
60.490 19.642551
60.495 19.400127
60.500 19.253717
60.505 19.25181
60.510 18.954218
60.515 19.088476
60.520 19.38937
60.525 19.578642
60.530 19.449585
60.535 19.739447
60.540 19.997654
60.545 19.613291
60.550 19.645489
60.555 20.093212
60.560 20.642689
60.565 20.914377
60.570 21.146528
60.575 20.898695
60.580 21.024427
60.585 21.315071
60.590 21.472569
60.595 21.599882
60.600 21.213362
60.605 20.931189
60.610 21.078743
60.615 21.773308
60.620 21.617075
60.625 21.314152
60.630 21.300869
60.635 21.961868
60.640 21.833845
60.645 21.056137
60.650 20.31255
60.655 19.803978
60.660 19.671759
60.665 19.487791
60.670 18.902367
60.675 19.026421
60.680 19.376581
60.685 18.958652
60.690 19.607557
60.695 19.998892
60.700 20.2384
60.705 20.405434
60.710 20.445618
60.715 20.384777
60.720 20.520761
60.725 20.583994
60.730 19.764997
60.735 19.729473
60.740 19.656742
60.745 19.27681
60.750 19.577032
60.755 19.836807
60.760 19.873676
60.765 19.930271
60.770 19.642179
60.775 19.118818
60.780 18.769464
60.785 18.878164
60.790 18.313469
60.795 17.961353
60.800 18.584915
60.805 18.955133
60.810 19.765606
60.815 19.93996
60.820 19.593739
60.825 19.738224
60.830 19.332567
60.835 18.678844
60.840 18.218868
60.845 17.890306
60.850 17.903605
60.855 17.817774
60.860 17.823862
60.865 17.996668
60.870 18.258514
60.875 18.281424
60.880 18.025972
60.885 17.542585
60.890 17.861393
60.895 18.084608
60.900 18.204502
60.905 18.275286
60.910 18.202692
60.915 18.801886
60.920 18.940102
60.925 18.384787
60.930 18.59927
60.935 18.715179
60.940 18.493019
60.945 18.707037
60.950 18.084278
60.955 18.393517
60.960 18.108107
60.965 17.716465
60.970 17.778645
60.975 18.085703
60.980 18.135525
60.985 18.094103
60.990 18.249426
60.995 18.024376
61.000 17.911026
61.005 17.44445
61.010 17.124935
61.015 17.151432
61.020 17.117111
61.025 16.935663
61.030 17.398766
61.035 17.199331
61.040 17.427002
61.045 17.084381
61.050 17.017389
61.055 16.592009
61.060 16.201365
61.065 16.827604
61.070 17.200645
61.075 16.933542
61.080 17.039536
61.085 17.544569
61.090 17.679367
61.095 17.58581
61.100 16.786303
61.105 16.985804
61.110 17.205448
61.115 17.17639
61.120 17.134686
61.125 17.714712
61.130 18.350004
61.135 18.40086
61.140 18.238546
61.145 18.741472
61.150 18.828398
61.155 18.18821
61.160 17.383421
61.165 16.999218
61.170 16.512047
61.175 16.588648
61.180 16.429544
61.185 16.762653
61.190 17.053455
61.195 17.666391
61.200 18.436777
61.205 18.99642
61.210 18.709698
61.215 18.678637
61.220 18.812601
61.225 18.950853
61.230 18.72896
61.235 18.513859
61.240 18.599255
61.245 19.119305
61.250 18.784359
61.255 17.952665
61.260 17.404337
61.265 17.560022
61.270 17.36635
61.275 17.484154
61.280 17.296005
61.285 16.869036
61.290 16.995693
61.295 17.169363
61.300 16.761185
61.305 16.20422
61.310 15.574688
61.315 15.185296
61.320 15.700253
61.325 16.225988
61.330 16.24905
61.335 16.206408
61.340 16.164886
61.345 16.267416
61.350 16.862507
61.355 17.030565
61.360 16.881905
61.365 17.022917
61.370 16.962177
61.375 17.392273
61.380 17.373362
61.385 16.986443
61.390 16.910482
61.395 16.849648
61.400 16.759098
61.405 17.136227
61.410 17.559402
61.415 17.920118
61.420 17.900772
61.425 17.585144
61.430 17.989361
61.435 17.914923
61.440 17.338621
61.445 16.890453
61.450 16.784466
61.455 17.289829
61.460 17.386908
61.465 17.14385
61.470 17.72587
61.475 18.202286
61.480 18.430376
61.485 18.198074
61.490 17.759285
61.495 18.094578
61.500 18.082079
61.505 17.079876
61.510 16.514883
61.515 16.352177
61.520 16.277012
61.525 16.11936
61.530 16.123022
61.535 16.186731
61.540 16.299637
61.545 16.825748
61.550 17.171616
61.555 17.920801
61.560 18.050276
61.565 17.734272
61.570 17.663792
61.575 18.076635
61.580 17.951334
61.585 17.770336
61.590 17.210564
61.595 16.693159
61.600 16.947222
61.605 16.663364
61.610 16.669004
61.615 16.628395
61.620 16.548809
61.625 16.079903
61.630 16.181536
61.635 16.418665
61.640 17.059717
61.645 17.117777
61.650 16.961424
61.655 17.217978
61.660 17.626242
61.665 17.812227
61.670 17.755051
61.675 17.221012
61.680 16.354509
61.685 16.083666
61.690 15.910566
61.695 15.555505
61.700 15.114087
61.705 15.238175
61.710 15.84132
61.715 16.726545
61.720 17.239647
61.725 16.943363
61.730 17.2717
61.735 18.049313
61.740 18.150263
61.745 18.040798
61.750 17.441277
61.755 17.309177
61.760 17.861176
61.765 18.269032
61.770 18.008732
61.775 17.366396
61.780 17.037933
61.785 17.349165
61.790 16.976881
61.795 16.995041
61.800 17.223232
61.805 17.397806
61.810 17.63228
61.815 17.654432
61.820 17.430185
61.825 18.078838
61.830 18.685173
61.835 18.067812
61.840 17.383133
61.845 17.062738
61.850 17.252129
61.855 17.589451
61.860 17.403675
61.865 16.745852
61.870 16.807356
61.875 17.329056
61.880 17.791832
61.885 18.013334
61.890 18.09803
61.895 17.681345
61.900 17.41678
61.905 17.232159
61.910 17.396042
61.915 17.290115
61.920 17.173298
61.925 17.153532
61.930 17.419151
61.935 17.810049
61.940 17.402882
61.945 17.532745
61.950 17.367758
61.955 17.187548
61.960 16.82712
61.965 16.525974
61.970 16.735819
61.975 16.917538
61.980 16.586559
61.985 17.049206
61.990 17.134727
61.995 17.82609
62.000 17.951727
62.005 17.730028
62.010 18.30171
62.015 18.147493
62.020 18.035131
62.025 18.070612
62.030 17.613003
62.035 17.627867
62.040 17.409853
62.045 16.715483
62.050 16.962982
62.055 17.19475
62.060 16.850718
62.065 16.651443
62.070 16.838247
62.075 17.071194
62.080 17.534077
62.085 17.520363
62.090 17.152088
62.095 17.62109
62.100 18.251017
62.105 17.88447
62.110 17.925652
62.115 17.901514
62.120 17.297836
62.125 17.61763
62.130 17.852505
62.135 17.714815
62.140 17.971935
62.145 17.868525
62.150 18.087311
62.155 19.124136
62.160 19.498446
62.165 19.458565
62.170 19.402534
62.175 19.675783
62.180 20.023989
62.185 19.86507
62.190 19.531693
62.195 18.99357
62.200 18.674255
62.205 18.045837
62.210 17.78755
62.215 17.598843
62.220 17.190289
62.225 16.512066
62.230 16.049824
62.235 16.535795
62.240 17.033377
62.245 16.801304
62.250 17.12154
62.255 17.729231
62.260 18.180574
62.265 18.263523
62.270 18.159796
62.275 18.331293
62.280 17.71081
62.285 16.75889
62.290 16.873495
62.295 16.904119
62.300 16.822117
62.305 17.042431
62.310 17.154181
62.315 17.632816
62.320 17.951784
62.325 17.493446
62.330 17.023127
62.335 17.153482
62.340 16.651703
62.345 16.321321
62.350 16.1059
62.355 15.876121
62.360 15.81281
62.365 16.227474
62.370 16.491318
62.375 16.391102
62.380 16.762615
62.385 16.716312
62.390 17.16898
62.395 17.708296
62.400 17.342714
62.405 17.133556
62.410 17.309181
62.415 17.159683
62.420 17.189226
62.425 16.681202
62.430 16.295145
62.435 16.629789
62.440 16.735743
62.445 16.985418
62.450 17.538277
62.455 18.086742
62.460 18.488989
62.465 18.66922
62.470 18.901459
62.475 18.582071
62.480 18.428995
62.485 17.787224
62.490 17.795124
62.495 17.869486
62.500 18.086287
62.505 18.573496
62.510 19.093903
62.515 18.797731
62.520 18.809185
62.525 18.615753
62.530 18.426645
62.535 18.370714
62.540 17.640617
62.545 16.873165
62.550 16.589237
62.555 16.225618
62.560 16.005047
62.565 15.970571
62.570 15.639822
62.575 15.719017
62.580 16.102163
62.585 16.512932
62.590 17.26697
62.595 17.504656
62.600 17.184959
62.605 16.990768
62.610 17.030876
62.615 17.0361
62.620 16.893667
62.625 16.536871
62.630 16.501547
62.635 17.1092
62.640 17.474524
62.645 17.63077
62.650 17.702415
62.655 17.613304
62.660 17.328394
62.665 17.066605
62.670 17.031385
62.675 16.940527
62.680 16.880402
62.685 16.672976
62.690 16.747122
62.695 16.492998
62.700 16.158978
62.705 15.666069
62.710 15.518897
62.715 15.59027
62.720 15.912792
62.725 15.925616
62.730 16.722801
62.735 17.14073
62.740 17.248528
62.745 17.61474
62.750 17.191299
62.755 17.28705
62.760 16.743002
62.765 16.304718
62.770 16.204256
62.775 15.720058
62.780 15.320886
62.785 15.714146
62.790 15.540582
62.795 15.922952
62.800 16.181782
62.805 16.273325
62.810 16.702553
62.815 16.836777
62.820 16.520285
62.825 16.377176
62.830 16.840103
62.835 16.909765
62.840 17.307245
62.845 17.059534
62.850 17.07996
62.855 17.109779
62.860 17.419245
62.865 17.578882
62.870 17.030069
62.875 16.660097
62.880 16.76568
62.885 16.60568
62.890 16.4713
62.895 15.918674
62.900 15.882074
62.905 17.023371
62.910 17.468901
62.915 17.892008
62.920 18.170872
62.925 18.343901
62.930 18.770702
62.935 18.259275
62.940 17.065479
62.945 16.928699
62.950 16.727177
62.955 16.794468
62.960 16.824232
62.965 16.58802
62.970 16.859604
62.975 17.280357
62.980 17.050259
62.985 16.663065
62.990 16.675926
62.995 17.022266
63.000 17.11698
63.005 17.554699
63.010 17.675041
63.015 17.512533
63.020 18.089813
63.025 17.668713
63.030 17.178577
63.035 16.930866
63.040 16.300482
63.045 15.945671
63.050 15.931704
63.055 15.319943
63.060 15.629099
63.065 15.744102
63.070 16.091507
63.075 16.184324
63.080 16.332584
63.085 16.317299
63.090 16.617538
63.095 16.566427
63.100 16.571026
63.105 16.450434
63.110 16.897751
63.115 17.534975
63.120 17.645273
63.125 17.942341
63.130 18.230808
63.135 18.253778
63.140 18.282131
63.145 17.770473
63.150 17.282034
63.155 17.207161
63.160 16.961973
63.165 16.602064
63.170 16.714186
63.175 17.17251
63.180 17.331244
63.185 17.685692
63.190 17.93767
63.195 17.849659
63.200 18.344315
63.205 18.16007
63.210 18.209175
63.215 18.382471
63.220 18.166943
63.225 17.891605
63.230 17.52083
63.235 16.564287
63.240 16.31185
63.245 16.396097
63.250 16.938936
63.255 17.046717
63.260 17.399286
63.265 17.300217
63.270 17.835611
63.275 17.842421
63.280 17.230066
63.285 16.457039
63.290 15.698579
63.295 15.326145
63.300 15.940199
63.305 16.113377
63.310 16.374018
63.315 16.461037
63.320 16.405457
63.325 17.406162
63.330 17.717304
63.335 17.478827
63.340 17.45484
63.345 17.054874
63.350 16.529661
63.355 16.155668
63.360 15.992718
63.365 15.910953
63.370 15.940717
63.375 16.071993
63.380 16.385771
63.385 16.690212
63.390 16.773182
63.395 16.770437
63.400 16.404921
63.405 16.140047
63.410 15.758923
63.415 15.492012
63.420 15.570562
63.425 15.577061
63.430 15.591972
63.435 15.727117
63.440 16.14085
63.445 16.33975
63.450 16.619881
63.455 17.106308
63.460 17.221285
63.465 17.796507
63.470 18.410955
63.475 18.669174
63.480 18.709896
63.485 18.831472
63.490 18.980732
63.495 18.898109
63.500 18.370485
63.505 17.904514
63.510 17.242682
63.515 16.675125
63.520 15.903655
63.525 15.556336
63.530 15.477838
63.535 15.225617
63.540 15.855042
63.545 15.972588
63.550 16.269838
63.555 16.620523
63.560 16.93574
63.565 17.279018
63.570 17.138094
63.575 16.785828
63.580 16.828705
63.585 17.075924
63.590 17.311344
63.595 17.327225
63.600 17.078732
63.605 17.583094
63.610 17.418652
63.615 17.783298
63.620 17.614588
63.625 17.3309
63.630 17.182909
63.635 17.596979
63.640 17.533911
63.645 17.567019
63.650 17.375917
63.655 17.747047
63.660 18.081663
63.665 17.90593
63.670 17.527273
63.675 17.121191
63.680 17.482275
63.685 17.698345
63.690 17.854378
63.695 17.737413
63.700 17.812803
63.705 18.251633
63.710 18.785273
63.715 18.737892
63.720 18.44309
63.725 18.174295
63.730 17.792646
63.735 18.222593
63.740 18.206198
63.745 17.877634
63.750 17.904226
63.755 18.033218
63.760 18.143976
63.765 18.648207
63.770 17.929098
63.775 17.912457
63.780 18.131393
63.785 18.356642
63.790 18.008474
63.795 17.694862
63.800 17.387115
63.805 16.91357
63.810 16.967775
63.815 16.269176
63.820 15.359018
63.825 15.606488
63.830 16.176943
63.835 16.184708
63.840 16.835548
63.845 16.818811
63.850 16.983391
63.855 17.473255
63.860 16.911612
63.865 16.75601
63.870 16.928135
63.875 16.87851
63.880 16.563511
63.885 17.133141
63.890 17.256018
63.895 17.562498
63.900 17.454361
63.905 17.130447
63.910 16.799313
63.915 17.114187
63.920 17.034231
63.925 17.057274
63.930 17.13327
63.935 17.177931
63.940 17.452486
63.945 18.190231
63.950 17.749754
63.955 17.867407
63.960 18.353411
63.965 18.571878
63.970 18.544149
63.975 18.930017
63.980 18.196566
63.985 18.667891
63.990 18.856915
63.995 18.735619
64.000 18.482796
64.005 18.810743
64.010 18.920818
64.015 19.438129
64.020 19.409245
64.025 19.004925
64.030 18.407452
64.035 18.04129
64.040 18.104401
64.045 18.400169
64.050 18.660906
64.055 18.003904
64.060 18.173449
64.065 19.154829
64.070 20.070251
64.075 19.778263
64.080 19.260071
64.085 19.212807
64.090 19.328465
64.095 18.692999
64.100 18.10578
64.105 18.033606
64.110 17.919094
64.115 17.38884
64.120 17.583845
64.125 18.269949
64.130 18.85775
64.135 18.386822
64.140 17.978378
64.145 18.094688
64.150 18.327478
64.155 17.885939
64.160 17.336756
64.165 17.308603
64.170 18.05682
64.175 17.900345
64.180 17.640804
64.185 17.663408
64.190 18.034027
64.195 18.411005
64.200 17.844927
64.205 17.753574
64.210 18.031286
64.215 18.580254
64.220 18.913071
64.225 19.187132
64.230 19.445255
64.235 20.244751
64.240 20.192278
64.245 20.365566
64.250 20.232784
64.255 19.828821
64.260 19.6353
64.265 19.460575
64.270 19.351095
64.275 19.448145
64.280 19.35639
64.285 19.360649
64.290 19.23234
64.295 18.872309
64.300 18.884254
64.305 18.632092
64.310 18.421394
64.315 18.513664
64.320 18.50914
64.325 17.993778
64.330 17.560764
64.335 16.76335
64.340 17.014559
64.345 16.768787
64.350 16.462711
64.355 16.568422
64.360 17.235508
64.365 17.396139
64.370 17.97892
64.375 18.151642
64.380 18.926052
64.385 18.958563
64.390 18.779867
64.395 18.921162
64.400 19.138559
64.405 18.827688
64.410 18.497578
64.415 18.427124
64.420 18.80331
64.425 19.090006
64.430 18.7337
64.435 18.937239
64.440 18.892879
64.445 18.655161
64.450 18.329357
64.455 18.015499
64.460 17.698912
64.465 17.647156
64.470 17.648962
64.475 17.902191
64.480 17.97105
64.485 17.916695
64.490 17.891502
64.495 17.573235
64.500 18.196074
64.505 18.294739
64.510 18.084314
64.515 18.335857
64.520 18.491201
64.525 18.635113
64.530 18.940079
64.535 18.587355
64.540 18.812778
64.545 18.949705
64.550 18.964621
64.555 18.796019
64.560 19.172163
64.565 19.790207
64.570 19.794214
64.575 19.537664
64.580 19.496592
64.585 19.617388
64.590 19.712835
64.595 19.131998
64.600 18.737793
64.605 18.884378
64.610 18.586908
64.615 17.980736
64.620 17.915852
64.625 17.914675
64.630 17.911953
64.635 17.540848
64.640 17.243454
64.645 17.334671
64.650 17.768013
64.655 17.428858
64.660 17.441706
64.665 18.193285
64.670 18.723104
64.675 18.634151
64.680 19.068808
64.685 19.318663
64.690 19.386208
64.695 18.933956
64.700 18.231861
64.705 18.028358
64.710 17.887035
64.715 17.762415
64.720 17.706226
64.725 18.125017
64.730 18.415344
64.735 18.465633
64.740 18.370188
64.745 18.592194
64.750 18.48575
64.755 18.662079
64.760 18.541725
64.765 18.359407
64.770 18.490152
64.775 19.140759
64.780 19.136087
64.785 18.587559
64.790 18.24044
64.795 18.659655
64.800 19.424355
64.805 19.451471
64.810 19.397104
64.815 20.27746
64.820 20.976118
64.825 21.704306
64.830 21.05018
64.835 21.150467
64.840 21.627634
64.845 21.088612
64.850 20.638227
64.855 20.61939
64.860 20.051455
64.865 19.827181
64.870 19.124519
64.875 18.848032
64.880 19.135523
64.885 18.782223
64.890 18.745045
64.895 18.288523
64.900 18.419861
64.905 18.503763
64.910 18.309698
64.915 17.782877
64.920 18.30298
64.925 18.277506
64.930 18.57275
64.935 19.51515
64.940 19.879181
64.945 19.877958
64.950 20.349291
64.955 19.962864
64.960 20.187273
64.965 21.161949
64.970 20.806446
64.975 20.744259
64.980 20.915789
64.985 20.884912
64.990 21.02247
64.995 20.852411
65.000 20.48657
65.005 20.763313
65.010 20.818567
65.015 20.88958
65.020 21.19698
65.025 21.042049
65.030 21.114397
65.035 21.699884
65.040 21.780937
65.045 22.005407
65.050 22.145601
65.055 22.175465
65.060 22.588287
65.065 21.966434
65.070 21.562351
65.075 21.635513
65.080 21.203234
65.085 21.033375
65.090 20.528776
65.095 20.930672
65.100 21.475859
65.105 21.001257
65.110 21.358641
65.115 21.539688
65.120 22.345112
65.125 22.602623
65.130 22.51956
65.135 22.826397
65.140 23.655607
65.145 23.822519
65.150 24.214113
65.155 23.461596
65.160 22.934107
65.165 22.60178
65.170 22.740276
65.175 22.223518
65.180 21.593084
65.185 21.121872
65.190 20.831728
65.195 21.355415
65.200 21.608162
65.205 20.839348
65.210 20.646467
65.215 20.378746
65.220 20.624077
65.225 21.183693
65.230 21.444872
65.235 21.708836
65.240 22.074051
65.245 21.779999
65.250 22.096577
65.255 22.457821
65.260 22.673203
65.265 22.669893
65.270 22.067085
65.275 21.681917
65.280 22.25701
65.285 21.69429
65.290 20.840631
65.295 20.371078
65.300 20.054964
65.305 20.743717
65.310 21.246664
65.315 20.802731
65.320 20.701698
65.325 21.190773
65.330 21.592836
65.335 21.707966
65.340 20.915531
65.345 20.865705
65.350 21.329538
65.355 22.039383
65.360 22.435232
65.365 22.531267
65.370 22.884087
65.375 23.534489
65.380 23.842222
65.385 23.704313
65.390 23.85647
65.395 23.714436
65.400 23.372751
65.405 23.164806
65.410 22.98591
65.415 23.0548
65.420 22.904385
65.425 22.742727
65.430 22.714336
65.435 23.516605
65.440 24.145264
65.445 24.381765
65.450 24.241091
65.455 23.753387
65.460 23.647272
65.465 23.639111
65.470 23.299255
65.475 22.941822
65.480 22.843004
65.485 24.09407
65.490 24.859436
65.495 24.867363
65.500 24.724865
65.505 25.731342
65.510 26.148273
65.515 26.566906
65.520 26.089128
65.525 26.591217
65.530 26.530491
65.535 26.231764
65.540 26.138313
65.545 26.754707
65.550 27.223299
65.555 27.220665
65.560 27.450134
65.565 28.011305
65.570 29.051878
65.575 28.976915
65.580 28.784286
65.585 27.834526
65.590 27.978453
65.595 28.267357
65.600 28.853584
65.605 28.738066
65.610 28.484575
65.615 28.737953
65.620 29.677679
65.625 30.016674
65.630 29.682814
65.635 29.763159
65.640 30.199232
65.645 30.749889
65.650 31.525206
65.655 31.842516
65.660 32.267334
65.665 32.860821
65.670 32.813171
65.675 32.472599
65.680 32.545433
65.685 31.686495
65.690 32.163822
65.695 32.33569
65.700 32.700993
65.705 33.504044
65.710 33.993092
65.715 34.232178
65.720 34.525417
65.725 33.897598
65.730 34.052601
65.735 34.709785
65.740 35.228546
65.745 35.372681
65.750 36.697884
65.755 38.449123
65.760 39.193748
65.765 38.948364
65.770 38.717228
65.775 37.943188
65.780 37.640308
65.785 36.391083
65.790 34.99593
65.795 34.578716
65.800 34.189758
65.805 33.832184
65.810 33.995476
65.815 33.941269
65.820 34.881252
65.825 35.679081
65.830 36.161846
65.835 36.220116
65.840 36.38134
65.845 35.915115
65.850 36.308353
65.855 36.630463
65.860 36.681366
65.865 36.886539
65.870 37.143501
65.875 37.539787
65.880 38.440746
65.885 38.617275
65.890 37.741169
65.895 37.636562
65.900 37.431541
65.905 37.302238
65.910 36.824703
65.915 36.690273
65.920 36.812042
65.925 37.416958
65.930 37.382816
65.935 37.648136
65.940 37.465984
65.945 37.492653
65.950 37.973621
65.955 38.255985
65.960 37.50626
65.965 37.531944
65.970 37.806377
65.975 37.717529
65.980 37.484161
65.985 37.064068
65.990 36.660027
65.995 37.428448
66.000 37.268734
66.005 37.328335
66.010 37.266243
66.015 37.482693
66.020 37.114086
66.025 36.850319
66.030 36.306286
66.035 36.370449
66.040 35.696636
66.045 35.872307
66.050 36.083378
66.055 35.701286
66.060 34.767174
66.065 34.169548
66.070 33.955681
66.075 33.657661
66.080 33.529648
66.085 33.70425
66.090 34.46228
66.095 35.452038
66.100 35.725643
66.105 35.852592
66.110 36.243595
66.115 35.843784
66.120 35.339012
66.125 35.154934
66.130 35.245049
66.135 35.319859
66.140 34.590496
66.145 34.425285
66.150 34.3396
66.155 34.191128
66.160 33.719982
66.165 33.181583
66.170 32.642563
66.175 32.452953
66.180 32.571796
66.185 33.660355
66.190 33.590382
66.195 33.18948
66.200 32.96088
66.205 34.385967
66.210 35.078495
66.215 35.362453
66.220 34.254089
66.225 34.214134
66.230 35.237381
66.235 34.953835
66.240 33.416054
66.245 32.758038
66.250 32.667667
66.255 32.645844
66.260 32.061829
66.265 31.650412
66.270 31.92474
66.275 32.56765
66.280 32.858635
66.285 32.432457
66.290 32.199505
66.295 32.192726
66.300 31.890516
66.305 31.527847
66.310 31.246765
66.315 30.407207
66.320 30.23724
66.325 30.043875
66.330 29.749767
66.335 29.830719
66.340 29.915997
66.345 29.534243
66.350 30.241238
66.355 30.810152
66.360 30.898695
66.365 31.153761
66.370 31.255453
66.375 31.281454
66.380 31.520916
66.385 31.068935
66.390 31.105152
66.395 30.834047
66.400 31.256987
66.405 31.001244
66.410 31.137209
66.415 31.075045
66.420 31.507284
66.425 31.73982
66.430 32.11174
66.435 31.405214
66.440 31.285069
66.445 31.036257
66.450 30.403702
66.455 29.230448
66.460 28.407516
66.465 27.555122
66.470 27.272415
66.475 26.701071
66.480 26.30854
66.485 26.293884
66.490 26.446383
66.495 26.774012
66.500 26.71826
66.505 26.944979
66.510 27.256382
66.515 26.565012
66.520 26.462318
66.525 26.067329
66.530 25.54377
66.535 26.097208
66.540 26.045946
66.545 26.262968
66.550 26.786346
66.555 27.156248
66.560 27.613796
66.565 27.50775
66.570 27.513554
66.575 27.03006
66.580 26.517109
66.585 26.171783
66.590 26.239698
66.595 26.467886
66.600 26.800678
66.605 26.506701
66.610 26.786617
66.615 26.922871
66.620 27.598087
66.625 27.900331
66.630 27.747139
66.635 27.646854
66.640 27.343287
66.645 26.710348
66.650 26.231491
66.655 25.125225
66.660 23.796453
66.665 23.529617
66.670 23.745352
66.675 23.661943
66.680 24.13134
66.685 23.614771
66.690 23.072815
66.695 23.553829
66.700 23.403282
66.705 23.545347
66.710 24.328943
66.715 24.565344
66.720 25.14794
66.725 26.155272
66.730 25.560204
66.735 25.021145
66.740 24.361454
66.745 23.720764
66.750 23.573387
66.755 23.333961
66.760 23.737118
66.765 24.560091
66.770 24.840797
66.775 25.00683
66.780 24.617952
66.785 24.679087
66.790 24.238424
66.795 23.452599
66.800 23.204638
66.805 23.394712
66.810 22.779034
66.815 22.510355
66.820 22.881931
66.825 23.920258
66.830 23.887583
66.835 23.671961
66.840 23.353523
66.845 23.777426
66.850 23.68679
66.855 23.283958
66.860 23.356262
66.865 23.393759
66.870 23.378679
66.875 23.360903
66.880 23.592867
66.885 23.695438
66.890 23.61537
66.895 22.903206
66.900 23.120468
66.905 24.033432
66.910 24.392471
66.915 24.719349
66.920 25.331276
66.925 24.746391
66.930 24.489906
66.935 24.29879
66.940 23.775051
66.945 23.402323
66.950 22.913994
66.955 22.470194
66.960 22.721863
66.965 22.898827
66.970 23.32946
66.975 23.079086
66.980 23.233742
66.985 23.359106
66.990 23.511189
66.995 23.676605
67.000 23.875551
67.005 23.192284
67.010 23.50975
67.015 23.497171
67.020 23.274916
67.025 23.303423
67.030 23.142643
67.035 22.523327
67.040 22.549513
67.045 22.660055
67.050 22.319809
67.055 22.15893
67.060 22.267784
67.065 22.45788
67.070 22.707165
67.075 22.388823
67.080 22.172266
67.085 22.532085
67.090 22.723162
67.095 22.705891
67.100 23.169689
67.105 23.379673
67.110 23.787949
67.115 23.71661
67.120 23.803194
67.125 23.53323
67.130 23.164858
67.135 22.637735
67.140 22.356731
67.145 21.557117
67.150 21.265295
67.155 21.467703
67.160 21.523504
67.165 21.10747
67.170 20.576212
67.175 20.931065
67.180 21.72261
67.185 22.153646
67.190 21.35873
67.195 21.632252
67.200 22.340611
67.205 22.758495
67.210 22.616537
67.215 22.67565
67.220 22.775202
67.225 23.442497
67.230 23.857035
67.235 23.867464
67.240 23.858101
67.245 24.188255
67.250 23.694948
67.255 23.252634
67.260 22.657463
67.265 22.114771
67.270 21.923105
67.275 22.198023
67.280 21.705938
67.285 22.315727
67.290 22.683691
67.295 22.717726
67.300 22.897709
67.305 23.107515
67.310 23.074228
67.315 23.34446
67.320 23.288929
67.325 22.480259
67.330 22.919586
67.335 22.965031
67.340 22.371277
67.345 21.945707
67.350 21.791475
67.355 21.589024
67.360 21.650433
67.365 21.245327
67.370 21.632597
67.375 21.934835
67.380 22.065197
67.385 21.676075
67.390 21.868694
67.395 21.868368
67.400 21.649187
67.405 20.925709
67.410 20.93285
67.415 20.515587
67.420 20.314695
67.425 20.326385
67.430 20.43931
67.435 20.650721
67.440 21.011196
67.445 21.510944
67.450 21.817583
67.455 22.191898
67.460 22.472549
67.465 22.627569
67.470 22.536285
67.475 21.904713
67.480 21.310907
67.485 21.784925
67.490 22.081553
67.495 21.97167
67.500 22.473484
67.505 23.140745
67.510 23.684086
67.515 24.105803
67.520 23.780798
67.525 23.274946
67.530 22.779404
67.535 22.455921
67.540 21.640337
67.545 22.060905
67.550 21.865967
67.555 21.655214
67.560 21.407879
67.565 21.394417
67.570 21.348173
67.575 21.33231
67.580 21.163401
67.585 21.441576
67.590 21.464628
67.595 21.795845
67.600 22.292707
67.605 22.92065
67.610 23.254822
67.615 23.043945
67.620 22.983406
67.625 23.660454
67.630 24.602345
67.635 24.650316
67.640 24.29665
67.645 24.058268
67.650 23.843315
67.655 23.92753
67.660 23.817984
67.665 22.920897
67.670 22.574455
67.675 22.132452
67.680 22.102186
67.685 22.08839
67.690 21.853308
67.695 21.118652
67.700 20.986633
67.705 20.941954
67.710 20.97085
67.715 21.53303
67.720 22.02137
67.725 21.695333
67.730 21.92708
67.735 22.430948
67.740 22.879164
67.745 23.469095
67.750 22.679062
67.755 22.095121
67.760 22.408133
67.765 22.342781
67.770 21.648941
67.775 21.161961
67.780 20.589979
67.785 20.698765
67.790 20.394415
67.795 20.071526
67.800 20.020058
67.805 20.439917
67.810 20.511217
67.815 20.844856
67.820 20.994829
67.825 21.173006
67.830 21.500195
67.835 21.667845
67.840 21.631695
67.845 21.606508
67.850 21.838238
67.855 22.169477
67.860 22.478127
67.865 22.5709
67.870 22.412045
67.875 22.440495
67.880 22.214197
67.885 21.910696
67.890 21.427147
67.895 21.323538
67.900 21.795713
67.905 21.814716
67.910 21.965616
67.915 21.766909
67.920 22.133051
67.925 22.158148
67.930 21.986483
67.935 21.679499
67.940 21.890001
67.945 22.277868
67.950 22.279819
67.955 22.073427
67.960 22.128025
67.965 22.611589
67.970 22.717236
67.975 23.360897
67.980 23.564405
67.985 23.736328
67.990 23.538029
67.995 23.411798
68.000 22.764404
68.005 22.291039
68.010 21.650957
68.015 20.826757
68.020 20.644873
68.025 20.346451
68.030 19.602144
68.035 18.927242
68.040 18.415571
68.045 18.302753
68.050 19.064295
68.055 19.640472
68.060 20.261061
68.065 20.503199
68.070 21.330481
68.075 21.283443
68.080 21.238506
68.085 20.793831
68.090 20.149862
68.095 20.555389
68.100 21.004597
68.105 20.814508
68.110 20.583824
68.115 20.670004
68.120 20.380886
68.125 20.238852
68.130 19.955578
68.135 20.070816
68.140 20.39654
68.145 20.296434
68.150 19.957268
68.155 20.535006
68.160 20.836565
68.165 20.219326
68.170 19.733688
68.175 19.580217
68.180 20.43569
68.185 20.418383
68.190 20.934776
68.195 21.091194
68.200 21.265556
68.205 21.631641
68.210 22.02545
68.215 21.129854
68.220 20.746733
68.225 20.231459
68.230 20.306889
68.235 20.526031
68.240 20.350542
68.245 20.504322
68.250 21.133722
68.255 21.195976
68.260 21.106421
68.265 21.456821
68.270 21.555256
68.275 22.032511
68.280 22.096224
68.285 21.929508
68.290 22.193771
68.295 21.900793
68.300 21.601641
68.305 21.560734
68.310 20.799623
68.315 20.22748
68.320 20.816813
68.325 20.978014
68.330 21.278938
68.335 21.274578
68.340 21.090141
68.345 21.559034
68.350 21.902687
68.355 21.309467
68.360 21.324209
68.365 21.273272
68.370 21.093086
68.375 20.923466
68.380 20.618145
68.385 20.589973
68.390 20.572674
68.395 20.502064
68.400 20.53034
68.405 20.72089
68.410 21.15987
68.415 20.887218
68.420 21.061781
68.425 21.505388
68.430 21.0877
68.435 20.87252
68.440 20.659794
68.445 21.06916
68.450 21.106476
68.455 21.155661
68.460 21.507067
68.465 22.189157
68.470 22.680956
68.475 22.763084
68.480 22.454445
68.485 22.386013
68.490 22.165325
68.495 22.011789
68.500 21.845842
68.505 21.556623
68.510 21.145832
68.515 21.133949
68.520 20.855204
68.525 20.792295
68.530 20.070261
68.535 20.025408
68.540 20.756712
68.545 21.173523
68.550 21.726011
68.555 22.162317
68.560 22.957602
68.565 23.282
68.570 23.213017
68.575 22.576405
68.580 22.728657
68.585 23.017111
68.590 22.347868
68.595 21.640444
68.600 21.865883
68.605 22.496983
68.610 22.642733
68.615 22.060097
68.620 21.349401
68.625 21.707418
68.630 22.215673
68.635 22.056879
68.640 21.606312
68.645 21.583733
68.650 22.342112
68.655 22.477747
68.660 22.363794
68.665 21.426741
68.670 21.206089
68.675 21.520367
68.680 21.456917
68.685 21.037203
68.690 21.156799
68.695 21.354435
68.700 21.341278
68.705 21.180483
68.710 20.817516
68.715 20.83279
68.720 20.690258
68.725 20.706295
68.730 20.934553
68.735 20.996576
68.740 21.039669
68.745 21.641321
68.750 21.956957
68.755 22.66115
68.760 23.051458
68.765 23.507252
68.770 23.977493
68.775 24.169226
68.780 23.349054
68.785 22.941212
68.790 22.590443
68.795 22.444691
68.800 22.17345
68.805 22.196459
68.810 22.312355
68.815 21.939251
68.820 22.257643
68.825 22.29986
68.830 22.34128
68.835 22.299229
68.840 21.995201
68.845 21.738897
68.850 22.139688
68.855 22.400688
68.860 21.866611
68.865 21.375257
68.870 20.983027
68.875 21.384251
68.880 22.013874
68.885 21.839148
68.890 21.410124
68.895 21.765818
68.900 21.815151
68.905 21.592247
68.910 20.775507
68.915 20.766422
68.920 20.842714
68.925 20.829033
68.930 20.83737
68.935 21.605518
68.940 22.186481
68.945 22.311264
68.950 21.94948
68.955 21.711737
68.960 22.161182
68.965 22.293339
68.970 22.257517
68.975 22.452597
68.980 22.781363
68.985 22.871233
68.990 23.202099
68.995 23.554274
69.000 23.21427
69.005 22.930552
69.010 23.130817
69.015 23.625069
69.020 23.890341
69.025 23.567629
69.030 22.899702
69.035 23.014257
69.040 23.367973
69.045 23.266674
69.050 22.531702
69.055 23.252522
69.060 23.793236
69.065 23.946451
69.070 23.76116
69.075 23.27508
69.080 23.395548
69.085 23.811037
69.090 23.150177
69.095 23.77467
69.100 24.629011
69.105 25.236698
69.110 25.749104
69.115 25.695177
69.120 25.750826
69.125 25.392263
69.130 24.902363
69.135 24.36359
69.140 25.470766
69.145 25.614689
69.150 25.732294
69.155 25.816788
69.160 26.156906
69.165 26.121475
69.170 26.331026
69.175 25.669786
69.180 25.87764
69.185 26.160664
69.190 26.394423
69.195 27.109861
69.200 27.222084
69.205 27.033415
69.210 26.53484
69.215 25.842203
69.220 25.645609
69.225 25.418118
69.230 24.632172
69.235 24.538233
69.240 25.495478
69.245 26.392282
69.250 26.630713
69.255 26.697371
69.260 26.686672
69.265 26.628021
69.270 26.716187
69.275 26.144075
69.280 25.195259
69.285 25.526978
69.290 26.186472
69.295 26.941633
69.300 27.839104
69.305 28.592611
69.310 28.73966
69.315 29.825146
69.320 29.763006
69.325 29.018169
69.330 28.850859
69.335 28.299761
69.340 27.855145
69.345 27.921328
69.350 27.642511
69.355 28.329737
69.360 28.766693
69.365 28.746376
69.370 28.443911
69.375 28.240248
69.380 29.010466
69.385 28.666506
69.390 28.629236
69.395 28.621922
69.400 28.179388
69.405 28.243635
69.410 28.330431
69.415 27.413023
69.420 27.662243
69.425 27.628565
69.430 28.094303
69.435 28.545534
69.440 29.400047
69.445 29.660658
69.450 30.199228
69.455 29.895445
69.460 28.988928
69.465 28.868162
69.470 28.767288
69.475 27.950512
69.480 28.400608
69.485 27.897089
69.490 28.126366
69.495 28.512638
69.500 28.123581
69.505 28.214642
69.510 28.343725
69.515 28.036911
69.520 28.240812
69.525 27.958998
69.530 27.957575
69.535 28.312489
69.540 28.658241
69.545 28.172728
69.550 27.592545
69.555 28.08246
69.560 28.444096
69.565 28.261511
69.570 28.697599
69.575 28.9237
69.580 28.897512
69.585 29.042826
69.590 28.724607
69.595 28.341263
69.600 28.443146
69.605 27.591278
69.610 27.498106
69.615 27.348886
69.620 27.80899
69.625 27.952385
69.630 28.664999
69.635 28.5604
69.640 29.010267
69.645 28.911535
69.650 28.752281
69.655 28.32473
69.660 28.750793
69.665 27.959059
69.670 27.50918
69.675 27.305302
69.680 27.047508
69.685 27.369871
69.690 27.333752
69.695 26.715647
69.700 27.83259
69.705 27.847101
69.710 27.590071
69.715 27.513083
69.720 27.063057
69.725 27.010124
69.730 26.989534
69.735 26.347668
69.740 26.516245
69.745 26.763014
69.750 26.814102
69.755 26.125288
69.760 25.326031
69.765 25.399717
69.770 25.243525
69.775 25.47537
69.780 25.251226
69.785 25.444212
69.790 26.463024
69.795 26.119871
69.800 25.272337
69.805 25.045116
69.810 24.866167
69.815 25.285809
69.820 25.259319
69.825 25.168003
69.830 24.850658
69.835 25.13806
69.840 24.658617
69.845 24.710398
69.850 23.695295
69.855 23.486788
69.860 22.953739
69.865 22.862322
69.870 22.970337
69.875 23.301554
69.880 23.438175
69.885 23.730923
69.890 23.787077
69.895 24.020185
69.900 23.746702
69.905 23.71686
69.910 23.600447
69.915 23.140503
69.920 23.147545
69.925 23.27282
69.930 23.515556
69.935 23.905323
69.940 23.856792
69.945 24.023958
69.950 24.452848
69.955 24.571142
69.960 25.031591
69.965 25.316107
69.970 25.058542
69.975 24.952881
69.980 24.176332
69.985 23.882753
69.990 23.979301
69.995 23.596924
70.000 23.790445
70.005 23.164295
70.010 22.551514
70.015 22.889093
70.020 22.769361
70.025 22.092192
70.030 22.140629
70.035 22.112598
70.040 22.719374
70.045 22.854204
70.050 22.861603
70.055 22.880295
70.060 22.947529
70.065 22.660032
70.070 22.428631
70.075 22.555338
70.080 22.842308
70.085 22.841679
70.090 22.575926
70.095 22.621597
70.100 21.940941
70.105 21.745523
70.110 21.020781
70.115 20.144733
70.120 20.026583
70.125 20.102591
70.130 20.014769
70.135 20.09462
70.140 20.232731
70.145 20.856985
70.150 20.936031
70.155 20.944294
70.160 20.657207
70.165 20.609777
70.170 20.304804
70.175 20.264204
70.180 20.402327
70.185 20.482618
70.190 20.306099
70.195 20.610851
70.200 20.79954
70.205 21.159981
70.210 20.822733
70.215 20.316593
70.220 19.790817
70.225 19.117876
70.230 18.778172
70.235 18.406231
70.240 17.977274
70.245 18.140104
70.250 18.33457
70.255 19.276901
70.260 19.966465
70.265 19.762032
70.270 19.705612
70.275 19.948481
70.280 20.417295
70.285 20.59565
70.290 20.521902
70.295 20.488466
70.300 20.683468
70.305 20.83345
70.310 20.680904
70.315 20.385145
70.320 20.833153
70.325 20.812576
70.330 20.640327
70.335 20.284939
70.340 20.476576
70.345 20.334751
70.350 19.753056
70.355 19.458839
70.360 19.313255
70.365 19.589136
70.370 19.801525
70.375 19.388451
70.380 19.312744
70.385 19.921108
70.390 20.162821
70.395 19.718216
70.400 19.406427
70.405 19.373646
70.410 20.896671
70.415 20.923918
70.420 20.898113
70.425 20.492006
70.430 20.916313
70.435 21.286551
70.440 21.332998
70.445 20.328236
70.450 19.743849
70.455 19.413767
70.460 19.938437
70.465 19.553274
70.470 19.294628
70.475 18.941324
70.480 18.722218
70.485 18.820271
70.490 18.455326
70.495 17.70237
70.500 18.345354
70.505 18.704273
70.510 19.144808
70.515 19.753023
70.520 20.33341
70.525 20.657154
70.530 20.786423
70.535 20.255413
70.540 20.223789
70.545 20.623499
70.550 21.175238
70.555 20.647064
70.560 20.668766
70.565 20.999006
70.570 21.489756
70.575 21.123089
70.580 20.333548
70.585 20.206411
70.590 20.703129
70.595 19.957293
70.600 19.703106
70.605 19.643568
70.610 20.242197
70.615 20.565523
70.620 20.172609
70.625 19.938324
70.630 20.819723
70.635 21.00408
70.640 20.625181
70.645 20.259768
70.650 20.162392
70.655 20.214537
70.660 20.339464
70.665 20.047104
70.670 20.300024
70.675 20.383957
70.680 20.00482
70.685 19.666822
70.690 19.654253
70.695 19.198675
70.700 18.420444
70.705 17.907694
70.710 17.738504
70.715 18.358242
70.720 19.054173
70.725 19.474228
70.730 19.72179
70.735 20.11071
70.740 19.629999
70.745 19.446457
70.750 18.97213
70.755 18.144123
70.760 17.744467
70.765 17.53676
70.770 18.092117
70.775 18.944351
70.780 19.280134
70.785 19.304941
70.790 19.480661
70.795 19.255817
70.800 19.063229
70.805 18.613047
70.810 18.212545
70.815 17.789104
70.820 18.617386
70.825 19.093971
70.830 18.612545
70.835 18.263851
70.840 18.349297
70.845 19.180285
70.850 19.377338
70.855 19.15196
70.860 18.906652
70.865 19.615223
70.870 20.051319
70.875 19.797087
70.880 19.096523
70.885 19.274572
70.890 19.193636
70.895 19.634203
70.900 20.376261
70.905 20.317705
70.910 19.928915
70.915 19.802099
70.920 19.138159
70.925 18.726048
70.930 18.552963
70.935 18.502468
70.940 18.764017
70.945 19.560545
70.950 19.827824
70.955 20.420031
70.960 20.917595
70.965 20.363358
70.970 20.148796
70.975 20.046745
70.980 19.615602
70.985 20.046177
70.990 19.291548
70.995 18.918896
71.000 18.774563
71.005 18.579214
71.010 18.740639
71.015 18.896347
71.020 18.67098
71.025 18.245625
71.030 18.141214
71.035 18.013172
71.040 17.743942
71.045 17.447649
71.050 17.693872
71.055 18.115355
71.060 18.912073
71.065 19.460821
71.070 20.01074
71.075 20.122217
71.080 19.886797
71.085 19.325344
71.090 18.568806
71.095 18.450069
71.100 18.399429
71.105 18.454262
71.110 18.304871
71.115 18.448454
71.120 18.505625
71.125 18.528639
71.130 18.598942
71.135 18.504656
71.140 18.568611
71.145 18.408739
71.150 18.334934
71.155 18.548088
71.160 18.952391
71.165 19.05905
71.170 18.775591
71.175 18.271368
71.180 18.325588
71.185 18.665018
71.190 18.859825
71.195 18.567953
71.200 17.930922
71.205 18.476885
71.210 18.967674
71.215 18.91725
71.220 18.730947
71.225 18.057634
71.230 18.55809
71.235 19.208441
71.240 19.664679
71.245 20.097061
71.250 20.317104
71.255 20.764568
71.260 20.734978
71.265 20.538034
71.270 19.971344
71.275 19.425077
71.280 18.817179
71.285 18.550209
71.290 18.560917
71.295 18.494928
71.300 18.470551
71.305 18.60708
71.310 18.674347
71.315 18.331253
71.320 18.422625
71.325 18.289673
71.330 18.461054
71.335 18.266123
71.340 17.849852
71.345 17.931826
71.350 18.151508
71.355 18.574989
71.360 18.722551
71.365 18.847666
71.370 19.068707
71.375 19.334497
71.380 19.748955
71.385 19.657282
71.390 18.702591
71.395 18.733376
71.400 18.807087
71.405 18.821835
71.410 18.812538
71.415 19.022871
71.420 18.692822
71.425 18.746485
71.430 18.85924
71.435 18.836462
71.440 18.781233
71.445 18.288462
71.450 17.576571
71.455 17.724918
71.460 17.707775
71.465 17.312046
71.470 16.831812
71.475 16.767895
71.480 17.200642
71.485 17.374258
71.490 17.04785
71.495 17.030163
71.500 17.393248
71.505 17.695467
71.510 18.144295
71.515 18.544277
71.520 19.334158
71.525 19.433752
71.530 19.263597
71.535 18.821663
71.540 18.519161
71.545 17.945978
71.550 17.523262
71.555 17.075132
71.560 17.562969
71.565 17.308622
71.570 17.419132
71.575 17.189358
71.580 16.999237
71.585 17.41868
71.590 17.991484
71.595 18.159678
71.600 18.384754
71.605 18.508532
71.610 18.516823
71.615 18.699219
71.620 18.27022
71.625 17.879583
71.630 17.751118
71.635 17.981695
71.640 18.17322
71.645 18.008327
71.650 18.119301
71.655 18.155413
71.660 18.070427
71.665 18.238251
71.670 18.324619
71.675 18.032621
71.680 19.224922
71.685 20.112915
71.690 20.224546
71.695 20.911245
71.700 21.623707
71.705 22.196735
71.710 22.683092
71.715 21.740578
71.720 20.77265
71.725 20.947475
71.730 19.989756
71.735 19.590233
71.740 19.502058
71.745 18.900576
71.750 18.772331
71.755 18.839296
71.760 18.280329
71.765 18.521702
71.770 18.157888
71.775 17.816935
71.780 18.204485
71.785 18.543095
71.790 18.819027
71.795 19.093962
71.800 19.323982
71.805 19.741312
71.810 19.673046
71.815 19.570856
71.820 19.399876
71.825 19.551397
71.830 19.757219
71.835 19.91431
71.840 19.731451
71.845 19.666376
71.850 19.378557
71.855 18.771523
71.860 18.314169
71.865 17.750051
71.870 17.318312
71.875 17.281902
71.880 17.274916
71.885 17.764145
71.890 18.012663
71.895 18.72983
71.900 18.960665
71.905 18.947163
71.910 18.558922
71.915 18.620623
71.920 18.236788
71.925 18.269579
71.930 17.580612
71.935 17.642073
71.940 17.813623
71.945 18.257898
71.950 18.779663
71.955 19.038919
71.960 19.53545
71.965 19.553068
71.970 19.846037
71.975 20.149883
71.980 20.226858
71.985 19.696749
71.990 19.293879
71.995 18.906189
72.000 19.15119
72.005 18.696516
72.010 18.209463
72.015 17.84594
72.020 17.812254
72.025 18.331362
72.030 18.229967
72.035 18.056181
72.040 18.407249
72.045 18.746269
72.050 19.22364
72.055 19.470398
72.060 19.741125
72.065 19.635439
72.070 19.377739
72.075 19.140102
72.080 18.817648
72.085 19.539591
72.090 19.59293
72.095 19.202845
72.100 19.152519
72.105 18.996239
72.110 19.090874
72.115 19.399715
72.120 18.896666
72.125 18.589239
72.130 18.422796
72.135 18.502424
72.140 18.62092
72.145 18.655678
72.150 18.142101
72.155 18.315958
72.160 18.409216
72.165 19.003656
72.170 18.923737
72.175 18.591402
72.180 18.062477
72.185 17.383978
72.190 17.511271
72.195 17.808811
72.200 17.630514
72.205 18.305885
72.210 18.545473
72.215 18.464323
72.220 18.339024
72.225 17.747149
72.230 18.055407
72.235 18.085417
72.240 18.042171
72.245 18.345713
72.250 18.835827
72.255 19.058657
72.260 19.025782
72.265 18.538462
72.270 18.30562
72.275 18.447544
72.280 18.225431
72.285 18.01203
72.290 18.161381
72.295 17.919613
72.300 18.092867
72.305 17.788965
72.310 17.26018
72.315 17.260565
72.320 16.952898
72.325 17.041168
72.330 16.818903
72.335 16.775047
72.340 16.979502
72.345 17.678059
72.350 17.561844
72.355 17.4391
72.360 17.473503
72.365 17.529549
72.370 17.296829
72.375 17.549137
72.380 17.698792
72.385 18.090864
72.390 18.557388
72.395 18.615549
72.400 19.010347
72.405 19.349888
72.410 19.270748
72.415 19.348824
72.420 19.196693
72.425 18.958925
72.430 18.799982
72.435 18.835787
72.440 17.994093
72.445 17.482031
72.450 17.567499
72.455 17.60626
72.460 17.503647
72.465 17.198492
72.470 17.149923
72.475 16.962898
72.480 16.841799
72.485 16.183577
72.490 15.851049
72.495 15.929325
72.500 16.520519
72.505 16.908123
72.510 17.55143
72.515 18.150818
72.520 18.847734
72.525 18.992052
72.530 18.48201
72.535 18.160311
72.540 17.772423
72.545 17.944883
72.550 18.04714
72.555 18.704376
72.560 18.991123
72.565 19.176184
72.570 19.030067
72.575 18.832174
72.580 18.305849
72.585 17.908522
72.590 18.033178
72.595 18.613907
72.600 19.352808
72.605 19.934219
72.610 19.627691
72.615 19.658913
72.620 19.319639
72.625 19.016766
72.630 19.011982
72.635 18.496536
72.640 18.935816
72.645 19.395517
72.650 19.27309
72.655 18.936127
72.660 18.629082
72.665 18.125063
72.670 18.545036
72.675 18.343243
72.680 18.236113
72.685 18.515924
72.690 18.75946
72.695 18.74655
72.700 19.027063
72.705 18.74473
72.710 18.415937
72.715 18.096954
72.720 17.97887
72.725 17.781601
72.730 16.889322
72.735 16.285576
72.740 16.214163
72.745 16.313576
72.750 16.406157
72.755 16.607889
72.760 16.57155
72.765 17.034096
72.770 17.138178
72.775 17.349466
72.780 17.371552
72.785 16.829849
72.790 16.602087
72.795 17.033039
72.800 17.688828
72.805 18.288034
72.810 17.640427
72.815 17.16732
72.820 17.414669
72.825 17.299383
72.830 17.012604
72.835 16.299553
72.840 15.82589
72.845 16.904512
72.850 17.554848
72.855 18.301027
72.860 18.712547
72.865 18.389179
72.870 18.898336
72.875 18.825401
72.880 18.261925
72.885 18.186752
72.890 17.754107
72.895 18.00358
72.900 18.268034
72.905 17.978788
72.910 18.111893
72.915 18.239319
72.920 18.268076
72.925 18.252558
72.930 18.264084
72.935 18.187029
72.940 18.058939
72.945 18.260527
72.950 17.668251
72.955 17.616272
72.960 16.177605
72.965 15.432698
72.970 15.329532
72.975 15.411234
72.980 15.628954
72.985 15.599937
72.990 16.384489
72.995 17.775888
73.000 17.879614
