!@!!GADDS PLOTSO FILE: Chi integration type
!@!!Title/SampleName: map-137
!@!!Comment: ?
!@!!User: Bruker Instrument Administrator
!@!!Site: University of Illinois Chicago
!@!!Frame: map-137_01_000.gfrm
!@!!Wavelengths    1.54184   1.54056   1.54439
!@!!Frame angles: 2Theta: 63.000 Omega: 50.000 Phi: 0.000 Chi: 90.000
!@!!Integration range: 2Theta: 53.000 to 73.000  Gamma: -105.000 to -75.000
!@!!Integration method: bin normalized
!@!N
!@!SS
!@!M
!@!L 0.0 0.0 0.0 0.0
!@!XDegrees
!@!YCounts
53.000 4.067334
53.005 4.443475
53.010 4.485094
53.015 4.247676
53.020 4.25942
53.025 4.293318
53.030 4.377875
53.035 4.149181
53.040 3.842139
53.045 3.758312
53.050 4.22182
53.055 4.130908
53.060 4.118924
53.065 3.872493
53.070 3.964807
53.075 4.094309
53.080 3.885011
53.085 3.601755
53.090 3.537204
53.095 3.644028
53.100 3.974922
53.105 4.050922
53.110 4.284321
53.115 4.47285
53.120 4.658064
53.125 4.888839
53.130 4.818995
53.135 4.706164
53.140 4.648619
53.145 4.759193
53.150 5.062813
53.155 5.064648
53.160 5.04011
53.165 5.227634
53.170 5.193828
53.175 5.473347
53.180 5.359671
53.185 5.376852
53.190 5.251425
53.195 5.135085
53.200 5.066923
53.205 5.109108
53.210 4.579074
53.215 4.441948
53.220 4.272998
53.225 4.231953
53.230 4.095186
53.235 4.279805
53.240 4.72471
53.245 4.70865
53.250 4.818707
53.255 4.857482
53.260 4.930923
53.265 4.617947
53.270 4.328405
53.275 4.018905
53.280 4.105324
53.285 3.695074
53.290 3.469006
53.295 3.686515
53.300 3.827102
53.305 3.71026
53.310 3.738726
53.315 3.923397
53.320 4.180637
53.325 4.261763
53.330 4.262316
53.335 4.212968
53.340 4.38551
53.345 4.376122
53.350 4.617759
53.355 4.641314
53.360 4.580575
53.365 4.412191
53.370 4.353984
53.375 4.144671
53.380 3.92005
53.385 3.591321
53.390 3.272035
53.395 3.175762
53.400 3.467845
53.405 3.764439
53.410 4.278564
53.415 4.209599
53.420 4.536771
53.425 4.958853
53.430 5.229864
53.435 5.264409
53.440 5.054438
53.445 4.936702
53.450 4.792289
53.455 4.49987
53.460 4.643461
53.465 4.556034
53.470 4.796263
53.475 4.719382
53.480 4.386948
53.485 4.434874
53.490 4.490158
53.495 4.523175
53.500 4.320867
53.505 4.00585
53.510 4.214279
53.515 4.591905
53.520 4.369702
53.525 4.222151
53.530 4.022086
53.535 4.450035
53.540 4.52021
53.545 4.556045
53.550 4.419256
53.555 4.239589
53.560 4.272398
53.565 3.97549
53.570 3.635577
53.575 3.870238
53.580 4.067817
53.585 4.437671
53.590 4.657546
53.595 4.764925
53.600 4.994866
53.605 4.906619
53.610 4.546497
53.615 4.573818
53.620 4.611842
53.625 4.416603
53.630 4.378864
53.635 4.747929
53.640 4.874502
53.645 4.554287
53.650 4.096289
53.655 4.190415
53.660 4.472398
53.665 4.37533
53.670 4.248762
53.675 4.599268
53.680 4.988605
53.685 5.167
53.690 5.247546
53.695 5.195742
53.700 5.286601
53.705 5.098413
53.710 5.155116
53.715 5.27888
53.720 4.887592
53.725 4.773566
53.730 4.887434
53.735 4.65394
53.740 4.620373
53.745 4.204108
53.750 4.30838
53.755 4.639799
53.760 4.907944
53.765 4.835922
53.770 4.795209
53.775 5.055792
53.780 5.466402
53.785 5.241613
53.790 5.023035
53.795 4.563088
53.800 4.735823
53.805 4.976163
53.810 4.942599
53.815 4.747727
53.820 4.886345
53.825 4.939694
53.830 5.404638
53.835 5.346498
53.840 4.839545
53.845 4.660272
53.850 4.956272
53.855 4.844012
53.860 4.645352
53.865 4.322875
53.870 4.297359
53.875 4.386643
53.880 4.560527
53.885 4.687637
53.890 4.882593
53.895 4.965806
53.900 4.60977
53.905 4.64585
53.910 4.540435
53.915 4.241608
53.920 3.827449
53.925 3.56922
53.930 3.721983
53.935 4.130202
53.940 4.31577
53.945 4.263352
53.950 4.207294
53.955 4.400893
53.960 4.519098
53.965 4.286354
53.970 4.182692
53.975 4.003828
53.980 3.966524
53.985 4.087746
53.990 4.265998
53.995 4.625793
54.000 4.729643
54.005 4.650622
54.010 5.012671
54.015 5.472174
54.020 5.731841
54.025 5.702881
54.030 5.709876
54.035 5.810531
54.040 5.735902
54.045 5.529272
54.050 5.364285
54.055 5.17454
54.060 4.854736
54.065 4.699653
54.070 4.85506
54.075 5.204685
54.080 5.184444
54.085 5.14344
54.090 5.040628
54.095 5.096672
54.100 5.279696
54.105 5.243327
54.110 4.871751
54.115 4.490415
54.120 4.384638
54.125 4.52001
54.130 4.391682
54.135 4.179674
54.140 4.319486
54.145 4.739028
54.150 5.177907
54.155 5.357558
54.160 5.183764
54.165 5.081102
54.170 4.965479
54.175 4.634867
54.180 4.557876
54.185 4.565056
54.190 4.817063
54.195 5.047305
54.200 5.464099
54.205 5.626212
54.210 5.466469
54.215 5.227978
54.220 5.041019
54.225 4.884067
54.230 5.15168
54.235 5.124142
54.240 4.893369
54.245 4.94452
54.250 4.79976
54.255 5.076606
54.260 5.005702
54.265 4.768942
54.270 4.721189
54.275 4.899606
54.280 5.003769
54.285 4.970279
54.290 4.614376
54.295 4.580951
54.300 4.753297
54.305 4.703004
54.310 4.516604
54.315 4.385177
54.320 4.642196
54.325 4.798569
54.330 4.750514
54.335 4.809678
54.340 5.202414
54.345 5.645793
54.350 5.836805
54.355 5.902621
54.360 6.020306
54.365 5.81687
54.370 5.404154
54.375 5.454428
54.380 5.001262
54.385 4.839118
54.390 4.319316
54.395 4.255929
54.400 4.201955
54.405 4.11312
54.410 3.905474
54.415 3.988731
54.420 4.233916
54.425 4.455223
54.430 4.478454
54.435 4.524918
54.440 4.405436
54.445 4.566281
54.450 4.608817
54.455 4.621286
54.460 4.491379
54.465 4.467757
54.470 4.626234
54.475 5.045744
54.480 5.097779
54.485 5.104129
54.490 5.003669
54.495 5.064152
54.500 5.259659
54.505 5.192181
54.510 5.173334
54.515 5.340994
54.520 5.320454
54.525 5.442568
54.530 5.645126
54.535 5.707036
54.540 5.763512
54.545 5.125105
54.550 5.351392
54.555 5.683993
54.560 5.521318
54.565 5.324676
54.570 5.033062
54.575 4.993152
54.580 5.214999
54.585 4.859437
54.590 5.055407
54.595 5.396598
54.600 5.638016
54.605 5.574153
54.610 5.437625
54.615 5.436181
54.620 5.319688
54.625 5.064089
54.630 4.947327
54.635 4.901495
54.640 5.083885
54.645 5.040299
54.650 5.24966
54.655 5.053197
54.660 4.989445
54.665 4.875284
54.670 4.939178
54.675 5.265028
54.680 5.287246
54.685 5.188299
54.690 5.313587
54.695 5.34446
54.700 5.479073
54.705 5.218545
54.710 4.870926
54.715 5.164409
54.720 5.096678
54.725 4.837552
54.730 4.577806
54.735 4.513825
54.740 4.986487
54.745 5.04468
54.750 5.108913
54.755 5.557307
54.760 5.999712
54.765 6.110031
54.770 6.26038
54.775 6.153183
54.780 6.328034
54.785 6.385114
54.790 6.039839
54.795 5.676939
54.800 5.626298
54.805 5.463515
54.810 5.125793
54.815 4.905819
54.820 4.542047
54.825 4.895664
54.830 5.217826
54.835 5.491449
54.840 5.579731
54.845 5.615112
54.850 5.495636
54.855 5.343315
54.860 4.851568
54.865 4.608258
54.870 4.003317
54.875 4.195718
54.880 4.756402
54.885 5.349317
54.890 5.974084
54.895 5.827646
54.900 5.981482
54.905 6.072287
54.910 6.251439
54.915 6.022439
54.920 5.263579
54.925 4.887251
54.930 5.063699
54.935 5.07921
54.940 4.906209
54.945 4.308274
54.950 3.702779
54.955 3.808997
54.960 4.156436
54.965 4.117095
54.970 3.95406
54.975 4.10041
54.980 4.504614
54.985 4.844814
54.990 4.785365
54.995 4.671476
55.000 4.863972
55.005 5.07168
55.010 5.169761
55.015 5.157241
55.020 5.287446
55.025 5.326775
55.030 5.163225
55.035 4.931818
55.040 4.453855
55.045 4.558374
55.050 4.659607
55.055 4.447957
55.060 4.265017
55.065 4.29894
55.070 4.750329
55.075 5.051666
55.080 5.009368
55.085 5.128388
55.090 5.317889
55.095 5.702968
55.100 6.107696
55.105 5.990095
55.110 5.871631
55.115 5.805582
55.120 5.699823
55.125 5.724514
55.130 5.231243
55.135 4.956228
55.140 4.847698
55.145 4.850276
55.150 4.801422
55.155 4.809187
55.160 4.893289
55.165 5.112495
55.170 5.4043
55.175 5.643499
55.180 5.700584
55.185 6.175567
55.190 6.292325
55.195 6.242064
55.200 6.149553
55.205 6.170792
55.210 6.315623
55.215 6.217628
55.220 5.939374
55.225 6.166227
55.230 6.315217
55.235 6.48332
55.240 6.372877
55.245 6.38863
55.250 6.296248
55.255 6.229604
55.260 6.185711
55.265 6.203827
55.270 5.930865
55.275 5.742988
55.280 5.645456
55.285 6.042406
55.290 6.115937
55.295 5.744496
55.300 5.594095
55.305 5.454218
55.310 5.420156
55.315 5.409602
55.320 5.015151
55.325 4.958744
55.330 5.211843
55.335 5.382837
55.340 5.502091
55.345 5.532079
55.350 5.486154
55.355 5.702841
55.360 5.781703
55.365 5.301786
55.370 5.192618
55.375 5.344394
55.380 5.122908
55.385 4.950733
55.390 4.864073
55.395 5.02133
55.400 5.201469
55.405 5.185878
55.410 5.038189
55.415 5.258391
55.420 5.328709
55.425 5.02678
55.430 4.814312
55.435 5.009071
55.440 5.242212
55.445 5.338872
55.450 5.390274
55.455 5.669462
55.460 5.902276
55.465 5.798628
55.470 5.585115
55.475 5.329299
55.480 5.384091
55.485 5.265524
55.490 4.942093
55.495 5.107121
55.500 5.406253
55.505 5.829523
55.510 5.814708
55.515 5.687624
55.520 5.835535
55.525 5.78481
55.530 5.477927
55.535 5.287113
55.540 5.051461
55.545 5.403786
55.550 5.603802
55.555 5.912969
55.560 5.941017
55.565 5.792187
55.570 5.87476
55.575 5.832237
55.580 5.309781
55.585 5.32109
55.590 5.100079
55.595 5.467799
55.600 5.617891
55.605 5.522931
55.610 5.493575
55.615 5.585294
55.620 5.494365
55.625 5.573195
55.630 5.586601
55.635 5.73826
55.640 5.842403
55.645 5.80887
55.650 5.825549
55.655 5.802232
55.660 5.721176
55.665 5.912773
55.670 5.744298
55.675 5.700924
55.680 5.741838
55.685 5.378684
55.690 5.260861
55.695 5.279334
55.700 5.260182
55.705 5.180897
55.710 5.112537
55.715 5.161312
55.720 5.490022
55.725 5.692365
55.730 5.797569
55.735 5.469787
55.740 5.708665
55.745 6.020191
55.750 6.012486
55.755 5.862195
55.760 5.467974
55.765 5.019512
55.770 4.821589
55.775 4.972168
55.780 4.764186
55.785 4.820824
55.790 5.171857
55.795 5.360899
55.800 5.54836
55.805 5.78783
55.810 5.628021
55.815 5.831827
55.820 5.932029
55.825 5.625408
55.830 5.824579
55.835 5.942979
55.840 6.043484
55.845 5.78255
55.850 5.592386
55.855 5.638273
55.860 6.115928
55.865 6.341587
55.870 6.716767
55.875 6.735663
55.880 7.14133
55.885 7.05591
55.890 6.779829
55.895 6.433094
55.900 6.299819
55.905 6.245321
55.910 6.384027
55.915 6.607343
55.920 7.057306
55.925 7.236998
55.930 7.335723
55.935 7.156456
55.940 6.885443
55.945 6.547276
55.950 6.265933
55.955 6.117392
55.960 6.010499
55.965 5.886772
55.970 6.04819
55.975 6.040144
55.980 6.290425
55.985 6.376534
55.990 6.291357
55.995 6.58934
56.000 6.616904
56.005 6.468731
56.010 6.599176
56.015 6.33084
56.020 6.258774
56.025 5.969235
56.030 5.792524
56.035 5.771885
56.040 5.958773
56.045 5.803977
56.050 5.747495
56.055 5.592826
56.060 5.607845
56.065 5.747292
56.070 5.740343
56.075 5.603933
56.080 5.436316
56.085 5.513557
56.090 5.794441
56.095 5.604402
56.100 5.301164
56.105 5.543906
56.110 5.485374
56.115 5.610256
56.120 5.802893
56.125 5.858179
56.130 6.168915
56.135 6.430407
56.140 6.56944
56.145 6.465607
56.150 6.761258
56.155 6.787956
56.160 6.936573
56.165 7.028327
56.170 7.109418
56.175 6.922999
56.180 6.716035
56.185 6.447495
56.190 6.254299
56.195 5.944128
56.200 5.832424
56.205 5.459971
56.210 5.571371
56.215 5.717544
56.220 5.714908
56.225 5.735967
56.230 5.780253
56.235 5.716403
56.240 5.805304
56.245 6.163923
56.250 6.881927
56.255 7.297166
56.260 7.278046
56.265 7.224597
56.270 7.103716
56.275 7.162491
56.280 6.452895
56.285 5.72322
56.290 5.137383
56.295 5.459446
56.300 5.716573
56.305 5.745981
56.310 5.694207
56.315 6.013553
56.320 6.254721
56.325 6.568243
56.330 6.477287
56.335 6.304616
56.340 6.253842
56.345 6.313077
56.350 6.427591
56.355 6.313181
56.360 6.321678
56.365 6.27696
56.370 6.183478
56.375 6.047955
56.380 6.166087
56.385 6.562359
56.390 7.278296
56.395 7.744383
56.400 8.01965
56.405 8.178993
56.410 8.350282
56.415 7.968491
56.420 7.543303
56.425 6.791372
56.430 6.278965
56.435 5.936212
56.440 5.915879
56.445 5.992918
56.450 6.025086
56.455 5.839096
56.460 5.846809
56.465 6.006237
56.470 6.294491
56.475 6.273336
56.480 6.443266
56.485 6.683564
56.490 6.822811
56.495 6.62855
56.500 6.381341
56.505 6.473882
56.510 6.377419
56.515 6.021224
56.520 5.888902
56.525 5.768051
56.530 5.857821
56.535 6.079159
56.540 6.388124
56.545 6.66492
56.550 6.426562
56.555 6.030182
56.560 6.101636
56.565 6.098422
56.570 5.635282
56.575 5.132569
56.580 5.165655
56.585 5.278789
56.590 5.484921
56.595 5.847057
56.600 6.348186
56.605 6.607584
56.610 6.689082
56.615 6.730769
56.620 7.009437
56.625 7.004599
56.630 6.649456
56.635 6.154544
56.640 5.965796
56.645 5.810774
56.650 5.700013
56.655 5.627532
56.660 5.568688
56.665 5.731892
56.670 6.15503
56.675 6.734513
56.680 7.063247
56.685 7.004715
56.690 7.034291
56.695 7.624003
56.700 7.672485
56.705 7.436555
56.710 7.296746
56.715 7.011855
56.720 6.962092
56.725 7.157755
56.730 7.033528
56.735 6.664577
56.740 6.476104
56.745 6.190453
56.750 6.634196
56.755 6.819817
56.760 6.522355
56.765 6.844001
56.770 7.205376
56.775 7.312452
56.780 7.483164
56.785 7.428825
56.790 7.401081
56.795 7.287454
56.800 7.000223
56.805 6.97347
56.810 6.778771
56.815 6.804361
56.820 6.701025
56.825 6.800656
56.830 6.89345
56.835 6.873302
56.840 6.689139
56.845 6.778269
56.850 6.590168
56.855 6.420111
56.860 6.232212
56.865 5.971224
56.870 6.025227
56.875 6.315401
56.880 6.183558
56.885 6.31208
56.890 6.518325
56.895 6.497233
56.900 6.717288
56.905 6.730497
56.910 6.540211
56.915 6.668566
56.920 6.358237
56.925 6.279827
56.930 6.47778
56.935 6.243219
56.940 6.187487
56.945 6.314217
56.950 6.29684
56.955 6.371505
56.960 6.361348
56.965 6.530159
56.970 6.141676
56.975 6.067534
56.980 6.257705
56.985 6.638197
56.990 7.01345
56.995 7.028142
57.000 6.876568
57.005 6.828911
57.010 6.774029
57.015 6.582783
57.020 6.601159
57.025 6.391428
57.030 6.296329
57.035 6.177504
57.040 6.227858
57.045 6.225363
57.050 6.028239
57.055 5.762315
57.060 5.646172
57.065 5.996661
57.070 6.541221
57.075 7.104191
57.080 7.095507
57.085 7.324967
57.090 7.410768
57.095 7.241641
57.100 6.692982
57.105 6.400948
57.110 6.557539
57.115 6.663916
57.120 6.355177
57.125 6.086431
57.130 6.176022
57.135 6.409369
57.140 6.407376
57.145 6.268822
57.150 6.632025
57.155 6.732952
57.160 7.192737
57.165 7.535733
57.170 7.703374
57.175 7.379613
57.180 7.176088
57.185 7.41502
57.190 7.459422
57.195 7.342376
57.200 7.008819
57.205 6.664867
57.210 6.655644
57.215 6.567689
57.220 6.012005
57.225 5.871963
57.230 5.773916
57.235 6.067998
57.240 6.323207
57.245 6.36753
57.250 6.382711
57.255 6.45233
57.260 6.55034
57.265 6.457562
57.270 6.39575
57.275 6.434472
57.280 6.651104
57.285 6.731668
57.290 6.717207
57.295 6.930327
57.300 6.828969
57.305 6.623291
57.310 6.635678
57.315 6.521652
57.320 6.721161
57.325 6.705275
57.330 6.611084
57.335 6.800937
57.340 7.017512
57.345 6.915445
57.350 6.604595
57.355 6.525499
57.360 6.642615
57.365 6.722343
57.370 7.001884
57.375 6.925584
57.380 6.983052
57.385 7.085332
57.390 7.324113
57.395 7.28448
57.400 7.410447
57.405 7.342364
57.410 7.578767
57.415 7.571669
57.420 7.518334
57.425 7.29672
57.430 7.138986
57.435 6.849971
57.440 6.76592
57.445 6.371293
57.450 6.365883
57.455 6.535628
57.460 6.839427
57.465 7.179528
57.470 7.222399
57.475 6.929945
57.480 7.063056
57.485 7.177387
57.490 7.344596
57.495 7.090885
57.500 6.916669
57.505 6.868943
57.510 7.404309
57.515 7.232069
57.520 6.915471
57.525 6.401179
57.530 6.216998
57.535 6.269751
57.540 6.445128
57.545 6.214693
57.550 6.42135
57.555 7.147686
57.560 7.557642
57.565 7.779961
57.570 7.700778
57.575 7.524569
57.580 7.590988
57.585 7.857
57.590 7.394588
57.595 6.896568
57.600 6.396972
57.605 6.648322
57.610 6.636234
57.615 6.640726
57.620 6.509603
57.625 6.282043
57.630 6.798182
57.635 7.115219
57.640 6.844104
57.645 6.830729
57.650 7.094022
57.655 7.45425
57.660 7.347401
57.665 7.031085
57.670 6.989925
57.675 7.1476
57.680 7.204257
57.685 7.193804
57.690 6.845745
57.695 7.483982
57.700 7.861172
57.705 7.80201
57.710 7.426667
57.715 7.319575
57.720 7.026395
57.725 6.865684
57.730 6.77151
57.735 6.554198
57.740 6.765806
57.745 7.102929
57.750 6.949244
57.755 6.852422
57.760 6.868559
57.765 6.356238
57.770 6.441237
57.775 6.746954
57.780 6.851153
57.785 7.066648
57.790 7.456322
57.795 7.632298
57.800 7.960948
57.805 8.181805
57.810 8.058192
57.815 7.780007
57.820 7.676836
57.825 7.393058
57.830 7.285506
57.835 7.469527
57.840 7.324178
57.845 7.140509
57.850 7.291074
57.855 7.438674
57.860 7.741211
57.865 7.88484
57.870 7.862231
57.875 7.85445
57.880 7.737853
57.885 7.852782
57.890 7.915176
57.895 7.804892
57.900 7.87429
57.905 7.728634
57.910 7.675434
57.915 8.128123
57.920 8.097088
57.925 7.925641
57.930 7.867463
57.935 7.933049
57.940 8.017237
57.945 8.024755
57.950 8.090269
57.955 8.194963
57.960 8.261168
57.965 8.30152
57.970 8.201585
57.975 8.167356
57.980 8.176829
57.985 8.166989
57.990 8.089291
57.995 8.342104
58.000 8.415189
58.005 8.893856
58.010 9.070234
58.015 9.005853
58.020 8.987866
58.025 8.814767
58.030 8.567218
58.035 8.715673
58.040 8.382624
58.045 8.718271
58.050 8.486681
58.055 8.367251
58.060 8.639488
58.065 8.606785
58.070 8.428763
58.075 8.322792
58.080 8.030663
58.085 8.142546
58.090 8.131968
58.095 8.218368
58.100 8.410509
58.105 8.507659
58.110 8.530186
58.115 8.337831
58.120 8.301449
58.125 8.125334
58.130 7.624787
58.135 7.454461
58.140 7.377075
58.145 7.389814
58.150 7.320119
58.155 7.702364
58.160 8.206422
58.165 8.609146
58.170 9.005596
58.175 8.883287
58.180 8.564413
58.185 8.822565
58.190 8.447556
58.195 7.963158
58.200 7.623495
58.205 7.468857
58.210 7.774621
58.215 7.968857
58.220 7.799293
58.225 7.567871
58.230 7.570805
58.235 7.721662
58.240 7.367475
58.245 7.073267
58.250 7.198219
58.255 7.472934
58.260 7.809467
58.265 7.501918
58.270 7.284072
58.275 7.011736
58.280 7.682137
58.285 7.989062
58.290 7.930162
58.295 8.362647
58.300 8.578812
58.305 9.222142
58.310 9.572659
58.315 8.671917
58.320 8.05314
58.325 7.887314
58.330 7.611995
58.335 7.896297
58.340 7.745883
58.345 7.861855
58.350 8.152872
58.355 8.236556
58.360 8.088598
58.365 7.798796
58.370 7.840494
58.375 7.88273
58.380 8.02891
58.385 7.970675
58.390 8.198154
58.395 8.785347
58.400 9.231832
58.405 9.316012
58.410 9.449797
58.415 9.49621
58.420 9.642994
58.425 9.893511
58.430 9.817533
58.435 9.918214
58.440 9.663156
58.445 9.535129
58.450 9.210577
58.455 9.296219
58.460 9.04103
58.465 8.838534
58.470 8.935746
58.475 8.925159
58.480 9.131216
58.485 9.93427
58.490 10.936976
58.495 11.758657
58.500 11.94324
58.505 12.23891
58.510 13.036141
58.515 13.304394
58.520 12.814228
58.525 12.204391
58.530 12.091249
58.535 12.082811
58.540 11.441112
58.545 10.909389
58.550 10.882052
58.555 11.389865
58.560 11.604121
58.565 11.449665
58.570 11.781309
58.575 12.436427
58.580 13.027352
58.585 12.932637
58.590 12.862044
58.595 12.825015
58.600 12.888553
58.605 12.715733
58.610 12.67256
58.615 12.60033
58.620 12.980324
58.625 13.089974
58.630 13.883924
58.635 14.322691
58.640 15.059736
58.645 14.862556
58.650 14.81131
58.655 14.831695
58.660 14.746797
58.665 14.807008
58.670 14.580781
58.675 14.308854
58.680 14.632223
58.685 14.833611
58.690 14.665914
58.695 15.187527
58.700 14.551799
58.705 14.524327
58.710 14.244071
58.715 13.6277
58.720 13.952263
58.725 14.145236
58.730 13.687613
58.735 13.557478
58.740 14.530448
58.745 15.25888
58.750 15.366348
58.755 14.721168
58.760 14.789418
58.765 14.923001
58.770 15.254118
58.775 14.995331
58.780 14.705534
58.785 14.603335
58.790 14.860743
58.795 14.18687
58.800 13.633751
58.805 12.759711
58.810 11.637361
58.815 10.967485
58.820 11.049379
58.825 10.821557
58.830 10.5909
58.835 10.860458
58.840 11.061141
58.845 11.446169
58.850 11.477162
58.855 11.272063
58.860 11.237715
58.865 11.352926
58.870 11.267567
58.875 11.510665
58.880 11.32072
58.885 11.774961
58.890 11.734903
58.895 11.848511
58.900 12.010557
58.905 11.741263
58.910 11.239106
58.915 11.158339
58.920 10.734387
58.925 10.225049
58.930 9.953702
58.935 9.896225
58.940 9.784142
58.945 9.906419
58.950 9.753396
58.955 9.773565
58.960 10.290565
58.965 10.06108
58.970 9.503925
58.975 9.602918
58.980 9.576057
58.985 9.42834
58.990 9.259884
58.995 9.015716
59.000 9.325659
59.005 9.50281
59.010 9.494875
59.015 9.376238
59.020 9.416101
59.025 8.969202
59.030 9.00571
59.035 9.236785
59.040 9.487208
59.045 9.455726
59.050 9.513102
59.055 9.336236
59.060 9.425682
59.065 9.564381
59.070 9.271192
59.075 8.934831
59.080 8.955192
59.085 9.082141
59.090 9.358538
59.095 9.390582
59.100 8.851325
59.105 8.301311
59.110 8.209253
59.115 7.781755
59.120 7.344009
59.125 7.464567
59.130 7.502135
59.135 7.96291
59.140 8.36203
59.145 8.317631
59.150 8.580443
59.155 8.803984
59.160 8.846262
59.165 9.009103
59.170 8.953995
59.175 8.682629
59.180 8.640723
59.185 8.384555
59.190 8.245961
59.195 8.194521
59.200 7.746957
59.205 7.643358
59.210 8.134207
59.215 8.519357
59.220 8.855812
59.225 8.633567
59.230 8.441461
59.235 8.82296
59.240 8.545624
59.245 8.313216
59.250 8.152156
59.255 8.398561
59.260 8.578874
59.265 8.474652
59.270 8.385132
59.275 8.832752
59.280 8.87503
59.285 8.80034
59.290 8.360586
59.295 8.311974
59.300 8.304229
59.305 8.212553
59.310 7.958832
59.315 7.608577
59.320 7.789946
59.325 8.001124
59.330 8.013719
59.335 7.801924
59.340 7.509085
59.345 7.680313
59.350 7.709303
59.355 7.261687
59.360 7.416476
59.365 7.717568
59.370 7.769196
59.375 8.111734
59.380 8.27086
59.385 8.4721
59.390 8.723296
59.395 8.372599
59.400 8.145296
59.405 8.633022
59.410 8.697753
59.415 8.59939
59.420 8.610901
59.425 8.402242
59.430 8.482575
59.435 8.463756
59.440 8.532712
59.445 8.177542
59.450 7.943205
59.455 7.704094
59.460 7.417152
59.465 7.775267
59.470 7.867998
59.475 7.538568
59.480 7.555579
59.485 7.801857
59.490 7.980521
59.495 8.530293
59.500 8.254188
59.505 7.956279
59.510 7.70014
59.515 7.766764
59.520 7.696199
59.525 7.777605
59.530 7.419971
59.535 7.674004
59.540 7.964435
59.545 8.314965
59.550 8.509475
59.555 8.666281
59.560 8.417337
59.565 8.796342
59.570 8.812908
59.575 8.593832
59.580 8.259499
59.585 8.359525
59.590 8.605504
59.595 8.452882
59.600 7.961264
59.605 7.912964
59.610 8.122459
59.615 8.198092
59.620 7.826194
59.625 7.589193
59.630 7.886949
59.635 7.730519
59.640 7.551683
59.645 7.771596
59.650 8.094708
59.655 8.215511
59.660 8.509206
59.665 8.604099
59.670 9.292096
59.675 9.49341
59.680 8.979682
59.685 9.015265
59.690 9.14208
59.695 9.072275
59.700 9.578617
59.705 9.547785
59.710 9.656134
59.715 9.814508
59.720 9.97938
59.725 9.969296
59.730 9.703123
59.735 9.206198
59.740 9.119005
59.745 8.988924
59.750 8.675656
59.755 8.085226
59.760 7.960684
59.765 8.38273
59.770 8.508826
59.775 8.123243
59.780 8.378511
59.785 8.753506
59.790 8.803651
59.795 8.337892
59.800 8.010492
59.805 7.612416
59.810 7.658915
59.815 7.641059
59.820 7.831603
59.825 7.909961
59.830 7.810246
59.835 7.583601
59.840 7.62912
59.845 7.767133
59.850 7.326681
59.855 6.990709
59.860 7.047597
59.865 7.352099
59.870 7.083063
59.875 7.412847
59.880 7.422016
59.885 7.146813
59.890 7.174573
59.895 7.120593
59.900 7.233316
59.905 7.542552
59.910 7.282184
59.915 7.475157
59.920 7.981202
59.925 7.965044
59.930 7.997751
59.935 7.956176
59.940 8.072878
59.945 7.97235
59.950 7.669557
59.955 7.488904
59.960 7.975526
59.965 8.357846
59.970 8.083734
59.975 7.892263
59.980 8.098899
59.985 8.371245
59.990 8.474181
59.995 8.163264
60.000 7.876089
60.005 7.746075
60.010 8.138736
60.015 8.021164
60.020 8.018598
60.025 8.077106
60.030 7.698249
60.035 7.91189
60.040 8.137723
60.045 8.009801
60.050 8.204318
60.055 7.955272
60.060 8.083488
60.065 8.42983
60.070 8.473939
60.075 8.353481
60.080 8.304132
60.085 8.283032
60.090 8.125802
60.095 7.951256
60.100 8.059624
60.105 8.315283
60.110 8.509592
60.115 8.400056
60.120 8.320828
60.125 8.428507
60.130 8.092442
60.135 7.865996
60.140 7.749383
60.145 7.737335
60.150 7.845268
60.155 8.101907
60.160 8.338408
60.165 8.742916
60.170 8.479275
60.175 7.940341
60.180 7.68068
60.185 7.994511
60.190 7.994087
60.195 7.750245
60.200 7.498466
60.205 7.731244
60.210 7.973049
60.215 8.379681
60.220 7.915737
60.225 8.286101
60.230 8.839783
60.235 9.02468
60.240 8.938877
60.245 9.107216
60.250 8.911979
60.255 8.568861
60.260 8.307825
60.265 8.19255
60.270 8.183149
60.275 8.340572
60.280 8.256449
60.285 8.350703
60.290 8.715407
60.295 8.732474
60.300 8.833759
60.305 8.910414
60.310 8.995077
60.315 9.01526
60.320 8.921718
60.325 8.861136
60.330 9.06755
60.335 9.021637
60.340 8.864285
60.345 8.680611
60.350 8.567909
60.355 8.437035
60.360 8.33918
60.365 7.890185
60.370 7.45973
60.375 7.390631
60.380 7.325491
60.385 7.43256
60.390 7.362431
60.395 7.683705
60.400 7.83895
60.405 8.183352
60.410 8.232115
60.415 8.50206
60.420 8.452784
60.425 8.534758
60.430 8.043312
60.435 7.841277
60.440 8.085117
60.445 8.138202
60.450 7.392752
60.455 7.602086
60.460 7.642915
60.465 7.900547
60.470 7.974499
60.475 8.032259
60.480 8.326965
60.485 8.791178
60.490 8.446369
60.495 8.39321
60.500 8.278927
60.505 8.200277
60.510 8.18641
60.515 8.049206
60.520 8.255404
60.525 8.393055
60.530 8.121058
60.535 8.177933
60.540 8.565046
60.545 8.379333
60.550 8.138478
60.555 8.080697
60.560 7.970831
60.565 8.496549
60.570 8.662806
60.575 8.196434
60.580 8.592618
60.585 8.617597
60.590 8.265715
60.595 8.466953
60.600 8.303975
60.605 8.325047
60.610 8.459944
60.615 8.328553
60.620 8.425521
60.625 8.616855
60.630 8.41348
60.635 8.149591
60.640 8.025448
60.645 8.353165
60.650 8.459611
60.655 8.37521
60.660 8.383247
60.665 8.438535
60.670 8.880297
60.675 9.406271
60.680 9.108073
60.685 9.080902
60.690 9.204924
60.695 9.170329
60.700 9.123012
60.705 8.91126
60.710 8.133472
60.715 8.103188
60.720 8.461761
60.725 8.523711
60.730 8.772779
60.735 8.986566
60.740 8.882431
60.745 8.978529
60.750 8.999833
60.755 8.572078
60.760 8.231524
60.765 8.101451
60.770 7.979018
60.775 7.782462
60.780 7.325086
60.785 7.01621
60.790 7.00685
60.795 7.403955
60.800 7.609601
60.805 7.947909
60.810 8.157971
60.815 8.514942
60.820 8.774556
60.825 9.270659
60.830 9.207363
60.835 9.386531
60.840 9.487645
60.845 9.535076
60.850 9.619935
60.855 9.402234
60.860 8.965715
60.865 8.601449
60.870 8.160566
60.875 8.020551
60.880 8.253104
60.885 8.413847
60.890 8.059951
60.895 8.062131
60.900 8.444007
60.905 8.191409
60.910 7.77275
60.915 7.453928
60.920 7.290282
60.925 7.910673
60.930 7.977704
60.935 8.012126
60.940 8.388004
60.945 8.817304
60.950 9.177827
60.955 9.359565
60.960 9.182165
60.965 9.192327
60.970 9.436975
60.975 9.410749
60.980 9.371781
60.985 9.428641
60.990 9.293747
60.995 8.866265
61.000 8.654197
61.005 8.799576
61.010 8.761082
61.015 8.709412
61.020 8.464345
61.025 8.328053
61.030 8.412401
61.035 8.379868
61.040 8.131626
61.045 8.347356
61.050 8.790745
61.055 8.952847
61.060 9.546629
61.065 10.04833
61.070 10.139455
61.075 10.123316
61.080 9.994048
61.085 9.131593
61.090 9.335156
61.095 9.222337
61.100 9.487226
61.105 9.537416
61.110 9.398413
61.115 9.265823
61.120 9.54764
61.125 9.350457
61.130 8.933442
61.135 8.251266
61.140 8.094711
61.145 7.992683
61.150 7.845049
61.155 7.910147
61.160 7.882222
61.165 8.208156
61.170 8.452598
61.175 8.681376
61.180 8.919829
61.185 9.429643
61.190 9.937883
61.195 10.414609
61.200 10.929587
61.205 10.999275
61.210 11.014531
61.215 10.912226
61.220 10.87802
61.225 10.664979
61.230 10.255362
61.235 10.228863
61.240 10.190173
61.245 10.07399
61.250 10.279722
61.255 10.029874
61.260 10.286964
61.265 10.5486
61.270 10.318207
61.275 10.441548
61.280 10.204052
61.285 10.112786
61.290 10.490804
61.295 10.470427
61.300 9.923144
61.305 9.537189
61.310 9.09455
61.315 9.083675
61.320 8.789095
61.325 8.493678
61.330 8.136019
61.335 8.389707
61.340 8.716909
61.345 8.964633
61.350 8.773502
61.355 8.877961
61.360 8.539262
61.365 9.042197
61.370 9.090734
61.375 8.935637
61.380 8.967393
61.385 9.095943
61.390 8.995402
61.395 9.452801
61.400 8.884691
61.405 8.788033
61.410 8.756664
61.415 8.792933
61.420 9.041006
61.425 9.364403
61.430 9.402309
61.435 9.825657
61.440 9.777919
61.445 9.847224
61.450 10.34526
61.455 10.805354
61.460 10.540416
61.465 10.421876
61.470 10.065044
61.475 9.97703
61.480 10.154873
61.485 9.842547
61.490 9.36615
61.495 9.431693
61.500 9.480087
61.505 9.033162
61.510 9.597803
61.515 9.509607
61.520 9.406886
61.525 9.34932
61.530 9.296931
61.535 8.935721
61.540 9.137697
61.545 8.959124
61.550 8.651624
61.555 8.922825
61.560 8.988083
61.565 8.672568
61.570 8.759784
61.575 9.043842
61.580 8.720909
61.585 8.857651
61.590 8.828441
61.595 8.557601
61.600 8.609246
61.605 9.005708
61.610 8.848567
61.615 8.695141
61.620 8.648773
61.625 8.435153
61.630 8.752384
61.635 8.641049
61.640 8.545413
61.645 8.453134
61.650 8.871247
61.655 9.03633
61.660 9.243132
61.665 9.298137
61.670 9.961029
61.675 9.832455
61.680 9.697758
61.685 9.52904
61.690 9.188049
61.695 8.875853
61.700 8.822478
61.705 8.385595
61.710 8.316511
61.715 8.948534
61.720 9.043728
61.725 9.29606
61.730 9.556892
61.735 9.387011
61.740 9.606343
61.745 9.545542
61.750 9.154917
61.755 8.92519
61.760 9.072635
61.765 9.21006
61.770 9.119713
61.775 8.88059
61.780 8.832401
61.785 8.496204
61.790 8.286928
61.795 7.697072
61.800 7.687087
61.805 8.246152
61.810 8.619143
61.815 8.715016
61.820 9.391916
61.825 9.901231
61.830 10.285959
61.835 10.29589
61.840 9.966529
61.845 9.87048
61.850 10.201033
61.855 10.15814
61.860 9.975413
61.865 10.145946
61.870 10.141596
61.875 10.638
61.880 10.712251
61.885 10.293022
61.890 9.789783
61.895 9.751822
61.900 9.494262
61.905 9.147779
61.910 8.809104
61.915 8.821989
61.920 8.826749
61.925 8.900288
61.930 8.88483
61.935 9.335956
61.940 9.349336
61.945 9.006258
61.950 8.965386
61.955 9.115656
61.960 9.338288
61.965 9.493876
61.970 9.61965
61.975 9.89837
61.980 9.830632
61.985 9.696287
61.990 9.953389
61.995 9.99751
62.000 9.697476
62.005 9.281455
62.010 9.326996
62.015 9.24757
62.020 9.306087
62.025 8.81314
62.030 8.980771
62.035 9.319804
62.040 9.082793
62.045 9.210012
62.050 9.288287
62.055 9.189387
62.060 9.335898
62.065 8.991464
62.070 8.937505
62.075 9.378084
62.080 9.400827
62.085 9.548228
62.090 9.605357
62.095 9.635867
62.100 9.920691
62.105 10.156642
62.110 9.694248
62.115 9.406811
62.120 9.50662
62.125 9.473171
62.130 9.258377
62.135 8.916821
62.140 8.672631
62.145 9.162094
62.150 9.24201
62.155 9.148962
62.160 9.349953
62.165 9.504498
62.170 10.071273
62.175 10.286239
62.180 10.453945
62.185 10.577879
62.190 10.566916
62.195 10.440132
62.200 10.450687
62.205 9.913146
62.210 9.702953
62.215 8.99997
62.220 8.700292
62.225 8.411007
62.230 8.114781
62.235 8.062088
62.240 7.855733
62.245 8.29032
62.250 8.817616
62.255 9.257433
62.260 9.43935
62.265 9.457974
62.270 9.240266
62.275 8.930892
62.280 8.247332
62.285 8.228523
62.290 7.703134
62.295 7.773975
62.300 8.252378
62.305 8.378261
62.310 8.495465
62.315 8.311315
62.320 8.493603
62.325 8.697671
62.330 8.64841
62.335 8.254225
62.340 8.225286
62.345 8.483392
62.350 8.689704
62.355 8.282814
62.360 8.419809
62.365 8.412993
62.370 8.695675
62.375 8.792117
62.380 8.90274
62.385 9.042679
62.390 9.531659
62.395 9.464159
62.400 9.686969
62.405 9.640743
62.410 10.126018
62.415 10.251618
62.420 9.70082
62.425 9.832896
62.430 10.007021
62.435 10.129693
62.440 10.382864
62.445 10.898833
62.450 10.909422
62.455 11.174894
62.460 10.54918
62.465 10.540941
62.470 10.863358
62.475 10.892203
62.480 10.483695
62.485 10.016294
62.490 9.822538
62.495 10.031745
62.500 9.934819
62.505 9.609494
62.510 9.566936
62.515 9.663808
62.520 10.380556
62.525 10.872906
62.530 11.048545
62.535 10.938257
62.540 10.632316
62.545 10.298346
62.550 9.985434
62.555 9.925121
62.560 9.777494
62.565 9.692581
62.570 9.935002
62.575 9.89345
62.580 9.850793
62.585 9.687405
62.590 9.260983
62.595 9.129423
62.600 8.877856
62.605 8.759725
62.610 9.30899
62.615 9.578458
62.620 9.961102
62.625 10.561118
62.630 10.412073
62.635 10.464213
62.640 10.313896
62.645 10.031152
62.650 9.717104
62.655 8.919255
62.660 8.359285
62.665 8.216805
62.670 8.3574
62.675 8.515614
62.680 8.260401
62.685 8.919562
62.690 9.622014
62.695 9.798556
62.700 10.255886
62.705 10.547563
62.710 10.40306
62.715 10.689724
62.720 10.374972
62.725 10.622152
62.730 11.067116
62.735 10.851258
62.740 10.456743
62.745 10.791357
62.750 10.8154
62.755 10.603869
62.760 10.201343
62.765 9.817086
62.770 9.69647
62.775 9.967042
62.780 9.94109
62.785 9.913218
62.790 10.066455
62.795 10.017132
62.800 10.014456
62.805 10.448803
62.810 10.122602
62.815 9.858309
62.820 9.531376
62.825 9.336123
62.830 9.158095
62.835 9.439161
62.840 9.091543
62.845 9.187117
62.850 9.434783
62.855 9.900696
62.860 9.829152
62.865 10.139252
62.870 9.694226
62.875 9.899026
62.880 9.812189
62.885 9.913816
62.890 9.844431
62.895 10.332166
62.900 10.448738
62.905 10.440811
62.910 10.079492
62.915 9.931818
62.920 9.273637
62.925 9.31089
62.930 9.330659
62.935 9.211314
62.940 9.094083
62.945 9.524189
62.950 9.904491
62.955 10.371046
62.960 9.916651
62.965 9.405524
62.970 9.897717
62.975 11.108292
62.980 11.397559
62.985 11.006741
62.990 10.804879
62.995 10.958839
63.000 11.228107
63.005 10.76762
63.010 9.645589
63.015 9.510103
63.020 9.605952
63.025 9.979255
63.030 10.211776
63.035 10.209237
63.040 10.188235
63.045 10.063631
63.050 10.048619
63.055 9.848671
63.060 9.910609
63.065 10.06168
63.070 10.188223
63.075 10.259865
63.080 10.732115
63.085 10.831574
63.090 10.802606
63.095 10.084381
63.100 9.706815
63.105 9.315045
63.110 9.004018
63.115 9.078647
63.120 9.028326
63.125 9.498079
63.130 9.814307
63.135 9.907731
63.140 9.98911
63.145 9.732874
63.150 9.90772
63.155 9.812694
63.160 9.521564
63.165 9.55473
63.170 9.666697
63.175 9.881707
63.180 10.078245
63.185 9.899615
63.190 10.106303
63.195 10.234567
63.200 9.819638
63.205 10.100958
63.210 10.066132
63.215 9.731062
63.220 9.792999
63.225 9.705249
63.230 9.655783
63.235 10.124049
63.240 10.122692
63.245 10.290654
63.250 10.561699
63.255 10.612782
63.260 10.5286
63.265 10.66183
63.270 10.459929
63.275 10.371632
63.280 10.333486
63.285 10.107026
63.290 9.811161
63.295 9.994908
63.300 9.873303
63.305 9.975266
63.310 10.355718
63.315 11.012726
63.320 11.616481
63.325 11.577302
63.330 11.451288
63.335 11.060331
63.340 10.548812
63.345 10.322858
63.350 9.730044
63.355 9.670795
63.360 10.154872
63.365 10.372416
63.370 10.541359
63.375 10.686963
63.380 10.705347
63.385 10.625604
63.390 10.039912
63.395 9.729796
63.400 9.252906
63.405 9.444597
63.410 9.470053
63.415 9.18124
63.420 9.284276
63.425 9.436919
63.430 9.480069
63.435 9.568882
63.440 9.447065
63.445 9.741156
63.450 10.095779
63.455 10.498243
63.460 10.588488
63.465 10.57154
63.470 10.738603
63.475 11.143765
63.480 11.371345
63.485 11.460177
63.490 11.292654
63.495 11.351599
63.500 11.322343
63.505 11.42346
63.510 11.22506
63.515 11.078715
63.520 10.579225
63.525 9.995126
63.530 10.000407
63.535 10.045308
63.540 10.032672
63.545 9.822738
63.550 9.401612
63.555 9.524383
63.560 9.91716
63.565 10.024832
63.570 10.052131
63.575 10.243064
63.580 10.426972
63.585 10.687572
63.590 10.741579
63.595 10.848483
63.600 10.661166
63.605 10.226118
63.610 9.729502
63.615 9.55385
63.620 9.391238
63.625 9.131682
63.630 8.761535
63.635 8.746616
63.640 9.005199
63.645 8.861635
63.650 8.753611
63.655 8.439641
63.660 8.774277
63.665 9.264168
63.670 9.518969
63.675 9.727154
63.680 9.911842
63.685 9.97893
63.690 10.379457
63.695 10.154116
63.700 9.797633
63.705 9.467497
63.710 9.542362
63.715 9.47359
63.720 9.306532
63.725 9.349028
63.730 9.630037
63.735 9.878241
63.740 9.990664
63.745 9.796347
63.750 10.223699
63.755 10.647783
63.760 10.515405
63.765 10.334606
63.770 10.356163
63.775 10.412826
63.780 10.098228
63.785 9.751305
63.790 9.515306
63.795 9.702996
63.800 9.488438
63.805 9.129708
63.810 9.231086
63.815 9.760704
63.820 9.774091
63.825 9.903247
63.830 9.488965
63.835 9.590846
63.840 9.745942
63.845 9.534719
63.850 9.37384
63.855 9.596412
63.860 9.895022
63.865 10.714249
63.870 10.876556
63.875 11.146396
63.880 11.356271
63.885 11.182503
63.890 11.454968
63.895 11.016995
63.900 10.452288
63.905 10.355078
63.910 10.179543
63.915 10.120831
63.920 10.487106
63.925 10.585111
63.930 10.829671
63.935 11.342924
63.940 11.709411
63.945 11.726564
63.950 11.641938
63.955 11.483372
63.960 11.317659
63.965 11.16564
63.970 10.824776
63.975 10.911155
63.980 10.914887
63.985 11.349574
63.990 11.252294
63.995 10.943789
64.000 10.863977
64.005 10.898031
64.010 10.632816
64.015 10.587934
64.020 10.784089
64.025 10.931465
64.030 11.330373
64.035 11.447394
64.040 11.618732
64.045 12.069795
64.050 12.135585
64.055 11.788297
64.060 11.968205
64.065 12.41175
64.070 12.362072
64.075 12.149553
64.080 12.017042
64.085 12.156882
64.090 12.225219
64.095 12.196429
64.100 11.757464
64.105 11.837223
64.110 11.802032
64.115 11.941745
64.120 12.125537
64.125 12.022192
64.130 12.051871
64.135 12.745128
64.140 13.116359
64.145 13.332718
64.150 13.742071
64.155 13.974628
64.160 13.72412
64.165 13.732354
64.170 13.379176
64.175 13.082324
64.180 12.740454
64.185 12.566443
64.190 12.511589
64.195 13.034723
64.200 12.914658
64.205 13.391889
64.210 14.161483
64.215 14.691107
64.220 14.977619
64.225 15.540323
64.230 15.88224
64.235 16.717285
64.240 16.339827
64.245 16.765291
64.250 16.80834
64.255 17.496197
64.260 18.519615
64.265 18.861267
64.270 18.736063
64.275 19.672764
64.280 19.46537
64.285 19.90468
64.290 19.02932
64.295 18.841713
64.300 19.226765
64.305 19.36347
64.310 19.083744
64.315 19.253279
64.320 19.658047
64.325 20.663422
64.330 20.692419
64.335 20.880375
64.340 21.363897
64.345 21.831045
64.350 22.296921
64.355 22.509874
64.360 23.012856
64.365 23.7519
64.370 23.705999
64.375 23.718933
64.380 24.509378
64.385 24.428684
64.390 24.074518
64.395 24.263611
64.400 24.007618
64.405 24.090622
64.410 24.24332
64.415 23.218601
64.420 22.899204
64.425 22.565882
64.430 21.549231
64.435 21.662939
64.440 21.552341
64.445 21.153294
64.450 21.269239
64.455 21.651546
64.460 21.886366
64.465 22.113869
64.470 21.440948
64.475 21.411242
64.480 21.39629
64.485 21.525229
64.490 21.250416
64.495 21.379738
64.500 21.523949
64.505 21.359667
64.510 21.031967
64.515 20.831919
64.520 20.055367
64.525 19.744192
64.530 19.175667
64.535 18.876417
64.540 18.57478
64.545 18.550371
64.550 18.925003
64.555 19.364037
64.560 19.033772
64.565 19.20997
64.570 18.523205
64.575 18.408966
64.580 18.035839
64.585 17.578054
64.590 17.212662
64.595 16.964201
64.600 16.80195
64.605 17.35454
64.610 17.486488
64.615 17.225109
64.620 16.789566
64.625 16.897184
64.630 17.032309
64.635 16.272371
64.640 15.11528
64.645 14.422194
64.650 14.57002
64.655 14.674131
64.660 14.115314
64.665 14.164685
64.670 14.303107
64.675 15.20126
64.680 15.773599
64.685 15.926841
64.690 15.702786
64.695 15.769435
64.700 15.477763
64.705 15.375869
64.710 14.664351
64.715 14.394275
64.720 13.965155
64.725 13.653916
64.730 13.326344
64.735 13.232913
64.740 12.681654
64.745 12.288418
64.750 12.277713
64.755 12.337028
64.760 12.003915
64.765 12.077743
64.770 12.496716
64.775 13.146975
64.780 13.534389
64.785 13.238106
64.790 12.864727
64.795 13.605414
64.800 13.296675
64.805 12.862544
64.810 12.555642
64.815 12.320279
64.820 12.224189
64.825 12.027702
64.830 11.464483
64.835 11.733182
64.840 11.736645
64.845 11.779476
64.850 11.793994
64.855 11.636238
64.860 12.470189
64.865 12.282269
64.870 12.395846
64.875 12.64418
64.880 12.391521
64.885 12.288245
64.890 12.265288
64.895 11.844682
64.900 12.124344
64.905 12.116638
64.910 12.005589
64.915 12.629207
64.920 12.57922
64.925 12.177132
64.930 12.302189
64.935 12.372363
64.940 12.623881
64.945 13.037927
64.950 12.424906
64.955 12.666352
64.960 13.376122
64.965 13.349358
64.970 13.463222
64.975 13.070591
64.980 12.20603
64.985 12.358155
64.990 12.648712
64.995 13.017059
65.000 13.284731
65.005 13.175121
65.010 13.324171
65.015 13.363156
65.020 14.3073
65.025 14.418288
65.030 13.982412
65.035 14.0432
65.040 14.344164
65.045 14.661315
65.050 15.074943
65.055 14.252524
65.060 13.897416
65.065 13.950586
65.070 14.218906
65.075 14.233056
65.080 14.335241
65.085 14.812704
65.090 14.84153
65.095 15.014884
65.100 15.064773
65.105 14.689196
65.110 14.538467
65.115 14.239046
65.120 13.597453
65.125 13.581662
65.130 13.923515
65.135 14.187885
65.140 14.469349
65.145 14.19707
65.150 14.051114
65.155 14.19866
65.160 14.196252
65.165 14.037148
65.170 13.997876
65.175 14.545546
65.180 15.187329
65.185 15.262345
65.190 15.194666
65.195 15.34711
65.200 15.34629
65.205 15.105073
65.210 14.661006
65.215 14.403241
65.220 15.114344
65.225 15.457379
65.230 15.314261
65.235 15.320999
65.240 15.856313
65.245 15.645008
65.250 15.641701
65.255 15.263899
65.260 15.308789
65.265 15.648623
65.270 15.587669
65.275 15.866695
65.280 16.495817
65.285 16.791222
65.290 16.917643
65.295 17.103577
65.300 17.208796
65.305 17.568022
65.310 16.892971
65.315 16.783573
65.320 16.610342
65.325 16.399406
65.330 16.379288
65.335 15.983207
65.340 15.867135
65.345 16.137709
65.350 16.472979
65.355 16.793858
65.360 17.326309
65.365 17.105909
65.370 17.796919
65.375 18.211424
65.380 18.645271
65.385 18.728874
65.390 19.12319
65.395 19.641542
65.400 20.360641
65.405 20.380442
65.410 20.745193
65.415 21.113756
65.420 21.006866
65.425 21.131035
65.430 21.315943
65.435 21.388742
65.440 21.292294
65.445 20.569284
65.450 20.632788
65.455 20.565302
65.460 20.752645
65.465 20.279808
65.470 20.593578
65.475 21.564219
65.480 21.813908
65.485 21.788233
65.490 22.44483
65.495 22.537821
65.500 23.275621
65.505 23.252914
65.510 23.721703
65.515 24.006935
65.520 23.974976
65.525 23.789202
65.530 23.049513
65.535 22.730627
65.540 22.96419
65.545 22.154512
65.550 21.912525
65.555 22.658033
65.560 22.695431
65.565 22.834536
65.570 22.650726
65.575 23.21324
65.580 23.694777
65.585 23.646379
65.590 23.149208
65.595 23.62891
65.600 24.170853
65.605 24.019241
65.610 23.552799
65.615 23.258575
65.620 23.177204
65.625 23.118309
65.630 22.217266
65.635 22.249998
65.640 22.68177
65.645 22.910805
65.650 22.632566
65.655 22.840866
65.660 22.796272
65.665 22.92388
65.670 22.577246
65.675 21.889603
65.680 21.070423
65.685 20.609707
65.690 20.452444
65.695 20.115063
65.700 20.143066
65.705 19.527905
65.710 19.542875
65.715 19.576054
65.720 19.619223
65.725 18.408758
65.730 18.210159
65.735 17.924166
65.740 17.678858
65.745 17.195936
65.750 16.79541
65.755 16.869461
65.760 16.944561
65.765 17.085093
65.770 17.3321
65.775 17.324097
65.780 16.938555
65.785 16.308386
65.790 15.998514
65.795 16.122149
65.800 15.579024
65.805 15.258864
65.810 15.991381
65.815 15.962399
65.820 15.6143
65.825 15.206654
65.830 14.906213
65.835 14.602995
65.840 13.685966
65.845 13.135569
65.850 13.313763
65.855 13.26981
65.860 13.338003
65.865 13.376525
65.870 13.484652
65.875 13.808248
65.880 13.367642
65.885 13.543538
65.890 14.119628
65.895 14.092635
65.900 14.109969
65.905 14.021115
65.910 14.064415
65.915 13.677753
65.920 13.488357
65.925 13.009676
65.930 12.530724
65.935 12.217755
65.940 12.33297
65.945 12.247438
65.950 12.665451
65.955 12.038753
65.960 11.639874
65.965 11.560012
65.970 11.58662
65.975 11.286469
65.980 11.051661
65.985 10.913434
65.990 11.429676
65.995 12.172634
66.000 12.403098
66.005 12.609975
66.010 12.550679
66.015 13.186737
66.020 13.408233
66.025 12.780564
66.030 12.235729
66.035 12.153646
66.040 11.769993
66.045 11.769175
66.050 11.258159
66.055 10.916607
66.060 11.094678
66.065 11.139853
66.070 10.827184
66.075 10.768291
66.080 10.688347
66.085 10.730968
66.090 10.642913
66.095 10.638371
66.100 11.01843
66.105 11.34025
66.110 11.054319
66.115 11.323289
66.120 11.64933
66.125 12.267373
66.130 12.43246
66.135 12.561414
66.140 12.762101
66.145 12.884338
66.150 12.676549
66.155 12.15419
66.160 11.631762
66.165 11.374701
66.170 10.698431
66.175 10.627715
66.180 10.983182
66.185 10.547275
66.190 10.662109
66.195 10.714481
66.200 10.618486
66.205 10.489576
66.210 10.324883
66.215 9.904443
66.220 10.353115
66.225 10.541595
66.230 10.372616
66.235 10.765047
66.240 11.733559
66.245 12.325418
66.250 12.952793
66.255 13.016665
66.260 13.082482
66.265 13.374593
66.270 13.336175
66.275 12.895795
66.280 12.580458
66.285 11.988397
66.290 11.703304
66.295 11.284489
66.300 11.177547
66.305 10.674579
66.310 10.000956
66.315 9.968431
66.320 9.985828
66.325 9.597709
66.330 9.708447
66.335 9.435114
66.340 9.742371
66.345 10.177999
66.350 10.403601
66.355 10.646647
66.360 10.949469
66.365 10.870665
66.370 10.932649
66.375 10.381912
66.380 10.118014
66.385 9.570324
66.390 9.234895
66.395 9.247073
66.400 9.462831
66.405 10.059414
66.410 10.531899
66.415 11.049629
66.420 11.670345
66.425 12.22992
66.430 12.373472
66.435 12.177331
66.440 11.953811
66.445 12.093883
66.450 11.718952
66.455 11.288713
66.460 10.714632
66.465 10.509739
66.470 10.408926
66.475 9.921255
66.480 9.539867
66.485 9.969849
66.490 10.406615
66.495 10.789707
66.500 10.851772
66.505 11.056095
66.510 11.274943
66.515 11.321012
66.520 10.926276
66.525 10.529619
66.530 10.65737
66.535 10.618211
66.540 11.177539
66.545 11.574896
66.550 11.916196
66.555 12.050414
66.560 12.080887
66.565 11.980814
66.570 12.509374
66.575 12.151221
66.580 11.68826
66.585 11.284562
66.590 11.536806
66.595 11.379416
66.600 11.123182
66.605 10.631447
66.610 10.273396
66.615 10.360779
66.620 10.080562
66.625 9.824686
66.630 10.60394
66.635 11.104295
66.640 11.410569
66.645 11.812068
66.650 12.078351
66.655 12.058891
66.660 11.796519
66.665 11.015105
66.670 10.655564
66.675 10.397524
66.680 9.959565
66.685 9.520754
66.690 9.645635
66.695 9.603013
66.700 9.64783
66.705 9.485074
66.710 9.640971
66.715 9.969556
66.720 10.191119
66.725 10.396101
66.730 10.657261
66.735 10.834108
66.740 10.727982
66.745 10.841198
66.750 11.028036
66.755 11.216045
66.760 10.742924
66.765 10.7475
66.770 10.546178
66.775 10.553083
66.780 10.050742
66.785 9.271935
66.790 8.832319
66.795 9.132235
66.800 9.381909
66.805 9.822048
66.810 10.085684
66.815 10.007413
66.820 10.452374
66.825 10.948074
66.830 10.767381
66.835 10.419451
66.840 10.106379
66.845 10.119107
66.850 10.712582
66.855 10.792395
66.860 10.647203
66.865 10.664779
66.870 10.959657
66.875 11.271046
66.880 11.165311
66.885 10.653345
66.890 10.402547
66.895 10.489368
66.900 10.332281
66.905 9.857302
66.910 9.609713
66.915 9.38829
66.920 10.044488
66.925 10.252115
66.930 10.623466
66.935 11.134582
66.940 11.495043
66.945 11.48075
66.950 11.454227
66.955 11.116191
66.960 10.833327
66.965 10.560013
66.970 10.367823
66.975 10.291348
66.980 10.200487
66.985 10.165599
66.990 10.408207
66.995 10.757467
67.000 10.737475
67.005 10.58576
67.010 10.846993
67.015 11.077114
67.020 11.202467
67.025 11.128378
67.030 11.172019
67.035 11.296128
67.040 11.349304
67.045 10.754608
67.050 10.755234
67.055 10.560734
67.060 10.272218
67.065 10.292877
67.070 10.462265
67.075 10.69243
67.080 11.19751
67.085 10.872316
67.090 10.886632
67.095 11.093778
67.100 11.31244
67.105 10.918188
67.110 10.638628
67.115 10.44494
67.120 11.05722
67.125 11.15471
67.130 11.06328
67.135 10.769913
67.140 10.992872
67.145 11.077101
67.150 10.797424
67.155 10.118697
67.160 10.128289
67.165 10.188784
67.170 10.1662
67.175 10.350539
67.180 10.498875
67.185 10.667492
67.190 11.126827
67.195 11.168159
67.200 10.52786
67.205 9.919902
67.210 10.032367
67.215 10.349771
67.220 10.404325
67.225 10.31033
67.230 10.242263
67.235 10.504842
67.240 11.02136
67.245 10.639297
67.250 10.257768
67.255 10.514536
67.260 10.570601
67.265 10.763988
67.270 11.084979
67.275 11.034499
67.280 11.015021
67.285 11.311262
67.290 11.266355
67.295 11.233997
67.300 11.545619
67.305 11.461435
67.310 11.543868
67.315 11.817962
67.320 11.413513
67.325 11.568796
67.330 11.389685
67.335 11.281621
67.340 11.243306
67.345 10.971562
67.350 10.954199
67.355 11.209821
67.360 11.079261
67.365 11.384953
67.370 11.150829
67.375 11.085421
67.380 11.196129
67.385 11.308792
67.390 11.124077
67.395 11.130099
67.400 10.567612
67.405 10.310256
67.410 10.351837
67.415 10.23385
67.420 10.452579
67.425 10.426738
67.430 10.296654
67.435 10.717668
67.440 11.032893
67.445 10.767447
67.450 10.776491
67.455 10.217073
67.460 10.336171
67.465 10.372483
67.470 10.460321
67.475 10.595292
67.480 10.876184
67.485 10.982586
67.490 11.211658
67.495 10.878355
67.500 10.834658
67.505 10.879216
67.510 11.051343
67.515 11.103333
67.520 11.001037
67.525 11.176848
67.530 11.453248
67.535 11.317426
67.540 11.360278
67.545 11.325833
67.550 11.172941
67.555 11.212801
67.560 11.104479
67.565 11.548833
67.570 11.74174
67.575 10.942999
67.580 10.38489
67.585 10.332677
67.590 9.934973
67.595 9.919885
67.600 10.150416
67.605 10.114671
67.610 10.582931
67.615 11.066998
67.620 11.167815
67.625 11.551791
67.630 11.327455
67.635 10.88853
67.640 10.774303
67.645 10.722708
67.650 10.542348
67.655 10.714759
67.660 10.418114
67.665 10.496632
67.670 10.200124
67.675 10.018984
67.680 10.153474
67.685 10.456228
67.690 10.45705
67.695 11.067788
67.700 11.115068
67.705 11.510778
67.710 11.78866
67.715 11.625962
67.720 11.396605
67.725 11.636526
67.730 11.476335
67.735 11.438038
67.740 11.42441
67.745 11.290962
67.750 11.097895
67.755 11.225284
67.760 11.107306
67.765 11.351929
67.770 11.644489
67.775 11.750879
67.780 11.736233
67.785 11.878119
67.790 11.661391
67.795 11.561423
67.800 11.928632
67.805 11.506221
67.810 11.484703
67.815 11.557742
67.820 11.144608
67.825 10.966085
67.830 10.595904
67.835 10.134029
67.840 9.54564
67.845 9.240503
67.850 9.362522
67.855 9.541888
67.860 9.943644
67.865 10.498906
67.870 10.622499
67.875 11.020145
67.880 11.657755
67.885 11.946155
67.890 12.373565
67.895 12.223849
67.900 11.850222
67.905 12.147968
67.910 12.369758
67.915 12.233884
67.920 12.020903
67.925 11.747684
67.930 11.83286
67.935 11.818842
67.940 11.646465
67.945 11.3216
67.950 10.789249
67.955 10.967776
67.960 10.80346
67.965 10.230817
67.970 9.909302
67.975 10.209998
67.980 10.513992
67.985 10.940935
67.990 10.985327
67.995 11.281136
68.000 11.617595
68.005 11.824091
68.010 11.484859
68.015 11.392727
68.020 11.264682
68.025 11.094928
68.030 10.999465
68.035 10.518595
68.040 10.843785
68.045 10.98757
68.050 11.602446
68.055 12.009234
68.060 12.273821
68.065 12.260331
68.070 12.231571
68.075 11.80366
68.080 11.835914
68.085 11.352139
68.090 10.939094
68.095 10.918949
68.100 10.861233
68.105 11.58898
68.110 11.452885
68.115 11.253831
68.120 11.501778
68.125 11.484423
68.130 11.348664
68.135 11.197238
68.140 10.779515
68.145 11.269251
68.150 10.889062
68.155 10.397585
68.160 10.481814
68.165 10.602862
68.170 10.994685
68.175 11.171964
68.180 10.786625
68.185 11.263536
68.190 11.544309
68.195 11.908476
68.200 12.140379
68.205 12.112129
68.210 11.914423
68.215 12.267357
68.220 12.126845
68.225 12.030597
68.230 11.389571
68.235 11.172962
68.240 11.258167
68.245 11.573871
68.250 11.055831
68.255 11.400943
68.260 11.746407
68.265 12.269955
68.270 12.198557
68.275 11.982459
68.280 11.716784
68.285 11.786682
68.290 11.247216
68.295 10.645281
68.300 10.903897
68.305 10.969439
68.310 11.072442
68.315 10.842753
68.320 10.794475
68.325 11.522244
68.330 12.192394
68.335 12.040009
68.340 11.894265
68.345 11.746705
68.350 11.877561
68.355 11.99104
68.360 11.572032
68.365 11.167834
68.370 11.351991
68.375 11.405138
68.380 12.542513
68.385 13.197254
68.390 13.217299
68.395 13.191093
68.400 13.259398
68.405 13.401638
68.410 13.671909
68.415 13.090705
68.420 12.636017
68.425 13.013374
68.430 13.10626
68.435 12.948483
68.440 12.816269
68.445 13.017658
68.450 13.018418
68.455 13.532029
68.460 13.341887
68.465 13.483906
68.470 13.659964
68.475 13.373835
68.480 13.196527
68.485 13.003315
68.490 13.015635
68.495 13.357205
68.500 13.445214
68.505 13.819641
68.510 14.154945
68.515 14.216086
68.520 14.6528
68.525 14.40159
68.530 14.385338
68.535 14.613022
68.540 14.51542
68.545 14.638445
68.550 14.432323
68.555 14.411198
68.560 14.307248
68.565 14.410213
68.570 14.518389
68.575 15.343895
68.580 15.63524
68.585 16.204468
68.590 16.682026
68.595 16.859249
68.600 17.507521
68.605 17.315174
68.610 17.272713
68.615 17.470098
68.620 17.470413
68.625 17.414999
68.630 18.127996
68.635 18.787853
68.640 19.070229
68.645 19.089531
68.650 19.243334
68.655 19.659653
68.660 20.40346
68.665 20.152502
68.670 19.503916
68.675 19.236128
68.680 19.03681
68.685 18.85677
68.690 18.298004
68.695 18.185532
68.700 18.190903
68.705 18.324902
68.710 18.473793
68.715 18.955679
68.720 19.598263
68.725 20.420042
68.730 20.208719
68.735 20.176998
68.740 19.931608
68.745 19.916954
68.750 19.272217
68.755 19.389076
68.760 19.984787
68.765 20.732571
68.770 21.279993
68.775 21.526871
68.780 21.339582
68.785 21.106894
68.790 20.862413
68.795 19.976791
68.800 19.308006
68.805 18.709887
68.810 18.98505
68.815 19.12237
68.820 19.373854
68.825 19.443455
68.830 20.008993
68.835 20.511248
68.840 21.37397
68.845 21.213511
68.850 21.656778
68.855 21.757246
68.860 21.874035
68.865 21.464338
68.870 21.506237
68.875 20.472521
68.880 20.776165
68.885 20.469776
68.890 19.926544
68.895 19.635798
68.900 19.469885
68.905 18.465673
68.910 18.760611
68.915 18.274206
68.920 18.123745
68.925 18.37561
68.930 17.948153
68.935 18.085608
68.940 18.719912
68.945 18.658203
68.950 19.050257
68.955 18.69903
68.960 18.299379
68.965 18.2495
68.970 17.870876
68.975 17.329895
68.980 17.242662
68.985 17.193668
68.990 17.455704
68.995 17.599924
69.000 17.590046
69.005 17.541508
69.010 17.72171
69.015 17.505405
69.020 17.078545
69.025 16.855206
69.030 16.495945
69.035 16.171324
69.040 16.44886
69.045 16.73472
69.050 16.998363
69.055 16.996313
69.060 16.766619
69.065 16.646814
69.070 17.034958
69.075 16.445715
69.080 15.653987
69.085 15.219423
69.090 14.875565
69.095 15.08934
69.100 15.360779
69.105 15.22759
69.110 15.088914
69.115 15.064509
69.120 15.13343
69.125 15.277962
69.130 14.822213
69.135 14.353377
69.140 14.201414
69.145 14.300843
69.150 13.889957
69.155 13.504807
69.160 13.749708
69.165 14.394422
69.170 14.234241
69.175 13.824111
69.180 13.710351
69.185 14.254983
69.190 14.368242
69.195 13.691586
69.200 13.272034
69.205 12.968398
69.210 12.988197
69.215 13.127366
69.220 12.825632
69.225 12.807264
69.230 12.630978
69.235 12.695628
69.240 12.65026
69.245 11.991278
69.250 11.854543
69.255 11.966956
69.260 11.609851
69.265 11.416086
69.270 10.888727
69.275 11.023892
69.280 11.301229
69.285 11.255877
69.290 11.280061
69.295 11.753026
69.300 11.885158
69.305 12.070066
69.310 12.266708
69.315 11.691875
69.320 11.174228
69.325 11.262037
69.330 10.965926
69.335 10.72619
69.340 10.715408
69.345 10.605573
69.350 10.967307
69.355 11.045626
69.360 10.82555
69.365 10.960784
69.370 11.06023
69.375 10.925992
69.380 11.043306
69.385 10.893414
69.390 11.189972
69.395 11.363751
69.400 11.660488
69.405 11.828563
69.410 11.970964
69.415 12.396167
69.420 12.540005
69.425 12.133459
69.430 11.628256
69.435 11.352521
69.440 11.643078
69.445 11.697606
69.450 11.368436
69.455 11.238096
69.460 11.668325
69.465 12.083532
69.470 11.841266
69.475 11.666656
69.480 11.332046
69.485 10.973039
69.490 10.848314
69.495 10.339141
69.500 9.925348
69.505 9.820795
69.510 10.081392
69.515 10.447073
69.520 11.007196
69.525 11.185353
69.530 11.216493
69.535 11.25123
69.540 11.033558
69.545 10.778533
69.550 10.471731
69.555 10.654549
69.560 10.722052
69.565 11.131466
69.570 11.314024
69.575 11.738897
69.580 11.817587
69.585 11.684784
69.590 11.180688
69.595 10.940392
69.600 10.61611
69.605 10.904697
69.610 10.888287
69.615 10.696463
69.620 10.885155
69.625 11.119038
69.630 11.405699
69.635 11.400573
69.640 11.278932
69.645 11.214477
69.650 11.649644
69.655 11.847376
69.660 11.700663
69.665 11.811214
69.670 11.460014
69.675 11.437798
69.680 11.415737
69.685 11.137101
69.690 10.740638
69.695 10.646065
69.700 11.140081
69.705 11.006066
69.710 10.645983
69.715 10.63955
69.720 10.797757
69.725 11.503434
69.730 11.587075
69.735 11.568723
69.740 12.121534
69.745 12.478214
69.750 12.438623
69.755 12.385077
69.760 12.17068
69.765 12.288774
69.770 12.256195
69.775 12.404059
69.780 12.225242
69.785 12.526248
69.790 12.549505
69.795 12.648426
69.800 12.73189
69.805 12.848857
69.810 12.79506
69.815 12.649352
69.820 12.128629
69.825 12.111301
69.830 12.834435
69.835 13.209139
69.840 12.935595
69.845 12.909426
69.850 13.277106
69.855 13.476075
69.860 12.966894
69.865 11.606239
69.870 11.15789
69.875 11.379016
69.880 11.200356
69.885 10.98967
69.890 11.206834
69.895 11.197566
69.900 11.132185
69.905 10.966636
69.910 11.186329
69.915 11.11613
69.920 11.021744
69.925 10.787978
69.930 10.968564
69.935 11.336556
69.940 11.586737
69.945 11.452138
69.950 11.69189
69.955 12.111529
69.960 12.343629
69.965 12.037734
69.970 11.686527
69.975 11.286396
69.980 10.931421
69.985 10.865397
69.990 10.598895
69.995 10.732156
70.000 11.261062
70.005 11.396105
70.010 11.811129
70.015 11.914065
70.020 11.649079
70.025 11.57777
70.030 10.964777
70.035 10.846174
70.040 10.869754
70.045 10.550996
70.050 10.506265
70.055 10.500402
70.060 10.544838
70.065 11.325843
70.070 10.795083
70.075 10.759176
70.080 11.072616
70.085 11.29095
70.090 11.085967
70.095 10.762388
70.100 10.90452
70.105 11.613917
70.110 11.615806
70.115 11.68338
70.120 11.522358
70.125 11.836079
70.130 11.912547
70.135 11.465037
70.140 11.277095
70.145 10.786111
70.150 10.337135
70.155 10.281613
70.160 9.785309
70.165 9.761466
70.170 9.573928
70.175 9.521233
70.180 9.701856
70.185 10.000375
70.190 9.91657
70.195 10.557105
70.200 10.716973
70.205 11.024408
70.210 10.911941
70.215 10.421044
70.220 11.023039
70.225 11.160716
70.230 10.604815
70.235 10.640059
70.240 10.663503
70.245 11.384068
70.250 11.862951
70.255 11.676278
70.260 11.66339
70.265 11.700423
70.270 11.218288
70.275 10.793321
70.280 10.379702
70.285 10.203311
70.290 9.709496
70.295 9.595659
70.300 9.711738
70.305 10.115777
70.310 10.164316
70.315 10.64093
70.320 10.723431
70.325 11.254848
70.330 11.493759
70.335 12.157553
70.340 12.542459
70.345 12.933317
70.350 12.807733
70.355 13.129457
70.360 13.703836
70.365 13.520456
70.370 12.667894
70.375 12.024737
70.380 11.615666
70.385 11.604912
70.390 11.041145
70.395 10.494088
70.400 10.768205
70.405 10.904945
70.410 11.179302
70.415 10.578078
70.420 10.049587
70.425 9.735443
70.430 9.669538
70.435 9.971738
70.440 10.509811
70.445 10.692832
70.450 11.16788
70.455 10.994034
70.460 10.9888
70.465 11.146786
70.470 10.53628
70.475 10.16897
70.480 10.010617
70.485 10.165283
70.490 10.82157
70.495 11.344672
70.500 11.878709
70.505 11.813668
70.510 12.072566
70.515 11.981202
70.520 12.316489
70.525 12.179015
70.530 11.908038
70.535 11.345631
70.540 11.417364
70.545 11.074159
70.550 10.699438
70.555 9.953176
70.560 9.872293
70.565 9.923275
70.570 10.222247
70.575 10.003593
70.580 10.618085
70.585 11.715894
70.590 12.158813
70.595 12.093346
70.600 11.885694
70.605 11.821398
70.610 11.919192
70.615 11.293197
70.620 10.610538
70.625 10.12933
70.630 10.317115
70.635 10.459941
70.640 10.331819
70.645 10.108728
70.650 10.613987
70.655 11.384687
70.660 11.93057
70.665 11.43421
70.670 10.87619
70.675 10.878001
70.680 11.102856
70.685 10.798856
70.690 10.445851
70.695 10.427327
70.700 10.594831
70.705 10.87428
70.710 11.221128
70.715 11.242445
70.720 11.572642
70.725 11.689295
70.730 11.659275
70.735 11.539459
70.740 11.945211
70.745 11.697713
70.750 11.613529
70.755 11.386766
70.760 11.180881
70.765 11.133266
70.770 11.251664
70.775 11.021997
70.780 11.140699
70.785 10.680542
70.790 10.901865
70.795 11.218469
70.800 11.530477
70.805 11.822008
70.810 11.945688
70.815 11.752581
70.820 12.23097
70.825 11.870261
70.830 11.781878
70.835 12.013431
70.840 11.590108
70.845 11.727843
70.850 11.75115
70.855 11.214881
70.860 11.144789
70.865 11.345904
70.870 10.944726
70.875 10.868728
70.880 10.820579
70.885 11.05497
70.890 11.639007
70.895 10.961397
70.900 10.58229
70.905 11.277967
70.910 11.390043
70.915 11.482187
70.920 11.533976
70.925 11.15894
70.930 11.310961
70.935 11.412
70.940 11.098707
70.945 11.003473
70.950 10.87499
70.955 10.421979
70.960 10.713313
70.965 10.501998
70.970 9.978581
70.975 10.138309
70.980 10.291667
70.985 10.396736
70.990 10.444863
70.995 10.544342
71.000 10.760512
71.005 10.686455
71.010 10.181143
71.015 9.563564
71.020 9.791902
71.025 9.903452
71.030 9.683343
71.035 9.839935
71.040 9.967051
71.045 10.212977
71.050 10.44291
71.055 10.315492
71.060 10.605469
71.065 10.717155
71.070 10.924868
71.075 10.958336
71.080 10.860127
71.085 10.831625
71.090 10.436256
71.095 10.441783
71.100 9.77002
71.105 9.334569
71.110 9.341725
71.115 9.492801
71.120 9.25095
71.125 9.016691
71.130 9.202591
71.135 9.754609
71.140 9.931067
71.145 9.926673
71.150 9.886548
71.155 10.402681
71.160 10.495432
71.165 10.453276
71.170 10.550035
71.175 10.534481
71.180 10.832515
71.185 10.810565
71.190 10.727698
71.195 11.24585
71.200 11.010927
71.205 10.843098
71.210 10.86466
71.215 10.715864
71.220 10.934465
71.225 10.943639
71.230 10.632733
71.235 10.739193
71.240 11.136064
71.245 11.131018
71.250 11.131294
71.255 11.20036
71.260 11.408093
71.265 12.234626
71.270 12.418699
71.275 12.503351
71.280 12.659489
71.285 12.536206
71.290 12.246801
71.295 11.746993
71.300 11.394473
71.305 11.127174
71.310 10.89892
71.315 10.707441
71.320 10.756018
71.325 10.794298
71.330 10.899529
71.335 11.127954
71.340 11.054025
71.345 11.162281
71.350 11.390769
71.355 11.558022
71.360 11.724258
71.365 11.195701
71.370 10.649374
71.375 11.270492
71.380 11.413903
71.385 11.125265
71.390 10.815446
71.395 10.825835
71.400 11.101869
71.405 10.803013
71.410 10.371972
71.415 10.014705
71.420 10.264627
71.425 10.192287
71.430 10.400233
71.435 10.321659
71.440 11.176867
71.445 11.336917
71.450 11.405361
71.455 11.179611
71.460 10.66599
71.465 10.57263
71.470 10.491081
71.475 9.458946
71.480 9.17345
71.485 9.39365
71.490 9.463008
71.495 9.548216
71.500 9.659818
71.505 9.882874
71.510 10.21322
71.515 9.914176
71.520 9.803132
71.525 9.7857
71.530 9.791021
71.535 9.565494
71.540 9.987283
71.545 10.105803
71.550 10.207533
71.555 10.237682
71.560 10.335154
71.565 10.255903
71.570 9.761502
71.575 9.50511
71.580 9.225809
71.585 9.638922
71.590 9.440128
71.595 9.448711
71.600 9.566971
71.605 9.827451
71.610 10.132471
71.615 10.727845
71.620 10.779288
71.625 10.712162
71.630 10.721893
71.635 10.926824
71.640 11.145017
71.645 10.950145
71.650 10.541978
71.655 10.738993
71.660 11.692925
71.665 12.041922
71.670 11.842658
71.675 11.788203
71.680 12.113708
71.685 12.083427
71.690 11.701919
71.695 10.901223
71.700 10.710371
71.705 10.905608
71.710 10.532835
71.715 10.367916
71.720 10.49667
71.725 10.825673
71.730 11.467131
71.735 11.486991
71.740 11.456656
71.745 11.251692
71.750 11.624964
71.755 11.41146
71.760 11.012835
71.765 10.599858
71.770 10.677904
71.775 11.32565
71.780 11.410971
71.785 11.375712
71.790 11.561861
71.795 11.714482
71.800 11.807537
71.805 11.601955
71.810 11.351581
71.815 11.247692
71.820 10.885455
71.825 10.681705
71.830 10.831198
71.835 10.719871
71.840 10.378462
71.845 10.296663
71.850 10.288992
71.855 10.212988
71.860 10.064003
71.865 9.770518
71.870 10.076401
71.875 10.892281
71.880 11.294551
71.885 11.524623
71.890 11.781188
71.895 11.821847
71.900 11.631248
71.905 11.592627
71.910 10.566829
71.915 10.361306
71.920 10.056682
71.925 9.780058
71.930 10.071406
71.935 10.217492
71.940 9.906253
71.945 10.201725
71.950 10.279601
71.955 10.375711
71.960 10.508328
71.965 10.552237
71.970 10.828211
71.975 11.449738
71.980 11.795058
71.985 11.835946
71.990 12.117847
71.995 12.017584
72.000 11.787217
72.005 11.183222
72.010 10.734693
72.015 10.045184
72.020 9.897711
72.025 9.71399
72.030 9.345477
72.035 9.179869
72.040 8.937206
72.045 9.365057
72.050 9.650673
72.055 9.927988
72.060 10.470243
72.065 11.261173
72.070 11.921416
72.075 11.93585
72.080 11.570748
72.085 11.912958
72.090 11.785072
72.095 10.955052
72.100 10.654295
72.105 10.388436
72.110 10.504158
72.115 10.863824
72.120 10.758044
72.125 10.758497
72.130 11.364291
72.135 11.379625
72.140 11.669614
72.145 11.553669
72.150 11.135549
72.155 10.93924
72.160 10.760442
72.165 11.260962
72.170 11.420348
72.175 11.440826
72.180 11.36738
72.185 10.857842
72.190 10.457469
72.195 10.625094
72.200 10.458636
72.205 10.721065
72.210 10.772872
72.215 11.105886
72.220 11.578344
72.225 11.989676
72.230 11.293834
72.235 10.888003
72.240 10.357346
72.245 10.444018
72.250 10.669425
72.255 10.912169
72.260 10.838943
72.265 11.273474
72.270 11.090982
72.275 11.369866
72.280 10.707272
72.285 10.424156
72.290 10.443423
72.295 10.243164
72.300 10.251031
72.305 10.579898
72.310 10.631898
72.315 10.851053
72.320 10.903137
72.325 10.809939
72.330 10.871704
72.335 10.514312
72.340 10.173175
72.345 9.880301
72.350 9.813102
72.355 9.724175
72.360 9.937943
72.365 10.299983
72.370 10.535072
72.375 10.941931
72.380 11.574169
72.385 12.312442
72.390 12.662635
72.395 12.249615
72.400 11.961756
72.405 12.07288
72.410 11.967739
72.415 11.741385
72.420 11.028008
72.425 10.275858
72.430 10.578076
72.435 10.478439
72.440 10.153786
72.445 9.964812
72.450 9.932712
72.455 9.652493
72.460 10.055614
72.465 9.852035
72.470 9.792278
72.475 10.13409
72.480 10.432413
72.485 10.668249
72.490 10.997799
72.495 11.054548
72.500 11.663683
72.505 11.759974
72.510 11.298412
72.515 11.36848
72.520 11.461264
72.525 12.005031
72.530 12.074821
72.535 12.283236
72.540 12.495437
72.545 12.516284
72.550 12.176052
72.555 11.623463
72.560 11.214343
72.565 10.576139
72.570 10.179089
72.575 9.831492
72.580 10.178286
72.585 10.678157
72.590 10.696601
72.595 10.397683
72.600 10.240291
72.605 10.553368
72.610 10.910469
72.615 10.304165
72.620 10.189912
72.625 11.148005
72.630 11.356149
72.635 11.243549
72.640 10.777689
72.645 10.727996
72.650 11.282207
72.655 10.984268
72.660 10.531826
72.665 10.59372
72.670 10.984133
72.675 10.68615
72.680 10.465534
72.685 9.965899
72.690 10.125456
72.695 10.248418
72.700 10.12471
72.705 10.014143
72.710 10.422581
72.715 10.514763
72.720 10.937919
72.725 10.454602
72.730 10.407502
72.735 10.545906
72.740 10.263185
72.745 10.258643
72.750 9.731375
72.755 9.829212
72.760 10.30242
72.765 10.654072
72.770 10.729692
72.775 10.674056
72.780 10.798124
72.785 10.862123
72.790 10.879749
72.795 10.244716
72.800 10.180171
72.805 10.268095
72.810 10.112548
72.815 9.903632
72.820 10.080535
72.825 10.696628
72.830 10.680237
72.835 10.855059
72.840 11.531174
72.845 11.76775
72.850 11.745748
72.855 11.16889
72.860 10.621815
72.865 10.112548
72.870 9.679381
72.875 9.366792
72.880 9.157501
72.885 9.356637
72.890 9.163488
72.895 9.462155
72.900 10.255527
72.905 10.556495
72.910 10.23981
72.915 10.322212
72.920 10.665306
72.925 11.139384
72.930 10.91507
72.935 10.777805
72.940 10.937191
72.945 11.02926
72.950 11.154449
72.955 10.597269
72.960 10.369838
72.965 10.321762
72.970 9.712728
72.975 9.82433
72.980 10.283696
72.985 9.960242
72.990 10.150557
72.995 10.078203
73.000 10.24021
