!@!!GADDS PLOTSO FILE: Chi integration type
!@!!Title/SampleName: map-82
!@!!Comment: ?
!@!!User: Bruker Instrument Administrator
!@!!Site: University of Illinois Chicago
!@!!Frame: map-82_01_000.gfrm
!@!!Wavelengths    1.54184   1.54056   1.54439
!@!!Frame angles: 2Theta: 63.000 Omega: 50.000 Phi: 0.000 Chi: 90.000
!@!!Integration range: 2Theta: 53.000 to 73.000  Gamma: -105.000 to -75.000
!@!!Integration method: bin normalized
!@!N
!@!SS
!@!M
!@!L 0.0 0.0 0.0 0.0
!@!XDegrees
!@!YCounts
53.000 9.803144
53.005 10.160941
53.010 10.173641
53.015 10.195144
53.020 10.051661
53.025 9.694613
53.030 9.937402
53.035 9.256841
53.040 9.24069
53.045 9.60981
53.050 9.721974
53.055 9.741241
53.060 9.707522
53.065 9.146132
53.070 9.294696
53.075 9.50276
53.080 8.938348
53.085 8.776219
53.090 8.893892
53.095 9.724414
53.100 10.697792
53.105 10.991282
53.110 10.746532
53.115 10.876255
53.120 10.848779
53.125 10.763122
53.130 10.402101
53.135 9.536157
53.140 9.10808
53.145 8.859205
53.150 8.443139
53.155 8.020145
53.160 7.675929
53.165 7.962774
53.170 8.433171
53.175 8.76803
53.180 9.339951
53.185 9.534973
53.190 10.009065
53.195 10.293733
53.200 10.062098
53.205 10.340126
53.210 10.459786
53.215 10.517206
53.220 11.023571
53.225 11.36651
53.230 11.392431
53.235 11.246737
53.240 10.858942
53.245 10.649857
53.250 9.91116
53.255 9.569354
53.260 9.486142
53.265 9.479295
53.270 9.392824
53.275 9.300229
53.280 9.786766
53.285 10.175695
53.290 9.609541
53.295 9.155058
53.300 9.467477
53.305 9.507236
53.310 9.105471
53.315 8.652555
53.320 8.716301
53.325 8.905621
53.330 9.696503
53.335 9.717182
53.340 10.122899
53.345 10.9357
53.350 11.197473
53.355 11.490335
53.360 11.104446
53.365 10.445964
53.370 10.133891
53.375 10.218585
53.380 10.120855
53.385 9.914932
53.390 10.21591
53.395 9.886646
53.400 9.825379
53.405 9.980547
53.410 9.959123
53.415 9.741886
53.420 9.572606
53.425 9.556859
53.430 9.855073
53.435 10.139281
53.440 9.896456
53.445 10.121804
53.450 10.000595
53.455 9.921625
53.460 9.92853
53.465 10.226152
53.470 10.089688
53.475 10.081161
53.480 9.772159
53.485 10.127389
53.490 9.758939
53.495 9.327938
53.500 9.235045
53.505 9.397989
53.510 9.742309
53.515 9.807892
53.520 10.168884
53.525 10.595649
53.530 11.092049
53.535 11.271988
53.540 11.223178
53.545 11.032123
53.550 11.218476
53.555 10.963682
53.560 11.037255
53.565 11.201229
53.570 11.368175
53.575 11.903161
53.580 12.085219
53.585 11.786585
53.590 11.664793
53.595 11.608355
53.600 12.048366
53.605 11.456435
53.610 10.790335
53.615 10.666405
53.620 11.087001
53.625 11.239408
53.630 10.702834
53.635 10.036695
53.640 10.178459
53.645 9.825043
53.650 9.26368
53.655 9.26799
53.660 9.047696
53.665 8.926404
53.670 9.33067
53.675 9.578399
53.680 9.862056
53.685 10.097136
53.690 10.033457
53.695 10.24713
53.700 9.983653
53.705 9.523447
53.710 9.842976
53.715 10.256922
53.720 9.937492
53.725 9.488662
53.730 10.014637
53.735 10.337366
53.740 10.229321
53.745 9.91048
53.750 9.972908
53.755 10.142887
53.760 10.546649
53.765 10.565769
53.770 10.707417
53.775 10.874662
53.780 10.874267
53.785 10.634009
53.790 10.280606
53.795 9.665386
53.800 9.536923
53.805 9.673354
53.810 9.692519
53.815 9.217595
53.820 9.447127
53.825 9.760225
53.830 9.869208
53.835 9.44618
53.840 9.267809
53.845 9.444709
53.850 9.730394
53.855 9.452875
53.860 9.349434
53.865 9.38861
53.870 9.765029
53.875 9.750555
53.880 9.586339
53.885 9.44145
53.890 9.645662
53.895 10.168473
53.900 10.126033
53.905 9.893968
53.910 9.89018
53.915 9.985777
53.920 10.252103
53.925 9.873799
53.930 9.750023
53.935 9.671432
53.940 9.710856
53.945 9.643423
53.950 9.76177
53.955 9.805717
53.960 9.779518
53.965 9.505378
53.970 9.783172
53.975 9.830953
53.980 9.574861
53.985 9.215021
53.990 9.44241
53.995 9.746633
54.000 10.139554
54.005 9.975121
54.010 10.423588
54.015 11.102518
54.020 11.960252
54.025 11.981354
54.030 11.324352
54.035 10.86218
54.040 10.372939
54.045 10.270448
54.050 9.838936
54.055 9.112988
54.060 9.242964
54.065 9.945838
54.070 10.434414
54.075 10.412638
54.080 10.37759
54.085 10.383045
54.090 10.642834
54.095 10.362218
54.100 9.995555
54.105 9.785873
54.110 9.752059
54.115 9.694307
54.120 9.911965
54.125 10.035991
54.130 10.283669
54.135 10.53222
54.140 10.852396
54.145 10.658955
54.150 10.270371
54.155 10.005282
54.160 9.633367
54.165 9.967049
54.170 9.965977
54.175 10.0745
54.180 10.486375
54.185 10.530004
54.190 10.73173
54.195 10.5867
54.200 10.579238
54.205 10.180573
54.210 10.211292
54.215 10.260092
54.220 10.266607
54.225 10.809044
54.230 11.157075
54.235 11.548312
54.240 11.951491
54.245 11.729172
54.250 11.528891
54.255 11.468466
54.260 11.195151
54.265 10.946958
54.270 10.740554
54.275 11.160047
54.280 11.828259
54.285 12.406147
54.290 12.249792
54.295 11.860288
54.300 12.094382
54.305 12.175113
54.310 11.813043
54.315 11.616375
54.320 11.25982
54.325 11.565257
54.330 11.442583
54.335 11.457994
54.340 11.481707
54.345 11.08544
54.350 10.902888
54.355 11.056923
54.360 11.254274
54.365 11.537282
54.370 11.514306
54.375 11.339371
54.380 11.041541
54.385 10.722405
54.390 11.05126
54.395 10.90582
54.400 10.652968
54.405 10.220069
54.410 10.455558
54.415 11.132791
54.420 11.234079
54.425 10.939392
54.430 11.273229
54.435 10.984132
54.440 11.847463
54.445 11.903693
54.450 11.945871
54.455 12.065122
54.460 11.577135
54.465 11.467324
54.470 11.431479
54.475 10.869281
54.480 10.724262
54.485 10.246459
54.490 10.043382
54.495 10.260391
54.500 10.610938
54.505 10.657972
54.510 10.504643
54.515 10.380371
54.520 10.244417
54.525 10.545191
54.530 10.552851
54.535 10.283935
54.540 10.208272
54.545 10.478498
54.550 10.797876
54.555 11.025312
54.560 10.817632
54.565 10.757693
54.570 10.824417
54.575 10.829828
54.580 10.864875
54.585 10.915634
54.590 11.025665
54.595 11.461583
54.600 11.47279
54.605 11.58002
54.610 11.637579
54.615 11.214039
54.620 11.221758
54.625 11.066322
54.630 10.404422
54.635 10.592065
54.640 10.773629
54.645 10.425932
54.650 10.493609
54.655 10.697867
54.660 10.670872
54.665 10.668344
54.670 10.400128
54.675 10.148157
54.680 10.363374
54.685 10.409018
54.690 10.186203
54.695 10.505653
54.700 10.589103
54.705 10.461555
54.710 10.791591
54.715 11.085439
54.720 11.208889
54.725 11.238961
54.730 11.411323
54.735 11.797826
54.740 12.215125
54.745 12.426539
54.750 12.825123
54.755 12.877648
54.760 12.872369
54.765 12.473276
54.770 12.055962
54.775 12.101552
54.780 11.630085
54.785 11.078462
54.790 10.919523
54.795 11.001415
54.800 11.396204
54.805 11.623593
54.810 11.801333
54.815 12.174709
54.820 11.977064
54.825 11.987294
54.830 11.717957
54.835 11.272471
54.840 10.8345
54.845 10.304558
54.850 10.346252
54.855 10.57474
54.860 10.677333
54.865 11.349957
54.870 11.969248
54.875 12.425339
54.880 12.64202
54.885 12.889212
54.890 13.012249
54.895 13.270226
54.900 12.766461
54.905 12.814927
54.910 13.177513
54.915 12.607985
54.920 12.623608
54.925 12.529785
54.930 12.245038
54.935 11.629064
54.940 10.72369
54.945 10.527522
54.950 11.449967
54.955 11.461517
54.960 11.642741
54.965 12.07285
54.970 12.369942
54.975 12.7642
54.980 12.868611
54.985 12.904283
54.990 12.48684
54.995 12.517526
55.000 12.470505
55.005 12.316759
55.010 11.949391
55.015 11.146318
55.020 10.705947
55.025 10.421417
55.030 9.891914
55.035 10.101065
55.040 10.244047
55.045 10.632312
55.050 11.10372
55.055 11.048791
55.060 11.318253
55.065 11.640485
55.070 11.396257
55.075 11.27793
55.080 10.954982
55.085 11.234448
55.090 10.92909
55.095 10.694269
55.100 10.372534
55.105 10.536576
55.110 10.735207
55.115 10.879438
55.120 10.831987
55.125 11.333212
55.130 12.031435
55.135 12.571177
55.140 12.694708
55.145 12.81526
55.150 12.921618
55.155 12.802057
55.160 13.079648
55.165 12.561947
55.170 12.178047
55.175 12.250079
55.180 12.378728
55.185 12.561903
55.190 13.020494
55.195 12.961534
55.200 12.920162
55.205 12.552375
55.210 12.149854
55.215 11.799139
55.220 11.334215
55.225 10.843999
55.230 10.651715
55.235 11.123174
55.240 11.685564
55.245 11.543715
55.250 11.452514
55.255 11.343845
55.260 10.79975
55.265 10.599319
55.270 10.139678
55.275 10.120085
55.280 10.436697
55.285 11.072033
55.290 11.317163
55.295 12.042273
55.300 11.82693
55.305 12.117153
55.310 12.055259
55.315 11.905342
55.320 11.654738
55.325 11.543346
55.330 11.21926
55.335 11.580132
55.340 11.802809
55.345 11.662629
55.350 11.04472
55.355 11.111674
55.360 11.541955
55.365 11.269618
55.370 10.588992
55.375 10.166109
55.380 11.047366
55.385 11.62771
55.390 11.588561
55.395 12.227115
55.400 12.671644
55.405 12.954003
55.410 12.862871
55.415 12.369421
55.420 12.142645
55.425 11.610806
55.430 10.607646
55.435 11.024335
55.440 11.398911
55.445 11.396004
55.450 11.10957
55.455 11.428649
55.460 11.582484
55.465 12.250068
55.470 11.698901
55.475 11.698057
55.480 12.318637
55.485 12.484058
55.490 12.310473
55.495 12.411372
55.500 12.719441
55.505 13.384436
55.510 13.286407
55.515 12.969209
55.520 13.303741
55.525 13.297663
55.530 12.499407
55.535 11.956534
55.540 11.447709
55.545 11.120831
55.550 10.856588
55.555 10.258833
55.560 10.689667
55.565 11.608296
55.570 11.457162
55.575 11.513087
55.580 11.535521
55.585 12.029765
55.590 11.770653
55.595 11.537813
55.600 11.574156
55.605 11.731907
55.610 12.361419
55.615 12.224989
55.620 11.997544
55.625 12.132336
55.630 12.451595
55.635 12.416693
55.640 12.022575
55.645 10.997313
55.650 11.310494
55.655 11.361049
55.660 11.60354
55.665 10.759856
55.670 10.55208
55.675 11.00003
55.680 11.686273
55.685 12.138593
55.690 12.458279
55.695 12.545941
55.700 13.254972
55.705 13.219926
55.710 13.104229
55.715 13.202616
55.720 12.757838
55.725 13.363577
55.730 13.158278
55.735 12.702072
55.740 12.523169
55.745 12.460809
55.750 12.576071
55.755 12.258663
55.760 11.369602
55.765 11.455748
55.770 11.646355
55.775 11.601272
55.780 11.451642
55.785 11.46489
55.790 11.896523
55.795 12.044677
55.800 12.217769
55.805 12.424657
55.810 12.491713
55.815 12.611122
55.820 12.897284
55.825 13.262871
55.830 13.960757
55.835 13.689203
55.840 14.5988
55.845 14.894383
55.850 14.639761
55.855 13.944656
55.860 13.132571
55.865 12.532413
55.870 12.250749
55.875 12.026493
55.880 12.409169
55.885 12.356285
55.890 12.31273
55.895 12.739563
55.900 12.88871
55.905 12.846307
55.910 12.530901
55.915 12.610177
55.920 13.065625
55.925 13.214618
55.930 12.874787
55.935 12.844223
55.940 13.096713
55.945 13.227349
55.950 12.85529
55.955 12.429567
55.960 12.605722
55.965 12.725219
55.970 12.500708
55.975 12.075093
55.980 11.368278
55.985 11.227962
55.990 11.084131
55.995 10.895876
56.000 11.06958
56.005 11.572376
56.010 11.785564
56.015 12.214718
56.020 12.801788
56.025 13.216769
56.030 13.535407
56.035 13.921767
56.040 13.956596
56.045 13.802577
56.050 12.965876
56.055 11.95348
56.060 11.994077
56.065 11.76028
56.070 11.286446
56.075 11.108426
56.080 11.531712
56.085 12.618896
56.090 13.265933
56.095 12.91114
56.100 13.174449
56.105 13.4326
56.110 13.285554
56.115 13.493616
56.120 13.794818
56.125 14.188572
56.130 14.392155
56.135 14.295559
56.140 14.663755
56.145 14.720127
56.150 14.490987
56.155 14.378846
56.160 13.995959
56.165 14.022446
56.170 13.796969
56.175 13.30235
56.180 12.83974
56.185 12.332569
56.190 12.187737
56.195 12.008359
56.200 11.977215
56.205 11.892949
56.210 11.865177
56.215 11.853763
56.220 11.690723
56.225 11.577559
56.230 11.782353
56.235 11.960519
56.240 11.921805
56.245 12.293159
56.250 12.414177
56.255 12.749623
56.260 12.575047
56.265 12.006167
56.270 11.959193
56.275 11.814548
56.280 11.497358
56.285 11.604783
56.290 11.913201
56.295 12.119802
56.300 12.636111
56.305 12.2632
56.310 12.472754
56.315 12.945849
56.320 12.697617
56.325 12.217537
56.330 12.016943
56.335 11.762589
56.340 12.221255
56.345 12.409367
56.350 12.015326
56.355 11.990917
56.360 12.088849
56.365 12.060368
56.370 11.879636
56.375 11.60546
56.380 11.875701
56.385 12.170588
56.390 12.24356
56.395 12.16234
56.400 12.164001
56.405 12.398218
56.410 12.654259
56.415 12.379257
56.420 12.672112
56.425 12.642224
56.430 12.898582
56.435 13.279702
56.440 13.180103
56.445 12.467946
56.450 12.127922
56.455 11.603127
56.460 11.427639
56.465 11.368905
56.470 11.670826
56.475 12.102683
56.480 12.507537
56.485 12.677824
56.490 13.560774
56.495 13.631756
56.500 13.804901
56.505 13.188851
56.510 12.901429
56.515 12.804852
56.520 12.734531
56.525 12.225027
56.530 11.94536
56.535 11.548917
56.540 11.327527
56.545 11.428767
56.550 11.86965
56.555 12.405822
56.560 12.631012
56.565 12.927388
56.570 12.872584
56.575 13.062674
56.580 13.14721
56.585 12.701745
56.590 12.408055
56.595 12.836744
56.600 12.355422
56.605 12.568748
56.610 11.992059
56.615 11.437209
56.620 11.390817
56.625 11.484161
56.630 11.485826
56.635 12.264358
56.640 12.102679
56.645 12.329926
56.650 12.618049
56.655 12.800079
56.660 12.177855
56.665 11.948905
56.670 11.488988
56.675 12.094338
56.680 12.49159
56.685 12.924767
56.690 13.31654
56.695 14.2267
56.700 14.51085
56.705 14.582357
56.710 14.266405
56.715 14.211896
56.720 14.12079
56.725 14.04683
56.730 13.795156
56.735 13.814171
56.740 13.82422
56.745 13.73885
56.750 13.842657
56.755 13.706426
56.760 13.443061
56.765 13.473741
56.770 13.087474
56.775 13.45068
56.780 14.000613
56.785 14.010962
56.790 14.06787
56.795 13.91821
56.800 14.405272
56.805 15.204276
56.810 14.858488
56.815 14.664019
56.820 15.073262
56.825 15.182894
56.830 14.960086
56.835 14.175047
56.840 13.939557
56.845 13.995887
56.850 13.500888
56.855 13.100773
56.860 13.083674
56.865 13.213149
56.870 12.979391
56.875 12.737766
56.880 12.635629
56.885 12.743923
56.890 12.657082
56.895 12.628755
56.900 12.938823
56.905 13.23286
56.910 13.37873
56.915 13.450057
56.920 13.506466
56.925 13.766158
56.930 13.641132
56.935 12.970906
56.940 13.002273
56.945 13.074287
56.950 13.194276
56.955 12.749658
56.960 12.649471
56.965 12.846378
56.970 13.505238
56.975 13.432674
56.980 13.289167
56.985 13.450239
56.990 13.698423
56.995 14.022922
57.000 13.757002
57.005 13.826181
57.010 14.231359
57.015 14.503308
57.020 14.119973
57.025 13.901045
57.030 13.407804
57.035 13.83952
57.040 13.503051
57.045 12.84903
57.050 12.917489
57.055 13.039533
57.060 13.09271
57.065 13.108099
57.070 12.687816
57.075 13.327189
57.080 14.160292
57.085 13.864874
57.090 14.493845
57.095 14.232101
57.100 14.078506
57.105 14.503166
57.110 14.128004
57.115 13.659444
57.120 13.912269
57.125 13.927044
57.130 14.464819
57.135 14.686368
57.140 14.241852
57.145 14.565431
57.150 15.140456
57.155 15.237934
57.160 15.32225
57.165 15.274726
57.170 15.498834
57.175 15.402986
57.180 15.108516
57.185 14.608993
57.190 14.28287
57.195 14.259408
57.200 14.188558
57.205 13.681429
57.210 13.566342
57.215 13.770752
57.220 14.635024
57.225 14.604908
57.230 13.952532
57.235 13.964244
57.240 13.932137
57.245 13.757955
57.250 13.557343
57.255 13.135422
57.260 12.956708
57.265 12.933974
57.270 13.141585
57.275 13.59656
57.280 13.875287
57.285 13.499994
57.290 13.666717
57.295 14.2342
57.300 14.429442
57.305 14.482046
57.310 14.764213
57.315 14.496918
57.320 14.105162
57.325 13.575132
57.330 13.312893
57.335 13.593811
57.340 13.330106
57.345 13.209881
57.350 13.280265
57.355 13.655348
57.360 13.612938
57.365 13.851344
57.370 13.843637
57.375 13.836178
57.380 14.155456
57.385 14.421676
57.390 14.618143
57.395 14.764214
57.400 14.975564
57.405 15.099697
57.410 15.221199
57.415 14.944572
57.420 14.79595
57.425 14.469873
57.430 14.594534
57.435 13.877773
57.440 13.904763
57.445 14.395741
57.450 14.891234
57.455 15.368353
57.460 15.586937
57.465 15.574587
57.470 15.960224
57.475 16.07988
57.480 15.646027
57.485 14.798198
57.490 14.67373
57.495 14.905181
57.500 14.967319
57.505 15.064512
57.510 15.000291
57.515 14.710758
57.520 14.578848
57.525 13.548695
57.530 12.691482
57.535 12.245666
57.540 12.070842
57.545 11.97167
57.550 12.1835
57.555 12.817743
57.560 13.81226
57.565 14.042941
57.570 14.456051
57.575 14.538057
57.580 14.85661
57.585 15.266633
57.590 15.265358
57.595 15.452659
57.600 15.29977
57.605 15.514563
57.610 15.357218
57.615 14.89873
57.620 14.780993
57.625 14.875659
57.630 14.915827
57.635 14.838472
57.640 14.094811
57.645 13.897379
57.650 13.815889
57.655 13.455034
57.660 13.222614
57.665 13.082452
57.670 13.549774
57.675 14.261603
57.680 14.572543
57.685 14.572602
57.690 15.077398
57.695 15.257224
57.700 15.490955
57.705 15.401249
57.710 15.057969
57.715 14.714644
57.720 14.787432
57.725 14.449954
57.730 14.761899
57.735 14.422287
57.740 14.366581
57.745 15.03957
57.750 15.144855
57.755 15.167919
57.760 14.574458
57.765 14.580987
57.770 14.898225
57.775 14.717464
57.780 14.26111
57.785 14.331754
57.790 14.324256
57.795 14.351815
57.800 13.885867
57.805 13.483235
57.810 13.358538
57.815 13.750662
57.820 14.159656
57.825 14.533298
57.830 15.012367
57.835 15.352117
57.840 15.963121
57.845 15.869717
57.850 15.205519
57.855 14.930563
57.860 14.475371
57.865 14.080999
57.870 14.335381
57.875 14.104507
57.880 14.12888
57.885 14.315747
57.890 14.611773
57.895 14.78129
57.900 14.480281
57.905 14.220981
57.910 14.287637
57.915 14.770501
57.920 14.479636
57.925 14.172415
57.930 14.097388
57.935 14.266621
57.940 14.477407
57.945 14.508668
57.950 13.973525
57.955 14.390838
57.960 14.436423
57.965 15.130383
57.970 15.22488
57.975 14.646243
57.980 14.532676
57.985 14.485202
57.990 14.222034
57.995 14.751195
58.000 15.157873
58.005 15.10397
58.010 15.429901
58.015 15.381713
58.020 15.498768
58.025 15.530723
58.030 14.891931
58.035 14.77848
58.040 14.964194
58.045 14.930527
58.050 15.065246
58.055 15.386929
58.060 15.394435
58.065 15.368238
58.070 15.115084
58.075 15.373003
58.080 15.769154
58.085 16.017788
58.090 16.266088
58.095 16.349459
58.100 16.343927
58.105 16.466446
58.110 16.007736
58.115 15.682615
58.120 15.105661
58.125 14.690454
58.130 14.838399
58.135 15.2268
58.140 15.19198
58.145 14.907268
58.150 14.796258
58.155 15.030877
58.160 14.746812
58.165 14.36677
58.170 13.650934
58.175 13.311023
58.180 13.545533
58.185 13.126374
58.190 12.976807
58.195 13.279626
58.200 13.547059
58.205 13.962783
58.210 14.323299
58.215 14.583964
58.220 14.87055
58.225 15.195938
58.230 15.082754
58.235 14.987587
58.240 14.979211
58.245 14.80137
58.250 15.262519
58.255 15.87433
58.260 15.710879
58.265 15.140413
58.270 14.956687
58.275 14.572172
58.280 14.609546
58.285 14.327538
58.290 13.990907
58.295 14.066909
58.300 14.815547
58.305 15.335741
58.310 15.446239
58.315 15.429962
58.320 15.693611
58.325 15.831807
58.330 15.822303
58.335 16.213739
58.340 16.256632
58.345 16.279997
58.350 15.862071
58.355 15.419722
58.360 15.370034
58.365 15.318179
58.370 14.980585
58.375 14.954726
58.380 14.49642
58.385 14.467626
58.390 14.455729
58.395 14.248964
58.400 14.128887
58.405 14.33184
58.410 14.58332
58.415 15.175194
58.420 15.54474
58.425 15.80022
58.430 15.807447
58.435 15.802402
58.440 15.154316
58.445 14.799902
58.450 14.656418
58.455 14.55345
58.460 14.396427
58.465 14.503456
58.470 14.11216
58.475 13.901731
58.480 13.824133
58.485 13.670358
58.490 13.675989
58.495 14.269393
58.500 14.728556
58.505 15.042656
58.510 15.561203
58.515 15.824457
58.520 16.108803
58.525 15.946014
58.530 15.466491
58.535 15.175186
58.540 15.141669
58.545 15.133607
58.550 15.045809
58.555 15.549463
58.560 15.857461
58.565 15.590144
58.570 16.102591
58.575 16.216089
58.580 16.046049
58.585 15.791675
58.590 15.53717
58.595 15.266677
58.600 15.130569
58.605 14.722446
58.610 14.687813
58.615 14.520187
58.620 14.382725
58.625 14.173693
58.630 14.671627
58.635 15.113834
58.640 15.09801
58.645 15.081346
58.650 15.439432
58.655 15.413844
58.660 14.98777
58.665 14.930361
58.670 15.269567
58.675 16.01627
58.680 16.293478
58.685 16.18655
58.690 16.810905
58.695 17.403095
58.700 17.384092
58.705 16.847223
58.710 16.104626
58.715 15.963616
58.720 16.083927
58.725 16.382616
58.730 16.395212
58.735 16.203712
58.740 16.316122
58.745 16.479284
58.750 16.544924
58.755 16.282545
58.760 15.752828
58.765 15.251515
58.770 14.797934
58.775 14.571044
58.780 15.075161
58.785 15.103181
58.790 15.200871
58.795 14.770388
58.800 14.744395
58.805 15.230704
58.810 15.541635
58.815 14.911669
58.820 14.692945
58.825 14.77319
58.830 15.241814
58.835 15.855658
58.840 15.768147
58.845 15.599621
58.850 15.618993
58.855 15.547278
58.860 15.454062
58.865 14.768365
58.870 14.060102
58.875 13.869609
58.880 13.813608
58.885 14.153669
58.890 14.187637
58.895 14.63163
58.900 15.587614
58.905 15.792625
58.910 16.05401
58.915 16.047306
58.920 15.92807
58.925 15.979842
58.930 15.354506
58.935 15.043959
58.940 15.2279
58.945 15.705837
58.950 15.88769
58.955 15.6516
58.960 15.582229
58.965 16.295963
58.970 16.063368
58.975 16.231951
58.980 16.153219
58.985 15.644527
58.990 15.412346
58.995 15.769434
59.000 15.746087
59.005 15.995076
59.010 15.490335
59.015 14.779412
59.020 14.705264
59.025 15.681805
59.030 15.711928
59.035 15.486544
59.040 15.612182
59.045 15.795164
59.050 16.426718
59.055 16.870649
59.060 16.295143
59.065 16.479778
59.070 16.788664
59.075 16.952429
59.080 17.313578
59.085 17.825714
59.090 18.603363
59.095 18.46814
59.100 18.183079
59.105 18.061016
59.110 17.53721
59.115 17.084232
59.120 16.54941
59.125 16.128374
59.130 16.022058
59.135 15.644427
59.140 15.521895
59.145 15.767233
59.150 15.884645
59.155 15.843401
59.160 16.193348
59.165 16.500893
59.170 16.63175
59.175 16.886915
59.180 16.470354
59.185 16.301796
59.190 16.212345
59.195 16.011559
59.200 15.665786
59.205 15.253974
59.210 14.987211
59.215 15.103011
59.220 14.90524
59.225 14.710847
59.230 15.018204
59.235 15.560072
59.240 15.921043
59.245 16.294121
59.250 16.035671
59.255 16.24382
59.260 16.347725
59.265 16.499687
59.270 16.672115
59.275 16.466621
59.280 16.367149
59.285 16.496689
59.290 16.964577
59.295 16.975517
59.300 16.136246
59.305 16.23908
59.310 16.564161
59.315 16.651201
59.320 16.990786
59.325 16.932056
59.330 17.058058
59.335 17.194574
59.340 16.622023
59.345 16.317436
59.350 16.463121
59.355 16.659739
59.360 16.701052
59.365 16.587551
59.370 16.694441
59.375 16.256128
59.380 16.453016
59.385 16.56222
59.390 16.624958
59.395 16.682081
59.400 16.988647
59.405 17.359558
59.410 17.637239
59.415 17.400667
59.420 17.008728
59.425 17.028313
59.430 16.560999
59.435 15.963256
59.440 16.021616
59.445 16.652002
59.450 16.66684
59.455 16.934435
59.460 16.854652
59.465 17.298027
59.470 17.886044
59.475 17.949425
59.480 18.107834
59.485 18.613338
59.490 18.76292
59.495 19.183216
59.500 18.875521
59.505 18.505777
59.510 18.291555
59.515 18.198984
59.520 18.340082
59.525 18.132973
59.530 17.167084
59.535 16.767756
59.540 16.419222
59.545 16.379539
59.550 16.452547
59.555 16.214666
59.560 16.888071
59.565 17.633669
59.570 17.910652
59.575 18.49489
59.580 18.646612
59.585 18.12809
59.590 17.705006
59.595 17.395691
59.600 17.401915
59.605 18.292095
59.610 18.499781
59.615 18.494003
59.620 18.699154
59.625 19.238224
59.630 19.661926
59.635 19.288754
59.640 18.582216
59.645 18.214045
59.650 18.712042
59.655 18.784479
59.660 18.695436
59.665 18.256739
59.670 18.966959
59.675 19.097771
59.680 19.126846
59.685 18.915194
59.690 18.578556
59.695 18.474112
59.700 19.140774
59.705 19.555834
59.710 19.738029
59.715 19.554541
59.720 19.566969
59.725 20.110193
59.730 20.190434
59.735 19.037777
59.740 18.363935
59.745 18.448055
59.750 18.82464
59.755 18.50668
59.760 18.058748
59.765 18.091482
59.770 18.374252
59.775 18.064579
59.780 17.731525
59.785 17.554104
59.790 17.716349
59.795 18.095114
59.800 18.346878
59.805 19.154869
59.810 19.342531
59.815 19.584824
59.820 19.693432
59.825 19.583511
59.830 19.079231
59.835 18.617773
59.840 18.321859
59.845 18.860256
59.850 18.998056
59.855 19.888554
59.860 20.546568
59.865 21.033648
59.870 21.352736
59.875 21.226925
59.880 20.753347
59.885 20.270138
59.890 19.67465
59.895 19.662987
59.900 19.969749
59.905 20.243446
59.910 20.126617
59.915 20.367456
59.920 21.022251
59.925 21.008335
59.930 20.523857
59.935 20.468489
59.940 20.083767
59.945 19.751379
59.950 20.121725
59.955 20.200859
59.960 20.270254
59.965 20.801655
59.970 20.259384
59.975 20.202915
59.980 19.66819
59.985 19.58913
59.990 19.804419
59.995 20.017164
60.000 20.189095
60.005 20.562813
60.010 21.017723
60.015 22.15654
60.020 21.303999
60.025 20.666307
60.030 19.708876
60.035 18.638948
60.040 18.307816
60.045 18.845005
60.050 19.645592
60.055 20.386816
60.060 20.81645
60.065 21.530561
60.070 22.223759
60.075 22.850021
60.080 22.673023
60.085 22.441256
60.090 22.634109
60.095 22.958855
60.100 22.893173
60.105 22.512377
60.110 22.305655
60.115 22.236906
60.120 22.097803
60.125 21.41222
60.130 20.630318
60.135 21.547201
60.140 22.209257
60.145 21.983801
60.150 21.415047
60.155 21.124527
60.160 21.605486
60.165 21.878815
60.170 21.826164
60.175 21.732386
60.180 22.1891
60.185 22.809967
60.190 23.214434
60.195 23.000006
60.200 22.749008
60.205 22.244417
60.210 22.138361
60.215 22.121006
60.220 21.401995
60.225 21.178928
60.230 21.367672
60.235 21.416067
60.240 20.937862
60.245 20.966173
60.250 20.304941
60.255 19.971586
60.260 19.94688
60.265 20.448425
60.270 20.829176
60.275 21.213173
60.280 20.973131
60.285 21.744299
60.290 22.531427
60.295 22.490381
60.300 22.168707
60.305 22.032513
60.310 21.97093
60.315 22.244989
60.320 21.780701
60.325 21.698339
60.330 21.892616
60.335 21.516642
60.340 21.251366
60.345 21.345314
60.350 21.510771
60.355 21.742048
60.360 22.126587
60.365 22.360895
60.370 22.352177
60.375 22.794857
60.380 23.168314
60.385 23.180988
60.390 23.667133
60.395 23.658077
60.400 23.223963
60.405 23.969976
60.410 23.829964
60.415 23.642056
60.420 23.426691
60.425 22.597141
60.430 22.413971
60.435 22.793587
60.440 22.729401
60.445 22.560163
60.450 22.228069
60.455 21.658108
60.460 21.430538
60.465 21.239092
60.470 21.585152
60.475 21.617826
60.480 21.652327
60.485 21.565105
60.490 21.276209
60.495 21.587332
60.500 21.060228
60.505 20.342649
60.510 20.347616
60.515 21.074192
60.520 21.213486
60.525 21.962934
60.530 22.016623
60.535 21.432741
60.540 21.304579
60.545 20.738508
60.550 20.018198
60.555 20.276672
60.560 20.313997
60.565 20.42593
60.570 20.507629
60.575 20.154522
60.580 20.338348
60.585 20.46534
60.590 20.447731
60.595 20.577028
60.600 20.742283
60.605 21.57749
60.610 22.390326
60.615 22.451181
60.620 22.868784
60.625 22.700176
60.630 22.641148
60.635 22.307394
60.640 22.047955
60.645 21.449835
60.650 21.106697
60.655 20.161493
60.660 20.0938
60.665 19.332592
60.670 18.863129
60.675 18.225973
60.680 17.637589
60.685 17.634869
60.690 18.357185
60.695 18.232649
60.700 18.886208
60.705 19.637974
60.710 20.256475
60.715 20.83786
60.720 20.693811
60.725 19.812031
60.730 19.924015
60.735 19.763996
60.740 19.515078
60.745 19.055836
60.750 18.781561
60.755 18.964476
60.760 19.127432
60.765 18.942019
60.770 19.090324
60.775 18.978266
60.780 18.837635
60.785 19.081228
60.790 19.069912
60.795 19.113571
60.800 19.074163
60.805 18.747549
60.810 19.373301
60.815 19.904261
60.820 19.909729
60.825 20.286896
60.830 20.550606
60.835 20.667147
60.840 20.91124
60.845 20.618456
60.850 21.129166
60.855 20.461607
60.860 20.05895
60.865 19.651056
60.870 19.409698
60.875 19.068157
60.880 18.491692
60.885 17.612663
60.890 17.347078
60.895 16.981546
60.900 16.776041
60.905 16.326433
60.910 16.346025
60.915 16.094889
60.920 16.810467
60.925 17.507421
60.930 18.163345
60.935 19.266226
60.940 19.316568
60.945 19.515701
60.950 20.337181
60.955 19.684071
60.960 19.536194
60.965 19.121729
60.970 18.537928
60.975 18.360022
60.980 18.110439
60.985 17.77677
60.990 17.727888
60.995 17.15061
61.000 16.772022
61.005 16.311352
61.010 16.383463
61.015 15.984981
61.020 15.954644
61.025 16.309689
61.030 16.636042
61.035 16.807182
61.040 17.213192
61.045 17.557222
61.050 18.333235
61.055 18.838533
61.060 18.174032
61.065 18.309866
61.070 18.975504
61.075 19.118456
61.080 19.417313
61.085 18.857363
61.090 17.856464
61.095 17.795151
61.100 17.201303
61.105 16.479792
61.110 16.524656
61.115 16.126915
61.120 16.490551
61.125 16.938108
61.130 17.195261
61.135 17.538105
61.140 17.389235
61.145 17.131382
61.150 16.860125
61.155 16.281471
61.160 16.131531
61.165 16.46385
61.170 16.789221
61.175 17.239746
61.180 17.219086
61.185 17.585596
61.190 17.866793
61.195 17.733564
61.200 17.624962
61.205 18.240795
61.210 18.580067
61.215 18.943092
61.220 19.354889
61.225 20.220041
61.230 20.72546
61.235 20.448198
61.240 19.829397
61.245 19.662449
61.250 19.651014
61.255 19.224751
61.260 18.632368
61.265 19.165466
61.270 19.383394
61.275 19.622034
61.280 20.139509
61.285 19.886536
61.290 19.5825
61.295 19.597971
61.300 18.816109
61.305 18.406891
61.310 18.330828
61.315 18.048727
61.320 18.335871
61.325 18.080053
61.330 17.680506
61.335 17.538725
61.340 17.805231
61.345 17.293463
61.350 17.348864
61.355 17.285143
61.360 17.081484
61.365 16.956743
61.370 16.810963
61.375 16.366438
61.380 15.752856
61.385 15.388333
61.390 15.117973
61.395 15.204766
61.400 15.145561
61.405 15.250822
61.410 15.173163
61.415 15.62544
61.420 15.094282
61.425 15.104094
61.430 15.640803
61.435 15.99278
61.440 16.224438
61.445 16.274117
61.450 16.40254
61.455 16.664154
61.460 16.976957
61.465 16.829494
61.470 16.456932
61.475 16.081314
61.480 16.217161
61.485 16.468534
61.490 16.318832
61.495 16.232815
61.500 16.585077
61.505 17.415018
61.510 18.733019
61.515 19.068653
61.520 18.957079
61.525 19.242804
61.530 19.015476
61.535 18.657869
61.540 18.389269
61.545 17.706606
61.550 17.581635
61.555 17.616892
61.560 17.398678
61.565 17.41441
61.570 17.86235
61.575 17.91795
61.580 18.067568
61.585 17.859795
61.590 17.556938
61.595 17.733391
61.600 18.240431
61.605 18.465467
61.610 18.59453
61.615 18.607119
61.620 19.147512
61.625 19.51754
61.630 19.909555
61.635 19.560045
61.640 19.028591
61.645 18.746956
61.650 18.604183
61.655 18.564789
61.660 18.2658
61.665 17.738501
61.670 17.505808
61.675 17.892183
61.680 17.50091
61.685 17.150726
61.690 16.928093
61.695 17.374664
61.700 17.578476
61.705 17.852373
61.710 17.45892
61.715 17.936029
61.720 17.965504
61.725 18.300554
61.730 18.132154
61.735 17.865944
61.740 17.76936
61.745 17.383501
61.750 16.88566
61.755 16.525272
61.760 15.860826
61.765 15.772772
61.770 15.604833
61.775 16.042622
61.780 16.269163
61.785 16.472002
61.790 16.935162
61.795 17.217083
61.800 17.471489
61.805 17.94836
61.810 17.992468
61.815 18.544203
61.820 18.894503
61.825 18.720541
61.830 18.394234
61.835 18.449749
61.840 17.969902
61.845 17.664223
61.850 17.110115
61.855 16.476679
61.860 16.157591
61.865 16.501701
61.870 16.51218
61.875 16.823679
61.880 16.955366
61.885 17.14572
61.890 17.92918
61.895 18.644772
61.900 19.129263
61.905 19.133566
61.910 18.917046
61.915 18.834358
61.920 18.541327
61.925 18.264624
61.930 18.134844
61.935 17.865868
61.940 17.710608
61.945 17.470226
61.950 17.494156
61.955 17.864252
61.960 17.709469
61.965 17.23172
61.970 16.790247
61.975 16.635124
61.980 16.902796
61.985 16.792162
61.990 16.832951
61.995 16.698612
62.000 17.039976
62.005 16.810011
62.010 16.885298
62.015 16.848043
62.020 16.781385
62.025 16.110783
62.030 16.578249
62.035 16.494041
62.040 16.662958
62.045 16.943527
62.050 17.043486
62.055 17.326521
62.060 17.672087
62.065 17.144838
62.070 17.109558
62.075 16.999659
62.080 17.069752
62.085 17.161047
62.090 17.247755
62.095 17.341854
62.100 17.421061
62.105 17.877771
62.110 18.119144
62.115 17.852804
62.120 17.52581
62.125 17.154934
62.130 17.222015
62.135 17.768101
62.140 17.763962
62.145 17.729624
62.150 17.441097
62.155 17.636179
62.160 17.72571
62.165 18.00861
62.170 18.003643
62.175 18.094439
62.180 18.501713
62.185 19.201174
62.190 19.379732
62.195 19.425493
62.200 19.048544
62.205 18.562065
62.210 18.334217
62.215 18.282677
62.220 17.605551
62.225 17.190498
62.230 16.826694
62.235 16.732464
62.240 16.845396
62.245 16.331778
62.250 16.096373
62.255 15.983949
62.260 15.974397
62.265 16.401901
62.270 16.562536
62.275 16.043806
62.280 16.718279
62.285 17.111063
62.290 17.199787
62.295 16.726618
62.300 15.952503
62.305 15.329106
62.310 15.622621
62.315 15.081598
62.320 14.786966
62.325 15.500953
62.330 16.029699
62.335 16.700188
62.340 17.20459
62.345 17.162594
62.350 17.374874
62.355 17.414881
62.360 17.140709
62.365 17.410883
62.370 16.932682
62.375 16.878031
62.380 17.305683
62.385 17.144793
62.390 16.708679
62.395 17.191723
62.400 17.44035
62.405 18.405245
62.410 18.72938
62.415 19.512224
62.420 20.069246
62.425 20.33992
62.430 19.824333
62.435 19.277201
62.440 18.491898
62.445 18.949051
62.450 18.747337
62.455 18.777988
62.460 19.004807
62.465 19.493898
62.470 20.132851
62.475 20.319946
62.480 20.030539
62.485 19.786154
62.490 19.815771
62.495 19.533619
62.500 19.284657
62.505 18.867159
62.510 18.423262
62.515 18.007923
62.520 18.124815
62.525 18.055605
62.530 18.263685
62.535 17.529688
62.540 17.39987
62.545 17.498421
62.550 17.164589
62.555 16.916052
62.560 16.777718
62.565 16.577185
62.570 17.095139
62.575 17.588295
62.580 17.557278
62.585 17.402731
62.590 17.548151
62.595 17.532187
62.600 17.62789
62.605 17.736074
62.610 17.166599
62.615 17.088444
62.620 17.410896
62.625 16.554001
62.630 16.692186
62.635 16.398685
62.640 16.106323
62.645 16.600533
62.650 17.262083
62.655 17.324173
62.660 17.409519
62.665 17.209827
62.670 17.564774
62.675 18.183374
62.680 18.259663
62.685 17.744068
62.690 18.16654
62.695 18.779709
62.700 18.265018
62.705 18.07102
62.710 17.958927
62.715 18.417933
62.720 18.674763
62.725 17.700649
62.730 17.87241
62.735 18.654503
62.740 19.099516
62.745 19.487164
62.750 19.517376
62.755 19.849264
62.760 20.529459
62.765 20.484999
62.770 19.902687
62.775 19.126339
62.780 18.40765
62.785 17.829723
62.790 17.330048
62.795 17.321468
62.800 17.087189
62.805 17.216995
62.810 17.287176
62.815 16.88888
62.820 17.109137
62.825 17.419714
62.830 17.069199
62.835 17.012337
62.840 16.914099
62.845 17.392851
62.850 17.72776
62.855 17.45454
62.860 17.085354
62.865 17.031727
62.870 16.998684
62.875 17.343239
62.880 17.373785
62.885 17.854506
62.890 17.923491
62.895 17.971947
62.900 17.697624
62.905 17.579494
62.910 17.5459
62.915 16.768431
62.920 15.908258
62.925 15.351698
62.930 15.419002
62.935 15.470224
62.940 14.924842
62.945 14.931644
62.950 15.329601
62.955 15.409643
62.960 15.902328
62.965 15.622754
62.970 15.825769
62.975 16.718889
62.980 16.944582
62.985 17.093573
62.990 17.787132
62.995 18.139078
63.000 18.742662
63.005 18.161736
63.010 17.883417
63.015 17.857262
63.020 17.346462
63.025 16.923645
63.030 16.313379
63.035 16.076237
63.040 16.320852
63.045 15.925228
63.050 15.641806
63.055 16.234623
63.060 16.276318
63.065 16.758205
63.070 16.888781
63.075 16.815468
63.080 17.457134
63.085 17.551464
63.090 17.058331
63.095 17.128817
63.100 16.506271
63.105 16.273149
63.110 16.868967
63.115 16.590832
63.120 16.834986
63.125 17.013792
63.130 17.454947
63.135 17.99543
63.140 18.601213
63.145 18.374302
63.150 18.033792
63.155 18.131464
63.160 18.195372
63.165 17.927086
63.170 18.069216
63.175 17.642015
63.180 17.862623
63.185 18.460615
63.190 18.509472
63.195 18.820835
63.200 18.953114
63.205 18.800989
63.210 19.186035
63.215 18.393654
63.220 17.939634
63.225 18.00045
63.230 17.478113
63.235 17.366526
63.240 17.073706
63.245 16.665606
63.250 17.257729
63.255 17.386244
63.260 16.769033
63.265 16.894056
63.270 16.999325
63.275 16.985477
63.280 17.309364
63.285 17.490784
63.290 17.048828
63.295 17.539473
63.300 17.621824
63.305 17.839279
63.310 18.485567
63.315 18.535597
63.320 18.608137
63.325 19.292492
63.330 18.948788
63.335 19.106449
63.340 19.055336
63.345 18.603708
63.350 18.356844
63.355 18.581255
63.360 18.335947
63.365 18.658918
63.370 18.441441
63.375 18.306648
63.380 18.505375
63.385 18.299452
63.390 18.450146
63.395 18.222912
63.400 18.358887
63.405 18.00408
63.410 17.023294
63.415 16.886452
63.420 17.17318
63.425 16.636194
63.430 17.058893
63.435 16.951881
63.440 16.91984
63.445 17.583563
63.450 17.884119
63.455 17.75592
63.460 17.840513
63.465 17.947195
63.470 18.177034
63.475 18.861977
63.480 18.82856
63.485 18.866875
63.490 18.82551
63.495 18.880535
63.500 18.008375
63.505 17.201975
63.510 17.436409
63.515 17.703789
63.520 17.908508
63.525 18.029739
63.530 17.954819
63.535 18.962339
63.540 19.300533
63.545 18.467371
63.550 17.718292
63.555 17.075499
63.560 17.334673
63.565 17.087954
63.570 16.918144
63.575 17.114689
63.580 17.768885
63.585 18.004957
63.590 18.30002
63.595 17.955212
63.600 18.475662
63.605 18.451204
63.610 18.297276
63.615 17.92244
63.620 18.490702
63.625 18.781406
63.630 18.581692
63.635 18.118174
63.640 17.839695
63.645 17.605801
63.650 17.563538
63.655 17.587557
63.660 17.51845
63.665 17.89942
63.670 18.131563
63.675 18.564302
63.680 18.771786
63.685 18.42742
63.690 18.105528
63.695 18.110075
63.700 18.511965
63.705 18.554716
63.710 18.194023
63.715 18.573925
63.720 18.537622
63.725 18.265898
63.730 18.018551
63.735 18.085913
63.740 17.723139
63.745 17.721083
63.750 17.780279
63.755 18.247204
63.760 18.203997
63.765 18.030113
63.770 17.339533
63.775 17.035748
63.780 16.480898
63.785 16.620689
63.790 16.897743
63.795 17.144444
63.800 17.148399
63.805 17.975342
63.810 18.562637
63.815 19.07453
63.820 18.810381
63.825 18.734695
63.830 18.755421
63.835 19.062466
63.840 18.659842
63.845 18.377016
63.850 18.115099
63.855 18.277596
63.860 18.078367
63.865 18.120365
63.870 17.634438
63.875 17.837961
63.880 18.286867
63.885 18.553051
63.890 18.056206
63.895 18.827871
63.900 18.813137
63.905 18.776917
63.910 18.433031
63.915 18.15596
63.920 18.316614
63.925 18.701914
63.930 18.081821
63.935 18.535776
63.940 18.903141
63.945 18.576595
63.950 18.604158
63.955 18.600412
63.960 18.263145
63.965 17.958652
63.970 17.375189
63.975 17.347029
63.980 18.130787
63.985 18.404819
63.990 18.060858
63.995 18.424171
64.000 18.796303
64.005 19.311623
64.010 19.560812
64.015 19.861958
64.020 19.685701
64.025 19.895956
64.030 19.438402
64.035 18.618862
64.040 17.966156
64.045 18.226326
64.050 17.634342
64.055 17.817019
64.060 17.855339
64.065 18.141016
64.070 19.073246
64.075 19.893557
64.080 19.431528
64.085 19.64419
64.090 19.930126
64.095 20.528376
64.100 20.65119
64.105 20.505632
64.110 20.12813
64.115 19.862473
64.120 19.97497
64.125 19.437912
64.130 18.846889
64.135 18.769188
64.140 18.204081
64.145 17.830879
64.150 18.129477
64.155 17.583002
64.160 17.645472
64.165 17.800953
64.170 18.06134
64.175 18.208828
64.180 18.161421
64.185 17.747015
64.190 17.850885
64.195 18.03097
64.200 17.858459
64.205 17.247972
64.210 17.382887
64.215 17.810083
64.220 18.556839
64.225 18.987284
64.230 19.043358
64.235 18.942982
64.240 19.07213
64.245 18.791689
64.250 18.650366
64.255 18.849653
64.260 18.600693
64.265 18.298515
64.270 17.863174
64.275 17.99967
64.280 17.940046
64.285 18.106054
64.290 17.740604
64.295 17.418161
64.300 17.155815
64.305 18.089645
64.310 18.607327
64.315 19.150711
64.320 18.881205
64.325 18.731655
64.330 18.280443
64.335 17.940987
64.340 17.382835
64.345 16.881495
64.350 16.904402
64.355 16.591343
64.360 16.725592
64.365 17.195343
64.370 17.768896
64.375 18.297663
64.380 18.363768
64.385 18.332632
64.390 18.153519
64.395 19.205673
64.400 19.63665
64.405 19.645708
64.410 19.49367
64.415 18.903748
64.420 19.07823
64.425 19.086069
64.430 18.211819
64.435 19.029732
64.440 19.736916
64.445 20.443533
64.450 21.243872
64.455 21.345354
64.460 21.993654
64.465 22.093691
64.470 21.551716
64.475 21.072412
64.480 20.617214
64.485 20.677692
64.490 20.525938
64.495 20.577482
64.500 19.537031
64.505 19.103056
64.510 19.061617
64.515 18.7591
64.520 18.822275
64.525 18.534996
64.530 18.199465
64.535 18.561907
64.540 18.415865
64.545 18.193541
64.550 18.406399
64.555 18.29451
64.560 18.086496
64.565 17.906439
64.570 18.318666
64.575 18.816578
64.580 18.613987
64.585 18.709574
64.590 18.679533
64.595 19.110054
64.600 19.3381
64.605 19.118994
64.610 18.883064
64.615 18.91955
64.620 18.798611
64.625 18.6287
64.630 18.728758
64.635 18.72821
64.640 18.670805
64.645 18.33589
64.650 18.389784
64.655 18.770496
64.660 18.838808
64.665 18.459442
64.670 18.842737
64.675 19.880941
64.680 20.754217
64.685 21.293089
64.690 21.527105
64.695 21.993425
64.700 22.48731
64.705 22.090113
64.710 21.668709
64.715 21.330168
64.720 20.758768
64.725 20.073689
64.730 20.126558
64.735 19.739397
64.740 19.290598
64.745 19.577511
64.750 19.25279
64.755 19.049547
64.760 19.126205
64.765 18.922592
64.770 19.114315
64.775 19.342875
64.780 19.018854
64.785 19.073008
64.790 19.169111
64.795 19.329838
64.800 18.943769
64.805 19.307533
64.810 19.635458
64.815 19.964428
64.820 20.369616
64.825 20.123531
64.830 19.856735
64.835 19.954067
64.840 19.898645
64.845 19.883165
64.850 19.120888
64.855 19.333561
64.860 19.350098
64.865 19.714598
64.870 19.889759
64.875 20.238022
64.880 20.245285
64.885 20.691986
64.890 20.701239
64.895 21.248135
64.900 20.834709
64.905 20.476238
64.910 20.060261
64.915 19.862965
64.920 19.757761
64.925 19.816978
64.930 19.364708
64.935 20.102217
64.940 20.210756
64.945 19.885588
64.950 20.785318
64.955 21.362518
64.960 21.145388
64.965 21.134022
64.970 20.429506
64.975 20.549917
64.980 20.872303
64.985 20.594261
64.990 20.220478
64.995 19.965424
65.000 19.722019
65.005 19.9743
65.010 20.443014
65.015 20.42761
65.020 20.403368
65.025 20.544355
65.030 20.981876
65.035 21.216139
65.040 21.525614
65.045 21.602713
65.050 21.706547
65.055 21.926397
65.060 21.221504
65.065 21.560406
65.070 21.804333
65.075 22.124859
65.080 22.067785
65.085 22.298426
65.090 21.885653
65.095 21.889296
65.100 22.146269
65.105 22.441582
65.110 21.894003
65.115 21.394461
65.120 21.096775
65.125 21.322149
65.130 21.83095
65.135 21.204638
65.140 20.715191
65.145 20.876335
65.150 21.24979
65.155 21.543964
65.160 21.152893
65.165 21.369425
65.170 21.639578
65.175 21.670076
65.180 21.141212
65.185 20.85457
65.190 20.577375
65.195 20.74826
65.200 20.949108
65.205 21.114845
65.210 21.991581
65.215 22.92527
65.220 23.088106
65.225 23.262083
65.230 24.089733
65.235 23.758118
65.240 23.972004
65.245 23.472433
65.250 23.517883
65.255 23.677998
65.260 24.061607
65.265 24.163626
65.270 24.946505
65.275 23.94335
65.280 23.921473
65.285 23.942316
65.290 23.711498
65.295 23.512323
65.300 23.179539
65.305 22.671043
65.310 23.064159
65.315 22.670881
65.320 22.350691
65.325 22.176025
65.330 22.503103
65.335 22.36857
65.340 23.030369
65.345 23.626383
65.350 23.985588
65.355 23.593895
65.360 23.896238
65.365 23.429152
65.370 23.293295
65.375 22.967033
65.380 22.756834
65.385 22.699173
65.390 23.468029
65.395 24.178278
65.400 24.461493
65.405 24.115849
65.410 23.709324
65.415 23.707272
65.420 23.830193
65.425 23.460606
65.430 22.515959
65.435 22.076197
65.440 23.131414
65.445 23.864466
65.450 24.161924
65.455 24.055687
65.460 24.802658
65.465 26.043415
65.470 27.057587
65.475 26.644209
65.480 26.436897
65.485 26.773956
65.490 27.215626
65.495 26.861162
65.500 26.391695
65.505 26.165106
65.510 26.251844
65.515 27.149979
65.520 27.104361
65.525 27.679041
65.530 27.380955
65.535 27.645231
65.540 27.979849
65.545 28.401232
65.550 28.492996
65.555 28.588898
65.560 29.101227
65.565 29.622311
65.570 29.451731
65.575 28.886276
65.580 28.805233
65.585 28.216587
65.590 28.611761
65.595 27.979071
65.600 27.948164
65.605 28.5431
65.610 29.529768
65.615 29.666523
65.620 30.559921
65.625 31.055649
65.630 31.534586
65.635 31.720943
65.640 31.372322
65.645 32.049103
65.650 32.136227
65.655 31.448971
65.660 30.769203
65.665 30.859661
65.670 31.381304
65.675 31.83395
65.680 31.830389
65.685 32.056255
65.690 33.231518
65.695 33.292404
65.700 32.551632
65.705 32.75666
65.710 32.799679
65.715 32.323566
65.720 32.297741
65.725 31.812666
65.730 32.539127
65.735 33.029671
65.740 32.664761
65.745 32.655819
65.750 33.245483
65.755 33.358978
65.760 32.913391
65.765 33.495983
65.770 33.600906
65.775 33.67646
65.780 34.096668
65.785 34.692417
65.790 35.281727
65.795 34.983353
65.800 34.147038
65.805 34.144802
65.810 34.661789
65.815 35.015186
65.820 34.784622
65.825 35.313198
65.830 35.617546
65.835 35.818058
65.840 36.364658
65.845 36.173397
65.850 35.63662
65.855 34.949818
65.860 35.278393
65.865 35.612286
65.870 35.674232
65.875 35.66375
65.880 36.173359
65.885 36.783699
65.890 36.879784
65.895 35.888527
65.900 35.942322
65.905 36.021862
65.910 35.878002
65.915 36.427067
65.920 36.972469
65.925 37.751545
65.930 38.852543
65.935 39.637611
65.940 40.512196
65.945 41.255951
65.950 41.038418
65.955 40.299095
65.960 40.204483
65.965 40.10075
65.970 39.577061
65.975 38.59742
65.980 38.172398
65.985 38.001423
65.990 38.558651
65.995 39.774223
66.000 40.385139
66.005 41.361835
66.010 42.239326
66.015 41.947117
66.020 41.733917
66.025 41.452518
66.030 40.808392
66.035 40.818279
66.040 40.851852
66.045 40.588631
66.050 40.598503
66.055 40.654346
66.060 40.050438
66.065 39.134071
66.070 37.767651
66.075 36.607578
66.080 36.741512
66.085 36.547977
66.090 36.606678
66.095 36.53014
66.100 36.29705
66.105 36.82122
66.110 36.706448
66.115 36.424011
66.120 36.250309
66.125 35.782078
66.130 36.024742
66.135 36.101254
66.140 36.318287
66.145 36.824482
66.150 36.800655
66.155 37.226578
66.160 37.743561
66.165 37.117447
66.170 37.223171
66.175 36.29388
66.180 36.684673
66.185 36.278461
66.190 35.364384
66.195 35.682331
66.200 35.838219
66.205 36.49398
66.210 36.968586
66.215 35.962021
66.220 36.032005
66.225 36.285278
66.230 36.444386
66.235 36.489613
66.240 34.976437
66.245 34.417042
66.250 34.289646
66.255 34.763145
66.260 34.760017
66.265 34.203079
66.270 34.276382
66.275 34.532497
66.280 34.446686
66.285 33.803204
66.290 33.447411
66.295 33.51609
66.300 33.49585
66.305 34.217377
66.310 34.370358
66.315 35.150944
66.320 35.845638
66.325 35.54808
66.330 34.187862
66.335 32.857769
66.340 32.130299
66.345 32.315681
66.350 31.431658
66.355 30.344244
66.360 30.250872
66.365 30.867638
66.370 31.099888
66.375 30.437023
66.380 29.370474
66.385 29.402521
66.390 29.795879
66.395 30.202259
66.400 30.484577
66.405 30.263821
66.410 29.867744
66.415 31.055418
66.420 31.422659
66.425 30.912081
66.430 30.442537
66.435 30.557882
66.440 30.349453
66.445 30.467628
66.450 30.106514
66.455 30.03384
66.460 30.348835
66.465 30.526482
66.470 30.803068
66.475 31.143608
66.480 30.70813
66.485 30.131395
66.490 29.858591
66.495 29.577311
66.500 28.902334
66.505 28.421228
66.510 28.351435
66.515 29.359213
66.520 28.917624
66.525 28.330704
66.530 28.260798
66.535 28.316843
66.540 28.590586
66.545 28.563105
66.550 28.7474
66.555 29.306776
66.560 29.456434
66.565 29.358852
66.570 29.037428
66.575 28.667561
66.580 28.110912
66.585 26.623781
66.590 26.264122
66.595 25.927132
66.600 25.569839
66.605 25.718542
66.610 25.775171
66.615 25.879606
66.620 25.959167
66.625 25.782017
66.630 25.954443
66.635 26.00066
66.640 25.804005
66.645 25.777315
66.650 25.456343
66.655 25.623095
66.660 25.514673
66.665 25.622583
66.670 25.948229
66.675 25.851934
66.680 25.231415
66.685 25.471136
66.690 24.699333
66.695 24.608229
66.700 24.205803
66.705 24.039549
66.710 24.313814
66.715 24.510681
66.720 24.521036
66.725 24.745216
66.730 24.769154
66.735 24.870167
66.740 25.069752
66.745 25.185686
66.750 25.453991
66.755 25.683414
66.760 25.16993
66.765 25.22728
66.770 25.215153
66.775 24.563803
66.780 24.136139
66.785 23.906548
66.790 23.540352
66.795 23.922728
66.800 23.576199
66.805 23.376848
66.810 23.227465
66.815 23.196333
66.820 23.365461
66.825 22.812944
66.830 22.713408
66.835 22.863604
66.840 23.329035
66.845 23.922871
66.850 24.02286
66.855 23.857658
66.860 23.857016
66.865 24.029161
66.870 24.104706
66.875 23.665979
66.880 23.482908
66.885 24.35845
66.890 24.136284
66.895 24.375751
66.900 24.053358
66.905 23.75581
66.910 23.398842
66.915 23.007902
66.920 22.630095
66.925 22.905474
66.930 22.204519
66.935 22.244562
66.940 22.379957
66.945 22.710222
66.950 22.344101
66.955 22.10556
66.960 22.701353
66.965 24.264177
66.970 23.791557
66.975 23.613289
66.980 24.070839
66.985 24.582483
66.990 24.478462
66.995 23.905104
67.000 23.394842
67.005 23.909592
67.010 24.053787
67.015 23.999868
67.020 23.464481
67.025 23.440598
67.030 22.844471
67.035 22.144272
67.040 21.789173
67.045 21.821909
67.050 22.110209
67.055 22.504662
67.060 22.212391
67.065 22.811449
67.070 23.328243
67.075 24.008608
67.080 23.811888
67.085 23.233545
67.090 22.456314
67.095 23.106203
67.100 23.240002
67.105 22.928747
67.110 22.468863
67.115 22.661083
67.120 22.981863
67.125 23.500713
67.130 23.328924
67.135 23.158075
67.140 22.977421
67.145 22.840223
67.150 22.718973
67.155 22.654621
67.160 22.279848
67.165 22.00913
67.170 21.838305
67.175 21.953796
67.180 21.504292
67.185 20.927595
67.190 21.153521
67.195 21.643026
67.200 22.082758
67.205 22.271421
67.210 22.685738
67.215 22.873644
67.220 23.012253
67.225 22.440407
67.230 21.443943
67.235 20.894695
67.240 20.474413
67.245 20.577873
67.250 20.650032
67.255 20.957989
67.260 21.519779
67.265 21.762295
67.270 21.953491
67.275 22.31872
67.280 22.60042
67.285 23.038025
67.290 22.781368
67.295 22.806887
67.300 23.348787
67.305 23.646559
67.310 24.047081
67.315 23.875975
67.320 23.591625
67.325 23.447605
67.330 22.616592
67.335 22.881706
67.340 22.727688
67.345 22.01442
67.350 21.7952
67.355 21.486135
67.360 21.543137
67.365 22.190201
67.370 21.585209
67.375 21.240011
67.380 21.129272
67.385 21.411753
67.390 21.535318
67.395 21.384562
67.400 21.481834
67.405 21.903193
67.410 22.045008
67.415 22.26004
67.420 21.995928
67.425 22.297209
67.430 22.501427
67.435 21.869177
67.440 21.764959
67.445 22.217779
67.450 21.846216
67.455 22.116806
67.460 22.198599
67.465 22.158899
67.470 22.100773
67.475 21.843697
67.480 21.884199
67.485 21.812286
67.490 21.567984
67.495 21.848169
67.500 22.054962
67.505 22.409803
67.510 22.515263
67.515 22.01371
67.520 21.667751
67.525 21.841726
67.530 21.764795
67.535 22.127174
67.540 21.390728
67.545 21.331968
67.550 21.228481
67.555 21.63612
67.560 21.738791
67.565 21.630201
67.570 21.245918
67.575 22.436047
67.580 23.003798
67.585 23.682613
67.590 23.432009
67.595 23.768658
67.600 23.60169
67.605 23.535063
67.610 22.553846
67.615 21.886906
67.620 21.596153
67.625 21.424574
67.630 21.340294
67.635 21.688801
67.640 22.145853
67.645 22.422585
67.650 22.72563
67.655 22.893232
67.660 22.372255
67.665 21.638508
67.670 20.810089
67.675 20.079481
67.680 19.827665
67.685 19.992342
67.690 19.241636
67.695 19.716921
67.700 19.36746
67.705 19.475683
67.710 19.62521
67.715 19.838436
67.720 19.647465
67.725 20.450346
67.730 20.11301
67.735 20.54332
67.740 21.161472
67.745 21.450047
67.750 21.014168
67.755 20.970974
67.760 20.862017
67.765 21.191217
67.770 21.259504
67.775 21.065563
67.780 21.252722
67.785 21.677509
67.790 21.628626
67.795 21.506731
67.800 22.155729
67.805 22.854494
67.810 22.38413
67.815 21.735676
67.820 21.599854
67.825 21.496668
67.830 21.320486
67.835 20.468952
67.840 19.955427
67.845 20.394255
67.850 20.834194
67.855 20.4004
67.860 20.397116
67.865 20.582954
67.870 20.799997
67.875 20.666197
67.880 20.441568
67.885 21.180889
67.890 21.365444
67.895 22.233219
67.900 22.267208
67.905 22.24021
67.910 22.080513
67.915 22.115845
67.920 22.070435
67.925 22.389011
67.930 21.807573
67.935 21.546942
67.940 21.4865
67.945 21.666931
67.950 21.861506
67.955 21.645681
67.960 21.830585
67.965 21.945221
67.970 22.318899
67.975 22.523079
67.980 22.534588
67.985 22.247952
67.990 21.695242
67.995 22.049999
68.000 21.608829
68.005 21.032751
68.010 21.331129
68.015 21.739653
68.020 22.544151
68.025 22.657516
68.030 21.971882
68.035 22.397974
68.040 22.306604
68.045 21.805349
68.050 21.189827
68.055 20.706289
68.060 20.886375
68.065 21.037945
68.070 20.744677
68.075 20.92366
68.080 20.943792
68.085 21.553047
68.090 21.58478
68.095 21.605221
68.100 22.023525
68.105 22.011681
68.110 21.679701
68.115 21.239189
68.120 20.924549
68.125 20.984735
68.130 20.957834
68.135 20.322649
68.140 20.902901
68.145 21.490229
68.150 21.888258
68.155 21.822985
68.160 22.301735
68.165 22.336113
68.170 22.765692
68.175 22.721079
68.180 22.576689
68.185 23.005688
68.190 22.828495
68.195 22.541914
68.200 22.218575
68.205 22.036186
68.210 21.420105
68.215 21.331829
68.220 21.263981
68.225 21.550789
68.230 21.284369
68.235 21.415203
68.240 21.13081
68.245 21.880167
68.250 22.137739
68.255 21.660439
68.260 21.150154
68.265 21.23814
68.270 21.833014
68.275 21.901875
68.280 21.757439
68.285 21.329283
68.290 21.105124
68.295 21.515579
68.300 20.971123
68.305 20.870626
68.310 21.311415
68.315 20.788462
68.320 20.935865
68.325 21.346018
68.330 20.967583
68.335 21.448559
68.340 21.495708
68.345 21.484543
68.350 21.966743
68.355 22.122265
68.360 21.946184
68.365 22.186888
68.370 22.069069
68.375 21.999514
68.380 21.812365
68.385 21.482227
68.390 21.342014
68.395 21.321232
68.400 21.225487
68.405 20.469828
68.410 20.773676
68.415 20.623938
68.420 20.788763
68.425 20.905918
68.430 21.012871
68.435 21.052664
68.440 21.668144
68.445 21.781336
68.450 22.485592
68.455 22.816769
68.460 22.327456
68.465 22.65877
68.470 22.640779
68.475 22.293285
68.480 21.920053
68.485 20.960337
68.490 21.261007
68.495 21.336145
68.500 20.603487
68.505 20.258808
68.510 20.387932
68.515 20.713692
68.520 20.567801
68.525 20.552849
68.530 20.600866
68.535 20.732019
68.540 21.189693
68.545 21.321997
68.550 21.099236
68.555 20.954536
68.560 20.821428
68.565 21.109911
68.570 21.488348
68.575 22.125706
68.580 22.157957
68.585 22.251427
68.590 22.272587
68.595 22.176935
68.600 22.366446
68.605 22.490961
68.610 21.476511
68.615 21.525631
68.620 21.955914
68.625 21.630583
68.630 21.933592
68.635 21.47057
68.640 21.396263
68.645 21.224913
68.650 21.069693
68.655 20.526375
68.660 20.70026
68.665 20.245602
68.670 20.128132
68.675 20.194017
68.680 20.332506
68.685 20.313974
68.690 20.197144
68.695 19.824242
68.700 19.592525
68.705 19.41873
68.710 19.09882
68.715 19.214596
68.720 19.574612
68.725 19.834087
68.730 20.866024
68.735 21.217003
68.740 21.221561
68.745 21.543354
68.750 21.593847
68.755 21.654337
68.760 21.433184
68.765 21.402393
68.770 22.126621
68.775 22.326616
68.780 21.850756
68.785 21.539061
68.790 21.454239
68.795 21.822521
68.800 21.630615
68.805 21.50609
68.810 21.685915
68.815 21.905956
68.820 22.616421
68.825 22.268206
68.830 22.109835
68.835 21.80471
68.840 21.389002
68.845 22.220911
68.850 22.451162
68.855 22.519327
68.860 23.248123
68.865 23.889572
68.870 24.347569
68.875 24.477791
68.880 23.419436
68.885 23.065355
68.890 22.662888
68.895 22.518837
68.900 22.274088
68.905 22.295416
68.910 22.904484
68.915 23.21069
68.920 23.225702
68.925 23.249912
68.930 23.398811
68.935 23.66715
68.940 23.783699
68.945 22.970682
68.950 23.020403
68.955 23.384497
68.960 23.535978
68.965 23.679741
68.970 23.235264
68.975 22.724745
68.980 22.932751
68.985 22.979757
68.990 22.943932
68.995 23.311401
69.000 22.7439
69.005 23.425413
69.010 24.212273
69.015 24.460453
69.020 24.409777
69.025 24.253231
69.030 24.017935
69.035 24.406584
69.040 25.084175
69.045 25.132614
69.050 25.02091
69.055 24.888594
69.060 24.69232
69.065 24.754318
69.070 24.664831
69.075 23.602047
69.080 23.167652
69.085 23.117531
69.090 23.8314
69.095 24.419411
69.100 24.636456
69.105 25.090918
69.110 25.611469
69.115 26.520765
69.120 26.52849
69.125 25.772015
69.130 25.399502
69.135 24.926823
69.140 25.242519
69.145 25.062403
69.150 25.105549
69.155 25.800034
69.160 25.870676
69.165 26.570225
69.170 26.575928
69.175 26.109074
69.180 25.693628
69.185 25.246492
69.190 25.15271
69.195 25.625834
69.200 25.547766
69.205 25.509123
69.210 25.145504
69.215 25.036207
69.220 24.522011
69.225 24.515491
69.230 24.662506
69.235 24.187946
69.240 24.977921
69.245 25.835638
69.250 26.528028
69.255 26.871887
69.260 26.588165
69.265 26.282745
69.270 26.512705
69.275 26.4611
69.280 27.13133
69.285 27.110493
69.290 27.476696
69.295 28.185768
69.300 28.596809
69.305 28.553793
69.310 27.861633
69.315 27.433937
69.320 27.438755
69.325 27.771154
69.330 27.953047
69.335 28.309637
69.340 28.74622
69.345 29.706472
69.350 30.399584
69.355 30.420748
69.360 30.141212
69.365 30.233486
69.370 31.062647
69.375 30.900236
69.380 30.012495
69.385 29.686749
69.390 29.811352
69.395 29.759277
69.400 28.888418
69.405 28.301014
69.410 28.610863
69.415 28.891333
69.420 29.397255
69.425 29.790409
69.430 30.361658
69.435 31.47477
69.440 31.632544
69.445 31.501873
69.450 31.058281
69.455 30.760061
69.460 30.772926
69.465 30.084127
69.470 29.304556
69.475 29.231606
69.480 29.522356
69.485 29.464594
69.490 29.247036
69.495 29.578188
69.500 29.920122
69.505 29.173687
69.510 29.230227
69.515 29.068129
69.520 28.913198
69.525 28.567842
69.530 27.862764
69.535 28.033651
69.540 28.330969
69.545 28.286402
69.550 28.635859
69.555 29.356773
69.560 29.738657
69.565 29.566092
69.570 30.21357
69.575 30.345945
69.580 30.003229
69.585 28.982702
69.590 28.446613
69.595 28.018324
69.600 27.809948
69.605 26.924896
69.610 27.460733
69.615 28.048634
69.620 28.216654
69.625 27.807526
69.630 28.153315
69.635 28.172606
69.640 29.548717
69.645 29.846394
69.650 29.722616
69.655 30.233744
69.660 30.721674
69.665 30.881397
69.670 31.143066
69.675 30.468159
69.680 29.477135
69.685 30.113079
69.690 30.515949
69.695 30.345472
69.700 30.6971
69.705 30.313667
69.710 29.748783
69.715 29.566874
69.720 29.453066
69.725 29.558691
69.730 29.177179
69.735 28.321423
69.740 28.19305
69.745 27.794159
69.750 27.001331
69.755 26.149174
69.760 26.204708
69.765 25.963449
69.770 26.100018
69.775 25.980099
69.780 26.563528
69.785 27.310383
69.790 26.950466
69.795 26.769217
69.800 27.657866
69.805 27.347279
69.810 27.300444
69.815 27.03796
69.820 26.398357
69.825 26.375618
69.830 26.089056
69.835 25.954073
69.840 25.690472
69.845 25.594265
69.850 25.949097
69.855 26.614758
69.860 26.296751
69.865 25.726215
69.870 25.524843
69.875 26.053186
69.880 26.363478
69.885 25.882477
69.890 25.210236
69.895 25.276157
69.900 25.47131
69.905 25.260042
69.910 25.09749
69.915 25.087543
69.920 25.298149
69.925 25.394531
69.930 24.787743
69.935 24.555426
69.940 24.566534
69.945 23.924578
69.950 23.247112
69.955 22.776762
69.960 22.555138
69.965 22.377522
69.970 22.044933
69.975 21.143543
69.980 20.882814
69.985 21.150635
69.990 21.323355
69.995 21.246063
70.000 21.049587
70.005 21.214067
70.010 21.668692
70.015 21.841667
70.020 21.905605
70.025 22.614538
70.030 22.673574
70.035 22.652592
70.040 22.556938
70.045 22.464214
70.050 22.585915
70.055 22.765484
70.060 22.430182
70.065 22.564636
70.070 22.820873
70.075 22.358696
70.080 22.414515
70.085 22.432062
70.090 21.750963
70.095 21.49839
70.100 21.433905
70.105 21.242886
70.110 21.103577
70.115 20.989107
70.120 20.961315
70.125 21.055054
70.130 21.360113
70.135 21.330198
70.140 21.390596
70.145 21.521505
70.150 21.283585
70.155 20.673492
70.160 21.073627
70.165 20.914581
70.170 21.25193
70.175 21.425463
70.180 21.778172
70.185 22.262098
70.190 22.388365
70.195 21.682619
70.200 21.630219
70.205 20.651258
70.210 19.995377
70.215 19.240911
70.220 19.391626
70.225 19.724215
70.230 19.505587
70.235 19.275356
70.240 19.488527
70.245 19.871029
70.250 20.577288
70.255 20.626101
70.260 20.827639
70.265 20.984072
70.270 20.928467
70.275 21.167336
70.280 21.226063
70.285 21.001625
70.290 20.466101
70.295 19.553453
70.300 20.026636
70.305 20.275585
70.310 20.122812
70.315 20.179096
70.320 19.82724
70.325 19.60877
70.330 19.57509
70.335 18.69199
70.340 18.922377
70.345 18.883352
70.350 18.597279
70.355 19.012865
70.360 20.060686
70.365 20.533846
70.370 21.171602
70.375 21.17886
70.380 21.493992
70.385 21.535637
70.390 21.660851
70.395 21.668976
70.400 21.603186
70.405 21.460745
70.410 21.000502
70.415 21.179611
70.420 20.982353
70.425 20.477299
70.430 20.236473
70.435 19.969484
70.440 19.835281
70.445 20.005999
70.450 20.158733
70.455 20.407825
70.460 20.771656
70.465 20.789204
70.470 21.207777
70.475 20.886768
70.480 20.378323
70.485 20.177982
70.490 19.915035
70.495 20.195383
70.500 20.820885
70.505 20.719263
70.510 20.925694
70.515 21.000898
70.520 21.460323
70.525 21.297773
70.530 20.488268
70.535 19.786375
70.540 19.921556
70.545 19.711689
70.550 19.604095
70.555 19.803928
70.560 19.926626
70.565 20.290293
70.570 20.348143
70.575 20.169765
70.580 20.304672
70.585 19.927633
70.590 19.538519
70.595 19.574471
70.600 19.642187
70.605 19.776016
70.610 20.286089
70.615 21.006989
70.620 21.661388
70.625 22.275486
70.630 22.312042
70.635 22.553951
70.640 22.645933
70.645 21.884214
70.650 20.774986
70.655 20.381311
70.660 19.792114
70.665 19.611469
70.670 18.797554
70.675 18.598803
70.680 19.203695
70.685 19.506227
70.690 19.586
70.695 19.029583
70.700 19.302631
70.705 19.199858
70.710 18.95853
70.715 18.608646
70.720 18.106377
70.725 18.029209
70.730 17.662712
70.735 17.429708
70.740 17.805857
70.745 17.753218
70.750 17.999529
70.755 18.221249
70.760 17.700821
70.765 18.320412
70.770 18.551882
70.775 18.488962
70.780 18.793669
70.785 18.965393
70.790 18.932878
70.795 19.443838
70.800 19.274145
70.805 18.953888
70.810 19.082426
70.815 18.720585
70.820 19.140831
70.825 19.397415
70.830 19.131809
70.835 19.164801
70.840 18.97613
70.845 18.981516
70.850 18.868025
70.855 18.565195
70.860 18.66934
70.865 18.739279
70.870 18.685183
70.875 19.033573
70.880 19.445578
70.885 19.498493
70.890 19.13792
70.895 19.1556
70.900 19.301201
70.905 19.206085
70.910 19.364784
70.915 18.976034
70.920 18.626757
70.925 18.416412
70.930 17.793758
70.935 17.765425
70.940 17.349144
70.945 17.359682
70.950 17.450354
70.955 17.622778
70.960 17.985662
70.965 18.211634
70.970 18.457409
70.975 18.710722
70.980 18.917282
70.985 19.531271
70.990 19.64595
70.995 19.879498
71.000 19.807877
71.005 19.89463
71.010 19.489168
71.015 18.809191
71.020 18.807123
71.025 18.233763
71.030 18.231056
71.035 18.692198
71.040 18.89328
71.045 19.321774
71.050 19.253485
71.055 19.71608
71.060 19.942858
71.065 19.972153
71.070 19.531839
71.075 19.34927
71.080 19.602674
71.085 18.992804
71.090 18.617271
71.095 18.761896
71.100 19.028774
71.105 19.45993
71.110 19.163609
71.115 19.121561
71.120 19.233324
71.125 18.783594
71.130 18.512712
71.135 18.407297
71.140 18.282694
71.145 18.26993
71.150 18.336897
71.155 18.450796
71.160 19.216658
71.165 20.113441
71.170 20.476528
71.175 20.370554
71.180 20.200018
71.185 20.051003
71.190 20.351658
71.195 19.943378
71.200 18.622602
71.205 18.891119
71.210 19.068544
71.215 19.417093
71.220 19.505472
71.225 18.892227
71.230 18.81229
71.235 18.212124
71.240 17.627827
71.245 17.608191
71.250 17.675882
71.255 17.58511
71.260 18.021372
71.265 18.90226
71.270 19.664057
71.275 19.706367
71.280 19.538862
71.285 19.510876
71.290 19.873884
71.295 19.709171
71.300 18.940849
71.305 18.939547
71.310 18.878616
71.315 18.867981
71.320 18.828892
71.325 18.584133
71.330 18.584042
71.335 19.033201
71.340 19.032156
71.345 18.894915
71.350 18.478533
71.355 18.729757
71.360 18.937428
71.365 18.3074
71.370 17.966639
71.375 18.269857
71.380 18.53738
71.385 18.471369
71.390 17.976553
71.395 18.531412
71.400 18.992771
71.405 18.999079
71.410 18.656778
71.415 19.398684
71.420 19.58276
71.425 19.486635
71.430 18.770947
71.435 18.573963
71.440 17.887186
71.445 18.446966
71.450 18.101364
71.455 18.224407
71.460 18.536968
71.465 19.062737
71.470 19.626333
71.475 19.985434
71.480 19.51512
71.485 19.236876
71.490 19.029675
71.495 18.980799
71.500 18.851946
71.505 18.547136
71.510 18.498743
71.515 18.400192
71.520 18.988293
71.525 19.593832
71.530 19.576447
71.535 19.525633
71.540 19.700136
71.545 19.384544
71.550 19.582394
71.555 19.745232
71.560 19.362099
71.565 18.997726
71.570 18.569994
71.575 18.627434
71.580 18.701317
71.585 18.494633
71.590 18.360279
71.595 18.774107
71.600 19.060097
71.605 19.300377
71.610 19.735458
71.615 19.871586
71.620 19.57136
71.625 19.061058
71.630 18.812859
71.635 19.090982
71.640 19.133589
71.645 18.577103
71.650 18.40519
71.655 18.637175
71.660 19.038633
71.665 18.875944
71.670 19.08905
71.675 19.614515
71.680 19.493721
71.685 19.721481
71.690 20.198071
71.695 20.015596
71.700 20.483063
71.705 19.456936
71.710 18.81918
71.715 18.999945
71.720 19.076172
71.725 18.610968
71.730 19.205572
71.735 19.207945
71.740 19.655521
71.745 20.082907
71.750 20.276735
71.755 20.289124
71.760 20.311523
71.765 19.837286
71.770 19.784651
71.775 20.040384
71.780 19.819193
71.785 19.049271
71.790 18.158142
71.795 17.832678
71.800 17.702654
71.805 17.191477
71.810 17.292774
71.815 17.317448
71.820 18.035675
71.825 18.238855
71.830 18.290432
71.835 18.866167
71.840 19.125738
71.845 19.359507
71.850 19.608158
71.855 19.837847
71.860 20.092588
71.865 20.056948
71.870 19.909214
71.875 20.027981
71.880 20.204849
71.885 19.88394
71.890 19.535944
71.895 19.183586
71.900 19.361128
71.905 19.558313
71.910 19.439396
71.915 19.315868
71.920 19.164415
71.925 19.569004
71.930 19.553329
71.935 19.703688
71.940 19.561529
71.945 18.817801
71.950 18.228991
71.955 18.361156
71.960 18.36721
71.965 18.385126
71.970 17.545362
71.975 17.587831
71.980 18.562799
71.985 18.702864
71.990 18.383713
71.995 18.065575
72.000 18.562119
72.005 18.734488
72.010 18.577778
72.015 18.760509
72.020 19.614326
72.025 20.324715
72.030 20.605318
72.035 19.782864
72.040 20.245628
72.045 20.245876
72.050 19.464891
72.055 19.264256
72.060 18.635008
72.065 18.479597
72.070 19.045942
72.075 18.853975
72.080 19.195169
72.085 19.472902
72.090 19.100201
72.095 19.119328
72.100 19.314281
72.105 18.594221
72.110 18.107485
72.115 18.057198
72.120 18.33075
72.125 18.350243
72.130 18.252609
72.135 18.238548
72.140 18.603306
72.145 18.61047
72.150 18.472277
72.155 18.078348
72.160 18.191521
72.165 18.280941
72.170 18.170118
72.175 18.641304
72.180 19.03257
72.185 18.941584
72.190 19.790783
72.195 20.296803
72.200 20.206993
72.205 20.367823
72.210 19.754036
72.215 19.068981
72.220 18.725481
72.225 17.429379
72.230 17.102369
72.235 17.235008
72.240 17.529198
72.245 17.807974
72.250 18.116348
72.255 18.188231
72.260 18.812449
72.265 19.582998
72.270 19.738522
72.275 19.692671
72.280 19.365345
72.285 19.812925
72.290 20.144764
72.295 20.53548
72.300 20.332747
72.305 19.416401
72.310 19.879614
72.315 19.910088
72.320 19.348772
72.325 18.886478
72.330 18.0331
72.335 17.912821
72.340 18.306774
72.345 17.726767
72.350 17.308289
72.355 17.449688
72.360 17.32781
72.365 17.728355
72.370 18.125256
72.375 18.174585
72.380 19.208258
72.385 20.00654
72.390 20.213049
72.395 20.462509
72.400 20.227715
72.405 20.187078
72.410 20.343496
72.415 20.456779
72.420 20.475971
72.425 20.359743
72.430 20.326773
72.435 19.99087
72.440 19.921501
72.445 19.346617
72.450 18.814152
72.455 18.956081
72.460 18.677643
72.465 18.978661
72.470 19.296331
72.475 19.036077
72.480 19.012939
72.485 18.825634
72.490 18.597694
72.495 18.402765
72.500 18.001614
72.505 17.788507
72.510 17.866058
72.515 18.07206
72.520 17.578203
72.525 17.391281
72.530 17.603785
72.535 17.975494
72.540 18.871225
72.545 18.76989
72.550 18.780317
72.555 19.573837
72.560 20.157808
72.565 19.956238
72.570 18.460278
72.575 17.970591
72.580 18.253481
72.585 18.408924
72.590 17.994003
72.595 17.594772
72.600 18.116013
72.605 18.535446
72.610 18.037119
72.615 17.648031
72.620 18.181499
72.625 18.847828
72.630 19.073847
72.635 19.645849
72.640 20.445845
72.645 20.567366
72.650 19.875149
72.655 18.984989
72.660 18.400574
72.665 18.182915
72.670 17.468201
72.675 16.776501
72.680 16.721233
72.685 17.499012
72.690 18.172211
72.695 18.201105
72.700 18.549553
72.705 18.546736
72.710 18.596638
72.715 18.44627
72.720 17.597502
72.725 17.583828
72.730 17.672836
72.735 17.050274
72.740 17.396307
72.745 17.495913
72.750 17.487608
72.755 18.081127
72.760 18.386568
72.765 18.353292
72.770 18.44101
72.775 18.846298
72.780 19.135952
72.785 19.139606
72.790 18.499941
72.795 17.906136
72.800 18.036026
72.805 18.102293
72.810 17.449276
72.815 17.027563
72.820 16.839062
72.825 17.07177
72.830 16.960688
72.835 17.202137
72.840 17.099852
72.845 17.078764
72.850 16.918686
72.855 16.958473
72.860 17.078779
72.865 17.015903
72.870 16.783657
72.875 17.0284
72.880 17.472721
72.885 17.553728
72.890 16.908203
72.895 16.421988
72.900 15.811845
72.905 15.523892
72.910 15.361217
72.915 15.143258
72.920 15.490508
72.925 16.396715
72.930 16.532246
72.935 16.660017
72.940 16.89327
72.945 17.311182
72.950 17.307627
72.955 16.956049
72.960 16.660927
72.965 16.886015
72.970 17.200306
72.975 17.281683
72.980 17.50363
72.985 17.751127
72.990 17.943064
72.995 17.59963
73.000 17.561165
