!@!!GADDS PLOTSO FILE: Chi integration type
!@!!Title/SampleName: map-13a
!@!!Comment: ?
!@!!User: Bruker Instrument Administrator
!@!!Site: University of Illinois Chicago
!@!!Frame: map-13a_01_000.gfrm
!@!!Wavelengths    1.54184   1.54056   1.54439
!@!!Frame angles: 2Theta: 63.000 Omega: 50.000 Phi: 0.000 Chi: 90.000
!@!!Integration range: 2Theta: 53.000 to 73.000  Gamma: -105.000 to -75.000
!@!!Integration method: bin normalized
!@!N
!@!SS
!@!M
!@!L 0.0 0.0 0.0 0.0
!@!XDegrees
!@!YCounts
53.000 6.811726
53.005 6.787327
53.010 6.61928
53.015 6.262335
53.020 6.218781
53.025 6.018023
53.030 5.802619
53.035 6.027635
53.040 5.795075
53.045 6.049721
53.050 6.402472
53.055 6.470167
53.060 6.815508
53.065 7.003539
53.070 6.997619
53.075 7.662182
53.080 7.82337
53.085 8.301086
53.090 8.430567
53.095 8.675103
53.100 8.873675
53.105 9.05252
53.110 8.542765
53.115 7.939663
53.120 7.501801
53.125 7.389057
53.130 7.298788
53.135 7.161764
53.140 7.625907
53.145 8.016466
53.150 8.4501
53.155 8.841657
53.160 8.790797
53.165 8.875618
53.170 8.773935
53.175 8.140341
53.180 7.966954
53.185 7.578156
53.190 7.464353
53.195 7.13188
53.200 7.009252
53.205 6.86879
53.210 6.736975
53.215 7.004745
53.220 7.061952
53.225 7.27965
53.230 7.737214
53.235 7.559801
53.240 7.608676
53.245 7.626795
53.250 7.298101
53.255 6.780263
53.260 6.487967
53.265 6.317793
53.270 6.512373
53.275 6.764681
53.280 6.666802
53.285 6.667564
53.290 6.905653
53.295 7.30916
53.300 7.556719
53.305 7.76703
53.310 8.155591
53.315 8.270753
53.320 8.405395
53.325 8.360344
53.330 8.237789
53.335 7.981532
53.340 7.664231
53.345 7.297891
53.350 7.595701
53.355 7.458572
53.360 7.539208
53.365 7.416858
53.370 7.639522
53.375 8.036479
53.380 8.599914
53.385 9.02198
53.390 9.307641
53.395 9.469522
53.400 9.832684
53.405 9.676907
53.410 9.241551
53.415 8.80205
53.420 8.653889
53.425 8.633734
53.430 8.567826
53.435 8.364774
53.440 8.651812
53.445 8.5837
53.450 8.59528
53.455 8.748047
53.460 8.598328
53.465 8.275932
53.470 8.459781
53.475 8.578506
53.480 8.760069
53.485 8.755836
53.490 8.72665
53.495 8.564177
53.500 8.719291
53.505 8.776712
53.510 9.06451
53.515 9.153733
53.520 8.858696
53.525 8.849175
53.530 9.096713
53.535 8.889623
53.540 8.945293
53.545 8.552235
53.550 8.373899
53.555 8.519477
53.560 8.383472
53.565 8.488972
53.570 8.68031
53.575 8.636672
53.580 9.256293
53.585 9.36184
53.590 9.413308
53.595 9.690522
53.600 9.799994
53.605 9.704354
53.610 9.967995
53.615 10.084341
53.620 9.847631
53.625 9.564706
53.630 9.151999
53.635 8.967482
53.640 8.664668
53.645 8.598969
53.650 8.351354
53.655 8.458968
53.660 8.097437
53.665 7.88344
53.670 7.949738
53.675 7.545951
53.680 7.085013
53.685 7.283422
53.690 7.854923
53.695 8.521475
53.700 8.646283
53.705 8.433688
53.710 8.881455
53.715 9.232918
53.720 8.765998
53.725 7.980913
53.730 8.052944
53.735 8.426833
53.740 8.891317
53.745 8.42671
53.750 8.505367
53.755 9.311277
53.760 9.95803
53.765 10.274219
53.770 10.185981
53.775 9.942932
53.780 10.268776
53.785 10.166735
53.790 9.924061
53.795 9.814879
53.800 9.45717
53.805 9.39586
53.810 9.304228
53.815 9.481921
53.820 9.474428
53.825 9.545633
53.830 10.110478
53.835 10.641348
53.840 10.447638
53.845 10.469354
53.850 10.259799
53.855 10.231486
53.860 10.469219
53.865 10.185941
53.870 9.962927
53.875 9.725121
53.880 9.342513
53.885 9.104141
53.890 8.881256
53.895 8.28722
53.900 8.073965
53.905 8.586452
53.910 9.365243
53.915 9.750447
53.920 9.924483
53.925 9.914691
53.930 9.919853
53.935 9.451118
53.940 8.863723
53.945 8.463326
53.950 8.313482
53.955 8.353493
53.960 8.457215
53.965 8.434095
53.970 8.608273
53.975 8.949284
53.980 8.684798
53.985 8.730865
53.990 8.740421
53.995 8.393063
54.000 8.491356
54.005 8.400195
54.010 8.508459
54.015 8.618339
54.020 8.988001
54.025 9.084997
54.030 9.416926
54.035 9.737079
54.040 9.740212
54.045 9.357021
54.050 9.434788
54.055 9.363119
54.060 9.448584
54.065 9.014319
54.070 8.545756
54.075 8.414971
54.080 8.819359
54.085 8.847944
54.090 8.851674
54.095 9.189675
54.100 9.363945
54.105 9.732164
54.110 9.805172
54.115 9.717189
54.120 9.854053
54.125 9.760904
54.130 9.314578
54.135 8.928569
54.140 8.885216
54.145 8.562846
54.150 8.248287
54.155 7.967511
54.160 8.00408
54.165 8.826055
54.170 9.018613
54.175 9.118838
54.180 9.776226
54.185 9.818157
54.190 9.407962
54.195 9.28484
54.200 8.781406
54.205 8.867726
54.210 9.115897
54.215 9.29366
54.220 9.414125
54.225 10.284708
54.230 10.475066
54.235 10.656031
54.240 10.823056
54.245 10.321631
54.250 9.891186
54.255 9.589695
54.260 9.323874
54.265 9.234997
54.270 9.004627
54.275 9.49244
54.280 9.809525
54.285 10.283504
54.290 10.202265
54.295 9.379972
54.300 9.318605
54.305 9.169629
54.310 8.160245
54.315 7.80172
54.320 7.692973
54.325 7.938809
54.330 8.194212
54.335 7.934381
54.340 8.192089
54.345 8.465472
54.350 8.534254
54.355 8.572481
54.360 8.921903
54.365 9.147885
54.370 9.315115
54.375 9.184977
54.380 9.054346
54.385 9.181916
54.390 8.968049
54.395 8.837193
54.400 8.968748
54.405 9.302888
54.410 9.910204
54.415 10.112663
54.420 10.42697
54.425 10.682317
54.430 10.964639
54.435 10.916682
54.440 10.898596
54.445 10.648561
54.450 10.437243
54.455 10.236337
54.460 10.116406
54.465 9.786996
54.470 9.558352
54.475 9.250449
54.480 9.159548
54.485 9.25301
54.490 8.813224
54.495 8.453446
54.500 8.811064
54.505 8.976635
54.510 9.110302
54.515 9.01143
54.520 8.954705
54.525 9.133305
54.530 9.433798
54.535 9.257201
54.540 9.221305
54.545 9.648491
54.550 10.134428
54.555 10.111477
54.560 10.038633
54.565 9.629455
54.570 9.387596
54.575 8.998356
54.580 8.7577
54.585 8.518446
54.590 8.670411
54.595 9.210438
54.600 9.45437
54.605 9.563045
54.610 9.9821
54.615 10.090753
54.620 10.312885
54.625 10.608032
54.630 10.039392
54.635 9.763258
54.640 9.539832
54.645 9.070181
54.650 8.829389
54.655 8.514797
54.660 8.643596
54.665 8.970104
54.670 9.196255
54.675 9.00456
54.680 9.316453
54.685 9.166514
54.690 9.191376
54.695 9.373314
54.700 9.672142
54.705 9.762053
54.710 10.098377
54.715 10.027528
54.720 9.92159
54.725 9.514654
54.730 9.094366
54.735 9.005163
54.740 9.2397
54.745 9.325811
54.750 9.515074
54.755 9.907253
54.760 10.228391
54.765 10.014808
54.770 9.841595
54.775 9.608109
54.780 9.738137
54.785 9.523208
54.790 9.421216
54.795 9.413531
54.800 10.084776
54.805 10.203979
54.810 10.462022
54.815 10.334187
54.820 10.610996
54.825 10.599734
54.830 10.371693
54.835 9.91807
54.840 9.655134
54.845 10.230073
54.850 10.369762
54.855 10.745402
54.860 10.78552
54.865 10.905154
54.870 11.134394
54.875 11.004184
54.880 10.427093
54.885 10.34543
54.890 10.171907
54.895 10.095356
54.900 9.955109
54.905 9.62924
54.910 9.79802
54.915 9.998576
54.920 10.000773
54.925 9.940148
54.930 10.201385
54.935 10.543785
54.940 10.627913
54.945 10.223639
54.950 9.845701
54.955 9.752182
54.960 9.471088
54.965 9.193498
54.970 9.109697
54.975 9.603042
54.980 9.548758
54.985 9.338833
54.990 9.375313
54.995 9.670543
55.000 9.693565
55.005 9.268321
55.010 8.925838
55.015 9.216393
55.020 9.637286
55.025 9.549535
55.030 9.398266
55.035 9.293048
55.040 9.858766
55.045 10.069832
55.050 10.130246
55.055 9.785566
55.060 9.723584
55.065 9.754668
55.070 9.686678
55.075 9.661282
55.080 9.49414
55.085 9.359104
55.090 9.749817
55.095 9.540868
55.100 9.632757
55.105 9.484854
55.110 9.270363
55.115 9.350992
55.120 9.067126
55.125 9.35189
55.130 10.182758
55.135 10.590657
55.140 10.584394
55.145 10.601787
55.150 10.62256
55.155 10.616166
55.160 10.199194
55.165 9.729237
55.170 10.227733
55.175 10.820192
55.180 11.0194
55.185 11.440356
55.190 11.511828
55.195 11.18665
55.200 10.949175
55.205 9.967098
55.210 9.490768
55.215 9.379447
55.220 9.105054
55.225 9.612678
55.230 10.026605
55.235 10.197765
55.240 10.506333
55.245 10.523767
55.250 10.615314
55.255 10.498525
55.260 10.161347
55.265 10.282494
55.270 10.36327
55.275 10.057847
55.280 9.996604
55.285 9.85148
55.290 9.751806
55.295 9.674119
55.300 9.683079
55.305 9.227683
55.310 9.331419
55.315 9.257044
55.320 9.301189
55.325 10.049313
55.330 9.708178
55.335 9.674898
55.340 10.234674
55.345 10.331419
55.350 10.643259
55.355 10.778945
55.360 10.457805
55.365 10.262273
55.370 10.006714
55.375 10.2568
55.380 10.313014
55.385 10.271893
55.390 10.156146
55.395 10.091567
55.400 10.368046
55.405 10.242464
55.410 10.135129
55.415 10.336521
55.420 10.440319
55.425 10.714209
55.430 11.090145
55.435 11.326392
55.440 11.412359
55.445 11.205213
55.450 11.223871
55.455 11.060499
55.460 10.573134
55.465 10.706946
55.470 11.123038
55.475 11.29703
55.480 11.498168
55.485 11.398731
55.490 11.544355
55.495 11.759299
55.500 11.267682
55.505 11.290143
55.510 11.473072
55.515 11.449988
55.520 11.290759
55.525 11.168806
55.530 11.086937
55.535 10.825904
55.540 10.816116
55.545 10.470242
55.550 10.430193
55.555 10.350984
55.560 10.156609
55.565 9.598533
55.570 9.529714
55.575 9.153498
55.580 9.010484
55.585 9.229788
55.590 9.475636
55.595 9.73759
55.600 10.584371
55.605 10.439062
55.610 10.515117
55.615 10.772405
55.620 10.882154
55.625 11.032543
55.630 11.018764
55.635 11.042978
55.640 11.372479
55.645 11.429231
55.650 11.048255
55.655 11.069424
55.660 10.547514
55.665 10.117298
55.670 9.733001
55.675 10.067398
55.680 10.134621
55.685 9.978408
55.690 10.04489
55.695 10.414137
55.700 10.89634
55.705 10.952877
55.710 10.632521
55.715 10.741299
55.720 10.64618
55.725 10.467422
55.730 10.403526
55.735 10.177526
55.740 9.86512
55.745 9.53711
55.750 9.967326
55.755 10.165092
55.760 10.381908
55.765 10.501463
55.770 10.880744
55.775 11.532773
55.780 11.433549
55.785 11.008491
55.790 10.827787
55.795 10.502182
55.800 10.408845
55.805 10.124912
55.810 9.776451
55.815 10.02501
55.820 9.821074
55.825 10.0575
55.830 10.656739
55.835 11.015225
55.840 11.424958
55.845 11.602117
55.850 11.930223
55.855 11.910893
55.860 12.037917
55.865 11.399002
55.870 11.201024
55.875 11.212584
55.880 11.233307
55.885 11.480795
55.890 11.670377
55.895 11.562238
55.900 11.667915
55.905 11.373858
55.910 10.989761
55.915 10.52137
55.920 10.145807
55.925 10.002326
55.930 9.930357
55.935 10.195734
55.940 10.429324
55.945 11.302246
55.950 11.625923
55.955 11.781206
55.960 11.924651
55.965 12.013224
55.970 11.919292
55.975 11.691042
55.980 11.864351
55.985 12.141185
55.990 12.141496
55.995 11.93663
56.000 12.117405
56.005 12.162297
56.010 12.377846
56.015 11.862603
56.020 11.397883
56.025 11.355792
56.030 11.185492
56.035 11.236535
56.040 10.517753
56.045 9.867818
56.050 9.597987
56.055 10.003873
56.060 10.1578
56.065 10.201107
56.070 10.225547
56.075 11.022909
56.080 11.303053
56.085 11.458792
56.090 11.092785
56.095 11.046745
56.100 10.891012
56.105 10.748032
56.110 10.346089
56.115 10.510048
56.120 10.495057
56.125 10.247781
56.130 10.14713
56.135 10.492599
56.140 10.350291
56.145 10.106812
56.150 9.93658
56.155 10.393002
56.160 10.855159
56.165 10.943483
56.170 11.321224
56.175 11.427137
56.180 11.484226
56.185 10.92923
56.190 10.564847
56.195 10.549336
56.200 9.974527
56.205 9.452806
56.210 9.160224
56.215 9.514522
56.220 9.977615
56.225 10.125279
56.230 10.203542
56.235 10.63586
56.240 11.460004
56.245 12.180758
56.250 12.129985
56.255 12.108692
56.260 11.824515
56.265 11.952176
56.270 11.85599
56.275 11.342931
56.280 11.393759
56.285 11.670917
56.290 12.076468
56.295 12.10653
56.300 11.778697
56.305 11.805587
56.310 12.090555
56.315 11.559524
56.320 11.025486
56.325 10.919146
56.330 11.177884
56.335 11.07486
56.340 10.845372
56.345 10.823783
56.350 10.946141
56.355 11.584887
56.360 11.962897
56.365 12.404818
56.370 12.731319
56.375 12.820102
56.380 12.923472
56.385 13.085683
56.390 12.889044
56.395 11.936793
56.400 11.593569
56.405 11.613935
56.410 11.371557
56.415 11.067574
56.420 11.059714
56.425 10.991254
56.430 11.473957
56.435 11.603024
56.440 11.969662
56.445 11.817128
56.450 11.529645
56.455 11.307163
56.460 10.966761
56.465 10.248309
56.470 9.670241
56.475 9.627156
56.480 10.117958
56.485 10.634854
56.490 11.094185
56.495 11.417802
56.500 12.114398
56.505 12.382844
56.510 12.001402
56.515 12.052155
56.520 12.346646
56.525 12.299216
56.530 12.447664
56.535 12.222787
56.540 12.753397
56.545 12.72302
56.550 12.253978
56.555 11.890487
56.560 12.280196
56.565 12.755569
56.570 12.974932
56.575 12.505966
56.580 13.112562
56.585 13.830833
56.590 13.89785
56.595 13.382047
56.600 12.865924
56.605 12.945994
56.610 12.924251
56.615 12.413543
56.620 12.179765
56.625 11.97586
56.630 12.062616
56.635 11.699966
56.640 11.325192
56.645 11.132249
56.650 11.342532
56.655 11.527639
56.660 11.537453
56.665 11.30564
56.670 11.705518
56.675 12.262815
56.680 12.47771
56.685 12.243096
56.690 12.065289
56.695 12.569568
56.700 13.601045
56.705 13.344767
56.710 13.453607
56.715 13.449748
56.720 13.558639
56.725 13.782919
56.730 13.570182
56.735 13.49683
56.740 13.42293
56.745 13.0954
56.750 13.060916
56.755 12.996111
56.760 12.695889
56.765 12.680812
56.770 12.348989
56.775 12.581505
56.780 12.556424
56.785 12.920495
56.790 12.944342
56.795 12.921023
56.800 12.754098
56.805 12.837758
56.810 12.717752
56.815 12.646502
56.820 12.084484
56.825 11.893009
56.830 11.691821
56.835 11.759274
56.840 11.621965
56.845 11.696329
56.850 12.099889
56.855 12.376586
56.860 12.706473
56.865 13.212885
56.870 13.636039
56.875 14.080173
56.880 14.275233
56.885 14.683349
56.890 14.714302
56.895 14.669991
56.900 13.797745
56.905 12.897577
56.910 12.045407
56.915 11.518327
56.920 10.954859
56.925 10.921073
56.930 10.994738
56.935 11.355906
56.940 11.501953
56.945 11.593308
56.950 11.828196
56.955 12.04956
56.960 11.846233
56.965 11.619474
56.970 11.521587
56.975 12.001438
56.980 12.491206
56.985 12.203773
56.990 12.508777
56.995 13.06962
57.000 13.084287
57.005 13.499002
57.010 13.33355
57.015 13.741101
57.020 14.062669
57.025 13.628503
57.030 13.046409
57.035 13.251315
57.040 13.142715
57.045 13.100614
57.050 13.341614
57.055 13.371798
57.060 13.187774
57.065 13.180004
57.070 12.814682
57.075 13.217099
57.080 12.971148
57.085 11.998702
57.090 12.308743
57.095 12.485501
57.100 13.085943
57.105 12.933218
57.110 12.251741
57.115 12.428288
57.120 12.528901
57.125 12.166216
57.130 11.96032
57.135 11.328169
57.140 11.69173
57.145 11.732707
57.150 11.992922
57.155 12.37593
57.160 12.470394
57.165 12.83918
57.170 13.594096
57.175 13.843774
57.180 13.820059
57.185 13.621434
57.190 13.525384
57.195 13.789167
57.200 13.85098
57.205 13.505648
57.210 12.995097
57.215 13.363684
57.220 13.089078
57.225 12.68617
57.230 12.515422
57.235 12.355711
57.240 12.712759
57.245 13.028649
57.250 12.991882
57.255 13.266932
57.260 13.505296
57.265 13.76994
57.270 13.391471
57.275 12.850723
57.280 13.266587
57.285 12.956603
57.290 12.799708
57.295 12.577961
57.300 12.259898
57.305 12.502787
57.310 12.421921
57.315 11.887883
57.320 12.30927
57.325 12.355657
57.330 12.099217
57.335 12.042451
57.340 12.048512
57.345 11.874322
57.350 11.587745
57.355 11.330506
57.360 11.183041
57.365 11.296653
57.370 11.337174
57.375 11.551709
57.380 11.985199
57.385 12.517758
57.390 12.45941
57.395 12.774814
57.400 13.165048
57.405 12.798039
57.410 13.118103
57.415 13.379001
57.420 13.103923
57.425 13.031268
57.430 12.845673
57.435 12.605299
57.440 13.194435
57.445 13.258744
57.450 13.475283
57.455 13.972012
57.460 13.95183
57.465 14.171162
57.470 14.448904
57.475 14.157152
57.480 14.001089
57.485 13.154291
57.490 13.441188
57.495 13.911111
57.500 14.137547
57.505 13.727861
57.510 13.310771
57.515 13.302258
57.520 13.518009
57.525 12.882397
57.530 12.640247
57.535 12.493705
57.540 12.614263
57.545 13.140549
57.550 13.126222
57.555 13.183836
57.560 13.267056
57.565 13.88047
57.570 13.935563
57.575 13.650177
57.580 13.601561
57.585 13.774994
57.590 14.025569
57.595 14.334521
57.600 14.164747
57.605 14.488888
57.610 15.001494
57.615 15.290572
57.620 15.167993
57.625 14.929912
57.630 14.699052
57.635 14.284153
57.640 14.296722
57.645 14.104064
57.650 13.729957
57.655 14.127996
57.660 14.251843
57.665 13.848534
57.670 13.71944
57.675 13.422661
57.680 13.669358
57.685 13.593632
57.690 13.378574
57.695 14.259936
57.700 14.425192
57.705 14.274388
57.710 14.117911
57.715 14.005888
57.720 14.06879
57.725 13.690392
57.730 12.760314
57.735 12.965425
57.740 13.30846
57.745 13.860526
57.750 14.08989
57.755 13.885663
57.760 13.996174
57.765 14.282383
57.770 14.340833
57.775 14.561385
57.780 14.752091
57.785 14.411911
57.790 14.710811
57.795 14.702425
57.800 14.306936
57.805 14.61552
57.810 14.713971
57.815 14.228106
57.820 14.258996
57.825 14.322828
57.830 14.821297
57.835 15.367547
57.840 15.100698
57.845 14.362067
57.850 14.072277
57.855 13.689793
57.860 13.706965
57.865 13.716266
57.870 14.269881
57.875 14.450125
57.880 15.219584
57.885 16.234417
57.890 16.925766
57.895 16.623367
57.900 16.332838
57.905 15.492661
57.910 15.19955
57.915 15.168571
57.920 14.741305
57.925 14.511285
57.930 14.713769
57.935 15.34832
57.940 15.561096
57.945 15.625381
57.950 15.496804
57.955 15.491618
57.960 15.398925
57.965 15.494013
57.970 14.912825
57.975 15.413404
57.980 15.800925
57.985 15.720349
57.990 16.301743
57.995 16.245417
58.000 15.350276
58.005 15.172006
58.010 14.845164
58.015 14.660254
58.020 14.412537
58.025 13.885407
58.030 14.157097
58.035 14.83666
58.040 15.260839
58.045 14.91678
58.050 14.826397
58.055 15.297236
58.060 15.720308
58.065 15.513935
58.070 15.37243
58.075 15.01471
58.080 14.84905
58.085 14.416825
58.090 13.591532
58.095 13.24979
58.100 13.725371
58.105 14.405763
58.110 14.710402
58.115 14.915577
58.120 15.727814
58.125 16.197845
58.130 16.288042
58.135 16.052532
58.140 15.471024
58.145 15.608865
58.150 15.809036
58.155 15.385112
58.160 14.990287
58.165 14.95338
58.170 15.320846
58.175 15.729207
58.180 15.961966
58.185 15.351583
58.190 15.648565
58.195 16.102482
58.200 15.810714
58.205 15.69656
58.210 16.131378
58.215 15.874816
58.220 16.016424
58.225 15.966779
58.230 16.42247
58.235 16.853987
58.240 16.683386
58.245 15.728283
58.250 15.737468
58.255 16.058374
58.260 16.046787
58.265 15.849277
58.270 15.577968
58.275 15.124908
58.280 15.748672
58.285 16.66346
58.290 16.75215
58.295 16.860769
58.300 17.154816
58.305 17.347599
58.310 18.050591
58.315 18.689899
58.320 19.403339
58.325 19.903791
58.330 20.275742
58.335 20.592463
58.340 21.143055
58.345 21.103849
58.350 20.481981
58.355 20.09404
58.360 20.840151
58.365 20.908581
58.370 20.464235
58.375 20.911833
58.380 21.126799
58.385 21.174088
58.390 20.516188
58.395 19.692753
58.400 19.897085
58.405 20.252743
58.410 20.078907
58.415 20.199034
58.420 20.691057
58.425 21.024784
58.430 21.515635
58.435 21.11762
58.440 21.282055
58.445 21.394775
58.450 21.938675
58.455 22.524584
58.460 22.816319
58.465 23.069521
58.470 23.957743
58.475 24.250494
58.480 24.617996
58.485 24.754059
58.490 24.885855
58.495 25.400757
58.500 25.135277
58.505 25.02212
58.510 25.895605
58.515 26.083487
58.520 26.204369
58.525 26.664612
58.530 27.43075
58.535 28.287054
58.540 28.070038
58.545 27.712881
58.550 28.011282
58.555 28.032364
58.560 28.834053
58.565 29.112648
58.570 29.519392
58.575 30.167688
58.580 29.850338
58.585 30.133623
58.590 30.94523
58.595 30.534279
58.600 30.098909
58.605 29.404747
58.610 29.023382
58.615 29.407494
58.620 29.73316
58.625 29.726824
58.630 30.142162
58.635 30.183872
58.640 30.405111
58.645 30.774506
58.650 30.263102
58.655 29.697083
58.660 29.734777
58.665 29.647657
58.670 29.593203
58.675 30.077902
58.680 30.119829
58.685 30.310469
58.690 30.899099
58.695 30.50139
58.700 30.393618
58.705 30.354177
58.710 30.30242
58.715 30.185211
58.720 29.8517
58.725 29.027611
58.730 29.25421
58.735 29.337772
58.740 29.461569
58.745 29.074314
58.750 29.218849
58.755 29.230728
58.760 29.113188
58.765 28.019417
58.770 27.451012
58.775 27.037632
58.780 26.411821
58.785 25.434385
58.790 25.284245
58.795 24.744749
58.800 24.647057
58.805 24.346544
58.810 23.700918
58.815 23.445368
58.820 23.512342
58.825 23.24995
58.830 22.822735
58.835 22.138544
58.840 21.90523
58.845 21.84409
58.850 21.738791
58.855 21.802284
58.860 21.683714
58.865 22.326324
58.870 21.597729
58.875 21.260521
58.880 21.705124
58.885 21.758469
58.890 21.429258
58.895 21.200922
58.900 21.33322
58.905 21.618311
58.910 21.496027
58.915 21.476038
58.920 20.899593
58.925 20.977097
58.930 20.654133
58.935 19.650438
58.940 19.410843
58.945 19.004881
58.950 18.014063
58.955 17.583494
58.960 16.745787
58.965 16.481052
58.970 16.58452
58.975 16.680466
58.980 16.892679
58.985 17.008053
58.990 16.482052
58.995 16.69943
59.000 16.401827
59.005 16.23819
59.010 16.43306
59.015 15.991016
59.020 16.071159
59.025 16.371334
59.030 16.746216
59.035 17.61661
59.040 17.868071
59.045 17.630764
59.050 17.355648
59.055 17.868492
59.060 17.912664
59.065 17.092794
59.070 16.943827
59.075 16.646032
59.080 16.525873
59.085 16.641577
59.090 16.459389
59.095 16.632677
59.100 17.098526
59.105 16.499876
59.110 15.910593
59.115 15.616839
59.120 15.360729
59.125 14.624579
59.130 15.063353
59.135 15.087512
59.140 15.322927
59.145 16.251472
59.150 16.256001
59.155 16.536711
59.160 16.813429
59.165 16.503185
59.170 16.399954
59.175 16.343546
59.180 15.864408
59.185 15.472315
59.190 15.067508
59.195 14.995889
59.200 14.923604
59.205 14.822201
59.210 14.796433
59.215 14.437104
59.220 15.08482
59.225 15.422186
59.230 15.346816
59.235 15.222659
59.240 14.737193
59.245 14.779111
59.250 14.86411
59.255 14.10984
59.260 13.760578
59.265 13.802684
59.270 13.633502
59.275 13.900569
59.280 14.217063
59.285 14.307918
59.290 14.588037
59.295 14.753714
59.300 14.743005
59.305 14.825085
59.310 14.615381
59.315 14.012774
59.320 14.373937
59.325 14.294423
59.330 13.841953
59.335 13.710361
59.340 13.409045
59.345 13.217936
59.350 13.286041
59.355 13.383987
59.360 14.011651
59.365 14.16995
59.370 13.955705
59.375 14.068635
59.380 14.287999
59.385 14.672008
59.390 14.845793
59.395 14.813453
59.400 15.500452
59.405 16.122866
59.410 16.349066
59.415 16.368361
59.420 16.275852
59.425 15.799044
59.430 15.606673
59.435 14.969215
59.440 14.849466
59.445 15.459212
59.450 15.426156
59.455 15.786882
59.460 15.864845
59.465 15.500288
59.470 15.479023
59.475 15.306275
59.480 14.564579
59.485 15.005509
59.490 15.030317
59.495 15.396289
59.500 16.291698
59.505 16.457975
59.510 16.678083
59.515 17.00325
59.520 16.813246
59.525 16.54015
59.530 15.906821
59.535 15.267733
59.540 15.007006
59.545 14.958229
59.550 14.652167
59.555 14.502819
59.560 14.750533
59.565 15.109739
59.570 15.020843
59.575 15.344234
59.580 15.283551
59.585 15.328481
59.590 14.967107
59.595 14.426654
59.600 13.679478
59.605 13.916288
59.610 13.756019
59.615 13.994795
59.620 13.870122
59.625 14.099663
59.630 14.121428
59.635 14.430882
59.640 14.321044
59.645 14.239838
59.650 14.193411
59.655 14.456276
59.660 14.473754
59.665 14.9065
59.670 14.78235
59.675 14.873944
59.680 14.582819
59.685 14.507071
59.690 14.235847
59.695 14.317302
59.700 14.302469
59.705 14.398988
59.710 14.619349
59.715 14.891383
59.720 15.06919
59.725 15.587269
59.730 15.58287
59.735 15.480099
59.740 15.2768
59.745 15.248495
59.750 15.194253
59.755 15.134385
59.760 14.903169
59.765 14.776915
59.770 14.805882
59.775 15.252787
59.780 15.478833
59.785 15.741733
59.790 15.674903
59.795 15.64166
59.800 15.557961
59.805 15.783953
59.810 16.010214
59.815 15.703126
59.820 15.532119
59.825 15.151567
59.830 14.672444
59.835 14.669201
59.840 14.723171
59.845 14.267015
59.850 14.123755
59.855 14.06331
59.860 14.790456
59.865 15.061495
59.870 14.935777
59.875 14.700158
59.880 14.623978
59.885 14.611409
59.890 14.617327
59.895 14.159887
59.900 14.49581
59.905 14.032338
59.910 13.785051
59.915 14.247089
59.920 14.065601
59.925 14.273594
59.930 14.108162
59.935 13.851594
59.940 14.201776
59.945 14.176126
59.950 13.933702
59.955 14.063569
59.960 13.885059
59.965 13.782138
59.970 13.891256
59.975 13.941421
59.980 14.230387
59.985 14.249339
59.990 14.353603
59.995 14.293476
60.000 14.728149
60.005 14.373309
60.010 14.045588
60.015 13.72114
60.020 13.306852
60.025 13.189054
60.030 13.154623
60.035 12.923274
60.040 12.98887
60.045 13.418469
60.050 14.005925
60.055 14.531857
60.060 14.781705
60.065 14.97389
60.070 15.175279
60.075 15.688621
60.080 15.545214
60.085 15.551805
60.090 15.309269
60.095 15.044935
60.100 15.1504
60.105 15.438052
60.110 15.538243
60.115 15.528283
60.120 15.952839
60.125 16.322676
60.130 16.801229
60.135 16.882708
60.140 16.462481
60.145 16.210928
60.150 16.597578
60.155 16.520004
60.160 15.971864
60.165 15.532261
60.170 15.304707
60.175 15.258823
60.180 15.001036
60.185 14.71171
60.190 14.454144
60.195 14.681457
60.200 15.379756
60.205 15.671596
60.210 16.076529
60.215 16.218845
60.220 15.693659
60.225 15.876395
60.230 16.664953
60.235 16.47039
60.240 16.403217
60.245 16.535416
60.250 16.65827
60.255 16.957041
60.260 16.457941
60.265 15.868044
60.270 15.902528
60.275 16.072466
60.280 15.921932
60.285 15.705791
60.290 15.460417
60.295 14.82047
60.300 14.243185
60.305 14.018357
60.310 14.175165
60.315 14.304846
60.320 14.050025
60.325 14.555169
60.330 15.02243
60.335 14.823436
60.340 14.636978
60.345 14.151632
60.350 13.911132
60.355 13.995583
60.360 13.622402
60.365 14.095123
60.370 14.4869
60.375 14.464841
60.380 14.859759
60.385 15.346529
60.390 15.411783
60.395 15.242296
60.400 14.670365
60.405 14.50943
60.410 14.12782
60.415 13.590542
60.420 12.695246
60.425 12.791619
60.430 13.330336
60.435 13.949432
60.440 13.864671
60.445 13.903244
60.450 14.193947
60.455 14.773492
60.460 14.596567
60.465 14.2893
60.470 13.880146
60.475 14.601805
60.480 15.451287
60.485 15.775925
60.490 15.527915
60.495 15.875237
60.500 15.685557
60.505 15.84243
60.510 15.472601
60.515 15.182523
60.520 14.85551
60.525 14.824716
60.530 14.536759
60.535 14.808473
60.540 14.88643
60.545 15.497918
60.550 15.551188
60.555 15.642594
60.560 16.275007
60.565 16.489811
60.570 16.09053
60.575 15.843258
60.580 15.199922
60.585 15.264946
60.590 15.073366
60.595 14.580099
60.600 14.559662
60.605 15.312992
60.610 15.86473
60.615 15.812622
60.620 15.986027
60.625 16.381857
60.630 16.477051
60.635 16.235624
60.640 16.05513
60.645 15.882809
60.650 15.48391
60.655 15.222149
60.660 14.997813
60.665 14.720658
60.670 15.042212
60.675 15.392706
60.680 15.516912
60.685 15.422744
60.690 15.411211
60.695 15.036482
60.700 15.339026
60.705 15.372449
60.710 15.088202
60.715 14.71629
60.720 14.916079
60.725 14.823996
60.730 14.935923
60.735 14.924628
60.740 14.908105
60.745 14.736023
60.750 14.90475
60.755 14.905269
60.760 14.823359
60.765 14.805558
60.770 14.624477
60.775 14.234494
60.780 13.449331
60.785 13.333781
60.790 13.027414
60.795 13.417054
60.800 13.408832
60.805 13.630574
60.810 13.861655
60.815 13.996636
60.820 13.342753
60.825 13.169003
60.830 13.206829
60.835 13.709743
60.840 13.444896
60.845 13.45472
60.850 14.07875
60.855 14.98049
60.860 15.3029
60.865 15.904387
60.870 15.914251
60.875 15.763987
60.880 15.778211
60.885 15.504869
60.890 15.696577
60.895 15.740167
60.900 15.023129
60.905 14.87433
60.910 15.044109
60.915 14.742899
60.920 14.406036
60.925 14.38659
60.930 13.999958
60.935 13.94985
60.940 14.108644
60.945 14.434061
60.950 15.492641
60.955 15.888093
60.960 15.601797
60.965 16.055096
60.970 15.645388
60.975 15.251737
60.980 15.228746
60.985 15.157759
60.990 15.384615
60.995 15.369699
61.000 14.759479
61.005 14.752655
61.010 14.581645
61.015 13.945633
61.020 13.529235
61.025 13.387503
61.030 13.298041
61.035 13.986467
61.040 14.563462
61.045 14.930868
61.050 15.457358
61.055 15.530542
61.060 15.057456
61.065 15.237713
61.070 14.970518
61.075 14.585887
61.080 14.900798
61.085 14.542696
61.090 13.995285
61.095 14.297377
61.100 14.094501
61.105 13.693707
61.110 13.706215
61.115 13.531102
61.120 14.015064
61.125 14.28384
61.130 14.679107
61.135 14.907021
61.140 15.489106
61.145 15.703083
61.150 15.636323
61.155 15.680169
61.160 15.436344
61.165 15.29024
61.170 15.217044
61.175 14.838305
61.180 14.779472
61.185 14.408073
61.190 14.033858
61.195 14.468263
61.200 14.118628
61.205 14.47719
61.210 14.848066
61.215 14.974602
61.220 15.415848
61.225 16.009542
61.230 16.310287
61.235 16.421579
61.240 16.212353
61.245 16.39566
61.250 16.096081
61.255 16.172915
61.260 16.147354
61.265 15.798452
61.270 15.846413
61.275 16.104704
61.280 15.84836
61.285 15.832973
61.290 15.62154
61.295 15.159096
61.300 15.221967
61.305 15.247459
61.310 14.756572
61.315 14.79563
61.320 14.958388
61.325 14.957603
61.330 15.41181
61.335 15.385049
61.340 15.146914
61.345 15.197891
61.350 15.095238
61.355 14.961207
61.360 15.207817
61.365 15.226154
61.370 15.426172
61.375 16.101339
61.380 16.084204
61.385 16.250681
61.390 16.569391
61.395 16.194441
61.400 15.913199
61.405 15.662508
61.410 15.603223
61.415 15.85568
61.420 15.37639
61.425 15.179322
61.430 15.471801
61.435 15.601321
61.440 15.65652
61.445 15.671141
61.450 15.635295
61.455 16.034155
61.460 16.118795
61.465 16.089762
61.470 16.213524
61.475 16.11231
61.480 15.832014
61.485 15.599214
61.490 15.478191
61.495 15.447947
61.500 15.23198
61.505 14.974733
61.510 14.514561
61.515 14.488324
61.520 15.190847
61.525 15.486078
61.530 15.447298
61.535 15.561399
61.540 15.936442
61.545 16.268164
61.550 16.939125
61.555 17.009943
61.560 17.063324
61.565 17.529606
61.570 17.620663
61.575 17.844561
61.580 17.862274
61.585 17.661631
61.590 17.644047
61.595 17.335253
61.600 16.869024
61.605 16.622812
61.610 16.613775
61.615 16.546242
61.620 15.524313
61.625 15.249647
61.630 15.202225
61.635 14.835332
61.640 14.838609
61.645 14.552261
61.650 14.45893
61.655 14.218801
61.660 13.555111
61.665 13.922369
61.670 14.191675
61.675 14.064011
61.680 14.208461
61.685 14.678141
61.690 14.978429
61.695 15.167786
61.700 14.918519
61.705 14.818347
61.710 14.596558
61.715 13.986186
61.720 13.851139
61.725 14.317025
61.730 14.184745
61.735 14.463151
61.740 15.01332
61.745 15.147271
61.750 16.046812
61.755 16.580843
61.760 16.379093
61.765 16.41066
61.770 16.539265
61.775 16.359968
61.780 16.031231
61.785 15.298041
61.790 14.858493
61.795 14.87686
61.800 15.086329
61.805 15.149792
61.810 15.322162
61.815 15.612447
61.820 16.012125
61.825 16.442425
61.830 16.475842
61.835 16.15443
61.840 16.038944
61.845 16.247074
61.850 16.452511
61.855 16.682081
61.860 16.710306
61.865 17.073364
61.870 16.862122
61.875 16.429358
61.880 16.38965
61.885 16.419739
61.890 16.70006
61.895 16.402771
61.900 16.724321
61.905 17.201881
61.910 17.086182
61.915 16.690683
61.920 16.545462
61.925 16.031307
61.930 16.026917
61.935 15.735715
61.940 15.560324
61.945 15.508667
61.950 15.326852
61.955 15.335371
61.960 15.006807
61.965 14.658699
61.970 14.484425
61.975 14.951655
61.980 15.223759
61.985 15.53897
61.990 15.262081
61.995 15.392419
62.000 15.612008
62.005 14.982537
62.010 14.407739
62.015 14.424703
62.020 14.166551
62.025 14.801386
62.030 15.487655
62.035 16.273834
62.040 16.771343
62.045 17.066206
62.050 17.170916
62.055 17.3713
62.060 16.730682
62.065 15.979841
62.070 14.788107
62.075 14.719584
62.080 14.544164
62.085 14.360625
62.090 14.292187
62.095 14.422758
62.100 14.26648
62.105 14.994201
62.110 15.206829
62.115 15.477602
62.120 15.65543
62.125 16.116379
62.130 16.609949
62.135 17.102751
62.140 16.757708
62.145 17.022394
62.150 16.925697
62.155 17.173891
62.160 17.258192
62.165 17.49267
62.170 17.495985
62.175 17.855585
62.180 17.258623
62.185 17.337862
62.190 17.184807
62.195 16.722698
62.200 15.952769
62.205 15.267964
62.210 15.130583
62.215 15.378379
62.220 15.778823
62.225 15.437864
62.230 15.519008
62.235 15.785398
62.240 16.128633
62.245 15.883636
62.250 15.868128
62.255 15.907891
62.260 16.388472
62.265 16.280153
62.270 16.05018
62.275 15.876866
62.280 15.81081
62.285 15.645979
62.290 14.993692
62.295 14.798521
62.300 15.457629
62.305 16.088783
62.310 16.60998
62.315 16.796816
62.320 16.645178
62.325 17.092096
62.330 17.428534
62.335 17.155186
62.340 16.960188
62.345 17.089539
62.350 17.330383
62.355 17.400438
62.360 16.873844
62.365 16.188896
62.370 15.498484
62.375 14.869693
62.380 14.669073
62.385 14.750341
62.390 14.549861
62.395 14.262688
62.400 14.445921
62.405 14.327452
62.410 14.856121
62.415 15.03022
62.420 15.013214
62.425 15.062323
62.430 15.309161
62.435 15.380191
62.440 15.448627
62.445 15.545351
62.450 15.669238
62.455 15.893359
62.460 16.55699
62.465 16.876047
62.470 17.139214
62.475 17.51605
62.480 16.855175
62.485 16.42152
62.490 16.3255
62.495 16.372965
62.500 17.018406
62.505 16.646523
62.510 16.651958
62.515 17.218399
62.520 17.657991
62.525 17.620956
62.530 17.073299
62.535 16.471254
62.540 16.489489
62.545 16.155584
62.550 16.477415
62.555 16.054529
62.560 15.870492
62.565 16.007763
62.570 15.872152
62.575 15.749026
62.580 15.876926
62.585 14.962181
62.590 14.938319
62.595 14.864588
62.600 15.003217
62.605 14.982026
62.610 15.114685
62.615 15.123235
62.620 15.369639
62.625 15.845056
62.630 16.038544
62.635 15.846009
62.640 16.086336
62.645 16.443623
62.650 16.780743
62.655 16.975323
62.660 16.646935
62.665 16.3972
62.670 16.759251
62.675 17.419607
62.680 17.241091
62.685 17.200323
62.690 17.439976
62.695 17.534229
62.700 17.680967
62.705 17.570097
62.710 17.016195
62.715 16.942764
62.720 16.986872
62.725 16.818886
62.730 17.092123
62.735 17.120411
62.740 16.599604
62.745 16.600342
62.750 16.788792
62.755 16.60874
62.760 16.546701
62.765 15.983633
62.770 15.899324
62.775 15.747451
62.780 15.584049
62.785 15.159305
62.790 15.292848
62.795 15.55179
62.800 15.660715
62.805 16.015591
62.810 16.309275
62.815 16.374048
62.820 16.26144
62.825 15.935099
62.830 15.518091
62.835 15.596255
62.840 15.562993
62.845 15.415361
62.850 15.446906
62.855 15.55916
62.860 15.882674
62.865 15.954743
62.870 16.007423
62.875 16.15799
62.880 16.238766
62.885 16.205351
62.890 16.181723
62.895 16.204927
62.900 16.685551
62.905 16.505989
62.910 16.229935
62.915 16.237373
62.920 16.572937
62.925 17.016155
62.930 16.704201
62.935 16.232061
62.940 16.292818
62.945 16.307468
62.950 16.270903
62.955 15.883499
62.960 15.439029
62.965 15.423372
62.970 15.791044
62.975 15.905046
62.980 16.286482
62.985 16.822603
62.990 17.52713
62.995 17.822386
63.000 18.013834
63.005 18.120199
63.010 18.069878
63.015 17.997152
63.020 18.104628
63.025 17.598385
63.030 17.740448
63.035 17.559647
63.040 17.22171
63.045 17.365839
63.050 17.376928
63.055 17.109251
63.060 17.339743
63.065 17.918329
63.070 18.284044
63.075 17.886736
63.080 17.473438
63.085 17.265352
63.090 17.247581
63.095 17.030247
63.100 16.291639
63.105 15.986338
63.110 16.657389
63.115 16.883789
63.120 16.704191
63.125 16.609892
63.130 17.138386
63.135 17.321827
63.140 17.19397
63.145 16.621025
63.150 16.73065
63.155 16.705738
63.160 16.516157
63.165 15.911522
63.170 15.701286
63.175 15.764894
63.180 15.606077
63.185 15.798309
63.190 16.149036
63.195 16.233387
63.200 16.359629
63.205 16.144955
63.210 15.886419
63.215 16.325922
63.220 15.940247
63.225 15.278511
63.230 15.42989
63.235 15.414708
63.240 16.078199
63.245 16.230303
63.250 15.934555
63.255 16.185032
63.260 16.892076
63.265 16.4685
63.270 16.241812
63.275 16.090202
63.280 16.65666
63.285 17.213181
63.290 16.880157
63.295 16.843483
63.300 17.611286
63.305 17.423704
63.310 17.51363
63.315 17.147253
63.320 16.665703
63.325 17.268585
63.330 17.236845
63.335 16.805792
63.340 16.861822
63.345 16.48785
63.350 16.296471
63.355 16.554888
63.360 16.618191
63.365 16.819613
63.370 17.227083
63.375 17.082996
63.380 17.266754
63.385 17.815584
63.390 17.750484
63.395 17.591898
63.400 17.128891
63.405 16.987894
63.410 17.283102
63.415 17.458441
63.420 17.065746
63.425 16.558916
63.430 16.305822
63.435 16.493
63.440 16.589773
63.445 16.92984
63.450 17.586782
63.455 17.994322
63.460 18.922661
63.465 19.133732
63.470 19.023664
63.475 18.899282
63.480 18.365185
63.485 18.248413
63.490 18.566393
63.495 17.915087
63.500 17.593954
63.505 18.327082
63.510 18.948536
63.515 18.883142
63.520 18.146608
63.525 18.00606
63.530 17.822945
63.535 18.419493
63.540 17.663002
63.545 17.502258
63.550 17.611788
63.555 17.931692
63.560 17.573915
63.565 17.995037
63.570 17.922768
63.575 18.433792
63.580 18.348394
63.585 18.743208
63.590 18.828302
63.595 18.919464
63.600 18.25252
63.605 17.553701
63.610 16.91781
63.615 17.057831
63.620 17.028196
63.625 16.669489
63.630 16.527369
63.635 17.120352
63.640 17.347979
63.645 17.840195
63.650 17.998457
63.655 17.699406
63.660 17.73101
63.665 17.409445
63.670 17.111704
63.675 16.884958
63.680 16.209452
63.685 15.842378
63.690 16.07295
63.695 16.598011
63.700 17.241467
63.705 17.989244
63.710 18.429388
63.715 18.442072
63.720 18.255657
63.725 18.279589
63.730 18.23171
63.735 17.908039
63.740 17.082327
63.745 16.907368
63.750 17.076178
63.755 17.358606
63.760 17.183582
63.765 17.14451
63.770 17.584995
63.775 18.043774
63.780 18.497042
63.785 18.955824
63.790 19.142141
63.795 19.040237
63.800 18.715919
63.805 18.492773
63.810 18.03315
63.815 18.273363
63.820 18.44924
63.825 18.264652
63.830 18.568182
63.835 19.294289
63.840 19.720514
63.845 20.924749
63.850 20.309002
63.855 19.953798
63.860 20.275211
63.865 20.260452
63.870 19.916656
63.875 19.538034
63.880 19.224857
63.885 20.048609
63.890 20.309557
63.895 20.228714
63.900 20.586454
63.905 21.111517
63.910 21.134005
63.915 20.86521
63.920 20.384678
63.925 20.148991
63.930 19.859226
63.935 19.712019
63.940 19.318008
63.945 19.266809
63.950 19.682795
63.955 19.496323
63.960 20.013155
63.965 20.248423
63.970 19.901419
63.975 19.827696
63.980 20.430649
63.985 20.466457
63.990 20.432892
63.995 20.509739
64.000 21.095602
64.005 22.01895
64.010 23.1612
64.015 24.097862
64.020 24.973183
64.025 25.714933
64.030 26.602133
64.035 26.841547
64.040 26.407986
64.045 26.518484
64.050 26.381737
64.055 25.735697
64.060 25.351467
64.065 25.845568
64.070 26.410042
64.075 27.208708
64.080 27.197674
64.085 27.174978
64.090 27.84992
64.095 28.69483
64.100 27.923807
64.105 27.455339
64.110 27.785679
64.115 28.603107
64.120 29.939699
64.125 30.215944
64.130 30.257536
64.135 31.121634
64.140 31.605867
64.145 31.578871
64.150 31.115423
64.155 30.68969
64.160 31.008526
64.165 30.840433
64.170 31.10346
64.175 31.270287
64.180 31.618685
64.185 32.165913
64.190 32.20509
64.195 32.972942
64.200 33.87048
64.205 34.906525
64.210 35.935638
64.215 36.260754
64.220 36.465622
64.225 37.355396
64.230 38.234058
64.235 38.630955
64.240 38.462887
64.245 38.284119
64.250 38.488213
64.255 40.522587
64.260 41.640831
64.265 41.063843
64.270 40.938572
64.275 40.250908
64.280 40.019634
64.285 40.574055
64.290 40.306942
64.295 39.792828
64.300 40.688599
64.305 41.158714
64.310 42.257896
64.315 42.80064
64.320 42.819965
64.325 42.697239
64.330 42.03656
64.335 41.265007
64.340 40.452599
64.345 40.327911
64.350 40.756348
64.355 40.485012
64.360 39.939323
64.365 40.662319
64.370 40.86861
64.375 41.522667
64.380 41.509041
64.385 40.595112
64.390 40.206963
64.395 40.41153
64.400 39.187122
64.405 38.963451
64.410 38.69334
64.415 38.398293
64.420 38.822208
64.425 38.30629
64.430 37.420155
64.435 38.349304
64.440 38.153942
64.445 37.921669
64.450 37.643227
64.455 36.795441
64.460 36.71122
64.465 36.613724
64.470 35.999699
64.475 35.44672
64.480 34.727863
64.485 34.777645
64.490 34.582588
64.495 35.329983
64.500 35.659046
64.505 35.120434
64.510 35.700382
64.515 36.014111
64.520 35.582653
64.525 35.238785
64.530 34.683811
64.535 34.427303
64.540 34.335175
64.545 32.994518
64.550 31.656652
64.555 31.559797
64.560 31.598574
64.565 31.379925
64.570 30.893963
64.575 29.759651
64.580 29.63607
64.585 29.731979
64.590 28.460892
64.595 28.304586
64.600 27.797403
64.605 27.10783
64.610 27.416899
64.615 27.075405
64.620 27.163471
64.625 27.922606
64.630 26.999027
64.635 26.444981
64.640 26.067135
64.645 26.055895
64.650 26.070942
64.655 25.669516
64.660 25.331228
64.665 25.432186
64.670 25.438919
64.675 24.773001
64.680 24.30348
64.685 23.882973
64.690 23.711502
64.695 23.466806
64.700 23.09547
64.705 22.367277
64.710 22.209093
64.715 22.241474
64.720 22.579889
64.725 22.484589
64.730 22.547422
64.735 22.436995
64.740 22.630253
64.745 22.553497
64.750 21.850183
64.755 21.228203
64.760 21.250282
64.765 22.284334
64.770 22.205805
64.775 22.24666
64.780 22.453526
64.785 22.330568
64.790 22.234529
64.795 21.994423
64.800 21.348063
64.805 21.268734
64.810 21.318651
64.815 21.508329
64.820 21.772457
64.825 21.622667
64.830 21.223705
64.835 21.036076
64.840 21.165995
64.845 21.145603
64.850 20.361351
64.855 20.315321
64.860 20.270668
64.865 20.728792
64.870 20.434982
64.875 20.163258
64.880 19.628654
64.885 19.536823
64.890 19.325893
64.895 19.26976
64.900 18.949066
64.905 19.467577
64.910 19.438097
64.915 20.080074
64.920 21.215057
64.925 21.498161
64.930 21.606689
64.935 21.572872
64.940 21.86278
64.945 22.134745
64.950 20.871769
64.955 20.413651
64.960 20.49724
64.965 20.794668
64.970 20.933754
64.975 20.305326
64.980 20.985044
64.985 22.224951
64.990 22.038614
64.995 22.12812
65.000 22.49362
65.005 22.732086
65.010 22.792479
65.015 21.773281
65.020 21.945019
65.025 21.67601
65.030 20.982843
65.035 20.543571
65.040 20.165689
65.045 20.576159
65.050 21.30147
65.055 20.760355
65.060 21.261818
65.065 21.299868
65.070 21.354986
65.075 21.265648
65.080 20.856356
65.085 20.465715
65.090 20.796917
65.095 21.237461
65.100 21.877459
65.105 21.868509
65.110 22.347326
65.115 22.753145
65.120 23.269827
65.125 24.693123
65.130 24.733459
65.135 24.066908
65.140 23.901814
65.145 23.252743
65.150 23.302986
65.155 23.094559
65.160 21.866142
65.165 22.326965
65.170 23.470242
65.175 24.128849
65.180 24.653828
65.185 24.784355
65.190 24.736765
65.195 25.008556
65.200 24.1903
65.205 23.789415
65.210 23.245609
65.215 23.237553
65.220 23.300537
65.225 23.493155
65.230 23.474754
65.235 24.107468
65.240 24.343683
65.245 25.272226
65.250 25.660864
65.255 25.629108
65.260 25.604033
65.265 25.629898
65.270 26.19166
65.275 27.087534
65.280 26.954432
65.285 27.044683
65.290 26.739414
65.295 27.168436
65.300 27.504725
65.305 27.526903
65.310 27.912949
65.315 28.119415
65.320 28.328825
65.325 28.335356
65.330 27.963751
65.335 27.288231
65.340 27.298634
65.345 27.312048
65.350 27.32143
65.355 27.611097
65.360 28.378674
65.365 29.019827
65.370 30.701925
65.375 31.319416
65.380 30.735592
65.385 30.616098
65.390 31.256453
65.395 31.363729
65.400 31.821905
65.405 32.08535
65.410 31.841322
65.415 32.471695
65.420 32.73785
65.425 32.591217
65.430 32.943634
65.435 32.929508
65.440 32.774975
65.445 32.655231
65.450 31.85684
65.455 31.704884
65.460 32.435207
65.465 32.8144
65.470 32.790722
65.475 32.573238
65.480 32.922066
65.485 33.651936
65.490 33.956108
65.495 33.591095
65.500 33.149475
65.505 33.423801
65.510 34.501812
65.515 35.053585
65.520 35.450775
65.525 35.641773
65.530 36.003605
65.535 36.931633
65.540 37.668888
65.545 36.857185
65.550 37.214348
65.555 38.205399
65.560 38.686668
65.565 38.434448
65.570 38.253471
65.575 38.610622
65.580 38.878296
65.585 38.771145
65.590 38.35685
65.595 38.49514
65.600 38.675892
65.605 39.030582
65.610 39.723053
65.615 40.663113
65.620 40.59259
65.625 40.770737
65.630 40.863884
65.635 41.36692
65.640 41.55407
65.645 41.589336
65.650 41.429592
65.655 41.461681
65.660 41.569263
65.665 41.332203
65.670 40.757545
65.675 40.392941
65.680 40.693901
65.685 41.182617
65.690 41.820747
65.695 41.83556
65.700 42.186054
65.705 41.852982
65.710 40.976627
65.715 40.75272
65.720 40.587688
65.725 39.731258
65.730 39.259678
65.735 39.789726
65.740 40.691853
65.745 40.716217
65.750 40.443047
65.755 39.942162
65.760 39.548683
65.765 39.47237
65.770 39.495617
65.775 38.311516
65.780 38.866756
65.785 37.842564
65.790 37.551098
65.795 37.744541
65.800 37.707314
65.805 37.334091
65.810 37.441166
65.815 36.614376
65.820 35.889748
65.825 35.845669
65.830 36.10545
65.835 35.354347
65.840 35.639164
65.845 36.301144
65.850 36.885475
65.855 37.616989
65.860 37.52454
65.865 37.491177
65.870 37.885017
65.875 37.683975
65.880 37.176285
65.885 36.757477
65.890 35.707966
65.895 35.43261
65.900 35.012127
65.905 34.872944
65.910 33.783451
65.915 33.480621
65.920 33.535892
65.925 33.221352
65.930 33.468807
65.935 33.28194
65.940 32.970013
65.945 33.191456
65.950 32.844872
65.955 31.996708
65.960 31.755442
65.965 30.583504
65.970 30.093832
65.975 29.361761
65.980 29.112993
65.985 29.301014
65.990 29.656328
65.995 29.332954
66.000 29.316746
66.005 29.525888
66.010 28.941553
66.015 27.745489
66.020 26.693897
66.025 25.911684
66.030 25.824213
66.035 25.50808
66.040 24.793531
66.045 25.036034
66.050 25.318247
66.055 25.458172
66.060 25.43376
66.065 25.450888
66.070 25.437075
66.075 25.432362
66.080 25.598171
66.085 25.590508
66.090 25.270042
66.095 25.422939
66.100 24.935802
66.105 23.83264
66.110 23.24758
66.115 22.903648
66.120 22.937489
66.125 22.678753
66.130 22.232073
66.135 22.250456
66.140 22.326483
66.145 22.163504
66.150 21.80901
66.155 21.734455
66.160 21.581141
66.165 21.148575
66.170 20.668192
66.175 20.861731
66.180 21.247557
66.185 21.388353
66.190 21.142508
66.195 21.153254
66.200 21.226896
66.205 21.60722
66.210 21.207188
66.215 21.155645
66.220 21.38954
66.225 21.494192
66.230 21.643148
66.235 21.751184
66.240 21.105455
66.245 20.659986
66.250 19.841618
66.255 19.048098
66.260 18.956106
66.265 18.745302
66.270 18.765276
66.275 19.12859
66.280 19.716637
66.285 19.89983
66.290 19.905861
66.295 19.530537
66.300 19.868011
66.305 19.986572
66.310 19.373848
66.315 19.148125
66.320 19.582611
66.325 19.442715
66.330 19.43738
66.335 18.429644
66.340 17.624254
66.345 17.875246
66.350 18.044945
66.355 18.445457
66.360 18.859661
66.365 18.994614
66.370 19.549715
66.375 20.07338
66.380 20.419806
66.385 19.610081
66.390 18.744627
66.395 18.394402
66.400 18.619909
66.405 18.353256
66.410 18.015182
66.415 17.776245
66.420 18.498808
66.425 18.809191
66.430 18.95718
66.435 18.578131
66.440 18.196272
66.445 18.080215
66.450 18.148315
66.455 17.333101
66.460 17.391407
66.465 17.235432
66.470 17.539938
66.475 17.5196
66.480 17.859388
66.485 18.120295
66.490 18.87108
66.495 18.925293
66.500 19.091997
66.505 19.366909
66.510 20.054005
66.515 19.604673
66.520 19.67071
66.525 19.608698
66.530 19.051609
66.535 18.974939
66.540 18.788921
66.545 18.284531
66.550 18.651142
66.555 18.604174
66.560 18.92083
66.565 19.4394
66.570 19.36175
66.575 19.013969
66.580 18.943449
66.585 18.376183
66.590 18.845217
66.595 19.312731
66.600 19.187418
66.605 18.720158
66.610 18.750546
66.615 18.554247
66.620 18.542406
66.625 17.550339
66.630 16.702255
66.635 16.507284
66.640 16.456717
66.645 16.283775
66.650 16.766521
66.655 17.279093
66.660 17.648367
66.665 17.818087
66.670 18.208385
66.675 18.659672
66.680 18.941368
66.685 18.838076
66.690 18.673822
66.695 18.88052
66.700 19.03504
66.705 19.364548
66.710 19.522758
66.715 19.48049
66.720 19.94474
66.725 20.129185
66.730 20.188206
66.735 19.750198
66.740 18.771015
66.745 18.010201
66.750 17.926455
66.755 18.022041
66.760 17.796707
66.765 17.141264
66.770 17.311468
66.775 17.953241
66.780 18.331001
66.785 18.255062
66.790 18.088949
66.795 18.238634
66.800 18.924986
66.805 19.102791
66.810 19.171537
66.815 19.378517
66.820 19.348858
66.825 19.243528
66.830 19.363033
66.835 18.483232
66.840 18.298191
66.845 18.150101
66.850 18.178434
66.855 18.158228
66.860 17.930826
66.865 17.802696
66.870 17.972858
66.875 17.523579
66.880 16.876337
66.885 16.342579
66.890 16.150478
66.895 15.762048
66.900 15.549933
66.905 15.604192
66.910 16.585966
66.915 17.152306
66.920 17.317657
66.925 17.335468
66.930 18.039318
66.935 18.249342
66.940 18.71077
66.945 18.723301
66.950 19.219204
66.955 19.224371
66.960 19.200518
66.965 18.979774
66.970 18.53001
66.975 17.931837
66.980 17.618843
66.985 17.398777
66.990 17.949829
66.995 18.395842
67.000 18.88587
67.005 19.846066
67.010 20.374607
67.015 20.057867
67.020 19.899216
67.025 19.47043
67.030 19.165483
67.035 19.198778
67.040 18.824627
67.045 18.732729
67.050 19.290466
67.055 19.757053
67.060 19.938108
67.065 19.201586
67.070 18.871408
67.075 19.074551
67.080 18.784464
67.085 18.706741
67.090 18.478273
67.095 18.424879
67.100 18.453241
67.105 17.976582
67.110 17.29468
67.115 17.124365
67.120 17.110891
67.125 17.040087
67.130 16.878239
67.135 16.83812
67.140 16.58864
67.145 17.047409
67.150 16.964066
67.155 16.945253
67.160 17.372738
67.165 17.970297
67.170 18.782389
67.175 18.923908
67.180 18.599464
67.185 18.195581
67.190 17.691984
67.195 17.354664
67.200 16.864887
67.205 16.227251
67.210 16.492378
67.215 16.965687
67.220 17.531193
67.225 17.765526
67.230 17.108355
67.235 17.075632
67.240 17.062475
67.245 16.668543
67.250 16.531368
67.255 16.658451
67.260 16.402014
67.265 16.530447
67.270 16.923658
67.275 16.877964
67.280 17.705509
67.285 18.105804
67.290 18.233416
67.295 18.812082
67.300 18.71274
67.305 18.474741
67.310 18.333265
67.315 17.737448
67.320 17.027317
67.325 17.151314
67.330 17.09557
67.335 17.072117
67.340 17.499119
67.345 18.274118
67.350 18.421915
67.355 18.219309
67.360 18.161312
67.365 18.268137
67.370 18.535072
67.375 18.448448
67.380 18.210997
67.385 18.161177
67.390 18.085646
67.395 17.146742
67.400 17.188164
67.405 16.939999
67.410 16.658802
67.415 16.535517
67.420 17.150003
67.425 17.682533
67.430 17.932039
67.435 17.680277
67.440 17.765053
67.445 18.178616
67.450 18.346537
67.455 18.128101
67.460 18.495934
67.465 18.902231
67.470 19.553162
67.475 19.596411
67.480 19.553116
67.485 19.14467
67.490 19.286154
67.495 18.85297
67.500 18.613686
67.505 18.438292
67.510 18.425663
67.515 18.289473
67.520 18.298727
67.525 17.969189
67.530 18.038704
67.535 17.782108
67.540 17.128704
67.545 17.21051
67.550 16.990816
67.555 17.452856
67.560 17.740335
67.565 17.474979
67.570 17.71299
67.575 18.406681
67.580 18.296555
67.585 17.980944
67.590 17.186802
67.595 16.909042
67.600 17.247377
67.605 17.197187
67.610 17.207067
67.615 17.295494
67.620 17.711281
67.625 18.680403
67.630 18.848351
67.635 18.853785
67.640 18.567242
67.645 18.508904
67.650 19.067265
67.655 18.756449
67.660 18.219601
67.665 18.5261
67.670 18.773447
67.675 19.017849
67.680 18.523468
67.685 18.689909
67.690 18.640793
67.695 18.442646
67.700 18.187815
67.705 18.320347
67.710 18.46711
67.715 18.524502
67.720 18.250666
67.725 18.31543
67.730 18.637941
67.735 18.349346
67.740 18.500374
67.745 18.379906
67.750 18.657566
67.755 18.956602
67.760 19.131897
67.765 19.398882
67.770 19.45682
67.775 19.239861
67.780 19.248775
67.785 18.319155
67.790 17.76095
67.795 17.006516
67.800 16.353338
67.805 16.339586
67.810 16.198229
67.815 16.157049
67.820 16.224678
67.825 16.629271
67.830 17.565947
67.835 17.289799
67.840 16.580387
67.845 16.579525
67.850 17.45587
67.855 18.250088
67.860 18.233355
67.865 17.499252
67.870 17.4816
67.875 17.558933
67.880 17.222588
67.885 16.623936
67.890 16.158092
67.895 15.993247
67.900 16.684772
67.905 17.529699
67.910 18.137312
67.915 18.501001
67.920 18.409128
67.925 18.548643
67.930 18.217661
67.935 17.708818
67.940 17.365189
67.945 17.557344
67.950 17.650852
67.955 18.159925
67.960 17.98592
67.965 18.760521
67.970 19.292715
67.975 19.605194
67.980 19.187227
67.985 18.903416
67.990 18.76936
67.995 19.388311
68.000 19.430338
68.005 19.30934
68.010 19.350708
68.015 19.197113
68.020 18.910656
68.025 18.923626
68.030 18.26194
68.035 18.048449
68.040 17.994354
68.045 17.917334
68.050 18.463327
68.055 18.368786
68.060 18.238529
68.065 18.506895
68.070 18.23974
68.075 17.690588
68.080 17.282207
68.085 17.7213
68.090 18.263607
68.095 18.065281
68.100 17.873167
68.105 19.15234
68.110 20.149542
68.115 20.481258
68.120 19.423548
68.125 19.613024
68.130 19.63077
68.135 19.63706
68.140 18.52408
68.145 18.091516
68.150 18.414232
68.155 18.620283
68.160 18.466934
68.165 18.762609
68.170 18.692057
68.175 18.327066
68.180 18.548777
68.185 18.697355
68.190 19.007002
68.195 19.012102
68.200 18.740084
68.205 18.612467
68.210 18.836109
68.215 18.619019
68.220 18.133043
68.225 18.064915
68.230 18.231855
68.235 19.031961
68.240 19.586424
68.245 19.900257
68.250 20.006321
68.255 20.422379
68.260 21.141768
68.265 20.833883
68.270 20.368208
68.275 20.391691
68.280 20.279297
68.285 20.352871
68.290 19.998075
68.295 19.470627
68.300 19.527454
68.305 19.661112
68.310 19.634024
68.315 19.90288
68.320 19.790623
68.325 20.006365
68.330 20.157133
68.335 20.918852
68.340 20.988735
68.345 20.750282
68.350 20.872717
68.355 20.993977
68.360 20.71456
68.365 19.918318
68.370 19.520094
68.375 19.549162
68.380 20.227345
68.385 20.32704
68.390 20.499493
68.395 21.229996
68.400 21.516497
68.405 21.701353
68.410 21.339695
68.415 20.732361
68.420 20.387653
68.425 20.436913
68.430 19.875521
68.435 19.70059
68.440 19.812836
68.445 20.374876
68.450 21.052551
68.455 22.064367
68.460 22.102007
68.465 22.859428
68.470 23.458691
68.475 23.044973
68.480 23.016037
68.485 23.68392
68.490 23.224855
68.495 23.402029
68.500 23.298681
68.505 23.254364
68.510 24.182766
68.515 23.610533
68.520 22.558567
68.525 22.1765
68.530 22.192816
68.535 22.563915
68.540 22.402882
68.545 22.217539
68.550 22.352074
68.555 22.748764
68.560 23.607227
68.565 24.175476
68.570 24.404751
68.575 24.625422
68.580 24.884636
68.585 25.264734
68.590 25.803457
68.595 25.741987
68.600 25.569069
68.605 25.985693
68.610 27.140686
68.615 27.432301
68.620 27.755379
68.625 28.940187
68.630 29.239697
68.635 28.933136
68.640 28.924807
68.645 28.938755
68.650 29.224508
68.655 29.337683
68.660 28.925081
68.665 29.782635
68.670 30.14402
68.675 30.048464
68.680 30.079256
68.685 30.335085
68.690 30.033882
68.695 29.841221
68.700 30.444033
68.705 31.523106
68.710 32.101299
68.715 31.998055
68.720 32.674568
68.725 34.192368
68.730 35.008286
68.735 34.561214
68.740 34.065071
68.745 34.075996
68.750 34.168549
68.755 34.480083
68.760 33.999416
68.765 33.917133
68.770 33.348495
68.775 33.278843
68.780 33.41431
68.785 33.677494
68.790 33.941799
68.795 33.56245
68.800 33.856617
68.805 34.814346
68.810 34.928997
68.815 34.987431
68.820 35.179054
68.825 35.070824
68.830 35.681133
68.835 35.944355
68.840 36.158443
68.845 35.877766
68.850 35.874615
68.855 35.709045
68.860 36.76384
68.865 36.806641
68.870 36.92572
68.875 37.745644
68.880 38.885395
68.885 38.701874
68.890 38.107876
68.895 37.549831
68.900 37.255554
68.905 37.637302
68.910 37.027836
68.915 36.923641
68.920 37.735577
68.925 37.614307
68.930 37.094177
68.935 36.963928
68.940 35.605293
68.945 35.143215
68.950 34.254074
68.955 33.391529
68.960 33.726879
68.965 34.619167
68.970 35.310413
68.975 35.503876
68.980 35.722317
68.985 35.741177
68.990 35.956234
68.995 35.993092
69.000 35.63969
69.005 35.631271
69.010 35.569927
69.015 35.453129
69.020 35.320435
69.025 35.676605
69.030 35.391941
69.035 34.832375
69.040 34.19912
69.045 34.106594
69.050 34.275108
69.055 34.209911
69.060 34.153728
69.065 34.421108
69.070 34.666237
69.075 34.944931
69.080 34.877934
69.085 34.021557
69.090 34.24778
69.095 33.162643
69.100 32.455349
69.105 30.809231
69.110 30.10988
69.115 30.33419
69.120 31.098835
69.125 30.987734
69.130 30.975536
69.135 31.281225
69.140 32.056255
69.145 31.324427
69.150 30.561363
69.155 30.029587
69.160 29.820389
69.165 29.99258
69.170 29.631071
69.175 28.69025
69.180 28.065308
69.185 28.52298
69.190 28.314903
69.195 27.897371
69.200 26.927528
69.205 26.787771
69.210 27.127228
69.215 27.496334
69.220 26.816257
69.225 26.549574
69.230 26.321573
69.235 26.525162
69.240 26.346561
69.245 25.918079
69.250 25.202162
69.255 24.903719
69.260 24.869114
69.265 24.727564
69.270 24.898479
69.275 24.477097
69.280 23.906874
69.285 23.496307
69.290 23.267603
69.295 22.606068
69.300 22.094368
69.305 21.852495
69.310 22.345194
69.315 22.408974
69.320 22.627647
69.325 22.218262
69.330 22.531567
69.335 23.060238
69.340 22.782484
69.345 22.750025
69.350 22.844391
69.355 23.003763
69.360 23.234419
69.365 23.044809
69.370 22.606937
69.375 22.18508
69.380 21.053682
69.385 20.627708
69.390 20.752411
69.395 20.481298
69.400 20.387362
69.405 19.567316
69.410 19.316528
69.415 19.797716
69.420 20.210173
69.425 19.941202
69.430 19.821722
69.435 20.494064
69.440 21.336662
69.445 22.073174
69.450 22.036819
69.455 21.522739
69.460 20.919014
69.465 20.352316
69.470 20.269722
69.475 19.915806
69.480 19.151381
69.485 18.957817
69.490 19.080578
69.495 19.642044
69.500 19.59955
69.505 19.224691
69.510 19.388725
69.515 19.754633
69.520 20.094488
69.525 20.569773
69.530 20.382771
69.535 20.402098
69.540 21.057568
69.545 20.978067
69.550 20.669491
69.555 20.448273
69.560 20.042637
69.565 19.920015
69.570 19.99403
69.575 19.429842
69.580 19.263662
69.585 18.561068
69.590 17.800533
69.595 17.240477
69.600 17.090765
69.605 16.887903
69.610 16.349854
69.615 16.9951
69.620 17.984035
69.625 18.475592
69.630 19.070063
69.635 19.167797
69.640 19.430859
69.645 19.782408
69.650 19.780983
69.655 19.54772
69.660 19.413073
69.665 19.864586
69.670 20.132244
69.675 20.265343
69.680 20.175402
69.685 19.592176
69.690 19.398012
69.695 19.138205
69.700 19.02046
69.705 18.31724
69.710 18.98991
69.715 18.903242
69.720 19.269495
69.725 19.101671
69.730 18.627975
69.735 18.640743
69.740 19.014002
69.745 19.011885
69.750 18.763241
69.755 17.907097
69.760 18.097164
69.765 18.213022
69.770 18.313234
69.775 18.258369
69.780 17.80471
69.785 18.284494
69.790 18.786024
69.795 18.720758
69.800 18.762579
69.805 18.404325
69.810 18.015694
69.815 18.081665
69.820 17.321014
69.825 17.211222
69.830 17.282944
69.835 17.534798
69.840 17.566788
69.845 17.214506
69.850 17.504778
69.855 18.210255
69.860 18.443377
69.865 18.270203
69.870 18.051508
69.875 18.311348
69.880 18.580963
69.885 18.566628
69.890 18.521236
69.895 18.253592
69.900 17.659641
69.905 17.792938
69.910 17.867012
69.915 17.783648
69.920 17.893684
69.925 17.877125
69.930 18.118481
69.935 19.057302
69.940 18.293959
69.945 18.280277
69.950 17.862534
69.955 17.479021
69.960 17.410904
69.965 17.385677
69.970 16.908495
69.975 16.927425
69.980 17.090794
69.985 17.570786
69.990 17.591789
69.995 17.434481
70.000 17.248537
70.005 17.242392
70.010 17.579456
70.015 17.241671
70.020 16.979843
70.025 17.048845
70.030 17.361866
70.035 18.065973
70.040 18.247284
70.045 18.412621
70.050 18.285814
70.055 18.81315
70.060 19.055216
70.065 19.165796
70.070 19.298803
70.075 19.246824
70.080 18.830124
70.085 18.869637
70.090 18.367233
70.095 18.14459
70.100 17.834473
70.105 17.098364
70.110 16.832266
70.115 17.429981
70.120 17.862307
70.125 17.942783
70.130 17.890863
70.135 17.795147
70.140 17.795954
70.145 17.897366
70.150 17.549303
70.155 17.133011
70.160 16.981037
70.165 17.014395
70.170 17.62571
70.175 17.649988
70.180 17.704273
70.185 17.819332
70.190 18.092844
70.195 18.503208
70.200 18.122421
70.205 17.957821
70.210 17.593117
70.215 17.579676
70.220 17.800482
70.225 17.667088
70.230 17.213007
70.235 18.267288
70.240 18.374632
70.245 19.154093
70.250 19.422024
70.255 19.045288
70.260 19.00127
70.265 19.497324
70.270 18.690565
70.275 18.576895
70.280 18.204567
70.285 18.063801
70.290 17.599506
70.295 17.070045
70.300 16.688612
70.305 16.860559
70.310 16.73275
70.315 16.810833
70.320 16.735292
70.325 17.253942
70.330 17.350176
70.335 17.214685
70.340 16.872587
70.345 16.634443
70.350 16.814091
70.355 16.739834
70.360 17.225132
70.365 18.106537
70.370 18.472401
70.375 19.281889
70.380 19.799025
70.385 19.760647
70.390 20.050064
70.395 19.787897
70.400 19.847893
70.405 19.693939
70.410 19.082928
70.415 18.907806
70.420 18.631601
70.425 18.228428
70.430 17.825747
70.435 16.91507
70.440 16.867575
70.445 16.596254
70.450 16.277943
70.455 16.200317
70.460 16.768181
70.465 17.055845
70.470 17.215761
70.475 17.646097
70.480 18.085146
70.485 18.15905
70.490 18.354103
70.495 18.165018
70.500 17.791704
70.505 17.997141
70.510 17.280224
70.515 17.14019
70.520 17.237474
70.525 17.615986
70.530 18.190098
70.535 18.496561
70.540 18.584991
70.545 19.15687
70.550 20.03039
70.555 20.107319
70.560 20.053755
70.565 20.465855
70.570 20.544069
70.575 20.61721
70.580 21.094097
70.585 20.489927
70.590 20.393147
70.595 19.635412
70.600 18.907099
70.605 18.503986
70.610 18.027771
70.615 17.580355
70.620 17.387995
70.625 17.221048
70.630 17.636389
70.635 17.796366
70.640 18.313036
70.645 18.481575
70.650 18.767805
70.655 18.828522
70.660 18.616463
70.665 18.043884
70.670 17.58301
70.675 17.349779
70.680 17.216566
70.685 17.049604
70.690 17.540857
70.695 17.580341
70.700 17.597075
70.705 17.412382
70.710 17.293976
70.715 17.090256
70.720 17.143951
70.725 16.569544
70.730 16.479494
70.735 16.708675
70.740 16.469978
70.745 15.954072
70.750 15.867846
70.755 15.803518
70.760 15.85868
70.765 15.561894
70.770 16.037577
70.775 17.033533
70.780 17.702206
70.785 17.263996
70.790 17.889269
70.795 19.179935
70.800 20.01734
70.805 20.173906
70.810 19.535379
70.815 18.963825
70.820 19.551668
70.825 18.318438
70.830 17.530437
70.835 17.410458
70.840 17.290138
70.845 17.752213
70.850 18.126587
70.855 17.923227
70.860 18.230968
70.865 17.969236
70.870 17.423313
70.875 17.188892
70.880 17.346128
70.885 17.390829
70.890 17.43215
70.895 16.733862
70.900 16.925676
70.905 16.909351
70.910 16.589201
70.915 16.42926
70.920 16.477253
70.925 16.697554
70.930 17.026054
70.935 16.822948
70.940 17.398239
70.945 17.657808
70.950 18.050146
70.955 18.902454
70.960 19.044512
70.965 19.37834
70.970 19.206562
70.975 18.951101
70.980 19.100452
70.985 18.58671
70.990 17.570042
70.995 17.213566
71.000 16.824905
71.005 16.769445
71.010 16.082943
71.015 15.705729
71.020 15.911609
71.025 15.975325
71.030 16.232969
71.035 16.729259
71.040 17.127281
71.045 17.368793
71.050 17.510881
71.055 17.656893
71.060 17.58073
71.065 17.373421
71.070 17.746155
71.075 17.84248
71.080 17.859962
71.085 17.714725
71.090 17.430231
71.095 17.481972
71.100 17.42374
71.105 17.011274
71.110 16.736143
71.115 16.75552
71.120 16.687626
71.125 16.876738
71.130 17.263187
71.135 17.532745
71.140 17.421778
71.145 17.523571
71.150 17.50342
71.155 17.21081
71.160 16.591501
71.165 15.813923
71.170 15.549238
71.175 15.538328
71.180 15.87188
71.185 15.849939
71.190 15.86695
71.195 15.806808
71.200 16.080338
71.205 16.337212
71.210 16.70817
71.215 16.788273
71.220 16.882797
71.225 17.101273
71.230 17.277283
71.235 17.498272
71.240 17.426538
71.245 17.438929
71.250 17.635937
71.255 17.504131
71.260 17.238234
71.265 17.298193
71.270 17.171862
71.275 17.15551
71.280 16.52984
71.285 16.354521
71.290 16.833614
71.295 17.253714
71.300 17.469042
71.305 17.770115
71.310 17.884844
71.315 18.359465
71.320 18.232151
71.325 17.781296
71.330 17.716679
71.335 17.690937
71.340 17.312866
71.345 16.730537
71.350 16.513239
71.355 17.002424
71.360 17.479967
71.365 17.853498
71.370 18.172419
71.375 17.965754
71.380 17.895679
71.385 17.947956
71.390 18.139791
71.395 18.036957
71.400 17.185938
71.405 17.178213
71.410 17.843254
71.415 18.197945
71.420 18.120295
71.425 18.027645
71.430 18.154697
71.435 18.45686
71.440 18.150705
71.445 17.718145
71.450 17.942863
71.455 17.631208
71.460 17.251842
71.465 17.054569
71.470 16.57103
71.475 17.425755
71.480 17.660671
71.485 18.080751
71.490 17.996824
71.495 18.251863
71.500 18.451847
71.505 18.58201
71.510 18.272612
71.515 18.023518
71.520 17.711054
71.525 17.899527
71.530 18.021925
71.535 18.842264
71.540 19.012703
71.545 19.109991
71.550 18.944174
71.555 18.78443
71.560 18.669418
71.565 18.455616
71.570 17.656425
71.575 17.214441
71.580 17.069036
71.585 17.440895
71.590 17.58392
71.595 17.559866
71.600 17.440281
71.605 18.090466
71.610 18.15152
71.615 17.789949
71.620 17.611078
71.625 17.68165
71.630 17.899599
71.635 17.686161
71.640 16.947504
71.645 17.131924
71.650 18.191364
71.655 18.43165
71.660 18.559347
71.665 18.048576
71.670 18.44595
71.675 18.96007
71.680 18.374285
71.685 17.598343
71.690 17.122156
71.695 17.135405
71.700 17.644598
71.705 17.855083
71.710 18.012926
71.715 18.261789
71.720 18.44235
71.725 18.5877
71.730 18.214399
71.735 17.690559
71.740 17.493298
71.745 17.571554
71.750 17.683289
71.755 17.580553
71.760 17.325741
71.765 17.277985
71.770 17.536739
71.775 17.180693
71.780 17.326328
71.785 17.624378
71.790 18.202217
71.795 18.657679
71.800 18.811779
71.805 18.923277
71.810 19.067942
71.815 18.273336
71.820 17.221243
71.825 16.886654
71.830 16.885448
71.835 17.150576
71.840 17.94738
71.845 18.729237
71.850 19.493429
71.855 20.187201
71.860 19.974792
71.865 19.64431
71.870 19.071093
71.875 18.208073
71.880 17.665297
71.885 17.635969
71.890 17.151169
71.895 16.919001
71.900 17.211922
71.905 17.136047
71.910 17.396778
71.915 17.179249
71.920 17.40937
71.925 18.108414
71.930 18.404732
71.935 18.573074
71.940 18.401384
71.945 18.37221
71.950 18.188433
71.955 17.639721
71.960 17.727459
71.965 17.779325
71.970 17.651937
71.975 17.144087
71.980 16.494949
71.985 17.254314
71.990 16.757526
71.995 16.346127
72.000 16.456001
72.005 16.369402
72.010 16.984283
72.015 17.085217
72.020 17.671133
72.025 17.864361
72.030 17.664709
72.035 17.211079
72.040 17.68162
72.045 17.886333
72.050 17.014795
72.055 16.583878
72.060 16.890337
72.065 17.101374
72.070 17.26473
72.075 16.86709
72.080 16.874613
72.085 16.863049
72.090 16.893055
72.095 16.69631
72.100 16.728825
72.105 17.150911
72.110 16.887222
72.115 16.858944
72.120 16.833504
72.125 16.918274
72.130 16.964823
72.135 17.023958
72.140 16.912497
72.145 17.539288
72.150 17.984804
72.155 18.229233
72.160 17.844673
72.165 17.853689
72.170 17.849974
72.175 17.610422
72.180 16.972002
72.185 17.055555
72.190 17.099792
72.195 17.565361
72.200 17.551252
72.205 17.68952
72.210 18.055588
72.215 18.219725
72.220 18.120853
72.225 17.639515
72.230 17.475767
72.235 17.273603
72.240 17.525587
72.245 17.56213
72.250 17.900091
72.255 18.115227
72.260 18.455746
72.265 18.339022
72.270 18.276459
72.275 18.041616
72.280 17.817286
72.285 16.94249
72.290 16.9601
72.295 17.166664
72.300 17.095644
72.305 16.791481
72.310 16.525225
72.315 17.391438
72.320 17.655399
72.325 17.658854
72.330 17.769295
72.335 17.439241
72.340 17.914354
72.345 17.673698
72.350 17.503456
72.355 17.980026
72.360 17.596664
72.365 17.645401
72.370 18.112923
72.375 17.70306
72.380 17.708004
72.385 17.495541
72.390 17.076687
72.395 17.427597
72.400 17.41958
72.405 17.291649
72.410 17.378233
72.415 16.991795
72.420 16.903524
72.425 17.177847
72.430 17.087923
72.435 16.981312
72.440 17.156218
72.445 17.082476
72.450 17.087368
72.455 16.498335
72.460 16.631269
72.465 16.797699
72.470 17.182434
72.475 17.000235
72.480 16.95899
72.485 17.262424
72.490 17.383629
72.495 17.076189
72.500 16.358728
72.505 16.494822
72.510 16.561569
72.515 16.703127
72.520 16.401621
72.525 16.508675
72.530 16.763382
72.535 16.870039
72.540 16.438766
72.545 17.044786
72.550 17.0606
72.555 17.328608
72.560 17.163698
72.565 16.689905
72.570 16.644096
72.575 16.459003
72.580 16.294735
72.585 16.23921
72.590 15.790258
72.595 15.770119
72.600 15.935657
72.605 16.593056
72.610 16.170082
72.615 16.30533
72.620 16.764893
72.625 16.825508
72.630 16.909487
72.635 16.542027
72.640 15.941136
72.645 15.483802
72.650 14.972312
72.655 15.032326
72.660 15.126526
72.665 15.10221
72.670 15.149218
72.675 15.964487
72.680 16.185005
72.685 15.919891
72.690 15.723343
72.695 16.312784
72.700 16.253862
72.705 16.672991
72.710 16.714611
72.715 17.656141
72.720 18.079842
72.725 17.518967
72.730 17.260645
72.735 16.606527
72.740 16.337891
72.745 16.079184
72.750 15.543467
72.755 15.424652
72.760 15.611117
72.765 16.232233
72.770 16.862001
72.775 16.82918
72.780 16.485268
72.785 16.484158
72.790 16.689215
72.795 16.097214
72.800 15.481123
72.805 15.149251
72.810 14.894163
72.815 15.157147
72.820 15.507121
72.825 15.463976
72.830 15.660879
72.835 16.015186
72.840 16.296656
72.845 16.82572
72.850 17.298157
72.855 17.571634
72.860 17.18125
72.865 16.547964
72.870 16.383326
72.875 15.767244
72.880 15.697236
72.885 14.251946
72.890 13.720267
72.895 14.206496
72.900 14.403256
72.905 14.70419
72.910 15.228283
72.915 14.950241
72.920 15.796685
72.925 16.897551
72.930 17.00539
72.935 17.198774
72.940 16.962664
72.945 16.98452
72.950 17.147638
72.955 16.930847
72.960 17.071709
72.965 17.714796
72.970 17.624538
72.975 17.510075
72.980 17.176363
72.985 17.18718
72.990 16.946846
72.995 16.951216
73.000 16.467449
