!@!!GADDS PLOTSO FILE: Chi integration type
!@!!Title/SampleName: map-a0
!@!!Comment: ?
!@!!User: Bruker Instrument Administrator
!@!!Site: University of Illinois Chicago
!@!!Frame: map-a0_01_000.gfrm
!@!!Wavelengths    1.54184   1.54056   1.54439
!@!!Frame angles: 2Theta: 63.000 Omega: 50.000 Phi: 0.000 Chi: 90.000
!@!!Integration range: 2Theta: 53.000 to 73.000  Gamma: -105.000 to -75.000
!@!!Integration method: bin normalized
!@!N
!@!SS
!@!M
!@!L 0.0 0.0 0.0 0.0
!@!XDegrees
!@!YCounts
53.000 8.64222
53.005 9.045321
53.010 9.208688
53.015 9.171069
53.020 8.986336
53.025 8.922159
53.030 9.380378
53.035 9.446352
53.040 8.990364
53.045 8.834263
53.050 8.959143
53.055 9.22463
53.060 9.023345
53.065 8.136136
53.070 8.040606
53.075 8.481479
53.080 8.169679
53.085 8.109283
53.090 7.93431
53.095 7.8375
53.100 8.223934
53.105 8.62566
53.110 8.908894
53.115 9.071095
53.120 9.082892
53.125 9.237143
53.130 9.38475
53.135 9.205662
53.140 8.528815
53.145 8.387775
53.150 8.174072
53.155 8.0684
53.160 8.14966
53.165 8.255342
53.170 8.232475
53.175 8.656589
53.180 8.360152
53.185 8.437778
53.190 8.52381
53.195 8.367837
53.200 8.222011
53.205 8.399461
53.210 8.273335
53.215 8.214375
53.220 8.115738
53.225 8.157785
53.230 8.106804
53.235 8.24648
53.240 8.396562
53.245 8.798447
53.250 9.169294
53.255 9.067724
53.260 9.253529
53.265 9.487933
53.270 8.921584
53.275 8.475544
53.280 8.09064
53.285 7.840774
53.290 7.628959
53.295 7.072303
53.300 6.740715
53.305 6.967319
53.310 7.07563
53.315 7.253092
53.320 7.554935
53.325 7.529376
53.330 8.023438
53.335 8.248607
53.340 8.027428
53.345 7.970256
53.350 7.986696
53.355 7.835923
53.360 7.784831
53.365 7.708685
53.370 7.922998
53.375 8.333829
53.380 8.659954
53.385 9.140806
53.390 9.441914
53.395 9.379672
53.400 9.414142
53.405 9.106012
53.410 9.028299
53.415 8.757979
53.420 8.931857
53.425 8.902002
53.430 8.764893
53.435 8.715522
53.440 8.869949
53.445 9.083133
53.450 8.860419
53.455 8.607452
53.460 8.515998
53.465 8.476901
53.470 8.208729
53.475 7.884084
53.480 7.752424
53.485 7.718207
53.490 8.011316
53.495 8.262573
53.500 8.24845
53.505 8.339848
53.510 8.424677
53.515 8.509502
53.520 8.673624
53.525 8.426763
53.530 8.719831
53.535 9.042736
53.540 8.968487
53.545 8.887287
53.550 8.670949
53.555 8.564628
53.560 8.440194
53.565 8.549714
53.570 8.982152
53.575 9.364879
53.580 9.375881
53.585 9.519681
53.590 9.543991
53.595 9.251184
53.600 8.689282
53.605 8.211386
53.610 8.528502
53.615 8.464241
53.620 8.46176
53.625 8.420912
53.630 8.920076
53.635 9.327287
53.640 9.346239
53.645 9.22701
53.650 9.443772
53.655 10.041463
53.660 10.077387
53.665 9.642936
53.670 9.09474
53.675 8.942414
53.680 8.661521
53.685 8.287452
53.690 7.598577
53.695 7.813047
53.700 8.714815
53.705 9.115698
53.710 9.659556
53.715 9.988036
53.720 10.059308
53.725 10.426977
53.730 10.159507
53.735 9.550212
53.740 9.508726
53.745 9.129261
53.750 9.17436
53.755 9.422611
53.760 9.326321
53.765 8.996941
53.770 9.359622
53.775 9.376271
53.780 9.289342
53.785 9.459406
53.790 9.5467
53.795 9.68189
53.800 10.015059
53.805 9.845142
53.810 9.937513
53.815 9.788189
53.820 9.600765
53.825 9.473206
53.830 9.30605
53.835 9.277875
53.840 9.567425
53.845 9.624155
53.850 9.716362
53.855 9.783526
53.860 9.971161
53.865 10.124773
53.870 9.890081
53.875 9.459399
53.880 9.083545
53.885 8.57515
53.890 7.688854
53.895 7.149586
53.900 7.257438
53.905 7.457549
53.910 7.476436
53.915 7.506047
53.920 7.665159
53.925 8.219831
53.930 8.266772
53.935 7.720624
53.940 7.511045
53.945 7.368571
53.950 7.349958
53.955 7.768515
53.960 7.957177
53.965 8.56761
53.970 8.648253
53.975 9.113997
53.980 10.009578
53.985 10.18854
53.990 9.93001
53.995 9.716179
54.000 9.758002
54.005 10.050724
54.010 9.644825
54.015 9.432207
54.020 9.577357
54.025 9.920923
54.030 9.754212
54.035 9.555087
54.040 9.339501
54.045 8.93473
54.050 8.477198
54.055 8.183831
54.060 8.056728
54.065 8.258302
54.070 8.033142
54.075 8.26845
54.080 8.862265
54.085 9.254678
54.090 9.513698
54.095 9.70361
54.100 9.328755
54.105 9.295133
54.110 9.168846
54.115 8.730758
54.120 8.412582
54.125 8.187109
54.130 8.438852
54.135 8.825044
54.140 9.028673
54.145 9.160143
54.150 9.765248
54.155 9.99954
54.160 9.967024
54.165 9.831124
54.170 9.754309
54.175 9.692506
54.180 9.473766
54.185 9.56479
54.190 9.899042
54.195 10.357328
54.200 10.613325
54.205 10.869685
54.210 11.018831
54.215 11.108209
54.220 10.876262
54.225 10.406233
54.230 10.820438
54.235 10.701297
54.240 11.028711
54.245 11.295861
54.250 11.432553
54.255 11.728629
54.260 11.793086
54.265 11.197255
54.270 11.079362
54.275 10.526992
54.280 10.084386
54.285 9.802685
54.290 9.672432
54.295 9.650818
54.300 9.669625
54.305 9.796101
54.310 9.698034
54.315 9.833045
54.320 9.98075
54.325 9.878604
54.330 9.912727
54.335 9.738406
54.340 10.108512
54.345 10.300635
54.350 9.818181
54.355 9.610909
54.360 9.413734
54.365 9.162336
54.370 8.921624
54.375 9.086874
54.380 9.336162
54.385 10.255077
54.390 10.291592
54.395 10.596944
54.400 10.603513
54.405 10.493694
54.410 10.163394
54.415 10.351467
54.420 10.056981
54.425 9.92315
54.430 9.5864
54.435 9.732553
54.440 9.628309
54.445 9.547954
54.450 9.250852
54.455 9.393111
54.460 9.553731
54.465 9.406649
54.470 9.0407
54.475 8.925223
54.480 9.10428
54.485 8.789522
54.490 8.553429
54.495 8.833274
54.500 9.196143
54.505 9.763034
54.510 9.763641
54.515 9.400944
54.520 9.700408
54.525 9.715978
54.530 9.558932
54.535 9.668315
54.540 10.049199
54.545 9.990923
54.550 9.67055
54.555 9.232105
54.560 9.48991
54.565 9.438623
54.570 9.153267
54.575 8.846355
54.580 9.454248
54.585 10.278386
54.590 11.0028
54.595 10.861559
54.600 10.952502
54.605 11.040002
54.610 11.255113
54.615 11.209876
54.620 11.248659
54.625 10.700735
54.630 10.898366
54.635 10.622719
54.640 10.560274
54.645 10.47865
54.650 10.080248
54.655 10.003404
54.660 9.834203
54.665 9.543336
54.670 9.909001
54.675 10.432281
54.680 10.778067
54.685 10.823599
54.690 10.756523
54.695 11.16338
54.700 11.189815
54.705 10.885671
54.710 10.608315
54.715 10.23525
54.720 9.757841
54.725 9.60393
54.730 9.598368
54.735 9.568505
54.740 9.127415
54.745 8.585355
54.750 8.741692
54.755 9.274196
54.760 9.153888
54.765 9.393917
54.770 9.408697
54.775 9.713916
54.780 10.219085
54.785 9.967159
54.790 9.883824
54.795 10.059261
54.800 10.132614
54.805 10.282468
54.810 10.426927
54.815 10.706069
54.820 11.285798
54.825 11.361414
54.830 11.217116
54.835 10.864408
54.840 10.792156
54.845 10.477659
54.850 10.475224
54.855 10.213008
54.860 10.206469
54.865 10.164706
54.870 10.028586
54.875 10.212001
54.880 9.992638
54.885 10.243349
54.890 10.172805
54.895 9.999516
54.900 10.264832
54.905 10.318813
54.910 10.605121
54.915 10.456945
54.920 9.953783
54.925 9.943
54.930 9.875287
54.935 9.884733
54.940 10.091909
54.945 9.901947
54.950 9.961402
54.955 10.30964
54.960 10.66384
54.965 10.737498
54.970 10.499606
54.975 10.008675
54.980 9.908262
54.985 10.398213
54.990 9.973229
54.995 9.738935
55.000 9.509684
55.005 9.433502
55.010 9.97384
55.015 10.030063
55.020 9.810806
55.025 10.005666
55.030 10.271217
55.035 10.817901
55.040 10.634374
55.045 10.497596
55.050 10.670769
55.055 10.480492
55.060 10.264696
55.065 9.996647
55.070 9.935289
55.075 10.23696
55.080 10.132723
55.085 9.778244
55.090 10.020913
55.095 9.994625
55.100 9.740747
55.105 9.507236
55.110 9.167672
55.115 8.89926
55.120 9.139179
55.125 9.48486
55.130 9.851486
55.135 10.367324
55.140 10.39303
55.145 10.44808
55.150 10.749775
55.155 10.694613
55.160 10.388976
55.165 10.344904
55.170 10.576098
55.175 11.017097
55.180 10.977459
55.185 10.841189
55.190 11.032812
55.195 10.612922
55.200 10.2044
55.205 9.949237
55.210 9.971373
55.215 10.33968
55.220 10.36824
55.225 10.118164
55.230 10.637029
55.235 10.914144
55.240 10.89673
55.245 11.130944
55.250 10.898292
55.255 10.400235
55.260 10.01862
55.265 9.597976
55.270 9.309306
55.275 9.026103
55.280 8.957258
55.285 9.115816
55.290 9.759779
55.295 10.132654
55.300 10.597437
55.305 10.796137
55.310 11.044016
55.315 10.63725
55.320 10.684208
55.325 10.438701
55.330 11.111492
55.335 11.247658
55.340 10.567975
55.345 10.622205
55.350 10.744928
55.355 10.770325
55.360 11.192812
55.365 10.348351
55.370 10.307777
55.375 10.649784
55.380 10.39233
55.385 10.523609
55.390 10.736526
55.395 10.704302
55.400 11.066576
55.405 11.408289
55.410 11.267327
55.415 11.044312
55.420 11.063003
55.425 10.573215
55.430 10.810115
55.435 9.999637
55.440 9.903575
55.445 10.363957
55.450 10.710985
55.455 10.473614
55.460 10.283313
55.465 10.117619
55.470 10.547927
55.475 10.577223
55.480 10.095188
55.485 10.409206
55.490 10.351975
55.495 10.579363
55.500 10.450045
55.505 10.643373
55.510 10.414509
55.515 10.322193
55.520 10.236093
55.525 10.620233
55.530 11.063102
55.535 11.64977
55.540 11.434765
55.545 11.907232
55.550 12.093588
55.555 12.285502
55.560 11.960253
55.565 11.302648
55.570 10.855757
55.575 10.779723
55.580 11.004676
55.585 11.59899
55.590 11.927554
55.595 12.559466
55.600 12.526327
55.605 12.565512
55.610 12.730741
55.615 12.245198
55.620 11.62943
55.625 11.094179
55.630 10.682014
55.635 10.423491
55.640 10.317878
55.645 10.146214
55.650 10.024146
55.655 10.013667
55.660 10.144075
55.665 10.210019
55.670 10.22673
55.675 10.097136
55.680 9.791075
55.685 9.808444
55.690 9.784013
55.695 9.702791
55.700 10.160464
55.705 10.048269
55.710 10.410979
55.715 10.807246
55.720 10.609843
55.725 10.189428
55.730 10.143841
55.735 10.094824
55.740 10.300749
55.745 10.154123
55.750 10.00211
55.755 10.179716
55.760 10.498468
55.765 10.292177
55.770 10.415548
55.775 10.484128
55.780 10.750314
55.785 11.005189
55.790 10.912756
55.795 11.115186
55.800 11.680553
55.805 11.595995
55.810 11.414347
55.815 11.681216
55.820 12.167237
55.825 12.507765
55.830 12.531426
55.835 11.996804
55.840 11.829843
55.845 12.167548
55.850 11.977474
55.855 11.584167
55.860 11.161731
55.865 10.625022
55.870 11.00622
55.875 11.409574
55.880 11.276992
55.885 11.696825
55.890 11.917764
55.895 12.108429
55.900 12.175487
55.905 12.25331
55.910 12.124732
55.915 12.356498
55.920 11.903711
55.925 11.90864
55.930 12.031912
55.935 11.934959
55.940 12.230353
55.945 12.414013
55.950 11.797326
55.955 11.675195
55.960 11.421302
55.965 11.330729
55.970 11.798181
55.975 12.018038
55.980 12.314289
55.985 12.483339
55.990 12.331315
55.995 12.933403
56.000 13.366179
56.005 13.06705
56.010 12.377466
56.015 11.991458
56.020 11.788262
56.025 12.116088
56.030 12.142558
56.035 11.959942
56.040 12.376792
56.045 12.182183
56.050 12.140821
56.055 12.129001
56.060 11.874411
56.065 11.37402
56.070 11.079822
56.075 10.786598
56.080 11.125574
56.085 11.605375
56.090 11.914783
56.095 12.212785
56.100 12.200569
56.105 12.161944
56.110 11.848153
56.115 11.649915
56.120 11.558097
56.125 11.239855
56.130 10.683442
56.135 10.61499
56.140 10.84395
56.145 10.748139
56.150 10.457998
56.155 10.587607
56.160 10.45537
56.165 10.501735
56.170 10.835923
56.175 10.596857
56.180 10.805582
56.185 10.159204
56.190 9.559081
56.195 9.926179
56.200 10.518323
56.205 10.126907
56.210 10.007222
56.215 10.565499
56.220 11.490991
56.225 11.914655
56.230 12.11759
56.235 12.227682
56.240 12.542883
56.245 13.200204
56.250 12.979015
56.255 12.816538
56.260 12.950209
56.265 13.015748
56.270 12.948603
56.275 12.649276
56.280 11.994393
56.285 12.305971
56.290 12.8407
56.295 13.315494
56.300 13.093741
56.305 12.883815
56.310 13.305475
56.315 13.566939
56.320 13.379786
56.325 12.577678
56.330 12.123186
56.335 12.187008
56.340 12.192971
56.345 11.70529
56.350 11.087545
56.355 10.658265
56.360 10.576486
56.365 10.320452
56.370 10.149972
56.375 9.946566
56.380 9.553548
56.385 10.151031
56.390 10.350508
56.395 10.489682
56.400 10.82834
56.405 11.154247
56.410 11.532608
56.415 12.252149
56.420 12.498711
56.425 12.709237
56.430 12.975483
56.435 13.137826
56.440 12.881392
56.445 13.310508
56.450 12.710971
56.455 12.692058
56.460 12.720685
56.465 12.522241
56.470 12.457498
56.475 12.593063
56.480 11.870696
56.485 11.94186
56.490 12.156724
56.495 12.140602
56.500 12.113218
56.505 11.900828
56.510 11.727152
56.515 12.081026
56.520 11.961964
56.525 11.3374
56.530 11.276917
56.535 11.552776
56.540 11.78255
56.545 12.100463
56.550 12.268735
56.555 12.195976
56.560 12.422591
56.565 12.85903
56.570 12.79976
56.575 12.411635
56.580 12.747518
56.585 12.845271
56.590 13.43325
56.595 12.836085
56.600 12.14138
56.605 12.223007
56.610 12.811508
56.615 12.785301
56.620 12.462072
56.625 12.63719
56.630 12.794375
56.635 12.336442
56.640 12.190566
56.645 12.089095
56.650 11.887531
56.655 11.713592
56.660 11.206516
56.665 11.324503
56.670 11.811998
56.675 11.890824
56.680 12.035402
56.685 12.15946
56.690 12.323729
56.695 12.784069
56.700 13.446369
56.705 13.628623
56.710 13.461432
56.715 13.153579
56.720 13.465073
56.725 14.034947
56.730 13.8942
56.735 13.297665
56.740 12.816487
56.745 12.612281
56.750 12.782862
56.755 12.866585
56.760 12.68753
56.765 12.946733
56.770 12.815599
56.775 13.441334
56.780 13.640714
56.785 13.230652
56.790 13.114457
56.795 13.486162
56.800 14.130668
56.805 14.607365
56.810 14.248638
56.815 14.199507
56.820 14.162456
56.825 13.874793
56.830 13.530485
56.835 13.25995
56.840 13.047874
56.845 13.033516
56.850 12.883221
56.855 12.970612
56.860 12.773509
56.865 12.161619
56.870 11.372716
56.875 10.785993
56.880 10.946801
56.885 11.128954
56.890 10.914688
56.895 10.912884
56.900 11.466162
56.905 12.448548
56.910 13.54869
56.915 13.480286
56.920 13.312778
56.925 13.582747
56.930 13.94365
56.935 13.544923
56.940 13.245333
56.945 13.023884
56.950 13.062329
56.955 13.468518
56.960 13.437048
56.965 12.732151
56.970 12.465743
56.975 12.563231
56.980 12.086083
56.985 12.028411
56.990 12.139945
56.995 12.183123
57.000 12.746336
57.005 13.258919
57.010 13.029799
57.015 13.572018
57.020 13.312344
57.025 13.088176
57.030 12.968795
57.035 12.387683
57.040 11.975489
57.045 12.507576
57.050 12.901577
57.055 12.906509
57.060 12.966675
57.065 13.51946
57.070 14.291165
57.075 14.341572
57.080 13.718166
57.085 13.148551
57.090 13.198077
57.095 12.8786
57.100 12.30848
57.105 12.019942
57.110 12.064725
57.115 11.992916
57.120 12.017145
57.125 11.75898
57.130 11.737516
57.135 11.707732
57.140 11.84663
57.145 12.039001
57.150 11.809501
57.155 12.289745
57.160 12.566723
57.165 12.814354
57.170 12.858844
57.175 12.409555
57.180 12.479218
57.185 12.693298
57.190 12.348164
57.195 12.481012
57.200 12.746198
57.205 12.718421
57.210 12.806443
57.215 12.123541
57.220 11.788511
57.225 11.569027
57.230 11.672719
57.235 11.754248
57.240 11.891794
57.245 12.010873
57.250 12.744245
57.255 13.382055
57.260 13.88282
57.265 13.359598
57.270 13.446389
57.275 13.433664
57.280 14.030149
57.285 14.419077
57.290 14.832982
57.295 15.328218
57.300 15.616193
57.305 15.129204
57.310 15.036448
57.315 14.513637
57.320 13.917475
57.325 13.255385
57.330 13.032529
57.335 13.499602
57.340 13.820493
57.345 13.607839
57.350 13.322212
57.355 13.128052
57.360 13.068079
57.365 12.95884
57.370 12.783955
57.375 13.003386
57.380 13.729374
57.385 14.121325
57.390 14.281447
57.395 14.185172
57.400 14.105852
57.405 14.021164
57.410 13.880612
57.415 13.440112
57.420 13.120906
57.425 12.647003
57.430 12.428847
57.435 12.402494
57.440 12.316105
57.445 12.035749
57.450 11.730994
57.455 11.527149
57.460 12.111533
57.465 12.377707
57.470 12.818646
57.475 12.720018
57.480 12.363492
57.485 12.774499
57.490 13.554118
57.495 13.427111
57.500 13.640018
57.505 13.304994
57.510 13.561468
57.515 14.162585
57.520 13.670814
57.525 13.329668
57.530 13.072564
57.535 12.73292
57.540 13.073864
57.545 13.184556
57.550 13.23915
57.555 13.119662
57.560 13.14076
57.565 13.52331
57.570 13.207875
57.575 12.578765
57.580 12.641728
57.585 12.671824
57.590 13.16767
57.595 13.045991
57.600 13.10055
57.605 13.494796
57.610 13.982132
57.615 13.669762
57.620 14.068054
57.625 14.019524
57.630 13.620739
57.635 13.097809
57.640 12.795978
57.645 12.922894
57.650 13.217875
57.655 13.119002
57.660 13.506853
57.665 13.641091
57.670 13.876864
57.675 14.186344
57.680 13.950223
57.685 14.320701
57.690 13.99966
57.695 13.722358
57.700 13.902495
57.705 14.117843
57.710 13.662652
57.715 13.901728
57.720 13.718479
57.725 13.667736
57.730 13.390224
57.735 13.244495
57.740 13.242488
57.745 13.584412
57.750 13.575717
57.755 13.565634
57.760 13.852901
57.765 14.470915
57.770 14.2307
57.775 14.254973
57.780 14.363188
57.785 13.934931
57.790 14.01822
57.795 13.770436
57.800 13.426093
57.805 13.874269
57.810 13.627685
57.815 13.082966
57.820 12.751689
57.825 12.97934
57.830 12.494061
57.835 12.5151
57.840 12.616712
57.845 12.635826
57.850 13.483263
57.855 14.020148
57.860 13.846666
57.865 14.706293
57.870 14.510777
57.875 14.114552
57.880 14.207314
57.885 13.692864
57.890 13.811352
57.895 13.980757
57.900 13.694961
57.905 13.812525
57.910 13.774278
57.915 13.450586
57.920 12.963291
57.925 12.489211
57.930 12.498883
57.935 12.543042
57.940 12.764018
57.945 13.467969
57.950 13.932369
57.955 14.237791
57.960 13.826729
57.965 13.698228
57.970 14.145792
57.975 14.271934
57.980 14.085861
57.985 14.248663
57.990 14.164584
57.995 14.549674
58.000 14.737633
58.005 14.429213
58.010 14.152746
58.015 13.74078
58.020 13.46188
58.025 13.828431
58.030 14.459858
58.035 14.994694
58.040 15.043822
58.045 14.838738
58.050 14.903714
58.055 14.713137
58.060 14.560002
58.065 14.159767
58.070 13.625932
58.075 13.461079
58.080 13.752687
58.085 13.524727
58.090 13.563334
58.095 13.745719
58.100 13.672952
58.105 13.361326
58.110 13.650829
58.115 13.734977
58.120 13.916908
58.125 14.132871
58.130 13.790731
58.135 13.940907
58.140 14.009104
58.145 14.031318
58.150 13.918298
58.155 13.905643
58.160 13.714361
58.165 13.78265
58.170 13.548877
58.175 13.553625
58.180 13.180652
58.185 13.432557
58.190 13.424438
58.195 13.208852
58.200 13.538594
58.205 13.888515
58.210 14.159795
58.215 14.176177
58.220 14.120015
58.225 14.352533
58.230 14.899681
58.235 14.858642
58.240 14.339691
58.245 14.057775
58.250 14.059041
58.255 14.281194
58.260 13.8744
58.265 13.831344
58.270 13.806587
58.275 14.266295
58.280 14.141905
58.285 14.010942
58.290 14.421245
58.295 14.874663
58.300 14.609951
58.305 14.573532
58.310 14.228144
58.315 14.678124
58.320 14.65356
58.325 14.183167
58.330 13.863707
58.335 13.895431
58.340 13.994006
58.345 14.57249
58.350 14.290814
58.355 14.348429
58.360 14.360058
58.365 15.030479
58.370 15.163949
58.375 15.279737
58.380 15.166482
58.385 15.89153
58.390 15.768632
58.395 15.805054
58.400 15.340971
58.405 15.16013
58.410 14.972173
58.415 14.911338
58.420 14.736094
58.425 14.698829
58.430 14.137732
58.435 13.455507
58.440 13.704658
58.445 13.489057
58.450 13.269736
58.455 13.097403
58.460 13.405177
58.465 14.019071
58.470 14.25794
58.475 13.962741
58.480 14.174129
58.485 14.281091
58.490 14.113578
58.495 14.696781
58.500 14.548062
58.505 14.69468
58.510 14.778584
58.515 14.718705
58.520 14.617884
58.525 14.642845
58.530 14.38051
58.535 14.706574
58.540 14.949135
58.545 14.727403
58.550 14.687453
58.555 15.234035
58.560 14.868293
58.565 14.428132
58.570 14.18113
58.575 14.049421
58.580 13.672133
58.585 13.301198
58.590 13.470038
58.595 13.8842
58.600 14.260025
58.605 14.108175
58.610 14.199931
58.615 14.467035
58.620 14.751285
58.625 14.565005
58.630 14.883118
58.635 14.648014
58.640 15.216974
58.645 15.39698
58.650 15.300654
58.655 14.631023
58.660 14.275657
58.665 14.428551
58.670 14.596446
58.675 14.293733
58.680 14.213988
58.685 14.712489
58.690 15.468459
58.695 16.378431
58.700 15.955782
58.705 15.756185
58.710 15.66087
58.715 15.77594
58.720 15.577868
58.725 15.284994
58.730 14.375256
58.735 14.116628
58.740 14.105406
58.745 14.137877
58.750 13.898342
58.755 14.0832
58.760 14.189456
58.765 14.269127
58.770 14.58337
58.775 14.656152
58.780 14.709154
58.785 14.917856
58.790 14.693515
58.795 14.748219
58.800 14.828854
58.805 14.919989
58.810 15.253428
58.815 15.01768
58.820 15.063699
58.825 14.938296
58.830 14.705617
58.835 14.840562
58.840 14.723773
58.845 14.622741
58.850 14.943151
58.855 14.619431
58.860 14.597837
58.865 14.196784
58.870 13.499911
58.875 13.221998
58.880 12.878714
58.885 12.675449
58.890 12.844143
58.895 13.373964
58.900 13.873806
58.905 14.636293
58.910 14.578206
58.915 14.268873
58.920 14.157122
58.925 14.038646
58.930 13.447123
58.935 13.112586
58.940 12.957727
58.945 12.830652
58.950 12.986852
58.955 12.897167
58.960 13.32952
58.965 13.627904
58.970 13.459872
58.975 13.229341
58.980 13.252934
58.985 13.436619
58.990 13.711577
58.995 13.523989
59.000 13.652864
59.005 14.326338
59.010 15.209787
59.015 15.992457
59.020 16.176313
59.025 16.367777
59.030 16.021259
59.035 15.745936
59.040 15.617202
59.045 15.318829
59.050 15.186192
59.055 15.424129
59.060 15.336456
59.065 15.469897
59.070 15.836735
59.075 15.562036
59.080 15.32408
59.085 14.982121
59.090 14.761389
59.095 14.714362
59.100 14.894463
59.105 14.842046
59.110 14.992826
59.115 15.340009
59.120 15.104299
59.125 15.067123
59.130 15.11852
59.135 15.252172
59.140 14.882313
59.145 15.273346
59.150 15.566089
59.155 16.054977
59.160 16.168344
59.165 16.479301
59.170 16.456141
59.175 16.893124
59.180 16.830486
59.185 16.310511
59.190 16.294178
59.195 15.834798
59.200 15.460321
59.205 15.144002
59.210 14.870346
59.215 14.648317
59.220 14.682349
59.225 14.404916
59.230 14.635484
59.235 14.500529
59.240 14.695882
59.245 14.86196
59.250 14.85479
59.255 15.279813
59.260 15.162972
59.265 14.964121
59.270 15.404328
59.275 15.572616
59.280 15.18943
59.285 14.806472
59.290 14.373672
59.295 14.859267
59.300 15.152519
59.305 15.139512
59.310 14.967857
59.315 15.294154
59.320 15.60869
59.325 15.794086
59.330 15.897329
59.335 15.900174
59.340 15.679179
59.345 15.681814
59.350 15.791826
59.355 15.352992
59.360 16.186035
59.365 16.300806
59.370 16.091118
59.375 16.094088
59.380 15.458889
59.385 15.280793
59.390 15.753282
59.395 14.899062
59.400 14.753505
59.405 14.781608
59.410 15.220606
59.415 15.861731
59.420 15.84004
59.425 15.415971
59.430 15.173009
59.435 15.185994
59.440 15.76523
59.445 16.142258
59.450 16.171499
59.455 16.175638
59.460 16.362648
59.465 16.918966
59.470 17.468243
59.475 17.320049
59.480 16.988348
59.485 16.939709
59.490 17.246487
59.495 17.935957
59.500 17.304077
59.505 16.832306
59.510 16.477207
59.515 16.515427
59.520 16.917267
59.525 16.891253
59.530 16.74044
59.535 17.396006
59.540 17.742882
59.545 17.569923
59.550 17.947409
59.555 18.528074
59.560 18.382637
59.565 18.001263
59.570 17.506145
59.575 17.42561
59.580 17.598415
59.585 17.100538
59.590 16.322559
59.595 16.598997
59.600 17.419561
59.605 17.716244
59.610 17.659689
59.615 18.213797
59.620 18.64249
59.625 19.0905
59.630 19.293961
59.635 18.760483
59.640 18.240074
59.645 17.668751
59.650 17.551315
59.655 17.301704
59.660 17.091755
59.665 16.801403
59.670 17.253408
59.675 17.776293
59.680 18.722973
59.685 19.029364
59.690 19.423313
59.695 19.218222
59.700 19.711288
59.705 20.083244
59.710 20.177479
59.715 19.407812
59.720 18.901215
59.725 18.655449
59.730 18.557175
59.735 17.55407
59.740 17.135576
59.745 17.215588
59.750 16.968464
59.755 16.872004
59.760 17.467466
59.765 18.069578
59.770 18.661524
59.775 18.54213
59.780 18.423876
59.785 18.968515
59.790 18.62961
59.795 18.407661
59.800 18.386261
59.805 18.837267
59.810 19.487448
59.815 19.957483
59.820 19.590281
59.825 20.133221
59.830 20.134132
59.835 20.071684
59.840 20.194073
59.845 20.264477
59.850 20.170284
59.855 20.435389
59.860 20.799362
59.865 20.456886
59.870 20.059938
59.875 19.800623
59.880 19.561085
59.885 19.737743
59.890 19.91271
59.895 20.260723
59.900 20.78046
59.905 21.11006
59.910 20.704252
59.915 20.292145
59.920 20.201347
59.925 20.407579
59.930 19.968941
59.935 19.850374
59.940 20.242981
59.945 20.788113
59.950 21.186409
59.955 21.238529
59.960 21.063068
59.965 20.768526
59.970 20.722536
59.975 19.905886
59.980 19.922941
59.985 20.403471
59.990 20.325716
59.995 20.030283
60.000 20.268356
60.005 20.732977
60.010 21.326967
60.015 20.886486
60.020 20.238363
60.025 19.911249
60.030 20.097771
60.035 20.120853
60.040 19.724949
60.045 19.743473
60.050 20.124037
60.055 20.894014
60.060 21.657503
60.065 21.904434
60.070 21.897028
60.075 22.320814
60.080 22.293184
60.085 22.035854
60.090 21.371513
60.095 21.434052
60.100 21.426226
60.105 21.857227
60.110 20.683975
60.115 20.707546
60.120 20.872221
60.125 21.10013
60.130 20.662897
60.135 20.708324
60.140 20.594826
60.145 21.257004
60.150 21.59301
60.155 21.31926
60.160 21.492258
60.165 21.694941
60.170 21.799528
60.175 21.876015
60.180 21.778639
60.185 21.823986
60.190 22.087629
60.195 21.678925
60.200 21.412561
60.205 21.080866
60.210 20.823122
60.215 21.069138
60.220 20.604708
60.225 20.80871
60.230 21.258726
60.235 21.306524
60.240 21.266245
60.245 21.316212
60.250 21.19124
60.255 21.196539
60.260 20.817486
60.265 20.484852
60.270 21.546085
60.275 21.530573
60.280 21.369459
60.285 21.072163
60.290 20.936701
60.295 21.266079
60.300 21.155138
60.305 20.176201
60.310 19.607372
60.315 19.489893
60.320 19.921888
60.325 20.044922
60.330 20.14748
60.335 20.498882
60.340 20.270313
60.345 20.546257
60.350 20.087757
60.355 19.735552
60.360 19.339678
60.365 18.90168
60.370 18.139835
60.375 18.036514
60.380 17.892681
60.385 18.446096
60.390 18.712732
60.395 19.81772
60.400 19.871271
60.405 20.053017
60.410 20.954491
60.415 21.134012
60.420 20.995272
60.425 20.79987
60.430 20.230852
60.435 20.000238
60.440 20.584259
60.445 20.0909
60.450 20.482466
60.455 20.390699
60.460 20.271339
60.465 20.238476
60.470 20.228888
60.475 20.386225
60.480 20.391228
60.485 19.821377
60.490 19.60198
60.495 19.210548
60.500 19.554564
60.505 20.337801
60.510 19.997816
60.515 20.253962
60.520 20.515345
60.525 21.090054
60.530 21.579426
60.535 21.273579
60.540 20.643927
60.545 20.265263
60.550 19.83506
60.555 20.271151
60.560 20.225258
60.565 19.735001
60.570 19.023371
60.575 18.564009
60.580 18.608511
60.585 18.793501
60.590 18.480785
60.595 18.290037
60.600 18.304152
60.605 18.716633
60.610 19.426462
60.615 18.861965
60.620 18.718666
60.625 18.664429
60.630 18.410376
60.635 18.884972
60.640 18.711027
60.645 18.766588
60.650 19.238668
60.655 18.899368
60.660 18.544798
60.665 18.057434
60.670 17.499786
60.675 17.46846
60.680 16.492315
60.685 16.011145
60.690 16.212954
60.695 16.758354
60.700 16.819044
60.705 17.065041
60.710 16.692471
60.715 16.848434
60.720 16.904089
60.725 16.471891
60.730 16.379404
60.735 16.64509
60.740 16.753654
60.745 17.105848
60.750 17.31604
60.755 17.259338
60.760 17.382446
60.765 17.317434
60.770 17.546614
60.775 16.762234
60.780 16.987356
60.785 16.932758
60.790 17.080128
60.795 17.123125
60.800 17.175234
60.805 17.38949
60.810 18.09473
60.815 17.394958
60.820 17.692837
60.825 17.77162
60.830 17.497772
60.835 17.076916
60.840 16.92375
60.845 16.910089
60.850 17.584734
60.855 17.863541
60.860 17.85611
60.865 18.292791
60.870 18.241817
60.875 18.084007
60.880 17.914341
60.885 17.614292
60.890 17.194872
60.895 17.804073
60.900 17.829216
60.905 18.002678
60.910 17.987335
60.915 17.715981
60.920 17.774364
60.925 17.519938
60.930 17.000681
60.935 17.046165
60.940 16.839178
60.945 16.448723
60.950 16.032898
60.955 15.564397
60.960 15.588729
60.965 15.617817
60.970 16.014202
60.975 15.766984
60.980 15.794767
60.985 15.991155
60.990 16.388504
60.995 16.383738
61.000 16.531784
61.005 16.608448
61.010 16.762571
61.015 17.225803
61.020 17.385471
61.025 17.102812
61.030 17.08674
61.035 16.684692
61.040 16.318628
61.045 16.853493
61.050 16.759098
61.055 16.705448
61.060 16.574522
61.065 16.928823
61.070 16.730158
61.075 16.133713
61.080 16.267694
61.085 16.269176
61.090 16.026482
61.095 16.100269
61.100 15.670832
61.105 16.206032
61.110 16.97447
61.115 16.686195
61.120 16.555561
61.125 16.957279
61.130 16.983635
61.135 16.850971
61.140 16.525347
61.145 15.940897
61.150 15.417481
61.155 15.226745
61.160 14.838508
61.165 14.98116
61.170 15.142446
61.175 15.147479
61.180 15.492837
61.185 15.520819
61.190 15.284004
61.195 15.735065
61.200 15.983239
61.205 15.984865
61.210 15.864603
61.215 15.44718
61.220 15.851322
61.225 16.753296
61.230 16.747446
61.235 16.437632
61.240 16.622019
61.245 16.959726
61.250 17.515554
61.255 17.79352
61.260 17.650326
61.265 17.962616
61.270 17.835321
61.275 17.615246
61.280 17.819134
61.285 17.928463
61.290 17.859682
61.295 17.83853
61.300 17.025267
61.305 17.327518
61.310 17.180428
61.315 16.569469
61.320 16.200254
61.325 15.992742
61.330 15.6996
61.335 16.020662
61.340 15.505835
61.345 15.330229
61.350 15.410424
61.355 15.516888
61.360 16.082674
61.365 16.698202
61.370 16.874504
61.375 17.740435
61.380 18.075392
61.385 18.662035
61.390 18.739136
61.395 17.912336
61.400 17.436174
61.405 16.949902
61.410 16.772318
61.415 16.9291
61.420 16.304985
61.425 16.202852
61.430 16.448801
61.435 16.404974
61.440 16.527136
61.445 16.612143
61.450 16.725313
61.455 17.074915
61.460 17.020941
61.465 16.679136
61.470 16.608015
61.475 16.781664
61.480 16.413359
61.485 15.871734
61.490 15.557586
61.495 15.60844
61.500 16.232586
61.505 16.729799
61.510 16.254917
61.515 16.032511
61.520 16.153109
61.525 16.32279
61.530 16.326786
61.535 16.499464
61.540 16.723219
61.545 17.594509
61.550 17.945484
61.555 18.135281
61.560 18.220604
61.565 18.34671
61.570 17.911697
61.575 17.649757
61.580 17.504765
61.585 17.740385
61.590 18.202965
61.595 18.074472
61.600 18.056238
61.605 17.990513
61.610 17.95962
61.615 17.975775
61.620 17.362602
61.625 16.725708
61.630 16.461063
61.635 16.366291
61.640 16.283159
61.645 15.603666
61.650 15.022113
61.655 15.202876
61.660 15.177528
61.665 15.001565
61.670 14.735773
61.675 14.948717
61.680 15.601626
61.685 16.1616
61.690 15.792738
61.695 15.832824
61.700 16.227692
61.705 16.246487
61.710 16.170403
61.715 15.836352
61.720 15.754396
61.725 16.484898
61.730 16.09938
61.735 16.146229
61.740 15.999878
61.745 16.345348
61.750 16.166988
61.755 16.518955
61.760 16.370699
61.765 16.416706
61.770 16.249407
61.775 16.730764
61.780 16.021479
61.785 15.5698
61.790 14.991261
61.795 15.304439
61.800 15.829845
61.805 15.797374
61.810 15.841962
61.815 16.542725
61.820 16.865919
61.825 16.730907
61.830 16.313406
61.835 16.2267
61.840 16.41201
61.845 16.1779
61.850 16.304537
61.855 16.774794
61.860 17.405989
61.865 17.410177
61.870 17.198072
61.875 17.583832
61.880 17.841862
61.885 17.804787
61.890 17.610855
61.895 17.689768
61.900 17.936506
61.905 18.01239
61.910 17.836622
61.915 17.615517
61.920 17.138752
61.925 17.145464
61.930 16.783005
61.935 16.897896
61.940 16.674179
61.945 16.100529
61.950 16.131977
61.955 16.204947
61.960 15.507926
61.965 15.424969
61.970 15.447852
61.975 15.798574
61.980 16.457777
61.985 16.335167
61.990 16.89469
61.995 18.171705
62.000 18.427385
62.005 17.919521
62.010 17.968189
62.015 17.85277
62.020 17.857771
62.025 17.71084
62.030 16.687984
62.035 16.248087
62.040 16.407963
62.045 16.064014
62.050 15.791922
62.055 15.725204
62.060 15.798161
62.065 16.226074
62.070 16.068016
62.075 16.041809
62.080 15.818655
62.085 15.777293
62.090 15.825764
62.095 15.995569
62.100 15.911239
62.105 16.034807
62.110 15.910877
62.115 16.216955
62.120 16.120186
62.125 15.923063
62.130 15.556095
62.135 15.867929
62.140 16.372347
62.145 16.239723
62.150 16.021616
62.155 16.05191
62.160 16.021076
62.165 16.698122
62.170 16.472214
62.175 16.15766
62.180 16.136168
62.185 16.218277
62.190 16.67238
62.195 16.752865
62.200 15.848577
62.205 16.004021
62.210 16.471964
62.215 16.914099
62.220 16.831608
62.225 16.385769
62.230 16.339769
62.235 16.365271
62.240 16.300615
62.245 15.52366
62.250 14.695411
62.255 14.739682
62.260 14.892076
62.265 15.001944
62.270 15.393723
62.275 15.525432
62.280 15.784983
62.285 16.306696
62.290 16.185877
62.295 15.790943
62.300 15.495643
62.305 14.980446
62.310 15.296778
62.315 15.087364
62.320 15.598111
62.325 16.598602
62.330 17.281885
62.335 17.06859
62.340 16.952318
62.345 16.559092
62.350 16.967997
62.355 16.201132
62.360 15.650209
62.365 15.506122
62.370 15.988204
62.375 16.020081
62.380 16.103634
62.385 16.110376
62.390 16.10177
62.395 15.65806
62.400 15.282377
62.405 15.466093
62.410 16.209822
62.415 16.600315
62.420 16.344976
62.425 16.799911
62.430 17.421602
62.435 17.747313
62.440 17.521076
62.445 17.44142
62.450 17.880943
62.455 18.389147
62.460 18.649202
62.465 18.578806
62.470 18.575096
62.475 18.974083
62.480 19.06913
62.485 18.33206
62.490 17.869661
62.495 17.083509
62.500 16.620707
62.505 16.385956
62.510 16.115139
62.515 16.16086
62.520 16.447813
62.525 16.914019
62.530 17.078691
62.535 17.378878
62.540 17.820375
62.545 18.037191
62.550 17.814924
62.555 17.8936
62.560 17.227005
62.565 17.125603
62.570 16.535185
62.575 16.274675
62.580 15.992661
62.585 15.370355
62.590 15.209115
62.595 15.546659
62.600 15.884706
62.605 16.623619
62.610 16.394587
62.615 15.951024
62.620 15.801303
62.625 16.147766
62.630 15.898388
62.635 15.889531
62.640 15.55531
62.645 15.794384
62.650 15.912334
62.655 16.052647
62.660 16.093765
62.665 16.780027
62.670 16.978195
62.675 17.059692
62.680 16.856895
62.685 16.864347
62.690 17.100891
62.695 16.834616
62.700 16.140802
62.705 16.207272
62.710 16.039434
62.715 16.173048
62.720 16.296518
62.725 16.497982
62.730 16.930145
62.735 17.245964
62.740 17.438095
62.745 17.61227
62.750 17.646231
62.755 18.233046
62.760 17.825905
62.765 17.602545
62.770 18.202084
62.775 17.976952
62.780 17.825424
62.785 17.357607
62.790 16.574165
62.795 16.397675
62.800 16.961586
62.805 16.536663
62.810 16.257267
62.815 16.612003
62.820 16.811029
62.825 16.734627
62.830 17.421482
62.835 17.273882
62.840 17.49181
62.845 17.318085
62.850 17.54895
62.855 17.460148
62.860 17.661655
62.865 17.381044
62.870 16.729437
62.875 16.809372
62.880 17.020229
62.885 16.64669
62.890 16.556263
62.895 16.079573
62.900 16.021418
62.905 16.30274
62.910 15.651356
62.915 15.399101
62.920 15.601981
62.925 15.9234
62.930 15.870048
62.935 15.929736
62.940 16.226095
62.945 16.652359
62.950 16.662579
62.955 16.498821
62.960 16.904318
62.965 16.966515
62.970 16.633194
62.975 16.307404
62.980 15.983343
62.985 15.672665
62.990 15.945621
62.995 15.879997
63.000 16.203093
63.005 16.440832
63.010 16.279263
63.015 16.383205
63.020 17.001738
63.025 17.113285
63.030 16.617105
63.035 16.470421
63.040 16.001745
63.045 15.890848
63.050 15.699877
63.055 15.27678
63.060 14.59746
63.065 14.723647
63.070 14.915428
63.075 15.477693
63.080 16.277258
63.085 16.167341
63.090 16.38681
63.095 16.843143
63.100 17.146824
63.105 16.936672
63.110 16.629869
63.115 16.870512
63.120 17.101728
63.125 17.079967
63.130 17.704237
63.135 17.730742
63.140 17.914351
63.145 17.892351
63.150 17.457436
63.155 17.629541
63.160 17.470823
63.165 16.886461
63.170 16.483084
63.175 16.241024
63.180 16.598879
63.185 17.027695
63.190 17.080252
63.195 17.025639
63.200 17.136221
63.205 17.415522
63.210 17.803783
63.215 17.087128
63.220 16.782457
63.225 16.920502
63.230 16.841038
63.235 16.707338
63.240 16.300917
63.245 15.952426
63.250 16.187002
63.255 16.171587
63.260 16.095665
63.265 16.327259
63.270 16.819725
63.275 17.398991
63.280 17.833324
63.285 18.518448
63.290 18.825394
63.295 18.927708
63.300 19.600107
63.305 19.616005
63.310 18.730947
63.315 18.425186
63.320 18.446344
63.325 18.664085
63.330 18.317364
63.335 17.578804
63.340 17.579973
63.345 17.960585
63.350 17.675074
63.355 17.091518
63.360 16.685759
63.365 16.562721
63.370 17.193192
63.375 17.727621
63.380 17.739845
63.385 17.71418
63.390 17.108391
63.395 16.995916
63.400 17.268833
63.405 16.807007
63.410 16.192999
63.415 15.943403
63.420 16.247345
63.425 17.227978
63.430 17.38908
63.435 17.104664
63.440 16.784359
63.445 17.278276
63.450 17.921133
63.455 18.011209
63.460 17.753967
63.465 17.479345
63.470 17.524191
63.475 17.723349
63.480 17.222242
63.485 17.296993
63.490 16.908585
63.495 16.52252
63.500 16.216894
63.505 16.017176
63.510 16.115587
63.515 15.939403
63.520 15.404965
63.525 15.481077
63.530 15.713644
63.535 16.555771
63.540 17.033949
63.545 16.986858
63.550 17.316523
63.555 17.792337
63.560 18.377493
63.565 18.879095
63.570 18.635916
63.575 18.529989
63.580 18.310848
63.585 17.699732
63.590 17.310293
63.595 16.957647
63.600 16.146017
63.605 15.570458
63.610 15.266239
63.615 15.586771
63.620 16.259657
63.625 16.437675
63.630 16.397316
63.635 16.188131
63.640 17.064051
63.645 17.829453
63.650 18.13685
63.655 18.465815
63.660 19.017746
63.665 19.354006
63.670 20.483089
63.675 20.669571
63.680 20.297083
63.685 20.244099
63.690 20.102674
63.695 19.691353
63.700 19.639147
63.705 19.24057
63.710 18.835449
63.715 18.081108
63.720 17.790224
63.725 17.565561
63.730 17.883371
63.735 17.999279
63.740 18.158152
63.745 17.950008
63.750 18.18082
63.755 18.605682
63.760 18.170795
63.765 17.649168
63.770 17.107683
63.775 17.364233
63.780 17.893982
63.785 17.869356
63.790 17.67581
63.795 17.913906
63.800 18.042686
63.805 17.471811
63.810 16.489779
63.815 16.292805
63.820 16.01087
63.825 15.622445
63.830 16.099808
63.835 16.567665
63.840 17.013876
63.845 16.837002
63.850 16.090269
63.855 16.560503
63.860 16.611879
63.865 16.204903
63.870 15.538114
63.875 15.731113
63.880 16.213299
63.885 16.849926
63.890 16.831249
63.895 16.723015
63.900 16.78475
63.905 17.340433
63.910 18.188913
63.915 18.133463
63.920 17.953856
63.925 17.931913
63.930 18.258123
63.935 17.929146
63.940 17.685785
63.945 17.29389
63.950 17.375488
63.955 17.29425
63.960 17.113672
63.965 17.044596
63.970 17.035776
63.975 16.778547
63.980 16.670746
63.985 16.946032
63.990 17.323578
63.995 17.742628
64.000 18.172817
64.005 18.580496
64.010 19.288784
64.015 19.315889
64.020 19.349758
64.025 19.496103
64.030 19.488642
64.035 19.368683
64.040 19.152178
64.045 19.133406
64.050 19.205656
64.055 18.737116
64.060 18.247396
64.065 17.879114
64.070 17.638683
64.075 17.953775
64.080 17.386618
64.085 17.411831
64.090 17.738188
64.095 17.169336
64.100 17.47838
64.105 17.729479
64.110 17.626957
64.115 17.71999
64.120 17.84549
64.125 18.022396
64.130 18.701166
64.135 18.768402
64.140 18.763987
64.145 18.436621
64.150 18.712214
64.155 18.092577
64.160 17.746059
64.165 17.66172
64.170 17.132772
64.175 17.14871
64.180 17.309587
64.185 17.548935
64.190 18.090816
64.195 18.338724
64.200 18.419014
64.205 18.625853
64.210 18.613527
64.215 18.138954
64.220 17.459555
64.225 17.124523
64.230 16.870659
64.235 16.534618
64.240 16.497116
64.245 16.307941
64.250 16.298985
64.255 16.3237
64.260 16.813274
64.265 17.45068
64.270 17.998922
64.275 18.103569
64.280 17.90555
64.285 18.47467
64.290 18.225874
64.295 18.041529
64.300 17.965755
64.305 18.217287
64.310 18.341537
64.315 18.958752
64.320 18.978868
64.325 19.64101
64.330 19.621197
64.335 19.112408
64.340 18.569275
64.345 18.585833
64.350 18.567499
64.355 18.641481
64.360 17.770538
64.365 17.82481
64.370 18.031166
64.375 18.370592
64.380 18.033447
64.385 17.698242
64.390 17.619076
64.395 17.817301
64.400 17.289476
64.405 17.257427
64.410 17.352617
64.415 17.682104
64.420 17.573298
64.425 17.739248
64.430 18.052361
64.435 18.958509
64.440 19.433212
64.445 19.564217
64.450 19.675903
64.455 19.962677
64.460 19.74741
64.465 19.455225
64.470 18.589027
64.475 17.989664
64.480 17.809534
64.485 17.748394
64.490 17.264235
64.495 17.33367
64.500 17.865234
64.505 18.080498
64.510 18.263248
64.515 18.387371
64.520 18.308805
64.525 18.812658
64.530 18.278885
64.535 17.967363
64.540 18.337631
64.545 18.225628
64.550 17.887529
64.555 17.695717
64.560 17.354652
64.565 17.715389
64.570 17.902721
64.575 17.605658
64.580 17.4018
64.585 17.521511
64.590 17.82126
64.595 18.362278
64.600 18.766346
64.605 19.188322
64.610 19.406532
64.615 19.284468
64.620 19.339743
64.625 19.214638
64.630 18.90966
64.635 18.368402
64.640 17.757334
64.645 18.436197
64.650 18.877268
64.655 18.394733
64.660 18.270861
64.665 18.163439
64.670 18.431343
64.675 18.296768
64.680 18.285648
64.685 18.222971
64.690 18.74407
64.695 18.734108
64.700 18.690779
64.705 18.961058
64.710 19.280359
64.715 18.724733
64.720 18.543898
64.725 18.379484
64.730 18.578394
64.735 18.648268
64.740 19.076281
64.745 19.125839
64.750 19.530746
64.755 20.266708
64.760 20.986933
64.765 20.882505
64.770 20.942831
64.775 21.021303
64.780 20.810781
64.785 20.698164
64.790 20.24333
64.795 20.302156
64.800 20.566118
64.805 20.349415
64.810 20.045244
64.815 20.256403
64.820 20.251122
64.825 20.284737
64.830 19.961861
64.835 19.957842
64.840 20.325146
64.845 20.173191
64.850 19.843779
64.855 19.483385
64.860 19.183107
64.865 18.934385
64.870 18.154181
64.875 17.936918
64.880 18.257843
64.885 18.356039
64.890 18.726145
64.895 18.632305
64.900 18.313425
64.905 18.773277
64.910 18.796879
64.915 18.310917
64.920 19.194937
64.925 19.104374
64.930 19.371958
64.935 19.972992
64.940 20.17375
64.945 20.190393
64.950 19.789173
64.955 19.346344
64.960 19.438423
64.965 19.364822
64.970 19.143297
64.975 19.212908
64.980 19.627798
64.985 20.339045
64.990 20.550264
64.995 20.765215
65.000 20.481112
65.005 20.67754
65.010 20.516266
65.015 20.482031
65.020 21.112289
65.025 20.919155
65.030 21.067324
65.035 21.24085
65.040 20.655832
65.045 20.332928
65.050 20.195257
65.055 19.608574
65.060 20.134012
65.065 20.391582
65.070 20.677561
65.075 21.510965
65.080 22.326172
65.085 22.718468
65.090 23.358969
65.095 23.306057
65.100 23.170719
65.105 23.954359
65.110 23.422016
65.115 22.928827
65.120 22.514429
65.125 21.952166
65.130 21.86141
65.135 21.400606
65.140 20.908304
65.145 21.334389
65.150 21.371168
65.155 21.760483
65.160 21.628775
65.165 21.658705
65.170 21.852676
65.175 22.070854
65.180 22.308704
65.185 22.030523
65.190 21.44631
65.195 21.386824
65.200 21.294222
65.205 21.442711
65.210 21.489216
65.215 21.603094
65.220 22.078346
65.225 22.121389
65.230 22.555357
65.235 22.697981
65.240 23.356844
65.245 23.247744
65.250 23.544193
65.255 23.709908
65.260 23.544624
65.265 22.89831
65.270 22.314531
65.275 22.08783
65.280 21.840761
65.285 21.20009
65.290 21.277296
65.295 21.675032
65.300 22.092737
65.305 21.946341
65.310 22.038656
65.315 22.415703
65.320 22.479797
65.325 22.873125
65.330 22.865257
65.335 22.973461
65.340 23.107351
65.345 23.02803
65.350 22.650885
65.355 22.59387
65.360 22.91176
65.365 23.236898
65.370 23.771658
65.375 24.436262
65.380 24.339756
65.385 24.970919
65.390 25.103081
65.395 23.979692
65.400 24.189133
65.405 24.267012
65.410 23.991625
65.415 24.466084
65.420 24.003124
65.425 23.900091
65.430 24.034481
65.435 23.851696
65.440 23.949654
65.445 24.239534
65.450 24.025208
65.455 25.085032
65.460 25.984715
65.465 25.928719
65.470 25.38134
65.475 25.255884
65.480 25.895161
65.485 26.131266
65.490 25.320574
65.495 24.819487
65.500 25.659355
65.505 26.097095
65.510 26.102793
65.515 25.811119
65.520 25.648703
65.525 26.270557
65.530 26.739883
65.535 26.501724
65.540 27.380016
65.545 27.692896
65.550 27.882362
65.555 27.668699
65.560 26.976671
65.565 26.865961
65.570 27.509563
65.575 28.102337
65.580 28.61904
65.585 28.693859
65.590 28.467184
65.595 28.572798
65.600 28.568405
65.605 28.597031
65.610 28.140863
65.615 28.521526
65.620 29.177021
65.625 30.720623
65.630 31.368362
65.635 31.774395
65.640 32.193996
65.645 31.776461
65.650 31.310482
65.655 31.334393
65.660 30.736584
65.665 30.243273
65.670 29.880976
65.675 29.570528
65.680 30.03281
65.685 30.699974
65.690 31.353148
65.695 31.852777
65.700 32.372398
65.705 32.372707
65.710 32.686943
65.715 33.849968
65.720 33.869301
65.725 34.035812
65.730 34.695049
65.735 34.577736
65.740 35.037712
65.745 35.426292
65.750 35.389828
65.755 35.461407
65.760 34.954052
65.765 35.02758
65.770 35.681149
65.775 35.538006
65.780 35.400757
65.785 34.880962
65.790 34.492416
65.795 34.384857
65.800 34.467133
65.805 34.519203
65.810 34.20314
65.815 34.132065
65.820 34.163578
65.825 34.203114
65.830 34.910244
65.835 35.522175
65.840 36.444588
65.845 36.942894
65.850 36.688824
65.855 37.326199
65.860 38.147331
65.865 37.762558
65.870 37.794979
65.875 37.773106
65.880 37.866566
65.885 37.52092
65.890 38.237804
65.895 38.282413
65.900 38.670193
65.905 38.002628
65.910 37.839226
65.915 37.871975
65.920 39.165604
65.925 39.110073
65.930 39.333836
65.935 38.770828
65.940 38.567772
65.945 38.842678
65.950 38.793098
65.955 38.183422
65.960 38.105095
65.965 38.340557
65.970 38.548016
65.975 38.801037
65.980 38.702209
65.985 38.958828
65.990 38.602516
65.995 38.077763
66.000 37.901794
66.005 37.834881
66.010 37.878098
66.015 37.576057
66.020 37.654289
66.025 37.544113
66.030 38.2076
66.035 38.58844
66.040 38.384251
66.045 37.944859
66.050 38.140476
66.055 38.0256
66.060 38.051483
66.065 37.199688
66.070 36.963726
66.075 37.095211
66.080 36.423542
66.085 36.965824
66.090 37.137074
66.095 37.43449
66.100 37.574768
66.105 37.59726
66.110 37.980175
66.115 38.634693
66.120 38.498276
66.125 38.635338
66.130 38.892517
66.135 38.560528
66.140 38.871929
66.145 38.833088
66.150 38.025387
66.155 37.449387
66.160 37.509949
66.165 37.278603
66.170 37.789131
66.175 37.365631
66.180 37.25692
66.185 37.941967
66.190 37.653694
66.195 37.128113
66.200 37.607407
66.205 37.476212
66.210 37.812092
66.215 38.021595
66.220 37.984524
66.225 38.078743
66.230 37.880146
66.235 37.19326
66.240 36.396267
66.245 35.93692
66.250 36.154949
66.255 36.035812
66.260 35.566658
66.265 35.222702
66.270 33.590992
66.275 33.304115
66.280 32.714703
66.285 31.951525
66.290 32.166889
66.295 33.007607
66.300 33.27269
66.305 33.343712
66.310 32.413712
66.315 32.130299
66.320 32.004318
66.325 31.64584
66.330 31.233746
66.335 31.016624
66.340 32.116459
66.345 33.092228
66.350 33.113758
66.355 33.141239
66.360 32.323269
66.365 31.399017
66.370 31.105747
66.375 31.153608
66.380 31.170494
66.385 31.029776
66.390 31.67664
66.395 32.621185
66.400 32.977802
66.405 32.873016
66.410 32.236797
66.415 32.105457
66.420 31.642542
66.425 30.93778
66.430 30.205982
66.435 29.565033
66.440 29.02536
66.445 28.285753
66.450 27.95676
66.455 27.535189
66.460 27.242941
66.465 27.111933
66.470 27.473961
66.475 27.861832
66.480 28.499142
66.485 28.546886
66.490 29.016951
66.495 28.877197
66.500 28.765371
66.505 28.700916
66.510 28.585012
66.515 28.186754
66.520 28.30245
66.525 27.913786
66.530 28.021734
66.535 27.862995
66.540 27.404173
66.545 26.427538
66.550 26.199741
66.555 25.674133
66.560 25.23259
66.565 25.200382
66.570 25.451399
66.575 25.849243
66.580 26.101328
66.585 25.741741
66.590 26.466351
66.595 26.780687
66.600 26.722536
66.605 26.426388
66.610 26.421476
66.615 26.321861
66.620 26.556936
66.625 26.042513
66.630 25.915184
66.635 25.558905
66.640 25.678238
66.645 25.49309
66.650 25.048948
66.655 24.218821
66.660 23.684017
66.665 23.488918
66.670 23.374483
66.675 23.248489
66.680 23.6106
66.685 23.799759
66.690 24.001991
66.695 24.667103
66.700 24.559723
66.705 25.018406
66.710 25.535034
66.715 25.357674
66.720 25.632971
66.725 25.443966
66.730 24.892769
66.735 24.795134
66.740 24.187561
66.745 23.941895
66.750 23.681223
66.755 23.770554
66.760 24.615412
66.765 24.674171
66.770 24.394638
66.775 24.169132
66.780 24.130766
66.785 23.95009
66.790 23.313728
66.795 21.555563
66.800 21.37504
66.805 21.536215
66.810 21.005268
66.815 20.817616
66.820 21.434668
66.825 20.699699
66.830 21.10301
66.835 20.832348
66.840 20.610338
66.845 20.827812
66.850 20.267794
66.855 20.262566
66.860 21.370361
66.865 22.131121
66.870 23.038618
66.875 23.521563
66.880 23.545389
66.885 24.419104
66.890 23.893427
66.895 23.260426
66.900 22.681715
66.905 22.109829
66.910 21.516247
66.915 20.481575
66.920 19.493311
66.925 19.57843
66.930 19.736052
66.935 19.7416
66.940 19.86385
66.945 20.56815
66.950 21.29743
66.955 21.923548
66.960 21.945425
66.965 22.202597
66.970 22.305437
66.975 22.38419
66.980 22.277073
66.985 22.009912
66.990 21.421362
66.995 21.123045
67.000 20.756449
67.005 20.28513
67.010 20.06538
67.015 20.286232
67.020 20.490488
67.025 20.747198
67.030 21.243414
67.035 22.070534
67.040 22.384521
67.045 22.162228
67.050 21.848501
67.055 22.016895
67.060 22.268087
67.065 21.831394
67.070 20.913317
67.075 20.665289
67.080 20.934359
67.085 21.392601
67.090 21.518768
67.095 21.613501
67.100 21.751381
67.105 21.83239
67.110 22.247879
67.115 22.730093
67.120 22.697121
67.125 22.860655
67.130 23.088846
67.135 23.175732
67.140 23.530972
67.145 23.094246
67.150 22.647675
67.155 22.581535
67.160 22.078215
67.165 21.85009
67.170 21.798801
67.175 21.645527
67.180 22.295666
67.185 22.61183
67.190 23.012131
67.195 22.937679
67.200 22.706602
67.205 22.732943
67.210 22.957211
67.215 23.001448
67.220 22.907581
67.225 22.373968
67.230 22.193863
67.235 22.019558
67.240 21.796436
67.245 20.890396
67.250 20.305252
67.255 19.8473
67.260 20.046684
67.265 20.167004
67.270 20.611845
67.275 20.879448
67.280 21.43565
67.285 21.54826
67.290 21.222467
67.295 21.28196
67.300 21.489944
67.305 21.384024
67.310 21.149084
67.315 20.956966
67.320 20.646248
67.325 20.846893
67.330 21.127163
67.335 20.957104
67.340 20.850676
67.345 21.430044
67.350 21.863272
67.355 22.35313
67.360 21.947063
67.365 21.857079
67.370 21.923491
67.375 21.856739
67.380 21.277153
67.385 20.566162
67.390 20.003349
67.395 20.056047
67.400 19.293736
67.405 18.853622
67.410 18.51446
67.415 18.498743
67.420 19.100304
67.425 19.272297
67.430 19.07033
67.435 19.434666
67.440 19.990969
67.445 20.16885
67.450 20.416508
67.455 20.600035
67.460 21.13483
67.465 21.571484
67.470 21.786985
67.475 21.604296
67.480 21.908947
67.485 21.300894
67.490 20.849916
67.495 20.420431
67.500 20.469847
67.505 20.615152
67.510 20.741663
67.515 21.109806
67.520 22.469069
67.525 22.31179
67.530 22.676027
67.535 22.64497
67.540 22.527481
67.545 22.279169
67.550 21.504593
67.555 20.988043
67.560 20.861843
67.565 20.285789
67.570 20.096769
67.575 19.797382
67.580 20.120188
67.585 20.47673
67.590 20.542015
67.595 20.908628
67.600 21.507044
67.605 21.799313
67.610 21.579956
67.615 21.833639
67.620 22.034367
67.625 21.906237
67.630 22.066216
67.635 21.939695
67.640 21.879715
67.645 22.434488
67.650 22.219017
67.655 22.144976
67.660 22.073196
67.665 21.718542
67.670 21.065506
67.675 20.869152
67.680 20.466455
67.685 19.729483
67.690 19.494196
67.695 19.620474
67.700 19.359974
67.705 19.664373
67.710 20.144527
67.715 20.170511
67.720 20.382772
67.725 19.857864
67.730 19.638538
67.735 20.313656
67.740 20.28516
67.745 19.922068
67.750 20.050962
67.755 19.844023
67.760 20.024397
67.765 20.213442
67.770 20.091911
67.775 19.730417
67.780 19.253222
67.785 19.294048
67.790 19.674669
67.795 20.010696
67.800 19.569323
67.805 19.606876
67.810 20.407204
67.815 21.200977
67.820 21.066498
67.825 21.179939
67.830 21.441593
67.835 21.373753
67.840 20.857758
67.845 20.238213
67.850 19.899048
67.855 20.488611
67.860 20.438602
67.865 20.198214
67.870 20.322071
67.875 20.254278
67.880 20.026939
67.885 20.075607
67.890 19.74894
67.895 19.704027
67.900 20.166761
67.905 20.496153
67.910 21.248775
67.915 21.599949
67.920 21.786661
67.925 21.579603
67.930 21.064001
67.935 21.405205
67.940 20.995068
67.945 20.683466
67.950 20.575474
67.955 20.306465
67.960 20.728012
67.965 21.091324
67.970 20.907532
67.975 21.335131
67.980 21.727369
67.985 22.294571
67.990 22.144159
67.995 21.547989
68.000 20.852575
68.005 19.944233
68.010 19.640606
68.015 19.141569
68.020 18.616667
68.025 18.563047
68.030 18.617691
68.035 19.276546
68.040 19.699711
68.045 19.725838
68.050 19.350439
68.055 19.722506
68.060 20.115705
68.065 20.042078
68.070 19.379377
68.075 18.909634
68.080 19.092163
68.085 20.093058
68.090 19.795807
68.095 19.769398
68.100 20.315454
68.105 21.036564
68.110 21.819099
68.115 22.244125
68.120 21.778063
68.125 21.758026
68.130 21.77932
68.135 21.489248
68.140 21.47138
68.145 21.29965
68.150 20.813787
68.155 20.553499
68.160 20.525106
68.165 20.285742
68.170 20.083614
68.175 19.442747
68.180 19.137197
68.185 19.56633
68.190 19.740223
68.195 19.413839
68.200 19.486456
68.205 19.62331
68.210 20.000399
68.215 19.66663
68.220 19.774839
68.225 20.398605
68.230 20.503489
68.235 20.817593
68.240 21.030792
68.245 21.350014
68.250 21.263275
68.255 20.843864
68.260 20.857584
68.265 20.716724
68.270 20.625452
68.275 20.460621
68.280 19.992918
68.285 20.352081
68.290 19.820614
68.295 19.654768
68.300 19.554201
68.305 19.342064
68.310 19.633432
68.315 19.616219
68.320 19.253042
68.325 19.225023
68.330 18.793587
68.335 19.223196
68.340 19.239805
68.345 18.990517
68.350 20.114456
68.355 20.794006
68.360 21.257902
68.365 21.846069
68.370 21.744211
68.375 22.419657
68.380 22.434544
68.385 21.575106
68.390 21.004005
68.395 21.139355
68.400 20.625381
68.405 20.00824
68.410 19.501366
68.415 19.791422
68.420 19.960821
68.425 19.819496
68.430 19.218573
68.435 19.356743
68.440 19.231571
68.445 19.472677
68.450 19.44327
68.455 19.364815
68.460 19.74021
68.465 20.672897
68.470 21.005733
68.475 21.426693
68.480 21.34553
68.485 21.336416
68.490 21.259512
68.495 20.690275
68.500 20.885586
68.505 21.223112
68.510 20.794144
68.515 20.641502
68.520 21.294071
68.525 21.684185
68.530 22.308033
68.535 21.746576
68.540 21.470142
68.545 21.63072
68.550 21.466944
68.555 20.992298
68.560 21.22183
68.565 21.42375
68.570 21.37096
68.575 21.867956
68.580 22.247282
68.585 22.660921
68.590 22.709284
68.595 22.295267
68.600 22.083597
68.605 22.246466
68.610 21.989805
68.615 21.821003
68.620 21.622553
68.625 21.736439
68.630 21.999796
68.635 22.430944
68.640 22.997944
68.645 22.895206
68.650 22.699877
68.655 22.083092
68.660 21.789595
68.665 21.677008
68.670 20.652975
68.675 20.096607
68.680 20.307333
68.685 20.73703
68.690 21.278934
68.695 21.481112
68.700 21.714008
68.705 22.131689
68.710 21.941345
68.715 21.584578
68.720 21.723139
68.725 22.107685
68.730 21.421814
68.735 20.397696
68.740 19.782217
68.745 19.833424
68.750 19.302036
68.755 18.532255
68.760 18.472078
68.765 19.135464
68.770 20.019905
68.775 20.159092
68.780 20.502092
68.785 21.225054
68.790 21.512274
68.795 21.689066
68.800 21.656725
68.805 21.721832
68.810 22.179237
68.815 21.790466
68.820 21.835096
68.825 21.824564
68.830 21.65914
68.835 21.749374
68.840 21.696983
68.845 21.227995
68.850 21.065514
68.855 20.877689
68.860 20.83629
68.865 20.938728
68.870 21.389561
68.875 21.307686
68.880 21.575691
68.885 22.079866
68.890 22.279102
68.895 22.649714
68.900 22.359093
68.905 22.625162
68.910 23.214907
68.915 23.418262
68.920 23.475996
68.925 23.813648
68.930 24.01063
68.935 24.145422
68.940 23.236952
68.945 23.076065
68.950 22.832558
68.955 23.017481
68.960 23.221798
68.965 23.297632
68.970 23.548761
68.975 23.69364
68.980 23.328012
68.985 24.029032
68.990 23.743023
68.995 23.082617
69.000 22.879713
69.005 22.396109
69.010 22.993521
69.015 23.805531
69.020 23.507092
69.025 23.91736
69.030 24.78084
69.035 25.354549
69.040 25.12895
69.045 24.578342
69.050 24.863804
69.055 24.793339
69.060 24.252209
69.065 23.567644
69.070 23.55427
69.075 24.71686
69.080 24.356657
69.085 23.252848
69.090 23.289501
69.095 23.140226
69.100 23.621851
69.105 23.886799
69.110 23.983906
69.115 24.822802
69.120 25.592247
69.125 25.533758
69.130 25.591372
69.135 25.002705
69.140 24.384155
69.145 24.019823
69.150 23.572895
69.155 23.974945
69.160 23.894579
69.165 24.401217
69.170 25.118059
69.175 25.052027
69.180 24.833641
69.185 25.185287
69.190 25.228615
69.195 25.610712
69.200 24.887568
69.205 24.557531
69.210 25.434998
69.215 25.660164
69.220 25.647146
69.225 25.654179
69.230 26.420494
69.235 26.900618
69.240 27.533407
69.245 27.583851
69.250 28.072159
69.255 28.233408
69.260 27.912279
69.265 27.657419
69.270 27.623503
69.275 27.176516
69.280 26.700855
69.285 26.170832
69.290 26.243111
69.295 26.617701
69.300 26.731544
69.305 27.264471
69.310 27.947754
69.315 28.427494
69.320 28.409945
69.325 28.112612
69.330 28.566444
69.335 28.26807
69.340 28.277992
69.345 28.020849
69.350 28.398733
69.355 28.407282
69.360 28.035772
69.365 27.563519
69.370 27.915781
69.375 27.755184
69.380 27.685471
69.385 27.141052
69.390 27.442904
69.395 28.627501
69.400 28.526873
69.405 27.86186
69.410 28.301985
69.415 28.83219
69.420 28.532814
69.425 28.002758
69.430 27.455622
69.435 27.838846
69.440 27.836451
69.445 27.016848
69.450 26.795012
69.455 28.352633
69.460 28.790707
69.465 29.13475
69.470 28.900728
69.475 29.10861
69.480 29.770639
69.485 29.818666
69.490 29.354536
69.495 29.288515
69.500 29.618265
69.505 30.210899
69.510 29.843145
69.515 29.523529
69.520 29.733786
69.525 29.568094
69.530 28.796921
69.535 27.908636
69.540 27.87867
69.545 27.772856
69.550 27.898134
69.555 27.715263
69.560 28.802345
69.565 29.252989
69.570 29.778885
69.575 29.826408
69.580 30.238789
69.585 30.450224
69.590 29.898457
69.595 28.601923
69.600 28.236704
69.605 28.059282
69.610 28.044224
69.615 27.894196
69.620 28.2188
69.625 29.228022
69.630 30.175095
69.635 30.697872
69.640 30.892174
69.645 30.576635
69.650 30.441118
69.655 28.706785
69.660 28.1796
69.665 27.964289
69.670 27.402559
69.675 27.333731
69.680 27.526918
69.685 27.620996
69.690 28.531824
69.695 28.18911
69.700 28.016924
69.705 28.121023
69.710 28.378328
69.715 28.047953
69.720 27.905548
69.725 28.429783
69.730 28.31492
69.735 28.388016
69.740 28.902588
69.745 29.212187
69.750 29.413244
69.755 29.440363
69.760 28.900909
69.765 29.395866
69.770 29.83379
69.775 28.872492
69.780 28.497791
69.785 28.079124
69.790 27.420139
69.795 26.665627
69.800 26.052176
69.805 25.330683
69.810 25.111744
69.815 25.092798
69.820 25.225225
69.825 25.577559
69.830 26.760252
69.835 26.60445
69.840 26.035452
69.845 25.675619
69.850 25.897793
69.855 25.835215
69.860 25.602568
69.865 24.60708
69.870 24.537695
69.875 25.101835
69.880 25.580227
69.885 25.178823
69.890 24.936361
69.895 24.556908
69.900 24.793171
69.905 25.216145
69.910 25.259901
69.915 24.601006
69.920 24.388176
69.925 24.801678
69.930 24.477966
69.935 24.205967
69.940 23.453659
69.945 22.570704
69.950 22.684938
69.955 23.12484
69.960 22.776688
69.965 23.203552
69.970 23.268536
69.975 23.42144
69.980 23.449093
69.985 23.426966
69.990 22.780357
69.995 22.958538
70.000 23.030722
70.005 22.492689
70.010 22.306688
70.015 22.533981
70.020 22.322264
70.025 22.643871
70.030 22.142263
70.035 21.800507
70.040 21.886829
70.045 21.668432
70.050 21.684748
70.055 21.859549
70.060 21.665308
70.065 21.743172
70.070 22.121925
70.075 22.51277
70.080 23.054531
70.085 23.500099
70.090 23.31016
70.095 23.092785
70.100 22.64558
70.105 22.096006
70.110 22.376314
70.115 22.188478
70.120 21.78175
70.125 21.934982
70.130 22.239182
70.135 22.270952
70.140 22.287466
70.145 22.507931
70.150 21.775923
70.155 20.938351
70.160 20.146177
70.165 19.62781
70.170 19.470451
70.175 19.225
70.180 18.671751
70.185 19.501993
70.190 19.772305
70.195 19.892199
70.200 20.253428
70.205 19.702711
70.210 19.408649
70.215 19.306461
70.220 18.924189
70.225 18.989614
70.230 18.966427
70.235 19.129158
70.240 19.184048
70.245 18.815302
70.250 18.575233
70.255 18.641485
70.260 18.739536
70.265 19.082825
70.270 19.638556
70.275 20.47036
70.280 21.098066
70.285 21.479113
70.290 21.426315
70.295 20.792316
70.300 20.377344
70.305 19.680176
70.310 19.05208
70.315 18.6905
70.320 18.328608
70.325 18.69318
70.330 19.487257
70.335 19.299995
70.340 19.261093
70.345 19.297043
70.350 19.300444
70.355 19.654179
70.360 20.134033
70.365 20.035782
70.370 20.331022
70.375 20.973751
70.380 21.265337
70.385 21.180696
70.390 20.975021
70.395 20.43206
70.400 20.127161
70.405 19.69348
70.410 18.697559
70.415 18.471725
70.420 18.298588
70.425 18.237816
70.430 18.206907
70.435 18.671062
70.440 18.972145
70.445 19.052559
70.450 18.98502
70.455 18.607286
70.460 18.808897
70.465 18.710659
70.470 18.252468
70.475 17.963413
70.480 18.083988
70.485 18.103317
70.490 17.898968
70.495 17.818035
70.500 18.105961
70.505 18.318363
70.510 18.741459
70.515 18.933048
70.520 19.437664
70.525 19.605127
70.530 19.128832
70.535 19.275196
70.540 19.44603
70.545 19.333563
70.550 19.393908
70.555 19.28998
70.560 19.496166
70.565 19.279215
70.570 19.04143
70.575 18.974628
70.580 18.445698
70.585 18.211288
70.590 18.013103
70.595 18.116734
70.600 18.22031
70.605 18.356409
70.610 18.743166
70.615 18.689281
70.620 18.996931
70.625 19.451605
70.630 19.300678
70.635 19.43244
70.640 19.438133
70.645 18.955572
70.650 19.033255
70.655 18.993107
70.660 18.776754
70.665 18.726851
70.670 19.230551
70.675 19.382614
70.680 20.033886
70.685 19.890053
70.690 19.567137
70.695 19.6789
70.700 19.286417
70.705 19.164801
70.710 18.847095
70.715 18.394623
70.720 18.684978
70.725 19.184294
70.730 19.704847
70.735 19.41872
70.740 18.719984
70.745 19.073986
70.750 18.88092
70.755 18.518038
70.760 17.797096
70.765 17.746061
70.770 18.304163
70.775 18.323809
70.780 18.640446
70.785 18.591963
70.790 18.919888
70.795 19.229992
70.800 18.53824
70.805 18.410135
70.810 18.181679
70.815 17.707037
70.820 18.46834
70.825 18.192326
70.830 18.247278
70.835 18.584337
70.840 18.622562
70.845 18.816542
70.850 18.745502
70.855 18.773563
70.860 19.222731
70.865 19.381069
70.870 19.102972
70.875 19.409586
70.880 19.411734
70.885 20.284563
70.890 20.067495
70.895 19.443605
70.900 19.25045
70.905 19.060867
70.910 18.817356
70.915 18.546478
70.920 17.906979
70.925 18.056581
70.930 18.656126
70.935 18.916677
70.940 18.876865
70.945 18.549662
70.950 18.274954
70.955 18.156874
70.960 17.650686
70.965 17.789408
70.970 18.09149
70.975 18.830851
70.980 19.287634
70.985 19.47912
70.990 19.895756
70.995 19.993176
71.000 19.659157
71.005 19.59766
71.010 19.019781
71.015 19.050741
71.020 19.309544
71.025 18.805433
71.030 18.999104
71.035 18.733109
71.040 18.39687
71.045 18.478849
71.050 18.618456
71.055 19.0627
71.060 19.525286
71.065 20.066751
71.070 20.197992
71.075 20.292595
71.080 20.708099
71.085 20.46413
71.090 20.634569
71.095 20.691643
71.100 20.141542
71.105 20.289852
71.110 19.927765
71.115 19.648466
71.120 19.56481
71.125 19.211151
71.130 18.97558
71.135 18.623268
71.140 18.275307
71.145 18.560106
71.150 18.433819
71.155 18.341888
71.160 17.905863
71.165 18.205963
71.170 18.659723
71.175 19.398056
71.180 18.985424
71.185 19.106331
71.190 18.912807
71.195 18.899622
71.200 19.159994
71.205 18.876438
71.210 18.797474
71.215 18.92605
71.220 19.111189
71.225 19.05356
71.230 18.814878
71.235 18.738028
71.240 18.885983
71.245 18.857424
71.250 18.738077
71.255 18.681593
71.260 18.58226
71.265 18.992445
71.270 18.195389
71.275 17.8312
71.280 17.541452
71.285 17.38982
71.290 17.257952
71.295 17.001623
71.300 16.035791
71.305 16.108183
71.310 16.186207
71.315 15.961177
71.320 16.057568
71.325 15.76286
71.330 16.364929
71.335 17.832359
71.340 18.593981
71.345 18.426453
71.350 19.000879
71.355 19.560415
71.360 19.7742
71.365 19.443724
71.370 19.047974
71.375 19.528439
71.380 19.617901
71.385 18.622972
71.390 18.192083
71.395 17.547703
71.400 17.660465
71.405 17.745094
71.410 17.818161
71.415 18.27622
71.420 18.400385
71.425 18.564953
71.430 18.46019
71.435 18.261621
71.440 17.191271
71.445 16.485989
71.450 16.457905
71.455 16.695986
71.460 17.168556
71.465 17.949951
71.470 18.51136
71.475 19.092457
71.480 19.434248
71.485 19.418186
71.490 19.757729
71.495 19.628338
71.500 19.225288
71.505 18.720772
71.510 18.86215
71.515 19.069
71.520 18.751408
71.525 18.557051
71.530 18.572161
71.535 18.249249
71.540 18.382244
71.545 18.126617
71.550 18.648407
71.555 18.425842
71.560 17.552919
71.565 17.365396
71.570 17.449745
71.575 17.103937
71.580 16.862101
71.585 17.015928
71.590 17.501139
71.595 18.020628
71.600 18.264524
71.605 17.870745
71.610 18.020466
71.615 17.938942
71.620 17.711309
71.625 17.996986
71.630 18.293625
71.635 17.865831
71.640 18.546885
71.645 18.61429
71.650 18.748949
71.655 18.977695
71.660 18.960772
71.665 18.988111
71.670 19.559465
71.675 19.486492
71.680 19.289078
71.685 19.160582
71.690 18.85803
71.695 18.355274
71.700 18.499865
71.705 18.509346
71.710 18.451643
71.715 18.42415
71.720 18.693922
71.725 18.748573
71.730 18.82901
71.735 18.481256
71.740 18.276081
71.745 18.346708
71.750 18.597324
71.755 18.74608
71.760 18.741148
71.765 18.477684
71.770 18.895954
71.775 19.128044
71.780 19.065445
71.785 19.240669
71.790 18.974426
71.795 19.785883
71.800 19.877714
71.805 19.890112
71.810 20.316547
71.815 20.386221
71.820 20.04283
71.825 19.109787
71.830 18.642963
71.835 18.616575
71.840 18.71801
71.845 18.212515
71.850 17.883997
71.855 17.878948
71.860 18.218904
71.865 18.283579
71.870 17.802845
71.875 17.720209
71.880 17.460447
71.885 17.587637
71.890 17.935707
71.895 17.974194
71.900 18.115786
71.905 18.376146
71.910 18.834011
71.915 19.33559
71.920 19.12582
71.925 18.828127
71.930 18.890305
71.935 18.735977
71.940 18.551384
71.945 17.253059
71.950 16.559206
71.955 17.321007
71.960 17.85541
71.965 18.295355
71.970 18.478283
71.975 18.577208
71.980 20.025074
71.985 20.487341
71.990 19.516676
71.995 18.940409
72.000 18.716652
72.005 18.32795
72.010 18.234205
72.015 18.019676
72.020 17.955868
72.025 18.707207
72.030 19.291191
72.035 19.590597
72.040 20.077085
72.045 19.562759
72.050 18.87504
72.055 19.151312
72.060 18.240612
72.065 18.509647
72.070 18.412844
72.075 18.161322
72.080 18.515831
72.085 19.342052
72.090 19.219913
72.095 19.170437
72.100 18.40276
72.105 18.127289
72.110 18.216677
72.115 17.859741
72.120 17.496536
72.125 17.765121
72.130 17.905594
72.135 18.145695
72.140 18.387672
72.145 17.908846
72.150 17.794134
72.155 17.205158
72.160 17.477711
72.165 17.04929
72.170 16.887655
72.175 17.55448
72.180 17.730167
72.185 17.728058
72.190 18.036709
72.195 17.911879
72.200 18.113487
72.205 17.720709
72.210 17.972582
72.215 17.840036
72.220 18.265238
72.225 18.269747
72.230 18.42606
72.235 18.359453
72.240 18.156055
72.245 18.002844
72.250 18.1842
72.255 18.040699
72.260 17.326237
72.265 17.315685
72.270 17.416313
72.275 17.532579
72.280 17.427397
72.285 17.380968
72.290 16.8265
72.295 17.224133
72.300 17.102911
72.305 17.321634
72.310 17.520882
72.315 17.371658
72.320 17.44846
72.325 17.32299
72.330 17.634897
72.335 17.845097
72.340 17.845839
72.345 17.600513
72.350 17.854082
72.355 17.688526
72.360 17.562891
72.365 17.20787
72.370 16.792532
72.375 16.655567
72.380 16.665531
72.385 16.17268
72.390 16.425262
72.395 16.821651
72.400 16.915882
72.405 16.765997
72.410 16.642443
72.415 16.652937
72.420 16.566992
72.425 16.855061
72.430 17.052744
72.435 17.093067
72.440 17.472708
72.445 17.484661
72.450 17.7381
72.455 17.992846
72.460 17.568758
72.465 17.17724
72.470 17.181631
72.475 16.802847
72.480 16.341431
72.485 16.827303
72.490 16.923796
72.495 17.426373
72.500 17.781643
72.505 17.914808
72.510 18.400661
72.515 18.877588
72.520 19.295286
72.525 19.358131
72.530 18.864922
72.535 18.9291
72.540 19.117393
72.545 19.233789
72.550 19.600868
72.555 19.369238
72.560 19.864801
72.565 19.303564
72.570 19.101252
72.575 19.217642
72.580 18.913519
72.585 18.345467
72.590 17.994717
72.595 17.832478
72.600 18.306463
72.605 18.23624
72.610 17.931919
72.615 18.120369
72.620 17.801535
72.625 17.553547
72.630 17.574245
72.635 17.364393
72.640 17.270037
72.645 17.840111
72.650 17.487736
72.655 17.410454
72.660 16.975752
72.665 16.392252
72.670 16.812946
72.675 16.54608
72.680 16.214079
72.685 16.091728
72.690 16.629316
72.695 17.447569
72.700 17.605345
72.705 17.05648
72.710 17.022058
72.715 16.922308
72.720 17.831974
72.725 17.419651
72.730 17.219545
72.735 17.450748
72.740 17.226171
72.745 17.634041
72.750 17.506325
72.755 16.238136
72.760 16.329926
72.765 16.638088
72.770 16.859518
72.775 17.202782
72.780 17.021833
72.785 17.189377
72.790 17.32823
72.795 16.747831
72.800 16.570337
72.805 16.010399
72.810 16.018177
72.815 15.841438
72.820 16.203547
72.825 16.522385
72.830 16.834703
72.835 17.337708
72.840 18.44006
72.845 18.545658
72.850 18.61161
72.855 18.236504
72.860 17.68384
72.865 16.874929
72.870 16.277948
72.875 15.275434
72.880 14.936822
72.885 15.121314
72.890 15.589529
72.895 16.458864
72.900 16.871445
72.905 16.614643
72.910 16.392347
72.915 16.026484
72.920 15.571334
72.925 15.685719
72.930 16.175499
72.935 16.348707
72.940 16.900192
72.945 17.411533
72.950 17.57736
72.955 17.727158
72.960 17.530682
72.965 16.777584
72.970 16.896729
72.975 16.964418
72.980 17.018356
72.985 17.490898
72.990 17.813183
72.995 18.039972
73.000 17.911905
