!@!!GADDS PLOTSO FILE: Chi integration type
!@!!Title/SampleName: map-26
!@!!Comment: ?
!@!!User: Bruker Instrument Administrator
!@!!Site: University of Illinois Chicago
!@!!Frame: map-26_01_000.gfrm
!@!!Wavelengths    1.54184   1.54056   1.54439
!@!!Frame angles: 2Theta: 63.000 Omega: 50.000 Phi: 0.000 Chi: 90.000
!@!!Integration range: 2Theta: 53.000 to 73.000  Gamma: -105.000 to -75.000
!@!!Integration method: bin normalized
!@!N
!@!SS
!@!M
!@!L 0.0 0.0 0.0 0.0
!@!XDegrees
!@!YCounts
53.000 8.053956
53.005 7.823217
53.010 7.908709
53.015 7.5397
53.020 7.39063
53.025 7.59207
53.030 8.00429
53.035 8.115951
53.040 7.775866
53.045 7.696934
53.050 7.980091
53.055 8.540799
53.060 8.425068
53.065 8.180895
53.070 8.39889
53.075 8.627871
53.080 8.665479
53.085 8.526066
53.090 8.135869
53.095 8.142105
53.100 8.307614
53.105 8.193539
53.110 8.069559
53.115 7.994673
53.120 7.658568
53.125 7.572927
53.130 7.496784
53.135 7.237247
53.140 7.221298
53.145 7.272371
53.150 6.901369
53.155 6.896828
53.160 6.973404
53.165 7.659735
53.170 8.020975
53.175 7.951927
53.180 8.29927
53.185 8.631085
53.190 9.044741
53.195 8.689454
53.200 7.899663
53.205 7.429848
53.210 7.152363
53.215 7.253747
53.220 7.261075
53.225 7.676248
53.230 7.988555
53.235 8.390706
53.240 8.908837
53.245 9.009559
53.250 8.952833
53.255 8.587413
53.260 8.694197
53.265 8.741509
53.270 9.038044
53.275 9.199151
53.280 9.379831
53.285 9.490543
53.290 9.21469
53.295 8.886605
53.300 8.543169
53.305 8.150893
53.310 7.900127
53.315 7.718236
53.320 7.660573
53.325 7.879371
53.330 8.18466
53.335 8.350259
53.340 8.398335
53.345 8.496972
53.350 8.251569
53.355 8.279176
53.360 8.002083
53.365 8.21307
53.370 8.557163
53.375 8.714936
53.380 8.729218
53.385 8.9502
53.390 8.960835
53.395 9.264213
53.400 9.077214
53.405 8.942431
53.410 9.088886
53.415 9.414547
53.420 9.41449
53.425 9.094707
53.430 8.903802
53.435 8.705965
53.440 8.587159
53.445 8.172069
53.450 8.460354
53.455 8.177842
53.460 8.344371
53.465 8.909356
53.470 9.342403
53.475 9.425699
53.480 9.33886
53.485 8.910863
53.490 9.302105
53.495 9.418736
53.500 8.900429
53.505 8.848144
53.510 9.239158
53.515 9.564916
53.520 9.427541
53.525 9.240732
53.530 9.560635
53.535 9.65351
53.540 9.573262
53.545 9.326738
53.550 9.184758
53.555 9.520465
53.560 9.696412
53.565 9.152985
53.570 9.081289
53.575 9.074666
53.580 9.771869
53.585 10.304747
53.590 10.447679
53.595 10.284177
53.600 10.064828
53.605 9.748809
53.610 9.657146
53.615 9.07277
53.620 8.838078
53.625 8.715622
53.630 9.176296
53.635 9.28603
53.640 9.489558
53.645 9.274001
53.650 9.163647
53.655 8.93116
53.660 8.341098
53.665 7.882362
53.670 7.974121
53.675 7.927892
53.680 7.731581
53.685 7.736513
53.690 7.639044
53.695 7.88719
53.700 8.152196
53.705 8.18929
53.710 8.103463
53.715 8.512015
53.720 8.719521
53.725 9.085665
53.730 9.249286
53.735 9.30648
53.740 9.416303
53.745 9.670666
53.750 9.653034
53.755 9.645129
53.760 9.857148
53.765 9.947412
53.770 9.615592
53.775 9.291027
53.780 9.08338
53.785 9.018959
53.790 9.014962
53.795 8.817332
53.800 8.768099
53.805 8.707987
53.810 9.057738
53.815 9.287496
53.820 9.287057
53.825 9.211758
53.830 9.271059
53.835 9.840043
53.840 10.935123
53.845 10.734408
53.850 10.224318
53.855 10.075026
53.860 10.157369
53.865 9.677379
53.870 9.037165
53.875 8.376359
53.880 8.601826
53.885 9.058224
53.890 9.154889
53.895 9.018979
53.900 8.764914
53.905 8.790138
53.910 8.477202
53.915 8.61571
53.920 8.692392
53.925 8.963278
53.930 9.575687
53.935 10.06566
53.940 9.983199
53.945 10.262384
53.950 10.205948
53.955 10.031934
53.960 9.849524
53.965 9.479671
53.970 9.456327
53.975 9.708912
53.980 9.63542
53.985 9.62566
53.990 9.517173
53.995 9.032578
54.000 9.022598
54.005 8.855956
54.010 8.853306
54.015 8.748807
54.020 8.85221
54.025 8.883708
54.030 8.917263
54.035 8.835403
54.040 8.639423
54.045 8.665236
54.050 8.651949
54.055 8.529568
54.060 8.502722
54.065 8.479568
54.070 8.806245
54.075 9.224816
54.080 9.385576
54.085 9.372313
54.090 9.696967
54.095 9.939605
54.100 9.704827
54.105 9.433544
54.110 9.772545
54.115 9.728792
54.120 9.640344
54.125 9.652541
54.130 10.092759
54.135 10.827107
54.140 10.577964
54.145 10.329837
54.150 10.518721
54.155 10.771986
54.160 11.10958
54.165 10.845482
54.170 11.107821
54.175 11.476702
54.180 11.461541
54.185 11.23839
54.190 11.17544
54.195 11.049274
54.200 10.949015
54.205 10.306166
54.210 10.138777
54.215 9.91876
54.220 9.710135
54.225 9.292065
54.230 9.054177
54.235 9.056708
54.240 9.206398
54.245 9.432766
54.250 9.577513
54.255 9.753143
54.260 9.77293
54.265 9.602199
54.270 9.446279
54.275 9.300308
54.280 9.485783
54.285 9.661119
54.290 9.657373
54.295 9.820919
54.300 9.852941
54.305 10.239529
54.310 10.113498
54.315 9.942345
54.320 10.402194
54.325 10.267188
54.330 10.135336
54.335 10.027906
54.340 9.882579
54.345 10.163944
54.350 9.670397
54.355 9.34137
54.360 9.676653
54.365 10.134746
54.370 10.467768
54.375 10.037595
54.380 10.149909
54.385 10.015768
54.390 9.861479
54.395 9.356459
54.400 8.83809
54.405 9.286147
54.410 9.568959
54.415 9.464074
54.420 10.063968
54.425 10.091928
54.430 10.014962
54.435 10.120403
54.440 10.12903
54.445 10.223476
54.450 10.164104
54.455 9.982145
54.460 10.101192
54.465 10.630885
54.470 10.749455
54.475 10.574782
54.480 10.457407
54.485 10.294744
54.490 10.136064
54.495 9.830265
54.500 9.68918
54.505 9.50722
54.510 9.137537
54.515 8.838514
54.520 8.819787
54.525 9.473579
54.530 10.026181
54.535 9.969624
54.540 9.699802
54.545 10.027251
54.550 10.100215
54.555 9.697575
54.560 9.434982
54.565 9.076398
54.570 8.955916
54.575 8.877214
54.580 8.742384
54.585 9.414495
54.590 9.664808
54.595 9.767739
54.600 9.850493
54.605 10.27707
54.610 10.581501
54.615 10.798869
54.620 10.358888
54.625 10.563816
54.630 10.453876
54.635 10.637441
54.640 10.481918
54.645 10.273242
54.650 10.177604
54.655 10.60602
54.660 10.769865
54.665 10.743826
54.670 10.53457
54.675 10.679424
54.680 11.165478
54.685 11.333733
54.690 10.987139
54.695 10.382844
54.700 10.449095
54.705 10.96483
54.710 10.507315
54.715 9.855844
54.720 9.550269
54.725 9.709724
54.730 9.638719
54.735 9.202469
54.740 9.090748
54.745 9.220537
54.750 9.367399
54.755 9.346674
54.760 9.309166
54.765 9.440815
54.770 9.213512
54.775 9.218977
54.780 9.658114
54.785 10.120799
54.790 10.242279
54.795 10.302753
54.800 10.856944
54.805 11.033566
54.810 10.993021
54.815 10.999789
54.820 10.73922
54.825 11.198403
54.830 11.020234
54.835 10.943314
54.840 11.251373
54.845 11.052066
54.850 10.65083
54.855 10.462145
54.860 10.25383
54.865 10.654725
54.870 11.019889
54.875 11.466673
54.880 11.531487
54.885 11.308869
54.890 11.109809
54.895 10.658187
54.900 10.539448
54.905 10.311043
54.910 9.992542
54.915 9.9861
54.920 10.296283
54.925 10.426567
54.930 10.431484
54.935 10.123406
54.940 9.865595
54.945 9.660321
54.950 9.953826
54.955 10.246354
54.960 10.418403
54.965 10.37895
54.970 10.216508
54.975 9.868605
54.980 10.135583
54.985 10.435853
54.990 10.440765
54.995 10.166744
55.000 10.07349
55.005 10.357443
55.010 10.757896
55.015 11.160891
55.020 11.384651
55.025 11.307872
55.030 11.335052
55.035 11.411092
55.040 11.22986
55.045 11.29848
55.050 10.497323
55.055 10.250558
55.060 10.540455
55.065 11.000656
55.070 11.030426
55.075 10.853127
55.080 10.559592
55.085 10.609674
55.090 10.385863
55.095 10.386642
55.100 10.295994
55.105 10.449771
55.110 10.880746
55.115 11.090178
55.120 11.707825
55.125 11.775962
55.130 11.570624
55.135 11.404925
55.140 11.325828
55.145 11.236095
55.150 11.195622
55.155 10.75994
55.160 10.721953
55.165 10.711856
55.170 10.906567
55.175 10.792861
55.180 10.708068
55.185 10.466874
55.190 10.054848
55.195 10.099081
55.200 9.995783
55.205 9.892915
55.210 9.822775
55.215 9.946857
55.220 10.162756
55.225 10.752489
55.230 10.36555
55.235 10.293074
55.240 10.45169
55.245 10.623789
55.250 10.389278
55.255 10.126572
55.260 9.719969
55.265 9.996575
55.270 10.165369
55.275 10.376227
55.280 10.651985
55.285 10.465418
55.290 10.177272
55.295 10.463771
55.300 10.383483
55.305 10.300841
55.310 9.644968
55.315 9.384027
55.320 9.739891
55.325 9.895709
55.330 9.844522
55.335 9.979648
55.340 10.025732
55.345 10.366882
55.350 10.413657
55.355 10.340048
55.360 10.311341
55.365 10.572844
55.370 11.069091
55.375 11.047377
55.380 10.674792
55.385 10.567195
55.390 10.439106
55.395 10.445653
55.400 9.924235
55.405 9.770648
55.410 9.567397
55.415 10.19196
55.420 10.78018
55.425 11.149348
55.430 11.512636
55.435 11.719489
55.440 11.623374
55.445 11.885551
55.450 11.703538
55.455 11.409175
55.460 11.340562
55.465 11.099913
55.470 11.199222
55.475 11.011574
55.480 11.116768
55.485 11.316307
55.490 11.422729
55.495 11.516954
55.500 11.459461
55.505 11.443741
55.510 11.770919
55.515 11.444554
55.520 11.077165
55.525 10.895099
55.530 10.650299
55.535 10.80059
55.540 10.426713
55.545 9.97871
55.550 10.033173
55.555 10.26972
55.560 10.054224
55.565 10.493977
55.570 10.528307
55.575 11.037437
55.580 11.974363
55.585 11.890818
55.590 11.481365
55.595 11.368867
55.600 11.063484
55.605 11.332449
55.610 11.274967
55.615 10.792783
55.620 11.062243
55.625 11.527409
55.630 11.717105
55.635 11.448674
55.640 11.145834
55.645 11.18062
55.650 11.199335
55.655 10.983285
55.660 11.007656
55.665 11.068728
55.670 11.398024
55.675 11.371006
55.680 10.954787
55.685 11.118288
55.690 11.395736
55.695 11.948246
55.700 12.24936
55.705 11.690407
55.710 11.582331
55.715 11.562904
55.720 11.389401
55.725 11.217155
55.730 10.449066
55.735 10.063537
55.740 9.962399
55.745 9.807801
55.750 9.942885
55.755 9.786597
55.760 9.898421
55.765 10.616069
55.770 11.156103
55.775 11.713563
55.780 11.934046
55.785 11.653458
55.790 12.226864
55.795 12.156075
55.800 11.767831
55.805 11.490715
55.810 11.282568
55.815 11.579243
55.820 11.473836
55.825 11.004248
55.830 11.787356
55.835 12.49671
55.840 12.856881
55.845 12.951751
55.850 13.260404
55.855 13.744167
55.860 13.824019
55.865 13.04042
55.870 12.416366
55.875 12.481091
55.880 12.327868
55.885 12.375854
55.890 12.680404
55.895 12.604549
55.900 12.57712
55.905 12.536954
55.910 12.394576
55.915 12.730816
55.920 12.508572
55.925 12.042117
55.930 11.941314
55.935 12.035242
55.940 11.747361
55.945 11.781378
55.950 11.352979
55.955 10.792366
55.960 10.9183
55.965 10.900869
55.970 10.55097
55.975 10.47972
55.980 10.413629
55.985 10.509031
55.990 11.140903
55.995 11.299967
56.000 11.457058
56.005 11.653075
56.010 12.181778
56.015 12.060096
56.020 11.749854
56.025 11.3097
56.030 11.350854
56.035 11.539765
56.040 11.57535
56.045 11.115884
56.050 11.102226
56.055 11.533799
56.060 11.37954
56.065 11.159762
56.070 11.061693
56.075 11.015731
56.080 11.115618
56.085 11.248754
56.090 10.85852
56.095 11.082409
56.100 11.496555
56.105 11.905076
56.110 11.696774
56.115 11.571914
56.120 11.63061
56.125 11.736142
56.130 11.461681
56.135 11.052823
56.140 11.199068
56.145 12.275033
56.150 12.481437
56.155 12.49052
56.160 12.738141
56.165 13.290154
56.170 13.367314
56.175 12.807728
56.180 11.99871
56.185 11.987857
56.190 12.12706
56.195 12.077959
56.200 12.138631
56.205 12.078022
56.210 12.045319
56.215 12.511138
56.220 12.821662
56.225 12.973413
56.230 13.465856
56.235 13.107635
56.240 13.330429
56.245 13.375274
56.250 13.153024
56.255 12.799273
56.260 12.317994
56.265 11.846205
56.270 11.956968
56.275 11.787221
56.280 12.248128
56.285 12.424799
56.290 12.281059
56.295 12.099068
56.300 11.600859
56.305 11.592648
56.310 11.218699
56.315 10.784789
56.320 11.321068
56.325 12.102452
56.330 12.089087
56.335 12.047338
56.340 11.721736
56.345 11.878133
56.350 11.64648
56.355 10.958317
56.360 10.476448
56.365 10.852347
56.370 11.015726
56.375 11.418952
56.380 11.646969
56.385 11.550451
56.390 11.338628
56.395 11.400228
56.400 11.562055
56.405 11.551958
56.410 11.286855
56.415 11.287508
56.420 11.715444
56.425 11.691174
56.430 11.643217
56.435 11.64194
56.440 11.607364
56.445 11.483621
56.450 11.772026
56.455 11.797217
56.460 12.022849
56.465 12.26453
56.470 11.955392
56.475 12.223396
56.480 12.543395
56.485 12.555451
56.490 13.216039
56.495 12.940995
56.500 12.894588
56.505 13.247705
56.510 13.600954
56.515 13.574039
56.520 13.147741
56.525 13.18811
56.530 13.665914
56.535 13.286188
56.540 12.990854
56.545 13.043339
56.550 12.879631
56.555 12.7788
56.560 11.918122
56.565 11.954866
56.570 12.445776
56.575 12.417475
56.580 11.780258
56.585 11.549953
56.590 11.381124
56.595 11.244699
56.600 11.446026
56.605 11.695636
56.610 11.702413
56.615 12.303714
56.620 13.055511
56.625 13.343269
56.630 13.379889
56.635 12.493729
56.640 11.728847
56.645 11.84521
56.650 11.349467
56.655 10.688125
56.660 10.548505
56.665 10.950285
56.670 11.597989
56.675 12.504067
56.680 12.874371
56.685 13.601583
56.690 13.909023
56.695 14.128647
56.700 14.060858
56.705 13.904263
56.710 14.0819
56.715 13.76268
56.720 13.608524
56.725 13.414921
56.730 13.46916
56.735 12.984445
56.740 13.198178
56.745 12.905706
56.750 12.742165
56.755 12.714593
56.760 12.841244
56.765 12.961211
56.770 12.956808
56.775 12.746349
56.780 12.988825
56.785 12.76958
56.790 12.693226
56.795 12.474249
56.800 12.307931
56.805 12.730637
56.810 12.958128
56.815 12.923294
56.820 12.943644
56.825 12.813561
56.830 13.357085
56.835 13.497965
56.840 13.617347
56.845 13.990592
56.850 13.858266
56.855 14.095049
56.860 14.650231
56.865 14.667358
56.870 14.485843
56.875 14.224337
56.880 14.227401
56.885 14.186327
56.890 13.900994
56.895 13.280652
56.900 13.16841
56.905 13.640091
56.910 13.827905
56.915 13.774377
56.920 14.089263
56.925 14.258549
56.930 14.411828
56.935 14.159038
56.940 13.68691
56.945 13.245011
56.950 12.594107
56.955 12.086775
56.960 12.047321
56.965 12.2892
56.970 12.790077
56.975 12.990582
56.980 12.813351
56.985 13.350636
56.990 13.926819
56.995 14.135698
57.000 13.801662
57.005 13.537987
57.010 14.085248
57.015 14.450332
57.020 13.683941
57.025 13.214036
57.030 13.108448
57.035 13.811089
57.040 13.583194
57.045 13.056512
57.050 13.179553
57.055 13.790248
57.060 13.974896
57.065 13.72136
57.070 13.505379
57.075 13.063254
57.080 12.59505
57.085 12.115316
57.090 12.022979
57.095 11.878284
57.100 11.746779
57.105 11.871927
57.110 12.573641
57.115 13.155543
57.120 13.297506
57.125 13.212662
57.130 13.545059
57.135 13.709984
57.140 13.246081
57.145 13.089796
57.150 12.973583
57.155 13.221483
57.160 13.054048
57.165 12.931921
57.170 12.801366
57.175 13.113948
57.180 13.242443
57.185 13.384418
57.190 13.870233
57.195 13.849722
57.200 13.856176
57.205 13.766551
57.210 13.292747
57.215 13.232778
57.220 13.015865
57.225 12.5403
57.230 12.649836
57.235 12.928231
57.240 13.344239
57.245 13.696157
57.250 13.638792
57.255 13.357147
57.260 13.301019
57.265 13.068996
57.270 12.793361
57.275 12.723486
57.280 12.635233
57.285 12.782139
57.290 13.111948
57.295 13.423998
57.300 13.717996
57.305 13.621054
57.310 13.573593
57.315 13.519217
57.320 13.777614
57.325 13.803555
57.330 13.819778
57.335 13.705267
57.340 13.578204
57.345 13.418183
57.350 13.302447
57.355 12.956631
57.360 13.173738
57.365 12.981327
57.370 13.446879
57.375 13.852654
57.380 14.028958
57.385 13.850389
57.390 13.693441
57.395 13.592952
57.400 13.46379
57.405 12.996913
57.410 12.990979
57.415 13.320181
57.420 14.09184
57.425 14.23686
57.430 14.051537
57.435 13.915781
57.440 13.911208
57.445 13.748652
57.450 13.571118
57.455 13.489338
57.460 13.954074
57.465 14.130987
57.470 14.300192
57.475 14.228458
57.480 14.028244
57.485 13.372432
57.490 12.85305
57.495 12.353674
57.500 12.736031
57.505 13.138212
57.510 13.500394
57.515 14.05379
57.520 14.007134
57.525 13.886876
57.530 13.636062
57.535 13.591907
57.540 13.747942
57.545 13.863837
57.550 13.911247
57.555 14.789478
57.560 15.371459
57.565 15.539585
57.570 15.059615
57.575 14.920263
57.580 14.632442
57.585 14.035202
57.590 13.691689
57.595 13.278897
57.600 13.871029
57.605 13.778874
57.610 13.655058
57.615 13.794289
57.620 14.32092
57.625 14.034281
57.630 14.139805
57.635 13.362732
57.640 13.326759
57.645 13.538445
57.650 13.250175
57.655 12.907825
57.660 13.101418
57.665 12.695553
57.670 12.778826
57.675 12.871108
57.680 12.733811
57.685 13.054378
57.690 13.03382
57.695 13.024536
57.700 14.054058
57.705 13.861481
57.710 14.167803
57.715 14.436117
57.720 14.421091
57.725 14.659482
57.730 14.581242
57.735 13.793671
57.740 13.642516
57.745 12.765695
57.750 12.644156
57.755 12.627762
57.760 12.877485
57.765 13.342395
57.770 13.857722
57.775 13.846118
57.780 14.491148
57.785 14.385992
57.790 13.722365
57.795 13.106923
57.800 12.70203
57.805 12.88558
57.810 13.124422
57.815 13.021662
57.820 13.022449
57.825 13.337192
57.830 13.714988
57.835 13.56097
57.840 13.545974
57.845 13.371045
57.850 12.666413
57.855 12.959795
57.860 13.116715
57.865 13.043523
57.870 13.571704
57.875 13.910765
57.880 14.546767
57.885 15.11224
57.890 14.7833
57.895 14.994275
57.900 14.443695
57.905 14.027893
57.910 13.769256
57.915 13.327602
57.920 13.566846
57.925 13.719489
57.930 13.596173
57.935 13.761938
57.940 13.6215
57.945 13.357187
57.950 13.015652
57.955 12.940712
57.960 12.552712
57.965 12.355565
57.970 12.714024
57.975 12.717832
57.980 13.251678
57.985 14.056768
57.990 14.64655
57.995 15.014737
58.000 14.932541
58.005 14.952538
58.010 14.64159
58.015 14.084311
58.020 13.544148
58.025 12.922112
58.030 13.21384
58.035 13.436785
58.040 13.110958
58.045 13.556756
58.050 13.870929
58.055 14.043478
58.060 14.221292
58.065 13.993233
58.070 14.123549
58.075 14.017909
58.080 13.73889
58.085 13.693323
58.090 13.820015
58.095 13.671961
58.100 13.690357
58.105 13.919057
58.110 14.486574
58.115 15.159055
58.120 15.310706
58.125 15.416583
58.130 15.443278
58.135 15.410803
58.140 15.690173
58.145 15.606483
58.150 15.714315
58.155 15.627355
58.160 14.725359
58.165 14.88887
58.170 15.574375
58.175 15.800253
58.180 15.629862
58.185 14.565965
58.190 14.491785
58.195 14.952653
58.200 14.547058
58.205 13.740548
58.210 13.069164
58.215 13.222949
58.220 14.130112
58.225 14.327639
58.230 14.319762
58.235 14.657783
58.240 14.670701
58.245 14.660033
58.250 14.251319
58.255 14.125652
58.260 13.964997
58.265 13.785304
58.270 13.213151
58.275 13.165163
58.280 13.405473
58.285 13.559547
58.290 13.3269
58.295 13.376966
58.300 13.731198
58.305 13.817063
58.310 13.528814
58.315 13.395914
58.320 13.83541
58.325 13.687386
58.330 13.490842
58.335 13.165344
58.340 13.481311
58.345 13.742729
58.350 13.18077
58.355 12.772828
58.360 12.93912
58.365 13.123619
58.370 13.57397
58.375 13.592536
58.380 13.903796
58.385 14.106665
58.390 14.015495
58.395 13.970949
58.400 13.913762
58.405 13.744271
58.410 13.915709
58.415 13.654473
58.420 13.495507
58.425 13.605536
58.430 13.913281
58.435 14.497676
58.440 14.245722
58.445 13.967794
58.450 14.09446
58.455 14.480875
58.460 14.870181
58.465 14.336781
58.470 13.895615
58.475 14.347512
58.480 14.778692
58.485 15.049104
58.490 15.189116
58.495 14.865289
58.500 14.809565
58.505 14.854992
58.510 14.818196
58.515 14.544076
58.520 14.183182
58.525 13.687714
58.530 13.461302
58.535 13.702053
58.540 14.037853
58.545 14.028157
58.550 13.991543
58.555 13.707575
58.560 14.053862
58.565 15.05457
58.570 15.286236
58.575 15.236902
58.580 15.211611
58.585 15.010709
58.590 15.610305
58.595 15.66611
58.600 15.444127
58.605 15.554734
58.610 15.17215
58.615 14.871964
58.620 14.818259
58.625 14.097424
58.630 13.915261
58.635 13.461679
58.640 13.018634
58.645 12.806273
58.650 12.775443
58.655 13.200276
58.660 13.841985
58.665 13.644099
58.670 13.734171
58.675 14.063906
58.680 14.624937
58.685 15.346927
58.690 15.597586
58.695 16.292627
58.700 16.705204
58.705 16.601471
58.710 16.451023
58.715 16.114845
58.720 15.980482
58.725 15.334695
58.730 15.194192
58.735 14.653131
58.740 14.400151
58.745 14.154157
58.750 14.615286
58.755 14.196671
58.760 14.570475
58.765 14.103198
58.770 14.601765
58.775 14.904078
58.780 14.775315
58.785 15.078309
58.790 15.491425
58.795 15.304096
58.800 15.090825
58.805 15.082928
58.810 15.339656
58.815 15.97033
58.820 15.357207
58.825 15.705716
58.830 15.713177
58.835 15.205288
58.840 15.258309
58.845 15.489576
58.850 15.10726
58.855 15.215816
58.860 14.891571
58.865 15.009306
58.870 15.441249
58.875 15.507216
58.880 14.587975
58.885 14.051272
58.890 13.740879
58.895 13.802932
58.900 13.638831
58.905 14.025837
58.910 14.004864
58.915 14.285523
58.920 14.75753
58.925 15.055437
58.930 14.825874
58.935 14.955602
58.940 14.14586
58.945 14.102843
58.950 14.282085
58.955 14.464772
58.960 14.674857
58.965 14.931157
58.970 15.431192
58.975 16.161343
58.980 15.863525
58.985 16.008059
58.990 15.716659
58.995 16.089697
59.000 16.262695
59.005 16.406282
59.010 16.439959
59.015 17.05621
59.020 17.19813
59.025 16.808765
59.030 16.300934
59.035 16.457142
59.040 16.61446
59.045 16.387945
59.050 15.930012
59.055 15.969801
59.060 16.388823
59.065 16.313509
59.070 15.78788
59.075 15.296445
59.080 15.877473
59.085 16.257441
59.090 15.618167
59.095 15.269163
59.100 14.881701
59.105 15.116745
59.110 14.970313
59.115 14.703477
59.120 15.084103
59.125 15.918004
59.130 16.443148
59.135 16.406441
59.140 16.470394
59.145 16.777317
59.150 16.622536
59.155 16.250618
59.160 15.937768
59.165 15.755147
59.170 15.634926
59.175 15.089501
59.180 15.38725
59.185 15.281786
59.190 14.951349
59.195 14.857725
59.200 14.53851
59.205 14.638585
59.210 14.532273
59.215 13.600462
59.220 13.642884
59.225 14.082559
59.230 14.323354
59.235 14.80394
59.240 15.21036
59.245 15.642068
59.250 16.363667
59.255 16.560377
59.260 16.06217
59.265 15.722257
59.270 15.782749
59.275 15.852121
59.280 15.449817
59.285 15.149094
59.290 15.680583
59.295 16.289545
59.300 16.446896
59.305 16.513765
59.310 16.863846
59.315 16.900166
59.320 16.885582
59.325 16.388149
59.330 16.340052
59.335 16.571396
59.340 16.733824
59.345 16.93939
59.350 17.271612
59.355 17.448019
59.360 17.426424
59.365 17.355932
59.370 17.229507
59.375 16.763454
59.380 16.875231
59.385 17.419426
59.390 18.237759
59.395 18.305513
59.400 18.573643
59.405 18.656258
59.410 19.166033
59.415 18.792162
59.420 18.337685
59.425 16.998962
59.430 17.15069
59.435 16.642208
59.440 16.546124
59.445 16.205597
59.450 15.796574
59.455 15.735249
59.460 16.482241
59.465 16.122372
59.470 16.692379
59.475 16.409136
59.480 16.450787
59.485 16.80842
59.490 16.970657
59.495 17.334049
59.500 17.428587
59.505 16.816454
59.510 17.087366
59.515 16.906942
59.520 16.762054
59.525 16.431843
59.530 16.293091
59.535 16.747742
59.540 16.80361
59.545 17.129049
59.550 17.808035
59.555 17.928946
59.560 17.862591
59.565 17.401443
59.570 17.117062
59.575 16.676598
59.580 15.68006
59.585 15.081857
59.590 15.435342
59.595 15.63185
59.600 15.956892
59.605 16.210102
59.610 17.046217
59.615 17.856329
59.620 18.302971
59.625 18.347477
59.630 17.979073
59.635 17.082411
59.640 16.648146
59.645 16.501078
59.650 15.989813
59.655 15.443616
59.660 14.808809
59.665 14.97541
59.670 15.754186
59.675 16.302299
59.680 16.34837
59.685 16.973324
59.690 17.836107
59.695 18.853981
59.700 20.022057
59.705 20.211519
59.710 19.798489
59.715 19.624561
59.720 19.159328
59.725 17.936527
59.730 17.469019
59.735 17.286682
59.740 17.153532
59.745 17.401636
59.750 17.833796
59.755 17.927801
59.760 18.504541
59.765 18.932785
59.770 19.186516
59.775 19.30941
59.780 18.957996
59.785 19.01284
59.790 19.031685
59.795 18.985607
59.800 18.352671
59.805 17.826338
59.810 18.233505
59.815 18.726086
59.820 18.626713
59.825 18.753105
59.830 18.611046
59.835 19.133934
59.840 18.83703
59.845 18.768654
59.850 18.61323
59.855 18.326773
59.860 18.103876
59.865 18.487263
59.870 18.111139
59.875 18.526154
59.880 17.943983
59.885 18.055864
59.890 18.739351
59.895 19.207485
59.900 19.518417
59.905 19.412994
59.910 19.33987
59.915 19.974762
59.920 20.09251
59.925 19.995077
59.930 19.964092
59.935 20.199684
59.940 20.453735
59.945 20.096428
59.950 19.669064
59.955 19.663296
59.960 19.928997
59.965 19.99497
59.970 19.303267
59.975 19.064709
59.980 19.385574
59.985 19.575802
59.990 19.411411
59.995 19.078453
60.000 19.171829
60.005 19.608183
60.010 20.274086
60.015 20.198624
60.020 20.178555
60.025 20.389803
60.030 20.442289
60.035 19.68852
60.040 19.289713
60.045 19.084286
60.050 19.477257
60.055 19.39793
60.060 19.02319
60.065 18.807772
60.070 18.953712
60.075 19.072454
60.080 18.958895
60.085 19.149998
60.090 20.030264
60.095 20.491911
60.100 21.019161
60.105 21.302597
60.110 21.126213
60.115 21.085047
60.120 21.253582
60.125 20.97891
60.130 20.744167
60.135 20.800533
60.140 21.496647
60.145 22.006485
60.150 21.801252
60.155 21.348246
60.160 21.253708
60.165 21.789412
60.170 21.686924
60.175 21.124115
60.180 21.178892
60.185 20.833954
60.190 20.429329
60.195 19.701548
60.200 19.667801
60.205 19.188026
60.210 18.846346
60.215 19.030207
60.220 19.494171
60.225 20.045752
60.230 20.772793
60.235 20.097542
60.240 20.014471
60.245 20.311443
60.250 19.611256
60.255 19.590754
60.260 19.259428
60.265 19.172243
60.270 20.227739
60.275 20.782284
60.280 20.957201
60.285 21.27368
60.290 21.819307
60.295 21.946306
60.300 21.482441
60.305 20.647074
60.310 21.091652
60.315 21.023783
60.320 20.925789
60.325 20.884449
60.330 21.263756
60.335 21.657703
60.340 22.290133
60.345 21.640821
60.350 22.142414
60.355 22.440701
60.360 21.839392
60.365 21.228355
60.370 20.713085
60.375 20.413193
60.380 20.504721
60.385 20.243589
60.390 20.428587
60.395 20.916304
60.400 20.980772
60.405 21.128597
60.410 20.926411
60.415 20.811567
60.420 20.838396
60.425 20.893141
60.430 20.722511
60.435 20.74435
60.440 20.548044
60.445 20.705729
60.450 20.757103
60.455 20.752703
60.460 20.327528
60.465 19.87192
60.470 20.080545
60.475 20.668919
60.480 21.024113
60.485 20.589931
60.490 20.256319
60.495 20.527754
60.500 20.746811
60.505 21.153872
60.510 20.76133
60.515 20.147535
60.520 20.303499
60.525 20.366636
60.530 20.167107
60.535 19.654781
60.540 18.692255
60.545 18.793003
60.550 19.280487
60.555 19.683189
60.560 19.546965
60.565 19.880186
60.570 21.010416
60.575 21.610659
60.580 21.78973
60.585 21.422817
60.590 20.820667
60.595 21.057953
60.600 20.701775
60.605 20.086571
60.610 19.484196
60.615 18.802671
60.620 18.302547
60.625 18.198286
60.630 17.804506
60.635 18.123144
60.640 18.732224
60.645 18.926573
60.650 19.197247
60.655 19.317799
60.660 19.687065
60.665 19.711187
60.670 19.73218
60.675 19.295773
60.680 18.840372
60.685 18.724476
60.690 19.208595
60.695 18.790226
60.700 18.920258
60.705 18.923136
60.710 19.748739
60.715 20.725533
60.720 21.136654
60.725 20.777958
60.730 21.323524
60.735 21.745838
60.740 21.204006
60.745 20.032194
60.750 19.448776
60.755 19.142328
60.760 19.201982
60.765 18.972105
60.770 18.700499
60.775 18.276436
60.780 18.469601
60.785 18.993885
60.790 19.288895
60.795 18.977314
60.800 19.125805
60.805 19.3076
60.810 19.973232
60.815 19.724283
60.820 18.889511
60.825 18.278265
60.830 18.18351
60.835 18.142748
60.840 18.077089
60.845 17.524122
60.850 17.733004
60.855 18.340403
60.860 18.726973
60.865 18.99823
60.870 18.311207
60.875 17.804829
60.880 17.972778
60.885 17.354925
60.890 17.175516
60.895 17.346003
60.900 17.445642
60.905 17.445408
60.910 17.891924
60.915 17.690321
60.920 17.693344
60.925 17.324677
60.930 16.740166
60.935 16.363251
60.940 16.20649
60.945 15.771251
60.950 15.676524
60.955 15.843148
60.960 15.882416
60.965 15.883046
60.970 16.296938
60.975 16.845232
60.980 16.809519
60.985 16.77504
60.990 16.996143
60.995 16.61801
61.000 16.84226
61.005 16.606133
61.010 16.380077
61.015 16.656231
61.020 17.308418
61.025 17.429863
61.030 17.531137
61.035 17.563898
61.040 17.936804
61.045 17.733908
61.050 17.663149
61.055 17.154041
61.060 16.858957
61.065 17.191973
61.070 17.015162
61.075 16.437513
61.080 16.295433
61.085 16.41436
61.090 15.436162
61.095 15.7261
61.100 16.126789
61.105 16.123354
61.110 16.107759
61.115 16.442028
61.120 16.44278
61.125 16.876579
61.130 16.234793
61.135 15.857904
61.140 15.843298
61.145 16.165028
61.150 15.745832
61.155 16.113028
61.160 16.703375
61.165 16.894815
61.170 17.398172
61.175 17.561388
61.180 17.484114
61.185 17.413479
61.190 17.037802
61.195 17.403866
61.200 18.203669
61.205 18.030659
61.210 18.089985
61.215 18.038393
61.220 18.488398
61.225 18.922148
61.230 18.888691
61.235 19.041359
61.240 18.679352
61.245 18.60795
61.250 18.504194
61.255 18.209826
61.260 17.692877
61.265 17.496319
61.270 17.261915
61.275 17.180481
61.280 17.668718
61.285 17.506907
61.290 17.500231
61.295 17.351568
61.300 16.301542
61.305 15.773762
61.310 15.721848
61.315 16.108768
61.320 16.758652
61.325 16.944201
61.330 17.473934
61.335 18.078701
61.340 18.671476
61.345 18.465467
61.350 17.33511
61.355 17.410738
61.360 17.289595
61.365 16.951799
61.370 17.139872
61.375 17.141363
61.380 17.258255
61.385 17.401129
61.390 17.648127
61.395 17.970543
61.400 18.145205
61.405 17.805136
61.410 17.461338
61.415 17.374081
61.420 17.512941
61.425 17.33807
61.430 16.97913
61.435 16.483929
61.440 16.651297
61.445 16.934101
61.450 17.56579
61.455 17.42028
61.460 17.074804
61.465 17.608139
61.470 18.23242
61.475 18.022245
61.480 18.059025
61.485 17.177849
61.490 17.304499
61.495 17.574852
61.500 16.889395
61.505 15.977128
61.510 15.54411
61.515 15.295409
61.520 15.121107
61.525 14.948074
61.530 15.301014
61.535 15.925565
61.540 16.58145
61.545 17.391766
61.550 17.883095
61.555 18.474939
61.560 18.458998
61.565 17.937437
61.570 17.620985
61.575 17.904533
61.580 17.53001
61.585 17.237011
61.590 16.742598
61.595 16.251249
61.600 15.816488
61.605 15.686585
61.610 15.40998
61.615 15.439565
61.620 15.538798
61.625 15.55673
61.630 15.99913
61.635 16.224199
61.640 16.511801
61.645 16.501886
61.650 16.369707
61.655 16.237757
61.660 16.199522
61.665 15.819671
61.670 15.752042
61.675 15.604315
61.680 16.095831
61.685 16.42474
61.690 16.555008
61.695 16.693199
61.700 16.664261
61.705 16.562601
61.710 16.69767
61.715 16.581682
61.720 16.345236
61.725 16.588221
61.730 16.470854
61.735 16.41478
61.740 16.688745
61.745 16.749386
61.750 16.582628
61.755 16.579031
61.760 16.590988
61.765 16.682175
61.770 17.135014
61.775 17.40834
61.780 17.282829
61.785 16.903196
61.790 17.230053
61.795 17.101711
61.800 17.371355
61.805 17.382383
61.810 17.147118
61.815 17.180586
61.820 18.176027
61.825 18.188761
61.830 17.867268
61.835 17.708332
61.840 17.140415
61.845 17.528559
61.850 17.626257
61.855 17.203131
61.860 16.831684
61.865 17.143881
61.870 17.072584
61.875 17.495464
61.880 17.146166
61.885 17.474838
61.890 17.922394
61.895 17.831692
61.900 18.284979
61.905 18.276627
61.910 18.351015
61.915 18.33457
61.920 17.747822
61.925 17.137774
61.930 17.401232
61.935 17.300682
61.940 17.410906
61.945 17.049513
61.950 16.70108
61.955 16.414555
61.960 15.981021
61.965 15.792439
61.970 15.905458
61.975 16.587736
61.980 16.81773
61.985 17.002573
61.990 16.964357
61.995 17.523947
62.000 17.093719
62.005 17.18679
62.010 16.772589
62.015 16.834988
62.020 17.08412
62.025 17.386639
62.030 17.206457
62.035 17.588152
62.040 17.186493
62.045 16.901262
62.050 16.415218
62.055 15.877666
62.060 15.823895
62.065 16.056627
62.070 16.600185
62.075 16.599152
62.080 16.768225
62.085 16.778568
62.090 17.360903
62.095 17.180786
62.100 16.184052
62.105 15.565116
62.110 15.65355
62.115 15.666574
62.120 16.104738
62.125 16.143517
62.130 16.119364
62.135 16.441576
62.140 16.904167
62.145 17.253851
62.150 17.16918
62.155 17.116961
62.160 16.862476
62.165 17.696068
62.170 18.218042
62.175 17.977184
62.180 17.394505
62.185 17.163376
62.190 17.067202
62.195 16.721209
62.200 16.049107
62.205 15.528251
62.210 15.384767
62.215 15.897087
62.220 15.700863
62.225 15.306083
62.230 15.962755
62.235 16.1173
62.240 16.567591
62.245 16.745672
62.250 16.417631
62.255 16.37603
62.260 16.2377
62.265 15.486122
62.270 15.174296
62.275 14.964364
62.280 14.851105
62.285 14.425223
62.290 14.492785
62.295 15.427479
62.300 15.763169
62.305 16.178545
62.310 16.53582
62.315 16.930424
62.320 17.84569
62.325 18.294416
62.330 17.757036
62.335 17.737553
62.340 17.136267
62.345 16.938938
62.350 16.379608
62.355 16.01487
62.360 16.192011
62.365 16.048565
62.370 15.949959
62.375 16.619543
62.380 16.634501
62.385 16.528931
62.390 16.973574
62.395 17.284266
62.400 17.214134
62.405 17.753897
62.410 18.001392
62.415 17.718416
62.420 17.529846
62.425 17.311275
62.430 16.797411
62.435 17.051397
62.440 17.127924
62.445 16.83946
62.450 17.166023
62.455 17.11482
62.460 16.815863
62.465 17.280975
62.470 17.505465
62.475 17.554504
62.480 17.669384
62.485 17.508556
62.490 17.782101
62.495 17.656515
62.500 16.901014
62.505 16.790148
62.510 16.57865
62.515 16.644758
62.520 17.125853
62.525 17.642406
62.530 18.211601
62.535 18.799332
62.540 19.053753
62.545 18.760231
62.550 18.18985
62.555 18.106258
62.560 17.679983
62.565 17.419331
62.570 17.127756
62.575 17.103273
62.580 16.930946
62.585 16.833971
62.590 16.788866
62.595 16.486811
62.600 16.816723
62.605 16.687727
62.610 16.503649
62.615 16.427496
62.620 16.088919
62.625 15.687715
62.630 15.935802
62.635 15.942292
62.640 15.745435
62.645 15.319049
62.650 16.07988
62.655 16.174398
62.660 17.048084
62.665 17.603018
62.670 18.343399
62.675 19.236408
62.680 19.874405
62.685 19.202187
62.690 19.602993
62.695 18.584587
62.700 17.67907
62.705 17.144064
62.710 16.937393
62.715 16.758589
62.720 17.236422
62.725 17.635656
62.730 18.663052
62.735 19.069571
62.740 18.816214
62.745 18.825542
62.750 18.675198
62.755 18.432339
62.760 18.037844
62.765 17.377806
62.770 17.035419
62.775 17.126999
62.780 16.863237
62.785 16.889944
62.790 17.09173
62.795 17.025269
62.800 17.644262
62.805 17.597067
62.810 17.310568
62.815 17.916807
62.820 18.122875
62.825 18.044006
62.830 18.264711
62.835 18.342224
62.840 18.224655
62.845 18.108852
62.850 17.921749
62.855 17.937386
62.860 17.571478
62.865 16.643023
62.870 16.683517
62.875 16.543694
62.880 16.151556
62.885 15.591622
62.890 15.248224
62.895 15.563863
62.900 16.205626
62.905 15.872306
62.910 16.490005
62.915 16.782553
62.920 16.878923
62.925 17.033342
62.930 17.312727
62.935 17.348011
62.940 17.835617
62.945 17.543648
62.950 17.125471
62.955 17.269068
62.960 17.070587
62.965 16.854349
62.970 17.122349
62.975 17.307013
62.980 17.584047
62.985 17.840416
62.990 17.836365
62.995 18.166697
63.000 18.306942
63.005 17.828993
63.010 17.660452
63.015 18.038004
63.020 18.559593
63.025 18.479795
63.030 18.360796
63.035 18.485977
63.040 18.625854
63.045 18.532227
63.050 18.211039
63.055 18.048216
63.060 18.482508
63.065 18.471437
63.070 18.182159
63.075 18.121834
63.080 18.18145
63.085 17.686914
63.090 17.973392
63.095 17.633337
63.100 17.241678
63.105 17.256266
63.110 16.871031
63.115 16.560114
63.120 16.526922
63.125 16.369024
63.130 16.435997
63.135 16.611488
63.140 16.339134
63.145 15.989043
63.150 16.176592
63.155 16.105589
63.160 16.191694
63.165 16.322851
63.170 16.361753
63.175 16.894217
63.180 17.781462
63.185 17.810879
63.190 17.625017
63.195 16.91605
63.200 16.834192
63.205 16.799349
63.210 16.619936
63.215 15.859247
63.220 15.043927
63.225 15.033198
63.230 15.090407
63.235 15.227592
63.240 15.375145
63.245 15.252944
63.250 15.183915
63.255 15.519415
63.260 16.078056
63.265 15.887372
63.270 15.771381
63.275 16.165499
63.280 17.074728
63.285 17.82707
63.290 18.147438
63.295 18.015499
63.300 18.21158
63.305 18.36153
63.310 18.280233
63.315 17.497618
63.320 17.471565
63.325 17.448757
63.330 17.242865
63.335 17.490396
63.340 17.219025
63.345 16.819508
63.350 16.656868
63.355 16.225914
63.360 16.357096
63.365 16.987425
63.370 17.143343
63.375 17.376076
63.380 17.550552
63.385 17.832741
63.390 18.211729
63.395 18.032564
63.400 17.805775
63.405 17.231579
63.410 16.918156
63.415 17.019148
63.420 16.961781
63.425 16.792492
63.430 17.25877
63.435 16.838673
63.440 16.65638
63.445 16.617693
63.450 17.012478
63.455 16.668283
63.460 16.289509
63.465 15.849294
63.470 16.780993
63.475 17.716015
63.480 17.738768
63.485 17.282831
63.490 17.478176
63.495 18.302448
63.500 18.55377
63.505 18.063206
63.510 18.042244
63.515 17.947189
63.520 17.967257
63.525 17.425865
63.530 16.715963
63.535 16.638409
63.540 16.260874
63.545 15.58728
63.550 15.425694
63.555 15.659399
63.560 16.496515
63.565 16.739187
63.570 16.698023
63.575 17.081076
63.580 17.501995
63.585 17.770185
63.590 17.942858
63.595 17.626314
63.600 17.317671
63.605 16.991039
63.610 16.629915
63.615 16.655184
63.620 16.24745
63.625 15.932008
63.630 15.477227
63.635 15.464144
63.640 16.06353
63.645 16.240688
63.650 16.307293
63.655 16.121969
63.660 15.85389
63.665 16.383202
63.670 17.255068
63.675 16.879065
63.680 17.438181
63.685 18.073359
63.690 18.497917
63.695 18.597942
63.700 18.600788
63.705 18.072933
63.710 18.166185
63.715 17.443672
63.720 17.343884
63.725 17.654413
63.730 18.10487
63.735 18.633087
63.740 18.634813
63.745 18.535046
63.750 18.790905
63.755 18.417191
63.760 18.194157
63.765 17.738035
63.770 17.11385
63.775 17.547613
63.780 18.105627
63.785 18.412231
63.790 18.313553
63.795 18.209982
63.800 18.338228
63.805 18.348835
63.810 18.411856
63.815 18.18259
63.820 17.789652
63.825 18.009428
63.830 18.247438
63.835 18.493912
63.840 18.510855
63.845 18.417561
63.850 18.26478
63.855 18.241028
63.860 18.086868
63.865 18.152969
63.870 17.974615
63.875 18.131275
63.880 17.605761
63.885 17.228018
63.890 17.330408
63.895 17.390751
63.900 16.860542
63.905 16.628475
63.910 16.79524
63.915 16.867138
63.920 17.104809
63.925 16.800364
63.930 16.527296
63.935 17.265261
63.940 17.508074
63.945 17.254244
63.950 17.55331
63.955 18.151293
63.960 18.593504
63.965 19.108364
63.970 19.217243
63.975 19.853027
63.980 19.873625
63.985 19.704464
63.990 19.188763
63.995 19.083231
64.000 18.884914
64.005 18.875065
64.010 19.105965
64.015 19.868334
64.020 20.524952
64.025 20.494078
64.030 20.554928
64.035 20.339222
64.040 19.907345
64.045 19.600113
64.050 19.18693
64.055 19.115608
64.060 19.764971
64.065 20.321148
64.070 20.592186
64.075 20.976704
64.080 20.319601
64.085 19.707129
64.090 18.864569
64.095 18.293648
64.100 18.181835
64.105 18.272463
64.110 17.964832
64.115 17.999968
64.120 18.027191
64.125 18.347235
64.130 18.468639
64.135 18.161545
64.140 17.823608
64.145 17.504168
64.150 18.05689
64.155 18.595118
64.160 18.664587
64.165 18.798771
64.170 18.827456
64.175 18.439791
64.180 18.390383
64.185 18.04917
64.190 17.566061
64.195 16.700914
64.200 16.261366
64.205 16.248104
64.210 16.600065
64.215 16.661209
64.220 16.490753
64.225 16.328636
64.230 16.387646
64.235 16.059912
64.240 16.414715
64.245 16.989349
64.250 17.538029
64.255 16.857672
64.260 16.909861
64.265 16.813013
64.270 16.684832
64.275 16.253317
64.280 15.486953
64.285 15.543938
64.290 16.368443
64.295 16.917927
64.300 17.872913
64.305 18.267567
64.310 18.77832
64.315 19.102047
64.320 19.286194
64.325 19.143124
64.330 19.050507
64.335 18.25845
64.340 18.085939
64.345 18.350239
64.350 19.020641
64.355 18.718979
64.360 18.855831
64.365 19.082769
64.370 19.147324
64.375 19.288952
64.380 19.092764
64.385 18.393063
64.390 18.46113
64.395 19.17338
64.400 19.274609
64.405 20.271015
64.410 20.566183
64.415 20.036827
64.420 19.73942
64.425 19.158709
64.430 18.626633
64.435 18.452969
64.440 18.325411
64.445 17.824837
64.450 18.098186
64.455 18.685722
64.460 19.07753
64.465 19.541353
64.470 19.529943
64.475 18.851143
64.480 19.238474
64.485 19.83559
64.490 19.85334
64.495 19.854244
64.500 19.58296
64.505 20.298086
64.510 21.115259
64.515 21.518217
64.520 21.22525
64.525 21.771669
64.530 21.677969
64.535 20.815725
64.540 19.745775
64.545 18.908125
64.550 18.541941
64.555 18.437929
64.560 17.733938
64.565 17.608574
64.570 17.998894
64.575 17.991205
64.580 17.897196
64.585 17.867226
64.590 17.579355
64.595 17.418921
64.600 17.721989
64.605 18.003279
64.610 18.633774
64.615 19.556744
64.620 19.331829
64.625 19.349678
64.630 19.812222
64.635 19.490692
64.640 19.329105
64.645 19.10784
64.650 18.627523
64.655 18.322598
64.660 18.397049
64.665 18.115885
64.670 18.756151
64.675 18.912436
64.680 19.237925
64.685 19.655115
64.690 20.303703
64.695 20.265398
64.700 20.32398
64.705 20.049829
64.710 20.346901
64.715 20.562548
64.720 20.774017
64.725 21.155794
64.730 21.45624
64.735 21.331045
64.740 21.338495
64.745 21.644999
64.750 21.454605
64.755 20.5758
64.760 19.762878
64.765 19.868025
64.770 20.545935
64.775 20.568277
64.780 20.400663
64.785 19.97802
64.790 20.030178
64.795 20.264444
64.800 19.63026
64.805 19.0019
64.810 18.679823
64.815 17.960564
64.820 17.918598
64.825 18.018404
64.830 18.212912
64.835 18.683773
64.840 19.279127
64.845 18.914133
64.850 19.066425
64.855 19.169209
64.860 19.113688
64.865 18.591461
64.870 18.166525
64.875 18.494503
64.880 19.50481
64.885 19.456306
64.890 19.368942
64.895 18.991398
64.900 19.509546
64.905 19.631344
64.910 19.323233
64.915 19.317169
64.920 19.599291
64.925 20.053322
64.930 20.460117
64.935 20.635242
64.940 20.162853
64.945 19.821611
64.950 19.893131
64.955 20.212336
64.960 20.05069
64.965 19.640238
64.970 19.793852
64.975 20.369873
64.980 20.120899
64.985 19.897499
64.990 19.739305
64.995 19.664774
65.000 19.678904
65.005 19.983856
65.010 20.20532
65.015 20.603354
65.020 21.09306
65.025 21.046408
65.030 21.771725
65.035 22.561045
65.040 21.76092
65.045 21.198715
65.050 21.410721
65.055 21.220922
65.060 20.84981
65.065 20.282406
65.070 19.908312
65.075 20.139658
65.080 20.077248
65.085 20.026665
65.090 20.090031
65.095 20.995586
65.100 21.280622
65.105 21.200506
65.110 20.97254
65.115 21.032398
65.120 21.027748
65.125 21.147268
65.130 20.335186
65.135 20.906178
65.140 21.690113
65.145 22.199783
65.150 22.139603
65.155 21.743914
65.160 21.07094
65.165 21.252903
65.170 20.977058
65.175 20.720234
65.180 20.50749
65.185 21.337976
65.190 21.745811
65.195 22.457922
65.200 23.122227
65.205 23.171589
65.210 22.844069
65.215 22.975321
65.220 22.615803
65.225 22.887541
65.230 22.850798
65.235 22.353815
65.240 22.829809
65.245 23.18054
65.250 23.781435
65.255 24.160542
65.260 23.725142
65.265 23.618479
65.270 23.690046
65.275 23.04299
65.280 23.312056
65.285 22.774815
65.290 22.894093
65.295 23.777843
65.300 23.392958
65.305 23.157608
65.310 23.021894
65.315 23.425318
65.320 23.495441
65.325 22.779009
65.330 22.145088
65.335 22.325977
65.340 21.968035
65.345 22.377905
65.350 21.358664
65.355 21.480286
65.360 21.61903
65.365 21.701542
65.370 22.418407
65.375 22.715611
65.380 22.896242
65.385 22.817238
65.390 22.719788
65.395 23.031256
65.400 23.193338
65.405 22.722717
65.410 22.83856
65.415 22.498974
65.420 23.211771
65.425 22.964895
65.430 22.666252
65.435 22.892038
65.440 23.424372
65.445 23.725395
65.450 23.638899
65.455 22.874004
65.460 22.861385
65.465 22.856945
65.470 22.330475
65.475 22.395086
65.480 22.844547
65.485 23.5555
65.490 24.214235
65.495 24.447992
65.500 25.031675
65.505 26.16815
65.510 26.681623
65.515 26.443213
65.520 26.63636
65.525 26.748871
65.530 26.907991
65.535 26.184998
65.540 26.152851
65.545 26.286667
65.550 26.885935
65.555 26.744862
65.560 26.877419
65.565 27.201992
65.570 27.74267
65.575 27.251169
65.580 26.879084
65.585 26.235441
65.590 26.304514
65.595 26.288425
65.600 26.221148
65.605 26.501997
65.610 26.819756
65.615 27.481773
65.620 27.944862
65.625 28.314066
65.630 28.447527
65.635 28.758175
65.640 29.049011
65.645 29.804098
65.650 30.414928
65.655 31.174757
65.660 31.310942
65.665 31.737576
65.670 31.709906
65.675 31.464365
65.680 30.918993
65.685 30.479954
65.690 30.96438
65.695 31.55113
65.700 32.520458
65.705 33.127895
65.710 34.00872
65.715 34.689995
65.720 35.02375
65.725 35.055321
65.730 34.838867
65.735 33.786629
65.740 33.613728
65.745 33.691544
65.750 34.647106
65.755 35.130966
65.760 34.959042
65.765 35.38728
65.770 35.925518
65.775 36.568913
65.780 36.536045
65.785 35.567005
65.790 35.700035
65.795 34.906834
65.800 34.667271
65.805 34.681053
65.810 34.905148
65.815 34.985256
65.820 34.796059
65.825 34.654465
65.830 35.451397
65.835 35.835835
65.840 36.565479
65.845 36.30851
65.850 36.312866
65.855 37.006763
65.860 37.158226
65.865 37.751812
65.870 38.247025
65.875 37.529518
65.880 36.966824
65.885 36.970413
65.890 37.338505
65.895 37.170193
65.900 37.034142
65.905 36.895119
65.910 37.830864
65.915 38.41095
65.920 38.532257
65.925 37.835838
65.930 37.889103
65.935 37.976871
65.940 37.906551
65.945 37.183594
65.950 37.303883
65.955 37.42609
65.960 38.226528
65.965 38.651775
65.970 38.848907
65.975 38.126545
65.980 37.198383
65.985 36.876263
65.990 36.959808
65.995 36.500954
66.000 35.648506
66.005 35.070988
66.010 35.723392
66.015 36.536869
66.020 36.709835
66.025 36.558914
66.030 36.563236
66.035 35.971432
66.040 35.384357
66.045 35.332203
66.050 35.328171
66.055 34.886135
66.060 34.900757
66.065 35.625851
66.070 36.52634
66.075 36.960922
66.080 36.956326
66.085 37.058208
66.090 36.917683
66.095 36.901863
66.100 36.191307
66.105 36.540112
66.110 37.005535
66.115 37.055202
66.120 37.600746
66.125 37.905087
66.130 38.264
66.135 38.043777
66.140 37.234695
66.145 37.324249
66.150 36.451656
66.155 36.172993
66.160 36.637272
66.165 36.551872
66.170 36.920906
66.175 36.954685
66.180 36.733459
66.185 36.579643
66.190 36.047558
66.195 35.561878
66.200 34.594177
66.205 34.949276
66.210 35.094303
66.215 34.954651
66.220 35.355206
66.225 34.9086
66.230 34.670906
66.235 35.031391
66.240 34.405575
66.245 34.119373
66.250 33.691746
66.255 33.157955
66.260 32.712509
66.265 32.798981
66.270 32.681793
66.275 33.080673
66.280 33.184471
66.285 33.329105
66.290 33.567963
66.295 34.259907
66.300 33.809055
66.305 32.770847
66.310 31.898994
66.315 32.001213
66.320 32.307739
66.325 32.424049
66.330 31.678961
66.335 31.590979
66.340 31.875095
66.345 32.482403
66.350 31.778763
66.355 31.162363
66.360 30.9561
66.365 30.960615
66.370 31.086399
66.375 30.630997
66.380 30.373478
66.385 30.549683
66.390 30.191492
66.395 29.976858
66.400 29.450167
66.405 29.557711
66.410 30.080452
66.415 29.870972
66.420 29.89691
66.425 30.633148
66.430 30.428228
66.435 30.484232
66.440 29.980951
66.445 29.187969
66.450 28.705734
66.455 28.533659
66.460 28.256342
66.465 28.672533
66.470 29.147997
66.475 29.179152
66.480 29.541128
66.485 29.515156
66.490 28.625525
66.495 28.250774
66.500 27.735075
66.505 27.879494
66.510 27.992847
66.515 27.835913
66.520 27.751314
66.525 27.334055
66.530 26.980286
66.535 27.166927
66.540 27.114609
66.545 26.602085
66.550 25.902552
66.555 25.720358
66.560 25.810131
66.565 26.768116
66.570 26.932735
66.575 26.54579
66.580 26.453081
66.585 26.953142
66.590 27.16449
66.595 27.525105
66.600 26.977001
66.605 26.626842
66.610 26.597261
66.615 26.131403
66.620 25.790842
66.625 25.980015
66.630 26.439596
66.635 26.357641
66.640 26.139738
66.645 25.574142
66.650 25.110716
66.655 25.275221
66.660 25.186329
66.665 24.719746
66.670 24.481474
66.675 24.25032
66.680 24.754879
66.685 25.619541
66.690 25.945786
66.695 25.436665
66.700 24.742149
66.705 24.535261
66.710 24.419607
66.715 24.383547
66.720 23.667574
66.725 23.272644
66.730 23.781105
66.735 23.936239
66.740 24.475607
66.745 24.857105
66.750 24.64397
66.755 25.037481
66.760 25.20108
66.765 24.877195
66.770 25.119806
66.775 25.158604
66.780 25.898821
66.785 26.046091
66.790 25.756174
66.795 25.414537
66.800 25.557116
66.805 24.875553
66.810 23.996485
66.815 23.420391
66.820 22.887487
66.825 22.840057
66.830 22.453047
66.835 22.404619
66.840 22.404692
66.845 22.719112
66.850 23.001997
66.855 23.58391
66.860 23.577923
66.865 23.914579
66.870 23.798958
66.875 24.170298
66.880 24.114618
66.885 23.674782
66.890 22.905819
66.895 22.468624
66.900 22.768969
66.905 23.179672
66.910 23.142742
66.915 22.660669
66.920 22.444912
66.925 22.333546
66.930 22.156858
66.935 22.122135
66.940 21.75309
66.945 21.581356
66.950 21.905897
66.955 22.125666
66.960 22.126955
66.965 22.568901
66.970 22.581701
66.975 22.624924
66.980 22.790991
66.985 22.304016
66.990 22.241005
66.995 22.421711
67.000 22.049026
67.005 22.219923
67.010 22.195925
67.015 22.030743
67.020 21.897566
67.025 22.122416
67.030 22.48695
67.035 22.877817
67.040 22.790249
67.045 22.908945
67.050 22.681614
67.055 22.82324
67.060 22.49654
67.065 22.51045
67.070 22.558815
67.075 22.186241
67.080 21.955395
67.085 22.581635
67.090 22.648195
67.095 22.296276
67.100 21.632416
67.105 21.011768
67.110 21.361578
67.115 21.294987
67.120 21.538824
67.125 21.272861
67.130 21.219009
67.135 20.965832
67.140 21.420815
67.145 21.364998
67.150 21.38402
67.155 20.730875
67.160 20.881054
67.165 21.327662
67.170 21.741461
67.175 21.410017
67.180 21.023849
67.185 20.790264
67.190 21.625351
67.195 22.433229
67.200 23.167656
67.205 23.572729
67.210 23.293232
67.215 23.825462
67.220 23.575853
67.225 23.097446
67.230 22.526312
67.235 21.215498
67.240 20.720377
67.245 20.921619
67.250 20.691683
67.255 20.986835
67.260 21.021429
67.265 21.523155
67.270 22.120707
67.275 22.413832
67.280 22.234177
67.285 22.731852
67.290 23.480852
67.295 23.424637
67.300 23.304296
67.305 23.370157
67.310 23.036551
67.315 22.742407
67.320 22.053688
67.325 21.311741
67.330 21.1926
67.335 20.958666
67.340 20.906946
67.345 20.948126
67.350 21.439156
67.355 21.829874
67.360 22.44486
67.365 22.780087
67.370 22.522984
67.375 22.600599
67.380 22.609972
67.385 22.794125
67.390 22.388632
67.395 22.421841
67.400 22.204491
67.405 22.464203
67.410 21.947107
67.415 22.306265
67.420 21.941334
67.425 21.829088
67.430 21.57382
67.435 22.120583
67.440 21.959288
67.445 22.242653
67.450 21.724905
67.455 21.229918
67.460 20.877192
67.465 20.117142
67.470 19.425041
67.475 19.254684
67.480 19.174932
67.485 19.753012
67.490 20.520926
67.495 20.692158
67.500 20.634674
67.505 20.886406
67.510 20.862488
67.515 20.652624
67.520 20.167585
67.525 19.559727
67.530 19.818279
67.535 20.675716
67.540 20.617371
67.545 20.455402
67.550 20.004421
67.555 20.122534
67.560 20.668842
67.565 20.319719
67.570 20.260046
67.575 20.072281
67.580 20.497515
67.585 20.757378
67.590 20.270817
67.595 20.302946
67.600 20.376123
67.605 20.165194
67.610 20.399443
67.615 20.995525
67.620 21.317015
67.625 21.991795
67.630 21.770517
67.635 21.848923
67.640 21.857626
67.645 21.838993
67.650 21.162073
67.655 21.045429
67.660 20.791632
67.665 21.285637
67.670 20.91164
67.675 20.796215
67.680 21.129807
67.685 21.787567
67.690 21.979303
67.695 22.544952
67.700 22.426123
67.705 22.661266
67.710 22.89514
67.715 22.644918
67.720 22.475105
67.725 22.11772
67.730 21.888443
67.735 21.897984
67.740 22.00507
67.745 21.5086
67.750 21.57431
67.755 21.172525
67.760 20.836361
67.765 20.858852
67.770 20.87505
67.775 20.851904
67.780 20.663561
67.785 20.773897
67.790 21.138529
67.795 21.038704
67.800 20.744144
67.805 20.755695
67.810 20.613056
67.815 21.462618
67.820 21.597872
67.825 21.514284
67.830 21.388485
67.835 21.074516
67.840 20.727331
67.845 20.879236
67.850 20.642488
67.855 20.030798
67.860 19.989746
67.865 20.971622
67.870 21.531158
67.875 21.501753
67.880 21.543793
67.885 21.968691
67.890 22.470531
67.895 22.963249
67.900 22.665995
67.905 23.028206
67.910 23.331074
67.915 23.770203
67.920 23.186321
67.925 23.114407
67.930 22.444445
67.935 22.026176
67.940 22.257465
67.945 22.007286
67.950 21.10894
67.955 20.493483
67.960 20.010233
67.965 20.918688
67.970 20.841274
67.975 20.45808
67.980 20.396265
67.985 20.624165
67.990 21.329628
67.995 21.110758
68.000 20.557251
68.005 20.499166
68.010 20.820061
68.015 21.773485
68.020 22.17012
68.025 22.410702
68.030 23.211409
68.035 23.574278
68.040 23.379108
68.045 23.100058
68.050 22.635759
68.055 22.158499
68.060 22.025093
68.065 21.952431
68.070 21.705229
68.075 22.080614
68.080 22.146242
68.085 21.657091
68.090 21.907694
68.095 21.409437
68.100 20.998224
68.105 21.677038
68.110 21.206907
68.115 20.76741
68.120 21.100407
68.125 20.920321
68.130 20.594418
68.135 20.176054
68.140 19.258144
68.145 19.778992
68.150 19.901331
68.155 20.044336
68.160 20.368956
68.165 20.535118
68.170 20.864511
68.175 21.098091
68.180 20.722494
68.185 20.705381
68.190 20.589907
68.195 20.495125
68.200 20.584049
68.205 20.594002
68.210 20.644732
68.215 21.175219
68.220 21.462839
68.225 21.220871
68.230 21.183548
68.235 20.993654
68.240 20.710028
68.245 20.45046
68.250 20.212788
68.255 19.845484
68.260 20.045712
68.265 20.095312
68.270 20.530861
68.275 20.645741
68.280 21.219437
68.285 21.040899
68.290 20.913029
68.295 20.420631
68.300 20.576019
68.305 20.498152
68.310 20.749607
68.315 20.309998
68.320 20.496222
68.325 21.226265
68.330 22.017439
68.335 22.384588
68.340 22.301531
68.345 22.079411
68.350 21.665997
68.355 21.625637
68.360 21.833164
68.365 21.450161
68.370 21.225899
68.375 20.879389
68.380 20.559933
68.385 20.671213
68.390 20.227091
68.395 19.90168
68.400 19.89444
68.405 20.259039
68.410 20.490749
68.415 20.970768
68.420 21.671352
68.425 22.035519
68.430 21.700027
68.435 21.200861
68.440 21.179968
68.445 21.365616
68.450 21.384401
68.455 21.48122
68.460 21.682838
68.465 21.68454
68.470 22.367973
68.475 22.5443
68.480 22.226036
68.485 22.392366
68.490 22.36014
68.495 22.099131
68.500 22.654509
68.505 22.586924
68.510 22.643578
68.515 22.942188
68.520 22.565496
68.525 21.959818
68.530 21.815456
68.535 20.621428
68.540 20.907742
68.545 20.98543
68.550 20.769682
68.555 20.411869
68.560 20.316315
68.565 20.380013
68.570 20.345835
68.575 20.440197
68.580 20.69891
68.585 21.019728
68.590 21.651567
68.595 22.295834
68.600 22.333752
68.605 22.647917
68.610 22.056597
68.615 22.090572
68.620 22.406384
68.625 22.214344
68.630 22.019337
68.635 22.570736
68.640 22.575233
68.645 22.387844
68.650 22.419241
68.655 21.731346
68.660 21.479713
68.665 21.253956
68.670 21.345795
68.675 21.781647
68.680 21.696581
68.685 21.592062
68.690 21.817272
68.695 22.09881
68.700 22.576427
68.705 22.657721
68.710 22.500134
68.715 22.702888
68.720 22.73789
68.725 22.936676
68.730 23.294298
68.735 23.075344
68.740 22.559761
68.745 22.257801
68.750 22.268353
68.755 22.119375
68.760 21.73892
68.765 21.868149
68.770 22.071636
68.775 22.171354
68.780 22.166927
68.785 21.923033
68.790 22.278877
68.795 22.63917
68.800 22.118164
68.805 22.046776
68.810 22.147278
68.815 22.486568
68.820 22.114199
68.825 21.862562
68.830 22.383734
68.835 22.709129
68.840 22.84761
68.845 22.84804
68.850 22.868059
68.855 23.686525
68.860 23.755934
68.865 22.966568
68.870 22.763777
68.875 22.511976
68.880 21.978848
68.885 21.523052
68.890 21.177118
68.895 20.972235
68.900 21.220234
68.905 21.645472
68.910 22.099478
68.915 22.789806
68.920 22.790617
68.925 23.337095
68.930 23.478279
68.935 23.154369
68.940 22.416151
68.945 22.507202
68.950 22.565722
68.955 22.688883
68.960 22.60078
68.965 22.912062
68.970 23.058378
68.975 23.44038
68.980 22.858873
68.985 22.849247
68.990 22.812206
68.995 22.328049
69.000 21.694677
69.005 21.643726
69.010 21.709467
69.015 22.099974
69.020 21.97612
69.025 21.895533
69.030 22.620054
69.035 23.076674
69.040 23.741108
69.045 23.585583
69.050 23.968775
69.055 23.918903
69.060 24.216904
69.065 24.214958
69.070 24.389399
69.075 23.927942
69.080 23.997042
69.085 24.087572
69.090 24.427273
69.095 24.24824
69.100 23.974272
69.105 24.142715
69.110 24.718174
69.115 24.832802
69.120 24.706287
69.125 25.105381
69.130 25.16186
69.135 25.270159
69.140 25.571573
69.145 25.906637
69.150 26.140497
69.155 26.365173
69.160 25.692284
69.165 25.962721
69.170 26.332144
69.175 25.508959
69.180 24.963211
69.185 24.758087
69.190 24.557619
69.195 24.812729
69.200 24.191168
69.205 24.161266
69.210 24.339317
69.215 24.520895
69.220 25.207132
69.225 25.101845
69.230 25.646132
69.235 25.777195
69.240 26.018934
69.245 26.339737
69.250 26.24284
69.255 26.033051
69.260 26.028484
69.265 26.429857
69.270 26.545189
69.275 26.647181
69.280 27.786028
69.285 28.371956
69.290 28.95904
69.295 29.278839
69.300 28.852848
69.305 29.372915
69.310 29.579552
69.315 29.322838
69.320 29.075996
69.325 29.029266
69.330 29.194887
69.335 29.481777
69.340 29.737213
69.345 29.546162
69.350 29.214769
69.355 30.060595
69.360 29.944628
69.365 30.05986
69.370 29.552168
69.375 29.38452
69.380 29.4077
69.385 28.945984
69.390 28.663088
69.395 28.725122
69.400 28.489656
69.405 28.260572
69.410 28.208525
69.415 28.356909
69.420 28.221804
69.425 27.916506
69.430 28.114374
69.435 28.234364
69.440 28.69503
69.445 29.113747
69.450 30.080486
69.455 30.216719
69.460 30.05541
69.465 30.807096
69.470 31.610584
69.475 31.179695
69.480 30.5802
69.485 29.970882
69.490 30.411352
69.495 29.950142
69.500 29.548119
69.505 29.51314
69.510 29.975443
69.515 30.169289
69.520 29.545332
69.525 29.092047
69.530 29.385262
69.535 28.426895
69.540 28.184412
69.545 28.6441
69.550 28.737703
69.555 29.035702
69.560 29.518951
69.565 29.898417
69.570 31.252594
69.575 31.041792
69.580 30.528334
69.585 30.556477
69.590 30.623676
69.595 30.054123
69.600 29.516052
69.605 28.544537
69.610 28.084883
69.615 27.796268
69.620 27.5525
69.625 27.641802
69.630 27.168018
69.635 27.105675
69.640 27.120268
69.645 27.546453
69.650 27.705008
69.655 27.839773
69.660 28.061819
69.665 28.044491
69.670 27.574738
69.675 27.723667
69.680 27.850451
69.685 28.109953
69.690 28.030905
69.695 28.011946
69.700 28.07534
69.705 28.501867
69.710 28.332655
69.715 27.897785
69.720 27.569073
69.725 27.914705
69.730 28.076826
69.735 28.230806
69.740 28.294096
69.745 28.343327
69.750 28.23852
69.755 28.152531
69.760 27.23222
69.765 27.185152
69.770 26.5194
69.775 26.054939
69.780 26.101187
69.785 25.312477
69.790 24.95986
69.795 25.277422
69.800 25.466637
69.805 26.510914
69.810 26.893723
69.815 27.267267
69.820 27.262987
69.825 26.734621
69.830 26.728964
69.835 26.091944
69.840 25.174515
69.845 24.409986
69.850 23.717323
69.855 23.943495
69.860 24.279184
69.865 23.963581
69.870 24.111601
69.875 24.623857
69.880 24.576145
69.885 24.272394
69.890 24.470188
69.895 24.448437
69.900 24.151833
69.905 23.844648
69.910 23.565826
69.915 23.095467
69.920 22.804289
69.925 22.569885
69.930 22.34421
69.935 22.70566
69.940 22.695396
69.945 22.696335
69.950 22.844719
69.955 23.486719
69.960 23.13743
69.965 23.449753
69.970 22.66008
69.975 22.231426
69.980 21.82827
69.985 21.295378
69.990 20.701159
69.995 20.149593
70.000 19.401386
70.005 19.133749
70.010 19.026915
70.015 18.994593
70.020 19.378386
70.025 19.235243
70.030 19.133835
70.035 19.818617
70.040 21.346004
70.045 21.756659
70.050 22.32258
70.055 22.306429
70.060 22.196682
70.065 22.278984
70.070 21.789808
70.075 21.130545
70.080 20.360525
70.085 19.693977
70.090 19.789164
70.095 19.848267
70.100 20.160654
70.105 19.984257
70.110 19.90904
70.115 20.635818
70.120 20.76495
70.125 21.009541
70.130 20.96566
70.135 21.153017
70.140 20.848261
70.145 20.541346
70.150 20.382837
70.155 20.351959
70.160 20.65807
70.165 20.466946
70.170 19.784636
70.175 19.974415
70.180 19.847944
70.185 20.370272
70.190 20.311922
70.195 21.169573
70.200 21.484482
70.205 21.732803
70.210 21.6238
70.215 21.456692
70.220 21.288191
70.225 20.929308
70.230 19.442406
70.235 19.831577
70.240 19.325474
70.245 19.406013
70.250 19.367956
70.255 19.486032
70.260 19.570742
70.265 20.315817
70.270 20.665936
70.275 20.459028
70.280 20.313845
70.285 19.87355
70.290 19.662964
70.295 19.794323
70.300 19.444418
70.305 19.058321
70.310 19.757982
70.315 19.943851
70.320 20.371635
70.325 20.019581
70.330 20.04818
70.335 19.776661
70.340 19.53257
70.345 18.874228
70.350 18.643942
70.355 19.031569
70.360 19.294926
70.365 19.015516
70.370 19.099684
70.375 19.394993
70.380 19.918299
70.385 19.503883
70.390 18.822695
70.395 18.542778
70.400 18.168842
70.405 17.752068
70.410 17.938841
70.415 17.911556
70.420 17.83913
70.425 18.145929
70.430 18.822437
70.435 19.847761
70.440 20.17993
70.445 20.149715
70.450 20.297171
70.455 20.633173
70.460 19.986479
70.465 19.264751
70.470 18.891268
70.475 19.095703
70.480 19.482208
70.485 19.437309
70.490 19.478312
70.495 19.874557
70.500 19.904707
70.505 20.124714
70.510 19.447777
70.515 19.595499
70.520 19.519567
70.525 19.692457
70.530 20.316059
70.535 20.624969
70.540 20.572002
70.545 20.712332
70.550 20.799101
70.555 21.409595
70.560 20.971594
70.565 20.75967
70.570 20.585243
70.575 20.418694
70.580 20.37055
70.585 19.669905
70.590 19.337173
70.595 19.283083
70.600 18.880577
70.605 18.850227
70.610 19.231964
70.615 18.6003
70.620 18.41876
70.625 18.241104
70.630 18.393717
70.635 18.39702
70.640 18.325792
70.645 18.400948
70.650 19.67448
70.655 20.239347
70.660 20.946217
70.665 21.119291
70.670 21.622959
70.675 21.415894
70.680 21.557659
70.685 21.014469
70.690 20.902874
70.695 20.350077
70.700 20.129137
70.705 20.179909
70.710 20.405809
70.715 19.848654
70.720 20.437647
70.725 20.47122
70.730 21.099737
70.735 21.618958
70.740 21.264261
70.745 21.153862
70.750 21.048027
70.755 20.060961
70.760 20.09902
70.765 19.263351
70.770 19.09078
70.775 18.512506
70.780 18.313471
70.785 17.882742
70.790 17.997234
70.795 18.348955
70.800 18.515644
70.805 19.027798
70.810 19.366255
70.815 19.406303
70.820 20.58865
70.825 20.713604
70.830 20.108004
70.835 20.346474
70.840 19.892046
70.845 20.077396
70.850 20.337093
70.855 20.26882
70.860 20.400801
70.865 20.516308
70.870 20.081392
70.875 20.270235
70.880 20.36887
70.885 20.292379
70.890 19.965168
70.895 20.024111
70.900 20.116035
70.905 20.479004
70.910 20.22591
70.915 19.942923
70.920 19.514563
70.925 19.326588
70.930 19.058519
70.935 18.667875
70.940 18.94112
70.945 19.210123
70.950 19.336466
70.955 19.233047
70.960 19.554541
70.965 19.237934
70.970 19.310305
70.975 19.45434
70.980 19.0389
70.985 19.291698
70.990 19.208721
70.995 18.702564
71.000 18.874994
71.005 18.482761
71.010 18.46747
71.015 18.765144
71.020 18.797642
71.025 18.996708
71.030 19.052895
71.035 19.326263
71.040 19.535582
71.045 19.625761
71.050 19.757416
71.055 19.93004
71.060 19.741201
71.065 19.538307
71.070 19.454098
71.075 19.429934
71.080 19.130617
71.085 19.119913
71.090 19.271576
71.095 19.702518
71.100 19.645672
71.105 19.696047
71.110 19.780838
71.115 19.695929
71.120 19.02528
71.125 18.153856
71.130 17.985868
71.135 18.313446
71.140 18.002487
71.145 17.627308
71.150 17.079668
71.155 17.045376
71.160 17.173899
71.165 16.988865
71.170 17.023829
71.175 16.919098
71.180 17.125156
71.185 17.584723
71.190 17.879782
71.195 18.383293
71.200 18.16263
71.205 18.748348
71.210 18.778059
71.215 18.747774
71.220 18.624586
71.225 18.696743
71.230 19.20886
71.235 19.635408
71.240 19.702641
71.245 19.472878
71.250 19.714144
71.255 19.937452
71.260 19.874865
71.265 19.562412
71.270 18.941364
71.275 18.761894
71.280 19.12697
71.285 19.267006
71.290 19.291105
71.295 19.421125
71.300 19.036495
71.305 19.45793
71.310 19.843567
71.315 19.575863
71.320 19.347557
71.325 18.884005
71.330 18.462019
71.335 18.536354
71.340 18.366659
71.345 18.419323
71.350 18.53463
71.355 19.250307
71.360 19.864735
71.365 20.226606
71.370 20.048649
71.375 19.64901
71.380 19.384907
71.385 19.040079
71.390 18.156322
71.395 17.804016
71.400 17.561123
71.405 17.88582
71.410 18.191711
71.415 18.273756
71.420 18.724977
71.425 18.961195
71.430 19.166092
71.435 19.627157
71.440 19.340645
71.445 19.382599
71.450 19.248999
71.455 19.255285
71.460 19.295496
71.465 19.412956
71.470 19.184303
71.475 19.055157
71.480 19.534239
71.485 20.056087
71.490 20.243439
71.495 20.772354
71.500 20.900387
71.505 20.761347
71.510 20.674082
71.515 20.296507
71.520 19.621719
71.525 19.31221
71.530 18.528772
71.535 18.361057
71.540 18.313219
71.545 18.158457
71.550 18.323563
71.555 18.678457
71.560 18.713535
71.565 18.603241
71.570 18.938904
71.575 19.144098
71.580 19.336618
71.585 18.997738
71.590 18.562738
71.595 18.904772
71.600 19.163832
71.605 18.777662
71.610 19.111759
71.615 19.168543
71.620 19.24711
71.625 19.342571
71.630 19.111784
71.635 19.258478
71.640 19.348469
71.645 18.779127
71.650 18.521917
71.655 18.573074
71.660 18.92997
71.665 19.023272
71.670 19.089062
71.675 19.35306
71.680 19.632307
71.685 19.999607
71.690 20.160864
71.695 20.437292
71.700 20.566853
71.705 20.676214
71.710 20.473822
71.715 20.697275
71.720 20.239742
71.725 19.877361
71.730 19.94816
71.735 19.714815
71.740 19.631052
71.745 19.191591
71.750 19.050501
71.755 18.872599
71.760 18.329227
71.765 18.646437
71.770 18.761923
71.775 19.533176
71.780 19.724409
71.785 19.915956
71.790 20.248579
71.795 20.126516
71.800 19.881174
71.805 19.580284
71.810 18.962456
71.815 18.690544
71.820 18.759802
71.825 18.536709
71.830 18.509556
71.835 18.381649
71.840 18.55724
71.845 19.066076
71.850 19.312326
71.855 19.454536
71.860 19.159319
71.865 19.403498
71.870 19.046427
71.875 19.102659
71.880 18.856255
71.885 19.057795
71.890 19.107809
71.895 19.018686
71.900 18.602808
71.905 18.667114
71.910 18.228436
71.915 17.883574
71.920 17.365152
71.925 17.826414
71.930 17.95442
71.935 18.404619
71.940 18.740885
71.945 18.939375
71.950 19.103182
71.955 19.303814
71.960 19.513052
71.965 19.472784
71.970 19.379395
71.975 19.099005
71.980 19.787933
71.985 19.813316
71.990 19.571474
71.995 19.707693
72.000 19.829372
72.005 19.642302
72.010 19.73056
72.015 19.433538
72.020 19.57555
72.025 19.56451
72.030 19.54339
72.035 19.621429
72.040 19.563374
72.045 19.303015
72.050 19.176756
72.055 19.032194
72.060 19.214584
72.065 19.335999
72.070 19.144812
72.075 19.457741
72.080 19.86533
72.085 19.733265
72.090 19.445858
72.095 18.696512
72.100 18.763287
72.105 18.757284
72.110 18.49873
72.115 18.567261
72.120 19.136658
72.125 18.998352
72.130 19.070162
72.135 19.733627
72.140 20.300066
72.145 20.294317
72.150 19.661098
72.155 19.474916
72.160 19.307703
72.165 19.209965
72.170 17.764709
72.175 16.853323
72.180 16.520494
72.185 16.965946
72.190 17.94171
72.195 18.293886
72.200 18.625679
72.205 19.015533
72.210 19.352858
72.215 19.811756
72.220 19.521343
72.225 19.426928
72.230 19.522243
72.235 19.430939
72.240 19.709242
72.245 19.894594
72.250 20.125319
72.255 19.888399
72.260 19.296902
72.265 19.131346
72.270 19.056005
72.275 19.591074
72.280 19.376118
72.285 19.134012
72.290 19.538334
72.295 19.67592
72.300 19.297344
72.305 19.298727
72.310 18.948788
72.315 19.1364
72.320 18.689089
72.325 18.261248
72.330 18.41264
72.335 18.733559
72.340 18.589252
72.345 18.217464
72.350 18.510651
72.355 18.654074
72.360 18.753775
72.365 18.686649
72.370 18.829363
72.375 19.306053
72.380 19.235794
72.385 19.369102
72.390 19.493025
72.395 19.630997
72.400 19.821169
72.405 19.330372
72.410 18.954218
72.415 18.867741
72.420 17.684425
72.425 17.90638
72.430 17.93132
72.435 17.852995
72.440 18.467495
72.445 18.946817
72.450 18.913074
72.455 19.134226
72.460 18.42738
72.465 17.943922
72.470 18.198076
72.475 17.539635
72.480 17.831461
72.485 18.855633
72.490 18.862009
72.495 19.479073
72.500 19.052462
72.505 18.248775
72.510 17.911741
72.515 17.383301
72.520 17.24777
72.525 17.250523
72.530 16.706923
72.535 17.04155
72.540 17.422728
72.545 17.57732
72.550 16.651482
72.555 15.311849
72.560 15.414325
72.565 15.435045
72.570 15.44197
72.575 15.274541
72.580 15.768759
72.585 16.926966
72.590 17.732166
72.595 17.90642
72.600 18.455185
72.605 19.367714
72.610 19.579346
72.615 19.041845
72.620 18.7264
72.625 18.449081
72.630 18.290825
72.635 17.357132
72.640 17.114368
72.645 17.006247
72.650 17.194258
72.655 17.560768
72.660 18.013153
72.665 18.719837
72.670 19.443676
72.675 19.61767
72.680 19.910297
72.685 19.568211
72.690 19.231209
72.695 19.172834
72.700 18.4725
72.705 18.089298
72.710 17.735228
72.715 17.704706
72.720 17.685139
72.725 17.171808
72.730 16.744379
72.735 16.712488
72.740 16.791782
72.745 16.869175
72.750 17.287872
72.755 17.347528
72.760 17.555113
72.765 17.709442
72.770 17.989132
72.775 17.978168
72.780 17.282179
72.785 17.005632
72.790 17.81052
72.795 18.128334
72.800 18.217552
72.805 17.735649
72.810 17.410707
72.815 17.645935
72.820 17.244949
72.825 16.403946
72.830 16.109512
72.835 16.680189
72.840 17.198414
72.845 17.560226
72.850 17.687809
72.855 17.674202
72.860 18.066856
72.865 18.065414
72.870 17.764336
72.875 17.516602
72.880 16.879202
72.885 16.886431
72.890 17.873734
72.895 18.460747
72.900 18.542131
72.905 18.353785
72.910 18.955805
72.915 19.533136
72.920 19.420635
72.925 18.449284
72.930 17.378477
72.935 16.836037
72.940 16.558283
72.945 15.927213
72.950 15.86377
72.955 16.112812
72.960 16.057613
72.965 16.737143
72.970 17.070526
72.975 16.728504
72.980 16.70731
72.985 16.609413
72.990 16.358408
72.995 16.350103
73.000 16.035366
