!@!!GADDS PLOTSO FILE: Chi integration type
!@!!Title/SampleName: map-de
!@!!Comment: ?
!@!!User: Bruker Instrument Administrator
!@!!Site: University of Illinois Chicago
!@!!Frame: map-de_01_000.gfrm
!@!!Wavelengths    1.54184   1.54056   1.54439
!@!!Frame angles: 2Theta: 63.000 Omega: 50.000 Phi: 0.000 Chi: 90.000
!@!!Integration range: 2Theta: 53.000 to 73.000  Gamma: -105.000 to -75.000
!@!!Integration method: bin normalized
!@!N
!@!SS
!@!M
!@!L 0.0 0.0 0.0 0.0
!@!XDegrees
!@!YCounts
53.000 6.288645
53.005 6.000828
53.010 6.026277
53.015 6.045081
53.020 5.61376
53.025 5.376929
53.030 5.470659
53.035 5.587497
53.040 5.584303
53.045 5.53162
53.050 5.468648
53.055 5.94153
53.060 6.076671
53.065 6.002071
53.070 6.258372
53.075 6.646683
53.080 6.661885
53.085 6.613419
53.090 6.41383
53.095 6.63379
53.100 6.512033
53.105 6.179471
53.110 6.126107
53.115 6.55633
53.120 7.028381
53.125 7.345671
53.130 7.692197
53.135 7.924289
53.140 7.775182
53.145 7.536295
53.150 7.45751
53.155 7.130135
53.160 6.716617
53.165 6.370029
53.170 6.191332
53.175 6.420453
53.180 6.559385
53.185 6.820971
53.190 7.172765
53.195 7.003735
53.200 6.968296
53.205 7.247628
53.210 7.064355
53.215 6.836358
53.220 6.48286
53.225 6.244773
53.230 6.134002
53.235 6.147432
53.240 6.371214
53.245 6.716846
53.250 6.506999
53.255 6.6372
53.260 6.697824
53.265 6.842429
53.270 6.665393
53.275 6.461767
53.280 6.432342
53.285 6.442057
53.290 6.242467
53.295 6.295857
53.300 6.110838
53.305 5.892564
53.310 5.39755
53.315 4.860731
53.320 4.797716
53.325 4.88389
53.330 5.252023
53.335 6.083578
53.340 7.006745
53.345 7.907176
53.350 8.544868
53.355 8.619144
53.360 8.883224
53.365 9.087029
53.370 8.477015
53.375 7.789783
53.380 7.34766
53.385 7.373884
53.390 7.217623
53.395 6.727397
53.400 6.270917
53.405 6.434604
53.410 6.521198
53.415 6.350952
53.420 6.149507
53.425 6.244178
53.430 6.297882
53.435 6.401139
53.440 6.462937
53.445 6.469279
53.450 6.558349
53.455 7.005594
53.460 7.377592
53.465 7.457621
53.470 7.451532
53.475 7.422355
53.480 8.010264
53.485 8.034865
53.490 7.798916
53.495 7.648053
53.500 7.857139
53.505 7.72843
53.510 7.475307
53.515 7.244217
53.520 7.394568
53.525 7.027883
53.530 6.571343
53.535 6.410569
53.540 6.908399
53.545 6.850289
53.550 6.801844
53.555 6.844922
53.560 6.899305
53.565 7.426487
53.570 7.206895
53.575 7.034926
53.580 7.477101
53.585 7.255588
53.590 6.771907
53.595 6.85669
53.600 6.96671
53.605 6.923016
53.610 6.787519
53.615 6.459497
53.620 6.871706
53.625 7.660117
53.630 7.643515
53.635 7.218898
53.640 7.184869
53.645 7.038372
53.650 7.081006
53.655 6.607533
53.660 6.461074
53.665 6.260926
53.670 6.253614
53.675 6.497379
53.680 6.436337
53.685 6.448187
53.690 6.715733
53.695 6.593168
53.700 6.582
53.705 6.414786
53.710 6.467359
53.715 7.101396
53.720 7.200107
53.725 7.299117
53.730 7.892751
53.735 8.363594
53.740 8.666077
53.745 8.688498
53.750 8.447325
53.755 8.380652
53.760 7.993794
53.765 7.923338
53.770 7.781195
53.775 7.62936
53.780 7.21681
53.785 7.209808
53.790 7.04879
53.795 6.942955
53.800 6.644282
53.805 6.818002
53.810 6.665247
53.815 6.986662
53.820 7.232529
53.825 7.994581
53.830 8.066201
53.835 7.925446
53.840 7.901913
53.845 7.841363
53.850 7.647755
53.855 7.23582
53.860 6.656276
53.865 6.636135
53.870 6.702191
53.875 6.669199
53.880 6.999684
53.885 7.219804
53.890 7.429621
53.895 7.896736
53.900 7.74869
53.905 7.873784
53.910 7.72962
53.915 7.841824
53.920 7.734146
53.925 7.60377
53.930 7.53399
53.935 7.198089
53.940 7.415783
53.945 7.60533
53.950 7.672123
53.955 7.609282
53.960 7.485205
53.965 7.481845
53.970 7.606043
53.975 7.464745
53.980 7.125634
53.985 6.882822
53.990 6.874918
53.995 7.269022
54.000 7.499501
54.005 7.897416
54.010 7.987677
54.015 7.834405
54.020 7.916932
54.025 8.155282
54.030 7.796741
54.035 7.513198
54.040 7.11428
54.045 6.876136
54.050 7.255398
54.055 6.816757
54.060 6.85164
54.065 6.663044
54.070 6.584524
54.075 6.860499
54.080 6.739804
54.085 6.823254
54.090 7.074306
54.095 7.248105
54.100 7.611698
54.105 7.941929
54.110 7.925981
54.115 8.077433
54.120 7.883731
54.125 7.636164
54.130 7.89097
54.135 8.05072
54.140 8.07917
54.145 8.261447
54.150 8.485113
54.155 8.613665
54.160 8.85441
54.165 8.448709
54.170 7.826263
54.175 7.562713
54.180 7.378877
54.185 7.384445
54.190 7.271988
54.195 7.005549
54.200 6.583967
54.205 6.472208
54.210 6.197339
54.215 5.837707
54.220 5.661237
54.225 6.081428
54.230 6.637594
54.235 7.394898
54.240 7.658416
54.245 7.804004
54.250 8.198134
54.255 8.26041
54.260 7.85563
54.265 7.414991
54.270 7.397599
54.275 7.534148
54.280 7.337985
54.285 7.54382
54.290 7.529136
54.295 7.327936
54.300 6.949621
54.305 6.929231
54.310 7.238019
54.315 7.54583
54.320 7.517067
54.325 7.525515
54.330 7.736694
54.335 7.937951
54.340 7.99719
54.345 8.407721
54.350 8.199415
54.355 8.312573
54.360 8.339635
54.365 8.551432
54.370 8.449752
54.375 8.434211
54.380 7.889205
54.385 7.525161
54.390 7.210252
54.395 7.063016
54.400 6.886254
54.405 6.938478
54.410 6.828497
54.415 6.8715
54.420 7.128371
54.425 7.118141
54.430 7.03094
54.435 7.081692
54.440 7.022618
54.445 7.211606
54.450 7.31467
54.455 7.083008
54.460 7.356025
54.465 7.654652
54.470 8.162538
54.475 8.634792
54.480 8.88807
54.485 8.946276
54.490 9.345357
54.495 9.336502
54.500 8.982322
54.505 8.16466
54.510 7.193487
54.515 7.064052
54.520 6.883691
54.525 6.658524
54.530 6.764101
54.535 7.139989
54.540 7.344879
54.545 7.747177
54.550 7.69824
54.555 7.84153
54.560 8.073765
54.565 8.371597
54.570 8.048737
54.575 7.67264
54.580 7.319714
54.585 7.757428
54.590 7.468388
54.595 7.253807
54.600 7.310591
54.605 7.677153
54.610 8.824513
54.615 8.798689
54.620 8.671893
54.625 8.647261
54.630 8.007174
54.635 7.804575
54.640 7.85912
54.645 7.595774
54.650 7.852642
54.655 8.233747
54.660 8.902435
54.665 9.43421
54.670 9.491854
54.675 8.821915
54.680 7.970521
54.685 7.766886
54.690 7.248676
54.695 7.033926
54.700 6.824133
54.705 6.925937
54.710 7.557396
54.715 7.872028
54.720 7.711757
54.725 7.758205
54.730 7.852435
54.735 7.957582
54.740 8.215079
54.745 8.186346
54.750 8.301039
54.755 8.324251
54.760 8.339278
54.765 8.349828
54.770 8.227403
54.775 8.207552
54.780 8.306626
54.785 8.323498
54.790 8.23974
54.795 8.468333
54.800 8.52458
54.805 8.697487
54.810 8.734111
54.815 8.967646
54.820 9.167607
54.825 9.605266
54.830 9.487197
54.835 9.484243
54.840 9.13342
54.845 9.111333
54.850 9.238613
54.855 9.297334
54.860 8.78726
54.865 8.712494
54.870 8.931085
54.875 9.437057
54.880 9.496462
54.885 9.183676
54.890 9.436875
54.895 9.603559
54.900 9.782089
54.905 9.707063
54.910 9.425181
54.915 9.503746
54.920 9.374626
54.925 9.076519
54.930 9.187326
54.935 8.825444
54.940 8.638191
54.945 8.625609
54.950 8.719873
54.955 8.531351
54.960 8.351703
54.965 8.291384
54.970 8.412543
54.975 8.375433
54.980 8.462643
54.985 8.595581
54.990 8.735342
54.995 8.837093
55.000 8.993588
55.005 9.051135
55.010 9.552332
55.015 9.327005
55.020 9.11648
55.025 9.277098
55.030 9.473515
55.035 9.328158
55.040 9.161994
55.045 8.557735
55.050 8.03852
55.055 8.071652
55.060 8.285174
55.065 8.092981
55.070 8.329342
55.075 8.335913
55.080 8.848314
55.085 9.021114
55.090 9.051137
55.095 8.938323
55.100 8.725437
55.105 8.480058
55.110 8.475441
55.115 8.375576
55.120 8.954718
55.125 9.052142
55.130 9.216545
55.135 9.475039
55.140 9.410632
55.145 9.167584
55.150 8.945237
55.155 8.501227
55.160 8.648516
55.165 8.348571
55.170 7.79664
55.175 7.858333
55.180 8.527415
55.185 8.957296
55.190 9.245049
55.195 9.06332
55.200 9.668558
55.205 10.231815
55.210 10.080668
55.215 9.942702
55.220 9.899081
55.225 9.801634
55.230 9.726278
55.235 9.264343
55.240 9.229405
55.245 9.420876
55.250 9.515395
55.255 9.15462
55.260 8.679776
55.265 8.499117
55.270 8.566054
55.275 8.862703
55.280 8.623569
55.285 8.191298
55.290 8.342679
55.295 8.562747
55.300 8.739469
55.305 8.559415
55.310 8.145587
55.315 8.121897
55.320 8.319711
55.325 8.555226
55.330 8.789175
55.335 9.153266
55.340 9.249493
55.345 9.394032
55.350 9.577334
55.355 9.455626
55.360 8.995249
55.365 8.581165
55.370 8.354115
55.375 8.479167
55.380 8.150151
55.385 7.796857
55.390 8.010513
55.395 9.151891
55.400 9.460516
55.405 9.601233
55.410 9.815152
55.415 10.346611
55.420 10.495868
55.425 10.44702
55.430 10.200471
55.435 10.409146
55.440 10.347413
55.445 10.315837
55.450 10.147952
55.455 10.091094
55.460 9.716141
55.465 9.984963
55.470 10.086605
55.475 10.455208
55.480 10.488145
55.485 10.576382
55.490 10.530456
55.495 10.312848
55.500 10.256318
55.505 10.218997
55.510 9.878757
55.515 9.930175
55.520 9.987696
55.525 9.790352
55.530 9.471601
55.535 8.882088
55.540 8.483744
55.545 8.645062
55.550 8.265444
55.555 8.521568
55.560 9.04655
55.565 9.524967
55.570 10.071083
55.575 10.394765
55.580 10.195407
55.585 10.402699
55.590 9.920546
55.595 9.883145
55.600 9.692446
55.605 9.237561
55.610 9.179792
55.615 9.399493
55.620 9.649956
55.625 9.845811
55.630 9.289922
55.635 9.148201
55.640 9.144416
55.645 9.035821
55.650 9.172956
55.655 8.89806
55.660 8.495495
55.665 8.884785
55.670 9.5493
55.675 9.686619
55.680 9.601975
55.685 9.473703
55.690 10.042008
55.695 10.762909
55.700 10.637746
55.705 10.326044
55.710 10.536369
55.715 10.492739
55.720 10.099778
55.725 9.993913
55.730 10.001547
55.735 9.965903
55.740 9.824215
55.745 9.973157
55.750 10.424397
55.755 10.723276
55.760 10.784177
55.765 10.861602
55.770 11.080014
55.775 10.86894
55.780 10.321103
55.785 9.843708
55.790 9.870401
55.795 9.383054
55.800 9.07844
55.805 9.081962
55.810 9.31433
55.815 9.898895
55.820 10.73105
55.825 10.835723
55.830 10.873435
55.835 10.881868
55.840 10.873652
55.845 10.747077
55.850 10.275454
55.855 9.288775
55.860 9.62719
55.865 10.263144
55.870 10.560416
55.875 10.439709
55.880 10.284734
55.885 10.333905
55.890 10.899364
55.895 10.351403
55.900 10.060876
55.905 9.810094
55.910 10.21824
55.915 10.414105
55.920 10.474471
55.925 10.13693
55.930 10.145416
55.935 10.264685
55.940 10.247102
55.945 9.999754
55.950 10.426307
55.955 10.363231
55.960 10.598373
55.965 10.780609
55.970 10.274476
55.975 10.209258
55.980 10.606463
55.985 10.843135
55.990 11.028606
55.995 10.890489
56.000 10.681528
56.005 11.250502
56.010 11.407095
56.015 10.94095
56.020 10.526217
56.025 10.729816
56.030 10.692514
56.035 11.099462
56.040 10.720819
56.045 10.583984
56.050 10.699964
56.055 10.438718
56.060 10.307751
56.065 10.144538
56.070 9.842736
56.075 9.702838
56.080 9.670735
56.085 9.47256
56.090 9.256099
56.095 9.312315
56.100 9.723837
56.105 9.836905
56.110 9.92167
56.115 9.801118
56.120 9.726406
56.125 9.51145
56.130 9.100243
56.135 8.832139
56.140 8.841216
56.145 8.967073
56.150 9.309673
56.155 9.95449
56.160 10.801664
56.165 11.517027
56.170 12.05257
56.175 12.017487
56.180 11.511692
56.185 10.949097
56.190 10.43864
56.195 9.34515
56.200 8.796922
56.205 7.959032
56.210 8.131618
56.215 8.910183
56.220 9.495046
56.225 10.11964
56.230 10.314264
56.235 10.036834
56.240 10.230498
56.245 10.261753
56.250 9.794386
56.255 9.587921
56.260 9.558956
56.265 9.805251
56.270 10.161796
56.275 10.553543
56.280 10.886391
56.285 11.333032
56.290 11.709194
56.295 11.89705
56.300 12.064832
56.305 12.085827
56.310 11.717749
56.315 11.173665
56.320 10.614945
56.325 9.921134
56.330 9.976752
56.335 10.123033
56.340 9.995176
56.345 10.295515
56.350 10.865188
56.355 11.006928
56.360 11.105242
56.365 11.184233
56.370 11.23958
56.375 11.16715
56.380 10.686962
56.385 10.561323
56.390 10.765664
56.395 10.632508
56.400 10.016572
56.405 10.182493
56.410 10.341088
56.415 10.199414
56.420 9.932243
56.425 9.89362
56.430 10.043648
56.435 10.313245
56.440 10.044192
56.445 9.913132
56.450 9.982387
56.455 10.272872
56.460 10.419896
56.465 10.515097
56.470 10.607983
56.475 10.934228
56.480 10.997133
56.485 11.174666
56.490 12.163089
56.495 12.499259
56.500 12.976662
56.505 13.181585
56.510 12.887154
56.515 13.177472
56.520 13.007283
56.525 12.362373
56.530 11.685684
56.535 10.79596
56.540 10.506065
56.545 10.461458
56.550 10.315788
56.555 9.9395
56.560 9.601438
56.565 9.634184
56.570 9.572463
56.575 9.661066
56.580 9.725702
56.585 9.718924
56.590 10.354287
56.595 10.523539
56.600 10.354136
56.605 10.417436
56.610 10.32443
56.615 10.463529
56.620 10.942679
56.625 10.589352
56.630 10.731007
56.635 11.058249
56.640 11.520487
56.645 11.476203
56.650 10.972403
56.655 10.702444
56.660 10.855664
56.665 10.778585
56.670 10.866716
56.675 10.501015
56.680 10.618134
56.685 10.868996
56.690 11.062413
56.695 11.04628
56.700 11.093902
56.705 11.432465
56.710 12.205905
56.715 12.79277
56.720 13.121569
56.725 13.02061
56.730 13.107527
56.735 13.261795
56.740 13.680574
56.745 13.70916
56.750 12.871165
56.755 12.352574
56.760 11.659837
56.765 11.557374
56.770 10.882598
56.775 10.27488
56.780 10.182714
56.785 10.71074
56.790 11.151626
56.795 11.866706
56.800 12.32843
56.805 12.709283
56.810 12.94056
56.815 12.694797
56.820 12.328335
56.825 12.167027
56.830 11.732637
56.835 11.370483
56.840 11.02025
56.845 10.808249
56.850 11.162932
56.855 11.219211
56.860 11.542354
56.865 11.761301
56.870 12.122651
56.875 12.266963
56.880 12.088522
56.885 11.893821
56.890 11.900829
56.895 11.635501
56.900 11.512461
56.905 11.266541
56.910 11.357247
56.915 11.155205
56.920 11.203472
56.925 11.05237
56.930 11.553542
56.935 11.357309
56.940 11.228155
56.945 11.367808
56.950 11.108541
56.955 11.031447
56.960 11.172562
56.965 10.555974
56.970 10.676932
56.975 11.123446
56.980 11.127714
56.985 11.607613
56.990 11.710629
56.995 11.453051
57.000 11.960644
57.005 11.86057
57.010 11.599642
57.015 11.623447
57.020 11.634329
57.025 11.576993
57.030 11.560638
57.035 11.314198
57.040 11.363947
57.045 11.206013
57.050 11.011847
57.055 10.895038
57.060 10.78595
57.065 10.846182
57.070 10.427198
57.075 10.536601
57.080 10.714618
57.085 10.755164
57.090 11.029386
57.095 11.429298
57.100 11.486271
57.105 11.800562
57.110 11.408228
57.115 11.073359
57.120 11.17739
57.125 11.256267
57.130 11.302524
57.135 11.734903
57.140 11.635913
57.145 11.621761
57.150 11.729628
57.155 11.399297
57.160 11.113954
57.165 11.190247
57.170 11.242523
57.175 11.752908
57.180 11.517936
57.185 11.422112
57.190 11.483782
57.195 11.351102
57.200 11.02935
57.205 10.891993
57.210 10.919674
57.215 11.610427
57.220 11.908036
57.225 11.847215
57.230 11.903565
57.235 11.884388
57.240 12.01383
57.245 11.975153
57.250 11.841737
57.255 12.617948
57.260 13.002205
57.265 13.252856
57.270 13.153627
57.275 13.202656
57.280 12.72071
57.285 12.227813
57.290 11.363138
57.295 11.252478
57.300 11.217649
57.305 11.205805
57.310 11.113646
57.315 11.572597
57.320 11.426799
57.325 11.802194
57.330 12.132255
57.335 12.471772
57.340 12.423149
57.345 12.333385
57.350 12.491663
57.355 12.659615
57.360 12.226273
57.365 11.503617
57.370 11.667823
57.375 11.848023
57.380 11.652609
57.385 11.271207
57.390 11.178205
57.395 11.365385
57.400 11.221984
57.405 10.829729
57.410 11.151052
57.415 11.33172
57.420 11.891395
57.425 12.019583
57.430 11.81781
57.435 11.734076
57.440 11.775914
57.445 11.419132
57.450 11.604701
57.455 11.851006
57.460 12.21592
57.465 12.555711
57.470 12.837653
57.475 12.858901
57.480 12.946465
57.485 12.671301
57.490 12.858763
57.495 12.678065
57.500 12.784091
57.505 12.876382
57.510 12.791189
57.515 13.265921
57.520 13.242727
57.525 12.702504
57.530 12.516322
57.535 12.351749
57.540 12.521293
57.545 12.318377
57.550 12.017344
57.555 11.884408
57.560 11.73152
57.565 12.038837
57.570 11.764439
57.575 11.635956
57.580 11.621085
57.585 11.424764
57.590 11.77766
57.595 11.699743
57.600 11.146791
57.605 11.012542
57.610 11.17595
57.615 11.392752
57.620 12.029696
57.625 12.664756
57.630 13.175516
57.635 13.586418
57.640 13.639607
57.645 13.291077
57.650 13.13396
57.655 12.719733
57.660 12.433944
57.665 12.214153
57.670 12.388405
57.675 12.661329
57.680 13.13578
57.685 12.919225
57.690 12.744736
57.695 12.157619
57.700 11.879935
57.705 11.552607
57.710 10.965595
57.715 10.667031
57.720 10.851907
57.725 10.802269
57.730 11.572279
57.735 11.70237
57.740 12.121928
57.745 12.241739
57.750 12.525245
57.755 12.870452
57.760 13.098361
57.765 12.714794
57.770 12.360156
57.775 11.944847
57.780 11.941621
57.785 11.844291
57.790 11.766177
57.795 11.71572
57.800 11.659047
57.805 12.075042
57.810 12.698994
57.815 12.733168
57.820 12.67692
57.825 12.779914
57.830 12.65404
57.835 13.569144
57.840 14.150576
57.845 14.288336
57.850 14.564978
57.855 14.681353
57.860 14.803274
57.865 14.919529
57.870 14.007915
57.875 13.452814
57.880 13.236976
57.885 12.602365
57.890 12.265531
57.895 11.85477
57.900 11.806554
57.905 12.289777
57.910 12.343778
57.915 12.921111
57.920 13.474284
57.925 13.435825
57.930 13.792521
57.935 13.715339
57.940 13.588371
57.945 13.050221
57.950 12.749827
57.955 12.684756
57.960 12.829242
57.965 13.152471
57.970 13.281389
57.975 13.447139
57.980 13.355478
57.985 13.166259
57.990 13.155385
57.995 13.121325
58.000 12.712922
58.005 12.82504
58.010 12.851439
58.015 13.507807
58.020 13.770783
58.025 14.087783
58.030 14.436717
58.035 14.699615
58.040 14.596706
58.045 14.482212
58.050 14.351238
58.055 14.37237
58.060 14.236622
58.065 13.798345
58.070 13.731302
58.075 13.706168
58.080 13.733165
58.085 13.585092
58.090 13.63816
58.095 13.599064
58.100 13.935815
58.105 14.108715
58.110 14.129522
58.115 14.010891
58.120 14.293724
58.125 14.220739
58.130 14.150699
58.135 13.985479
58.140 13.759904
58.145 13.927215
58.150 14.013781
58.155 13.7342
58.160 13.396836
58.165 13.466593
58.170 13.478535
58.175 13.34564
58.180 13.601504
58.185 13.772651
58.190 14.055818
58.195 14.284925
58.200 14.081474
58.205 14.483397
58.210 14.576573
58.215 14.061317
58.220 13.851344
58.225 14.121858
58.230 14.398251
58.235 14.682491
58.240 14.209968
58.245 14.354824
58.250 14.592904
58.255 14.573906
58.260 14.415441
58.265 14.490515
58.270 14.305354
58.275 14.481197
58.280 14.784026
58.285 15.583507
58.290 15.784404
58.295 15.827043
58.300 15.982553
58.305 16.454166
58.310 16.678782
58.315 16.188702
58.320 15.864386
58.325 16.581228
58.330 16.630503
58.335 16.521412
58.340 16.461065
58.345 16.228125
58.350 16.591307
58.355 17.071108
58.360 16.890236
58.365 16.830765
58.370 16.553822
58.375 16.389048
58.380 16.693098
58.385 16.660686
58.390 16.370064
58.395 15.914192
58.400 15.864206
58.405 15.883901
58.410 15.728198
58.415 15.447427
58.420 15.70749
58.425 15.961535
58.430 16.80876
58.435 17.489664
58.440 17.828236
58.445 18.21851
58.450 19.001574
58.455 18.808865
58.460 18.703196
58.465 18.371416
58.470 17.892139
58.475 17.895605
58.480 18.098969
58.485 17.997791
58.490 18.010582
58.495 18.126062
58.500 18.151466
58.505 18.555061
58.510 18.520864
58.515 18.536909
58.520 17.955183
58.525 17.859365
58.530 17.499908
58.535 17.937126
58.540 18.052633
58.545 18.071278
58.550 17.855442
58.555 18.27441
58.560 18.520355
58.565 18.248844
58.570 17.739044
58.575 17.885775
58.580 17.692217
58.585 17.804037
58.590 18.189213
58.595 18.289732
58.600 18.385649
58.605 18.575071
58.610 17.958185
58.615 17.729872
58.620 17.684202
58.625 18.167376
58.630 18.629242
58.635 18.984608
58.640 19.216629
58.645 19.767197
58.650 20.114079
58.655 19.516031
58.660 18.424208
58.665 18.125402
58.670 18.17709
58.675 18.473541
58.680 18.709192
58.685 18.7598
58.690 19.569559
58.695 20.179337
58.700 20.039738
58.705 19.615807
58.710 19.288067
58.715 19.176174
58.720 19.070419
58.725 19.000418
58.730 19.436604
58.735 19.55101
58.740 19.514292
58.745 19.003407
58.750 19.12484
58.755 19.584137
58.760 19.130188
58.765 18.543324
58.770 18.692799
58.775 19.023705
58.780 19.120955
58.785 18.851074
58.790 18.218742
58.795 18.08692
58.800 17.921144
58.805 17.805649
58.810 17.749487
58.815 17.87849
58.820 17.813486
58.825 17.96179
58.830 18.079628
58.835 18.51799
58.840 18.240814
58.845 17.908108
58.850 17.283638
58.855 17.09148
58.860 17.308826
58.865 17.025534
58.870 16.65082
58.875 16.744587
58.880 17.158522
58.885 18.034834
58.890 17.959446
58.895 17.885191
58.900 18.425783
58.905 18.746927
58.910 18.656139
58.915 18.153128
58.920 17.509073
58.925 17.56744
58.930 17.256235
58.935 16.970476
58.940 17.149355
58.945 17.083582
58.950 17.358507
58.955 16.994566
58.960 17.012573
58.965 17.160156
58.970 17.075918
58.975 17.280447
58.980 17.4296
58.985 17.537024
58.990 18.271887
58.995 18.637171
59.000 18.886181
59.005 19.124081
59.010 18.822577
59.015 18.44972
59.020 18.53985
59.025 18.169409
59.030 18.005362
59.035 18.032526
59.040 17.737785
59.045 17.574608
59.050 17.074553
59.055 16.934191
59.060 17.513582
59.065 17.454948
59.070 17.230392
59.075 17.331413
59.080 17.493643
59.085 18.179884
59.090 18.275883
59.095 17.973791
59.100 17.877172
59.105 17.414284
59.110 17.366699
59.115 17.459379
59.120 16.885393
59.125 16.463156
59.130 16.059319
59.135 15.783258
59.140 16.038698
59.145 15.557327
59.150 15.632212
59.155 15.711847
59.160 15.811418
59.165 15.550336
59.170 15.698133
59.175 15.744164
59.180 15.924477
59.185 15.383076
59.190 15.795276
59.195 16.056225
59.200 16.818207
59.205 16.99456
59.210 16.994114
59.215 16.678812
59.220 17.202028
59.225 17.163931
59.230 17.048988
59.235 16.738867
59.240 17.217083
59.245 17.587053
59.250 18.004974
59.255 17.900778
59.260 17.707209
59.265 17.79598
59.270 17.561768
59.275 17.357567
59.280 17.254564
59.285 17.092957
59.290 17.103712
59.295 16.789091
59.300 16.49625
59.305 16.565346
59.310 16.161629
59.315 16.082722
59.320 16.62981
59.325 16.217314
59.330 16.73074
59.335 17.172958
59.340 17.483093
59.345 17.788292
59.350 17.594971
59.355 17.394978
59.360 18.003347
59.365 18.254328
59.370 18.138117
59.375 17.650213
59.380 17.361256
59.385 17.378895
59.390 17.913849
59.395 17.627438
59.400 17.218943
59.405 17.21781
59.410 16.970385
59.415 16.351931
59.420 16.176514
59.425 15.25082
59.430 15.328262
59.435 15.465051
59.440 15.680524
59.445 16.11717
59.450 16.360497
59.455 16.068022
59.460 16.776623
59.465 17.202799
59.470 16.886824
59.475 16.604662
59.480 16.679554
59.485 16.667345
59.490 16.766539
59.495 16.220753
59.500 15.455669
59.505 15.396042
59.510 15.386058
59.515 15.10857
59.520 15.418962
59.525 15.308897
59.530 15.25236
59.535 15.809356
59.540 16.053053
59.545 16.348885
59.550 16.293213
59.555 16.117023
59.560 16.282278
59.565 17.018856
59.570 16.801296
59.575 16.644884
59.580 16.511375
59.585 16.802532
59.590 16.858555
59.595 16.039635
59.600 15.028106
59.605 14.688231
59.610 14.784613
59.615 14.705281
59.620 14.385087
59.625 14.17143
59.630 15.08033
59.635 15.301738
59.640 15.678854
59.645 16.169508
59.650 16.787317
59.655 17.412827
59.660 17.613756
59.665 17.484913
59.670 17.648844
59.675 17.466867
59.680 16.492994
59.685 15.800213
59.690 15.217404
59.695 15.193447
59.700 15.557203
59.705 15.608594
59.710 15.938547
59.715 16.454695
59.720 16.394567
59.725 16.749075
59.730 17.372845
59.735 16.69191
59.740 16.150932
59.745 15.670493
59.750 15.907903
59.755 16.592789
59.760 16.467781
59.765 16.324863
59.770 16.435455
59.775 16.460476
59.780 16.662939
59.785 16.596697
59.790 15.956985
59.795 15.525386
59.800 15.044073
59.805 15.091811
59.810 15.16638
59.815 14.648161
59.820 14.122458
59.825 14.017863
59.830 14.518724
59.835 15.007566
59.840 14.783368
59.845 14.838222
59.850 14.918852
59.855 15.410831
59.860 16.070995
59.865 16.111599
59.870 16.15015
59.875 16.193947
59.880 16.06946
59.885 16.198195
59.890 15.976227
59.895 15.820905
59.900 15.59992
59.905 15.690266
59.910 15.779012
59.915 15.897963
59.920 15.707973
59.925 15.582023
59.930 15.449004
59.935 15.252503
59.940 15.277284
59.945 15.244441
59.950 15.723598
59.955 15.99361
59.960 16.214497
59.965 16.415474
59.970 16.389154
59.975 16.003191
59.980 16.387991
59.985 16.694868
59.990 16.764133
59.995 16.685818
60.000 16.687527
60.005 17.060326
60.010 17.347189
60.015 17.301704
60.020 16.689009
60.025 16.740473
60.030 16.592413
60.035 16.079138
60.040 15.792356
60.045 15.927306
60.050 16.037186
60.055 15.915731
60.060 15.490779
60.065 15.327723
60.070 15.991813
60.075 16.200062
60.080 16.094187
60.085 16.020514
60.090 16.444916
60.095 17.243708
60.100 17.519991
60.105 17.011454
60.110 16.78389
60.115 16.228296
60.120 16.523554
60.125 16.365156
60.130 16.038599
60.135 16.102152
60.140 16.392588
60.145 16.561735
60.150 16.998755
60.155 16.8519
60.160 16.64683
60.165 16.442812
60.170 16.517443
60.175 16.492853
60.180 16.624903
60.185 16.14028
60.190 15.784469
60.195 15.969752
60.200 15.657229
60.205 15.403667
60.210 14.883132
60.215 14.329486
60.220 14.171337
60.225 14.072287
60.230 13.98851
60.235 14.275992
60.240 14.414276
60.245 14.518118
60.250 15.148486
60.255 15.537086
60.260 15.339656
60.265 15.584209
60.270 15.204772
60.275 15.066972
60.280 15.145574
60.285 14.755531
60.290 14.923744
60.295 15.331114
60.300 15.316809
60.305 15.323997
60.310 15.537061
60.315 15.45095
60.320 15.402767
60.325 15.093427
60.330 14.882717
60.335 14.75349
60.340 14.725196
60.345 14.888459
60.350 15.424925
60.355 15.584001
60.360 15.453696
60.365 15.866044
60.370 16.360649
60.375 16.417582
60.380 15.786255
60.385 15.648434
60.390 15.64264
60.395 15.999993
60.400 15.821412
60.405 15.877702
60.410 16.323864
60.415 16.576111
60.420 16.335182
60.425 16.254465
60.430 16.039709
60.435 15.459866
60.440 14.87932
60.445 14.761414
60.450 14.91024
60.455 14.822264
60.460 14.640436
60.465 14.379376
60.470 14.773643
60.475 14.688867
60.480 14.539239
60.485 14.290772
60.490 14.501162
60.495 14.948318
60.500 14.882802
60.505 14.745518
60.510 14.909939
60.515 14.923701
60.520 14.749278
60.525 14.67544
60.530 14.844412
60.535 14.921572
60.540 15.121395
60.545 14.948518
60.550 15.008231
60.555 15.593978
60.560 15.876609
60.565 15.67447
60.570 15.789273
60.575 16.372858
60.580 16.955393
60.585 17.066984
60.590 16.563623
60.595 16.409822
60.600 16.227055
60.605 16.125914
60.610 15.884121
60.615 15.955532
60.620 16.141144
60.625 16.103788
60.630 15.8146
60.635 15.757057
60.640 15.673053
60.645 15.403324
60.650 14.750694
60.655 14.110275
60.660 13.715429
60.665 13.56227
60.670 14.11945
60.675 14.598691
60.680 14.038633
60.685 14.024621
60.690 14.782451
60.695 15.384172
60.700 15.570002
60.705 14.767218
60.710 14.126983
60.715 14.309858
60.720 14.930486
60.725 14.461465
60.730 14.281933
60.735 14.116621
60.740 14.329643
60.745 13.990519
60.750 14.318553
60.755 14.185817
60.760 14.274347
60.765 15.165137
60.770 15.60742
60.775 15.425879
60.780 15.337492
60.785 15.20962
60.790 15.033189
60.795 15.040495
60.800 14.160937
60.805 14.396251
60.810 15.273861
60.815 15.853897
60.820 15.392653
60.825 15.276484
60.830 15.10825
60.835 15.769652
60.840 15.499533
60.845 14.721465
60.850 15.000526
60.855 15.922877
60.860 16.168547
60.865 15.742873
60.870 14.877789
60.875 15.023623
60.880 15.068525
60.885 14.68106
60.890 13.949824
60.895 13.717928
60.900 14.46137
60.905 14.308566
60.910 14.269966
60.915 14.784546
60.920 14.850273
60.925 14.967955
60.930 15.000484
60.935 14.436518
60.940 15.016977
60.945 15.106556
60.950 14.301415
60.955 14.344167
60.960 14.417031
60.965 14.554094
60.970 14.635843
60.975 14.036251
60.980 13.597859
60.985 14.224286
60.990 13.917163
60.995 13.54502
61.000 13.412012
61.005 13.784595
61.010 14.168406
61.015 14.676047
61.020 14.887382
61.025 15.143832
61.030 15.293881
61.035 15.481058
61.040 15.243196
61.045 15.187419
61.050 15.056535
61.055 14.628233
61.060 14.862368
61.065 14.758068
61.070 14.39338
61.075 14.67427
61.080 14.968332
61.085 15.098883
61.090 15.011719
61.095 14.943444
61.100 14.776846
61.105 15.095468
61.110 14.768223
61.115 14.963457
61.120 14.835027
61.125 15.18637
61.130 15.166114
61.135 14.917822
61.140 15.017995
61.145 15.336987
61.150 15.014272
61.155 15.210288
61.160 15.275642
61.165 15.47804
61.170 15.734461
61.175 15.333965
61.180 15.142723
61.185 15.062422
61.190 14.493769
61.195 14.626454
61.200 14.634664
61.205 15.234679
61.210 15.389393
61.215 15.028668
61.220 14.976748
61.225 15.107603
61.230 14.821124
61.235 14.421502
61.240 13.779889
61.245 13.985962
61.250 14.412552
61.255 14.912185
61.260 15.067733
61.265 14.972656
61.270 14.994146
61.275 14.866538
61.280 14.729918
61.285 14.609181
61.290 14.596766
61.295 14.424622
61.300 14.615757
61.305 14.955014
61.310 15.147174
61.315 15.524698
61.320 15.147839
61.325 15.025259
61.330 15.009347
61.335 15.337581
61.340 14.920518
61.345 14.843149
61.350 15.093143
61.355 15.158456
61.360 15.502503
61.365 15.846747
61.370 15.172055
61.375 15.554142
61.380 15.68455
61.385 14.868691
61.390 14.480063
61.395 14.05771
61.400 13.779741
61.405 13.733572
61.410 13.96011
61.415 14.110034
61.420 14.508898
61.425 14.590692
61.430 14.591515
61.435 14.585929
61.440 14.531095
61.445 14.424293
61.450 14.625466
61.455 15.089145
61.460 15.198256
61.465 14.561323
61.470 15.072385
61.475 15.321906
61.480 15.039056
61.485 14.832856
61.490 14.117735
61.495 14.27181
61.500 15.101149
61.505 14.637943
61.510 15.271006
61.515 15.726132
61.520 15.433945
61.525 15.25357
61.530 15.297656
61.535 15.256481
61.540 15.590915
61.545 15.540427
61.550 15.302764
61.555 16.052523
61.560 16.944118
61.565 16.874447
61.570 16.377579
61.575 16.64282
61.580 16.675369
61.585 16.909904
61.590 16.329983
61.595 16.167921
61.600 16.068409
61.605 16.000896
61.610 15.880922
61.615 15.656542
61.620 15.686358
61.625 16.088039
61.630 15.988679
61.635 16.043983
61.640 16.462774
61.645 16.187199
61.650 16.552944
61.655 16.709543
61.660 16.804199
61.665 16.793896
61.670 16.639359
61.675 16.713381
61.680 16.642498
61.685 15.945431
61.690 15.764864
61.695 15.536552
61.700 15.49812
61.705 15.736881
61.710 15.436681
61.715 15.413746
61.720 16.038776
61.725 15.596992
61.730 15.802003
61.735 15.904809
61.740 15.446159
61.745 15.52756
61.750 15.081757
61.755 14.61854
61.760 14.712226
61.765 14.239056
61.770 14.188773
61.775 14.249786
61.780 14.051517
61.785 13.991749
61.790 13.721296
61.795 14.057753
61.800 14.27657
61.805 14.530646
61.810 15.008356
61.815 15.548358
61.820 16.2918
61.825 16.894436
61.830 16.534077
61.835 16.055634
61.840 15.822892
61.845 15.616841
61.850 15.113648
61.855 15.10232
61.860 15.345826
61.865 15.831438
61.870 16.208765
61.875 16.936647
61.880 17.343807
61.885 17.423918
61.890 17.154432
61.895 16.757292
61.900 16.489906
61.905 16.468239
61.910 16.271788
61.915 15.988889
61.920 16.15793
61.925 16.1542
61.930 15.383511
61.935 15.325921
61.940 15.452614
61.945 15.084411
61.950 15.195174
61.955 14.896559
61.960 14.465834
61.965 14.744275
61.970 15.139182
61.975 15.309454
61.980 15.202969
61.985 14.815557
61.990 15.039502
61.995 15.215995
62.000 15.607083
62.005 15.353579
62.010 15.500679
62.015 15.346089
62.020 15.519313
62.025 15.486519
62.030 15.062258
62.035 14.722364
62.040 14.62162
62.045 14.353151
62.050 14.602563
62.055 14.266956
62.060 14.365439
62.065 15.193232
62.070 15.602814
62.075 15.470271
62.080 15.680182
62.085 15.898369
62.090 16.288847
62.095 16.415274
62.100 15.836356
62.105 16.066132
62.110 16.100939
62.115 16.064566
62.120 15.690284
62.125 15.916164
62.130 15.902399
62.135 16.227549
62.140 15.842174
62.145 15.647635
62.150 15.278306
62.155 15.185773
62.160 15.103702
62.165 15.307463
62.170 14.742053
62.175 14.874217
62.180 14.74964
62.185 14.842227
62.190 14.864255
62.195 14.617259
62.200 14.774954
62.205 15.199365
62.210 15.648574
62.215 15.989184
62.220 16.211382
62.225 16.618732
62.230 17.022638
62.235 16.786896
62.240 16.800539
62.245 16.381071
62.250 15.882854
62.255 15.392055
62.260 15.291629
62.265 15.07953
62.270 15.066872
62.275 14.798894
62.280 14.86687
62.285 15.310201
62.290 15.623182
62.295 15.421281
62.300 15.642017
62.305 15.527977
62.310 15.60798
62.315 16.103764
62.320 15.868665
62.325 15.405944
62.330 15.052331
62.335 14.326873
62.340 14.011642
62.345 14.116466
62.350 13.684738
62.355 14.002657
62.360 14.655889
62.365 15.476319
62.370 15.884897
62.375 15.885821
62.380 15.362941
62.385 14.890273
62.390 14.557125
62.395 14.661568
62.400 14.275612
62.405 14.200829
62.410 15.120782
62.415 15.685854
62.420 15.888313
62.425 15.911432
62.430 15.175259
62.435 15.171335
62.440 15.233396
62.445 14.542869
62.450 14.359178
62.455 14.865134
62.460 14.609132
62.465 15.40521
62.470 15.826535
62.475 15.689404
62.480 16.032255
62.485 16.045822
62.490 15.967782
62.495 16.662977
62.500 16.331392
62.505 16.257452
62.510 16.262987
62.515 16.455723
62.520 16.457859
62.525 16.273476
62.530 15.752789
62.535 15.315468
62.540 15.276108
62.545 15.306892
62.550 14.631783
62.555 14.418519
62.560 13.778154
62.565 14.703324
62.570 14.999064
62.575 14.851158
62.580 14.88901
62.585 15.180908
62.590 15.177167
62.595 15.618972
62.600 14.952375
62.605 14.66888
62.610 14.523411
62.615 14.437585
62.620 14.199265
62.625 14.373268
62.630 14.765775
62.635 15.365781
62.640 15.923862
62.645 16.058924
62.650 16.512281
62.655 17.006861
62.660 17.055265
62.665 17.092854
62.670 17.111038
62.675 17.298002
62.680 17.740677
62.685 17.55209
62.690 17.607981
62.695 17.678831
62.700 17.217722
62.705 17.169485
62.710 17.028833
62.715 16.728148
62.720 16.599173
62.725 16.51354
62.730 16.256264
62.735 15.931121
62.740 15.918775
62.745 15.829444
62.750 16.063971
62.755 16.291803
62.760 16.149187
62.765 16.609627
62.770 17.253395
62.775 16.997068
62.780 16.705606
62.785 16.449097
62.790 16.017544
62.795 16.032372
62.800 15.75731
62.805 15.112506
62.810 14.974266
62.815 15.044489
62.820 15.09508
62.825 15.000335
62.830 15.230771
62.835 15.466887
62.840 16.22785
62.845 16.65406
62.850 16.59934
62.855 16.428274
62.860 16.73139
62.865 16.553759
62.870 16.226522
62.875 15.842831
62.880 15.636542
62.885 15.987518
62.890 16.169765
62.895 16.10376
62.900 16.788994
62.905 17.252317
62.910 17.361078
62.915 17.172998
62.920 16.77212
62.925 16.940912
62.930 16.611826
62.935 15.939119
62.940 15.788343
62.945 15.659418
62.950 15.592878
62.955 15.563142
62.960 15.583816
62.965 15.915419
62.970 15.749733
62.975 15.813404
62.980 15.52868
62.985 15.358279
62.990 15.550423
62.995 15.133679
63.000 14.837831
63.005 15.168294
63.010 14.790603
63.015 15.219123
63.020 15.44203
63.025 15.418
63.030 16.06167
63.035 16.77335
63.040 16.318607
63.045 16.361967
63.050 16.065584
63.055 16.205564
63.060 16.289412
63.065 16.209579
63.070 15.656898
63.075 15.933137
63.080 16.000122
63.085 16.04044
63.090 15.940743
63.095 15.660612
63.100 15.979163
63.105 16.241501
63.110 16.149649
63.115 16.164009
63.120 16.444054
63.125 17.438217
63.130 18.222872
63.135 17.870844
63.140 17.818106
63.145 18.178278
63.150 18.3279
63.155 18.15151
63.160 17.502417
63.165 16.808874
63.170 16.467907
63.175 16.517675
63.180 17.182184
63.185 17.163248
63.190 17.336832
63.195 16.731991
63.200 16.677694
63.205 16.704699
63.210 16.189848
63.215 15.27648
63.220 14.815745
63.225 14.79744
63.230 15.308486
63.235 15.20209
63.240 15.471949
63.245 15.570023
63.250 15.587643
63.255 15.780046
63.260 15.571825
63.265 15.027832
63.270 15.086301
63.275 14.831458
63.280 15.266311
63.285 15.408976
63.290 15.760815
63.295 16.326874
63.300 16.777073
63.305 17.253824
63.310 17.398373
63.315 16.789257
63.320 17.265377
63.325 17.523197
63.330 17.011705
63.335 16.415718
63.340 16.098181
63.345 16.014601
63.350 16.342623
63.355 16.336542
63.360 16.028955
63.365 16.40793
63.370 17.309341
63.375 17.170029
63.380 17.130547
63.385 16.694498
63.390 16.064007
63.395 15.622398
63.400 15.576418
63.405 14.978638
63.410 14.9327
63.415 15.567014
63.420 16.126997
63.425 16.977098
63.430 17.333614
63.435 17.734152
63.440 18.209398
63.445 18.272608
63.450 17.751408
63.455 17.414459
63.460 17.138706
63.465 17.099737
63.470 16.545721
63.475 17.016218
63.480 17.233549
63.485 17.26512
63.490 17.367697
63.495 17.289656
63.500 17.156746
63.505 17.152784
63.510 16.154087
63.515 16.149714
63.520 15.903775
63.525 15.918058
63.530 16.360714
63.535 16.670601
63.540 16.486061
63.545 16.466854
63.550 16.503658
63.555 16.844938
63.560 16.928198
63.565 16.355377
63.570 16.346581
63.575 16.702063
63.580 16.815912
63.585 16.635084
63.590 16.418703
63.595 16.608963
63.600 16.714603
63.605 16.746157
63.610 16.982731
63.615 17.33522
63.620 17.972662
63.625 17.92268
63.630 17.199417
63.635 16.793861
63.640 16.224583
63.645 16.178976
63.650 15.766535
63.655 15.017078
63.660 15.530836
63.665 15.764724
63.670 16.164219
63.675 16.786644
63.680 17.167128
63.685 17.916752
63.690 18.972881
63.695 19.594522
63.700 20.177229
63.705 20.355999
63.710 20.203922
63.715 19.369867
63.720 18.817608
63.725 18.289436
63.730 17.948103
63.735 17.877014
63.740 17.554962
63.745 17.360048
63.750 17.452349
63.755 17.633938
63.760 17.405993
63.765 16.984392
63.770 16.574324
63.775 16.830971
63.780 17.261189
63.785 16.992891
63.790 16.340227
63.795 16.244286
63.800 16.185284
63.805 16.943121
63.810 17.26256
63.815 17.293362
63.820 17.996397
63.825 18.923428
63.830 19.430828
63.835 20.094526
63.840 20.097706
63.845 19.629936
63.850 19.085337
63.855 18.992414
63.860 18.975948
63.865 19.170858
63.870 19.241877
63.875 19.271385
63.880 20.07374
63.885 20.605354
63.890 20.80732
63.895 20.965345
63.900 20.812265
63.905 20.84247
63.910 21.131325
63.915 20.729355
63.920 20.985058
63.925 21.391285
63.930 21.630016
63.935 21.60544
63.940 21.503525
63.945 21.680986
63.950 22.848883
63.955 23.253014
63.960 23.04262
63.965 23.227678
63.970 23.401571
63.975 23.51827
63.980 23.510029
63.985 22.609871
63.990 22.171242
63.995 22.710257
64.000 22.886211
64.005 22.925665
64.010 23.18074
64.015 23.19018
64.020 23.757948
64.025 24.110754
64.030 23.367628
64.035 22.541489
64.040 22.12998
64.045 22.41383
64.050 22.776464
64.055 22.545565
64.060 22.599688
64.065 23.165218
64.070 23.751177
64.075 23.88077
64.080 23.871948
64.085 23.250765
64.090 23.036173
64.095 22.82711
64.100 22.556568
64.105 22.723482
64.110 22.589846
64.115 22.13619
64.120 22.334719
64.125 22.602098
64.130 22.366058
64.135 22.026737
64.140 22.258497
64.145 22.097479
64.150 21.772154
64.155 21.927513
64.160 21.646793
64.165 21.636791
64.170 21.578703
64.175 21.434019
64.180 21.836668
64.185 22.438902
64.190 22.346539
64.195 22.284252
64.200 22.318377
64.205 22.243559
64.210 21.944628
64.215 21.783333
64.220 21.656704
64.225 22.057615
64.230 22.39711
64.235 22.414604
64.240 22.496941
64.245 22.126558
64.250 21.937283
64.255 22.164249
64.260 21.903502
64.265 22.234383
64.270 22.255352
64.275 22.403303
64.280 22.642845
64.285 22.655481
64.290 22.606453
64.295 22.169487
64.300 22.172953
64.305 22.433201
64.310 22.849258
64.315 22.97427
64.320 22.906782
64.325 23.062418
64.330 22.838974
64.335 22.078135
64.340 22.153637
64.345 21.959106
64.350 22.114088
64.355 22.355671
64.360 22.006321
64.365 22.419907
64.370 21.983898
64.375 21.529778
64.380 21.635033
64.385 21.339071
64.390 21.203197
64.395 21.413342
64.400 21.839008
64.405 22.771606
64.410 23.263254
64.415 23.562603
64.420 24.249458
64.425 24.532473
64.430 24.269104
64.435 24.186152
64.440 23.884146
64.445 24.035294
64.450 23.997118
64.455 23.577032
64.460 23.483242
64.465 23.639641
64.470 23.833998
64.475 23.722174
64.480 23.061985
64.485 22.922262
64.490 23.180141
64.495 23.793148
64.500 24.067602
64.505 23.529194
64.510 22.577032
64.515 22.212423
64.520 21.529488
64.525 21.362127
64.530 21.160025
64.535 20.925531
64.540 21.289209
64.545 22.296501
64.550 22.633141
64.555 22.609791
64.560 22.194412
64.565 21.857677
64.570 21.484869
64.575 21.03034
64.580 21.336855
64.585 21.520081
64.590 22.038395
64.595 22.004587
64.600 22.037741
64.605 22.007097
64.610 21.940628
64.615 22.261385
64.620 22.409761
64.625 22.426033
64.630 22.315577
64.635 22.068756
64.640 23.001703
64.645 23.259661
64.650 22.228992
64.655 21.795113
64.660 21.444344
64.665 22.008755
64.670 22.271179
64.675 21.384119
64.680 20.999554
64.685 21.466619
64.690 21.819044
64.695 21.770046
64.700 21.662485
64.705 21.315878
64.710 21.820515
64.715 22.703312
64.720 22.869968
64.725 22.965841
64.730 22.956686
64.735 21.994049
64.740 21.90509
64.745 21.396389
64.750 20.961628
64.755 20.520123
64.760 20.059305
64.765 20.481277
64.770 21.166582
64.775 21.402922
64.780 20.985346
64.785 20.92548
64.790 20.853354
64.795 21.114849
64.800 21.171999
64.805 20.952477
64.810 20.856745
64.815 20.74264
64.820 20.464941
64.825 20.581339
64.830 20.496267
64.835 20.825361
64.840 21.148552
64.845 21.180912
64.850 21.349617
64.855 21.61248
64.860 21.586206
64.865 21.999426
64.870 21.674799
64.875 21.778141
64.880 22.188833
64.885 22.099554
64.890 22.090675
64.895 22.512772
64.900 22.40201
64.905 22.221245
64.910 21.572159
64.915 21.32688
64.920 22.325218
64.925 21.984596
64.930 21.351988
64.935 20.858728
64.940 20.595486
64.945 20.544916
64.950 20.558964
64.955 20.015667
64.960 20.028111
64.965 20.012445
64.970 20.701359
64.975 21.19809
64.980 22.492844
64.985 22.586168
64.990 22.867908
64.995 23.244766
65.000 23.40184
65.005 23.290506
65.010 23.102592
65.015 22.582584
65.020 22.995232
65.025 23.253408
65.030 23.348984
65.035 23.584484
65.040 23.610466
65.045 23.612177
65.050 23.655724
65.055 23.293661
65.060 23.532492
65.065 23.976027
65.070 24.554716
65.075 24.81904
65.080 25.259588
65.085 25.579189
65.090 25.305779
65.095 24.573395
65.100 24.249798
65.105 24.12936
65.110 23.445971
65.115 23.022461
65.120 22.764128
65.125 23.263983
65.130 23.647581
65.135 23.267843
65.140 22.597786
65.145 22.317053
65.150 21.602991
65.155 21.85363
65.160 22.414854
65.165 22.079863
65.170 22.290848
65.175 22.489281
65.180 23.101254
65.185 24.116241
65.190 23.976751
65.195 23.117895
65.200 23.208698
65.205 23.051004
65.210 23.253443
65.215 23.078085
65.220 22.841581
65.225 22.529715
65.230 22.316582
65.235 21.822058
65.240 22.279396
65.245 22.091434
65.250 22.130539
65.255 21.971836
65.260 22.403326
65.265 22.681707
65.270 23.549738
65.275 23.179911
65.280 23.300179
65.285 23.154121
65.290 23.036343
65.295 22.842405
65.300 23.740898
65.305 23.697163
65.310 23.510778
65.315 22.970697
65.320 22.949392
65.325 22.849634
65.330 22.435286
65.335 20.909508
65.340 20.59347
65.345 20.568832
65.350 20.48032
65.355 20.442204
65.360 20.767254
65.365 21.244246
65.370 21.920156
65.375 21.280237
65.380 21.261074
65.385 21.718044
65.390 22.119587
65.395 22.549627
65.400 22.528879
65.405 22.210154
65.410 22.818954
65.415 23.062635
65.420 22.739687
65.425 22.392048
65.430 21.385273
65.435 20.692097
65.440 21.197281
65.445 21.664825
65.450 21.437162
65.455 21.069529
65.460 20.767492
65.465 21.574354
65.470 21.544481
65.475 20.967258
65.480 20.377386
65.485 20.05677
65.490 20.535217
65.495 20.759272
65.500 20.226595
65.505 19.761047
65.510 19.764212
65.515 19.807814
65.520 19.973154
65.525 20.30855
65.530 20.425396
65.535 20.587284
65.540 21.115627
65.545 21.412441
65.550 21.670992
65.555 22.094357
65.560 22.235806
65.565 22.734154
65.570 22.950064
65.575 23.027
65.580 23.88666
65.585 24.121237
65.590 24.155195
65.595 23.848276
65.600 23.472446
65.605 23.777664
65.610 23.760593
65.615 22.325266
65.620 22.304552
65.625 22.892441
65.630 22.642897
65.635 22.647169
65.640 22.454399
65.645 22.808964
65.650 23.314026
65.655 23.178396
65.660 21.796028
65.665 22.067856
65.670 21.837952
65.675 21.926647
65.680 22.011017
65.685 22.250151
65.690 22.540796
65.695 22.424059
65.700 22.272974
65.705 22.659361
65.710 22.69478
65.715 22.716982
65.720 23.304115
65.725 23.721451
65.730 24.346628
65.735 24.420719
65.740 24.742939
65.745 24.825214
65.750 25.502369
65.755 25.173346
65.760 24.884674
65.765 25.322027
65.770 25.689159
65.775 25.582987
65.780 25.478662
65.785 25.412264
65.790 25.308992
65.795 25.759333
65.800 25.741482
65.805 25.815157
65.810 25.560184
65.815 25.16921
65.820 25.007343
65.825 25.73517
65.830 25.62561
65.835 25.513309
65.840 25.582722
65.845 25.77533
65.850 26.391085
65.855 26.111769
65.860 25.690428
65.865 25.49111
65.870 25.424191
65.875 25.838455
65.880 26.735249
65.885 26.829529
65.890 27.4716
65.895 27.95277
65.900 28.228777
65.905 28.390739
65.910 28.325075
65.915 27.886044
65.920 27.781595
65.925 27.866169
65.930 28.648764
65.935 29.346104
65.940 29.628002
65.945 29.852768
65.950 30.16284
65.955 30.861422
65.960 31.328331
65.965 31.327995
65.970 31.661989
65.975 31.796253
65.980 31.868168
65.985 32.241543
65.990 31.95932
65.995 31.662827
66.000 31.794418
66.005 31.426991
66.010 31.659994
66.015 32.244987
66.020 32.775318
66.025 32.759113
66.030 32.959976
66.035 33.144501
66.040 33.951515
66.045 34.242401
66.050 34.234421
66.055 34.07386
66.060 34.677387
66.065 35.413261
66.070 35.912544
66.075 36.322327
66.080 36.388386
66.085 35.676949
66.090 35.588673
66.095 36.396351
66.100 36.427891
66.105 36.261681
66.110 36.327324
66.115 36.785778
66.120 37.273155
66.125 37.057301
66.130 36.350819
66.135 36.171669
66.140 35.866524
66.145 35.401257
66.150 35.513912
66.155 36.110687
66.160 36.483337
66.165 36.734219
66.170 37.009651
66.175 38.429604
66.180 39.001396
66.185 38.987198
66.190 39.072334
66.195 39.538246
66.200 39.689991
66.205 39.349464
66.210 38.763828
66.215 37.874771
66.220 38.064037
66.225 37.815983
66.230 37.035172
66.235 36.23991
66.240 35.775749
66.245 35.298836
66.250 35.617115
66.255 36.019588
66.260 36.615082
66.265 37.185379
66.270 38.32135
66.275 38.669498
66.280 38.140965
66.285 37.882072
66.290 36.492985
66.295 35.919312
66.300 36.030544
66.305 35.185738
66.310 35.207741
66.315 35.64336
66.320 36.215427
66.325 36.919548
66.330 36.638348
66.335 35.958786
66.340 36.081516
66.345 35.595684
66.350 35.672974
66.355 35.424126
66.360 34.813831
66.365 34.333378
66.370 34.355122
66.375 34.88826
66.380 34.795265
66.385 34.131474
66.390 33.581856
66.395 33.722168
66.400 34.016441
66.405 33.922211
66.410 33.693081
66.415 33.389874
66.420 33.341908
66.425 33.340008
66.430 33.472679
66.435 32.947895
66.440 31.919184
66.445 31.227678
66.450 30.782925
66.455 30.366646
66.460 29.712286
66.465 29.57675
66.470 29.566479
66.475 29.077219
66.480 28.938543
66.485 28.344397
66.490 28.463692
66.495 28.175329
66.500 27.736206
66.505 27.897089
66.510 28.249088
66.515 27.775661
66.520 28.089447
66.525 27.863619
66.530 28.108299
66.535 28.170124
66.540 27.373852
66.545 27.64535
66.550 27.239985
66.555 26.984749
66.560 26.420265
66.565 25.49431
66.570 24.974138
66.575 25.024504
66.580 24.070126
66.585 24.250893
66.590 24.483372
66.595 25.293592
66.600 25.773277
66.605 25.834885
66.610 25.482136
66.615 25.38162
66.620 24.995903
66.625 24.137369
66.630 23.847128
66.635 23.40448
66.640 23.262188
66.645 23.217234
66.650 22.926003
66.655 22.779057
66.660 22.367321
66.665 21.732462
66.670 21.490168
66.675 21.082428
66.680 20.856762
66.685 20.510523
66.690 20.270018
66.695 20.051723
66.700 19.87933
66.705 20.241108
66.710 20.343328
66.715 20.788002
66.720 20.750692
66.725 20.064674
66.730 19.856071
66.735 19.695013
66.740 19.528194
66.745 19.39628
66.750 19.287247
66.755 18.991554
66.760 19.410046
66.765 19.563877
66.770 19.540516
66.775 19.622412
66.780 19.37022
66.785 19.435318
66.790 19.380491
66.795 18.636791
66.800 18.204622
66.805 18.242306
66.810 18.189966
66.815 18.006763
66.820 17.60074
66.825 18.105947
66.830 18.432163
66.835 18.756001
66.840 18.654522
66.845 18.492596
66.850 19.132589
66.855 19.258951
66.860 19.107224
66.865 19.510656
66.870 19.582956
66.875 19.312555
66.880 19.375227
66.885 19.439108
66.890 19.306028
66.895 18.865969
66.900 18.4585
66.905 18.587801
66.910 18.871365
66.915 18.888735
66.920 18.809502
66.925 18.54771
66.930 19.254866
66.935 19.923512
66.940 20.823711
66.945 20.816385
66.950 20.729334
66.955 20.315289
66.960 20.533976
66.965 20.279795
66.970 19.607098
66.975 18.600939
66.980 18.731831
66.985 18.885649
66.990 18.879393
66.995 18.56447
67.000 18.20315
67.005 17.641405
67.010 17.238974
67.015 16.889957
67.020 16.691864
67.025 16.61702
67.030 17.038067
67.035 17.754286
67.040 17.817593
67.045 18.341091
67.050 18.645128
67.055 19.016405
67.060 19.712971
67.065 19.359077
67.070 19.137478
67.075 19.438112
67.080 18.934622
67.085 18.779684
67.090 18.259066
67.095 17.682022
67.100 18.043507
67.105 18.077873
67.110 18.52858
67.115 18.849726
67.120 18.610949
67.125 18.708532
67.130 18.48802
67.135 18.054255
67.140 18.272377
67.145 17.820169
67.150 17.540094
67.155 17.413605
67.160 17.076368
67.165 16.999331
67.170 16.607988
67.175 16.430885
67.180 17.010933
67.185 17.156261
67.190 17.157028
67.195 17.424694
67.200 17.918751
67.205 17.61105
67.210 17.173101
67.215 16.578674
67.220 16.377954
67.225 16.663048
67.230 16.912804
67.235 17.233877
67.240 17.999992
67.245 18.625935
67.250 18.687922
67.255 19.241558
67.260 19.244644
67.265 19.067499
67.270 19.238773
67.275 19.119564
67.280 19.17691
67.285 19.284731
67.290 18.874657
67.295 18.617008
67.300 18.937496
67.305 18.845657
67.310 18.430836
67.315 17.854717
67.320 17.870895
67.325 17.864895
67.330 18.02084
67.335 18.208759
67.340 17.976648
67.345 17.728416
67.350 17.93387
67.355 17.676304
67.360 18.275026
67.365 18.18738
67.370 17.596954
67.375 17.661455
67.380 18.382608
67.385 19.131157
67.390 19.857302
67.395 20.017231
67.400 19.862741
67.405 20.393499
67.410 20.670752
67.415 20.138695
67.420 19.455605
67.425 19.199818
67.430 18.610754
67.435 18.583071
67.440 18.031237
67.445 17.679958
67.450 17.459162
67.455 17.291512
67.460 16.847208
67.465 16.847418
67.470 17.548508
67.475 17.68115
67.480 17.395462
67.485 17.584503
67.490 17.376078
67.495 17.712545
67.500 18.412109
67.505 17.709846
67.510 18.253311
67.515 19.142921
67.520 19.313948
67.525 19.585976
67.530 19.19791
67.535 18.395596
67.540 18.13464
67.545 17.501551
67.550 16.691256
67.555 16.572165
67.560 16.856413
67.565 17.380547
67.570 17.807095
67.575 18.334141
67.580 18.721445
67.585 19.46784
67.590 20.279697
67.595 20.413902
67.600 20.138317
67.605 19.969481
67.610 20.189816
67.615 20.695927
67.620 20.539833
67.625 20.343821
67.630 20.546619
67.635 20.883202
67.640 20.539745
67.645 20.428366
67.650 20.145187
67.655 19.511644
67.660 18.711245
67.665 18.148138
67.670 17.569002
67.675 17.99785
67.680 18.027256
67.685 18.14069
67.690 18.461721
67.695 18.674109
67.700 18.742891
67.705 19.711941
67.710 19.597378
67.715 19.926249
67.720 19.886749
67.725 19.130764
67.730 19.128233
67.735 19.942148
67.740 19.417852
67.745 19.067541
67.750 18.53903
67.755 18.665045
67.760 19.598295
67.765 19.487432
67.770 18.869324
67.775 18.92009
67.780 18.791428
67.785 18.859493
67.790 19.098082
67.795 18.809019
67.800 18.871767
67.805 19.109825
67.810 19.556524
67.815 19.742142
67.820 19.183676
67.825 18.572489
67.830 18.987631
67.835 18.62594
67.840 17.625427
67.845 17.133339
67.850 17.17057
67.855 18.064007
67.860 17.845295
67.865 16.941029
67.870 17.320671
67.875 17.586021
67.880 17.922768
67.885 17.951138
67.890 17.539869
67.895 17.912342
67.900 18.168434
67.905 18.249243
67.910 18.375248
67.915 18.283867
67.920 18.524477
67.925 18.351576
67.930 18.496679
67.935 18.61935
67.940 18.17487
67.945 18.127478
67.950 18.239704
67.955 18.41621
67.960 18.491381
67.965 18.500475
67.970 18.504639
67.975 18.876625
67.980 19.011534
67.985 18.493122
67.990 17.883408
67.995 17.872627
68.000 18.071278
68.005 17.689798
68.010 17.308882
68.015 17.235025
68.020 17.960464
68.025 18.892183
68.030 19.449623
68.035 19.19203
68.040 19.297176
68.045 19.599031
68.050 19.924433
68.055 19.74188
68.060 19.340893
68.065 18.999769
68.070 19.261646
68.075 19.431053
68.080 19.326611
68.085 19.094025
68.090 18.499144
68.095 18.800486
68.100 19.391161
68.105 19.468111
68.110 19.510843
68.115 19.412638
68.120 19.202682
68.125 19.153191
68.130 19.19738
68.135 19.487881
68.140 19.69265
68.145 20.037811
68.150 20.465124
68.155 20.734922
68.160 21.014559
68.165 20.533266
68.170 19.888077
68.175 19.707844
68.180 19.201939
68.185 19.147026
68.190 19.215481
68.195 18.979429
68.200 18.65057
68.205 18.828672
68.210 19.032614
68.215 19.502136
68.220 19.482147
68.225 19.37738
68.230 19.581789
68.235 19.490643
68.240 18.667337
68.245 18.934647
68.250 18.489992
68.255 18.281233
68.260 17.824947
68.265 17.991922
68.270 18.61175
68.275 19.512875
68.280 19.270256
68.285 19.577814
68.290 19.636358
68.295 19.731218
68.300 19.968111
68.305 19.645008
68.310 19.602003
68.315 19.394548
68.320 19.195644
68.325 19.311455
68.330 19.663372
68.335 19.257294
68.340 19.278513
68.345 18.779484
68.350 18.734705
68.355 18.444323
68.360 18.28978
68.365 17.621576
68.370 17.342976
68.375 16.830254
68.380 16.889843
68.385 17.565954
68.390 17.78301
68.395 17.949263
68.400 18.111071
68.405 18.538471
68.410 18.837475
68.415 18.413887
68.420 18.62891
68.425 18.623051
68.430 18.436028
68.435 18.902351
68.440 19.454908
68.445 20.069233
68.450 20.264309
68.455 19.761311
68.460 19.901468
68.465 19.71871
68.470 19.294649
68.475 19.102482
68.480 19.368732
68.485 19.828781
68.490 20.126394
68.495 20.585489
68.500 21.064772
68.505 21.035465
68.510 20.658623
68.515 19.927299
68.520 19.307108
68.525 19.028452
68.530 18.454672
68.535 18.115915
68.540 18.291204
68.545 18.311703
68.550 18.490175
68.555 18.990788
68.560 19.712204
68.565 20.11968
68.570 19.886242
68.575 19.184307
68.580 19.453533
68.585 19.03713
68.590 18.456306
68.595 18.090107
68.600 18.194935
68.605 19.163265
68.610 19.64226
68.615 19.586275
68.620 19.970776
68.625 19.655298
68.630 19.69698
68.635 19.776285
68.640 19.566999
68.645 19.748219
68.650 19.794649
68.655 20.572525
68.660 20.987968
68.665 20.46365
68.670 20.233583
68.675 19.726715
68.680 19.816187
68.685 19.784021
68.690 19.188532
68.695 19.325556
68.700 19.290852
68.705 18.8915
68.710 19.310915
68.715 19.307131
68.720 19.568899
68.725 19.60409
68.730 19.37635
68.735 19.907831
68.740 19.769163
68.745 19.471691
68.750 18.859579
68.755 18.352861
68.760 18.49888
68.765 19.0832
68.770 19.028938
68.775 19.455011
68.780 19.501646
68.785 19.790367
68.790 19.952444
68.795 19.401644
68.800 19.45298
68.805 20.070267
68.810 20.011358
68.815 20.10018
68.820 19.818342
68.825 19.697624
68.830 19.1966
68.835 18.710861
68.840 18.392925
68.845 18.438387
68.850 18.596914
68.855 18.959618
68.860 19.303114
68.865 20.448868
68.870 20.720816
68.875 20.441961
68.880 20.485876
68.885 20.831224
68.890 21.542694
68.895 21.530291
68.900 21.469147
68.905 21.483515
68.910 21.626883
68.915 21.497089
68.920 20.988056
68.925 20.38052
68.930 20.320419
68.935 20.361977
68.940 20.246355
68.945 20.849642
68.950 21.598665
68.955 22.269264
68.960 22.849796
68.965 23.475866
68.970 22.785049
68.975 23.138794
68.980 23.242716
68.985 23.307791
68.990 22.985321
68.995 22.638161
69.000 22.666189
69.005 23.393665
69.010 23.226357
69.015 23.427015
69.020 23.394567
69.025 23.476387
69.030 23.515009
69.035 24.344061
69.040 24.494362
69.045 25.336718
69.050 25.241732
69.055 25.276276
69.060 25.915508
69.065 26.263971
69.070 25.847229
69.075 25.960308
69.080 24.802797
69.085 24.723269
69.090 24.944786
69.095 24.804501
69.100 24.797764
69.105 25.021305
69.110 25.677238
69.115 26.121504
69.120 26.127815
69.125 25.965452
69.130 26.035023
69.135 26.04945
69.140 25.582108
69.145 24.889122
69.150 25.449366
69.155 25.523016
69.160 25.367498
69.165 25.716679
69.170 26.032557
69.175 27.16033
69.180 27.99349
69.185 28.231192
69.190 28.544889
69.195 28.292299
69.200 27.904591
69.205 27.442274
69.210 27.194672
69.215 27.019554
69.220 26.833267
69.225 27.042284
69.230 27.206865
69.235 27.235508
69.240 27.884275
69.245 28.07778
69.250 27.453976
69.255 27.644791
69.260 28.160799
69.265 28.603201
69.270 28.964079
69.275 28.918892
69.280 29.102348
69.285 29.357708
69.290 29.29528
69.295 29.284409
69.300 29.710295
69.305 30.452644
69.310 30.756279
69.315 30.613436
69.320 30.670441
69.325 30.729416
69.330 31.169495
69.335 30.676413
69.340 30.359097
69.345 30.537834
69.350 31.216028
69.355 31.133972
69.360 30.99757
69.365 31.529009
69.370 32.011997
69.375 31.703495
69.380 31.470541
69.385 30.872673
69.390 31.44039
69.395 31.351999
69.400 30.695482
69.405 30.707447
69.410 30.579353
69.415 30.96743
69.420 32.05077
69.425 31.838404
69.430 32.102501
69.435 32.057613
69.440 32.531948
69.445 32.978016
69.450 33.542599
69.455 33.591576
69.460 33.853527
69.465 33.861412
69.470 34.40871
69.475 34.111397
69.480 33.983463
69.485 33.429607
69.490 33.379017
69.495 33.688332
69.500 33.574268
69.505 32.99279
69.510 32.813271
69.515 32.993134
69.520 33.369537
69.525 32.999607
69.530 31.473957
69.535 31.291519
69.540 31.683998
69.545 31.458315
69.550 31.506258
69.555 31.601974
69.560 32.475723
69.565 33.148739
69.570 33.646523
69.575 34.25087
69.580 34.896385
69.585 34.399166
69.590 33.611462
69.595 33.820992
69.600 34.16898
69.605 33.67215
69.610 33.049564
69.615 32.012669
69.620 31.705919
69.625 31.843971
69.630 31.871511
69.635 32.210228
69.640 31.350544
69.645 31.027826
69.650 31.694845
69.655 31.400806
69.660 30.469532
69.665 30.307444
69.670 30.568323
69.675 31.267719
69.680 31.927345
69.685 32.074654
69.690 32.881153
69.695 32.721767
69.700 32.440517
69.705 32.159
69.710 32.125282
69.715 31.01317
69.720 30.69656
69.725 30.087379
69.730 30.33473
69.735 29.619904
69.740 29.249054
69.745 29.207359
69.750 29.127422
69.755 29.478098
69.760 28.876717
69.765 28.448471
69.770 27.906733
69.775 27.627916
69.780 26.82015
69.785 26.225971
69.790 25.506618
69.795 25.783163
69.800 25.208565
69.805 25.303856
69.810 25.404156
69.815 25.545994
69.820 25.642813
69.825 25.463892
69.830 26.096403
69.835 26.973051
69.840 26.46291
69.845 25.815578
69.850 25.974447
69.855 25.74848
69.860 25.130056
69.865 23.871555
69.870 22.867117
69.875 23.117876
69.880 22.925974
69.885 22.664682
69.890 22.439161
69.895 21.994274
69.900 21.55077
69.905 21.786282
69.910 21.595093
69.915 21.281315
69.920 21.463978
69.925 21.757921
69.930 22.04788
69.935 22.724699
69.940 22.983376
69.945 23.459423
69.950 23.256992
69.955 23.198788
69.960 23.360115
69.965 23.095831
69.970 22.375326
69.975 21.447878
69.980 21.530788
69.985 21.869242
69.990 21.608978
69.995 21.155716
70.000 21.956123
70.005 21.667828
70.010 21.276451
70.015 21.175343
70.020 20.984293
70.025 21.416471
70.030 20.749367
70.035 19.687761
70.040 20.49136
70.045 21.091089
70.050 20.348166
70.055 20.022053
70.060 19.592789
70.065 20.115068
70.070 19.967693
70.075 19.418039
70.080 18.681103
70.085 18.296076
70.090 18.464651
70.095 18.445412
70.100 18.180927
70.105 18.334055
70.110 18.677399
70.115 18.637672
70.120 18.719641
70.125 18.398859
70.130 18.684544
70.135 18.906296
70.140 18.663883
70.145 19.039579
70.150 19.833607
70.155 20.400785
70.160 20.195808
70.165 19.71595
70.170 19.626873
70.175 19.032949
70.180 18.552555
70.185 18.227688
70.190 18.157974
70.195 18.343063
70.200 18.973404
70.205 19.463747
70.210 19.523098
70.215 19.784248
70.220 19.963099
70.225 18.985643
70.230 18.587603
70.235 18.034756
70.240 18.117403
70.245 18.741138
70.250 18.467066
70.255 18.44051
70.260 19.236769
70.265 19.507076
70.270 19.986649
70.275 19.445354
70.280 18.865713
70.285 18.904106
70.290 18.805115
70.295 18.523033
70.300 18.262257
70.305 17.600071
70.310 17.669004
70.315 18.221306
70.320 17.879961
70.325 17.664936
70.330 17.455547
70.335 17.916002
70.340 18.827576
70.345 19.089853
70.350 19.475416
70.355 20.038277
70.360 20.028452
70.365 20.46702
70.370 20.059004
70.375 19.07856
70.380 18.854254
70.385 18.741575
70.390 18.775635
70.395 18.583775
70.400 18.308676
70.405 18.277719
70.410 18.908052
70.415 18.57922
70.420 18.212267
70.425 17.885498
70.430 17.695368
70.435 17.509607
70.440 17.250227
70.445 16.97723
70.450 16.982187
70.455 17.029234
70.460 17.397877
70.465 18.418146
70.470 19.755705
70.475 20.498667
70.480 20.990221
70.485 21.579733
70.490 21.180183
70.495 21.066771
70.500 20.496372
70.505 19.478294
70.510 19.090431
70.515 18.267046
70.520 18.107508
70.525 18.220757
70.530 17.884434
70.535 17.691818
70.540 17.843204
70.545 18.157475
70.550 18.023239
70.555 17.455568
70.560 17.585737
70.565 17.928171
70.570 18.003572
70.575 17.573225
70.580 17.481619
70.585 17.714325
70.590 17.86627
70.595 17.889696
70.600 18.07588
70.605 18.002882
70.610 18.339436
70.615 18.401569
70.620 18.430843
70.625 19.025728
70.630 18.756369
70.635 18.722809
70.640 18.921886
70.645 18.727306
70.650 18.434919
70.655 18.262781
70.660 17.952587
70.665 17.581247
70.670 17.347261
70.675 17.281475
70.680 17.066816
70.685 17.037352
70.690 17.094702
70.695 17.095352
70.700 17.659306
70.705 17.492065
70.710 17.297369
70.715 17.216965
70.720 17.261614
70.725 18.098118
70.730 18.040356
70.735 17.756174
70.740 17.82255
70.745 17.895859
70.750 18.099524
70.755 18.271734
70.760 18.037767
70.765 17.8599
70.770 18.210003
70.775 18.223635
70.780 18.487471
70.785 18.063461
70.790 17.051138
70.795 15.980074
70.800 15.821614
70.805 15.2995
70.810 15.484365
70.815 15.968062
70.820 17.313742
70.825 17.629669
70.830 18.163252
70.835 18.513163
70.840 18.501732
70.845 18.203423
70.850 17.857986
70.855 16.643496
70.860 16.496628
70.865 16.318617
70.870 17.054491
70.875 17.417231
70.880 17.906565
70.885 17.788992
70.890 18.53005
70.895 19.299761
70.900 19.442419
70.905 18.911961
70.910 18.577856
70.915 18.028709
70.920 18.290504
70.925 18.358049
70.930 18.086136
70.935 17.842073
70.940 18.157944
70.945 18.093149
70.950 17.978661
70.955 18.021078
70.960 18.154743
70.965 18.343657
70.970 18.123701
70.975 17.280165
70.980 17.835249
70.985 17.969053
70.990 17.772459
70.995 17.303217
71.000 17.13364
71.005 17.035664
71.010 17.373604
71.015 17.000189
71.020 17.164421
71.025 17.694674
71.030 17.425215
71.035 18.010962
71.040 17.958483
71.045 17.470863
71.050 17.933567
71.055 17.569424
71.060 16.758717
71.065 16.892044
71.070 17.006462
71.075 17.560501
71.080 17.901546
71.085 17.608438
71.090 17.714838
71.095 17.514004
71.100 17.114258
71.105 17.125212
71.110 16.780218
71.115 16.566366
71.120 17.067663
71.125 16.820061
71.130 17.310339
71.135 17.256098
71.140 17.257793
71.145 17.440577
71.150 17.193535
71.155 17.065811
71.160 17.410542
71.165 17.603884
71.170 17.901625
71.175 17.268078
71.180 16.838776
71.185 16.627989
71.190 16.548098
71.195 17.286997
71.200 16.802176
71.205 16.596128
71.210 16.923807
71.215 17.356514
71.220 17.193075
71.225 16.408974
71.230 16.456896
71.235 17.027122
71.240 17.013098
71.245 16.650406
71.250 16.439346
71.255 16.992453
71.260 17.429079
71.265 17.003534
71.270 17.127146
71.275 17.642805
71.280 18.407503
71.285 18.892593
71.290 19.282278
71.295 19.506472
71.300 18.972931
71.305 18.877586
71.310 19.063354
71.315 19.086393
71.320 19.397717
71.325 18.974899
71.330 18.833046
71.335 19.581623
71.340 19.391964
71.345 19.231495
71.350 18.568008
71.355 17.682302
71.360 17.634029
71.365 17.621469
71.370 17.078388
71.375 17.389072
71.380 17.214666
71.385 17.42137
71.390 17.734907
71.395 17.786291
71.400 18.859894
71.405 19.151871
71.410 18.7917
71.415 19.061443
71.420 19.526754
71.425 19.409006
71.430 18.920099
71.435 18.235447
71.440 17.796576
71.445 18.089565
71.450 17.755154
71.455 17.313812
71.460 17.095829
71.465 16.644423
71.470 16.616116
71.475 16.446272
71.480 16.170879
71.485 16.240595
71.490 16.729378
71.495 17.457439
71.500 18.12241
71.505 18.33321
71.510 18.533527
71.515 18.636438
71.520 18.642756
71.525 18.103077
71.530 17.822397
71.535 17.680729
71.540 17.151119
71.545 17.160479
71.550 17.446306
71.555 17.006386
71.560 17.616491
71.565 17.623011
71.570 17.081009
71.575 17.300205
71.580 17.100412
71.585 17.181807
71.590 17.738985
71.595 17.450258
71.600 17.734953
71.605 17.829344
71.610 18.252211
71.615 18.161121
71.620 18.534634
71.625 17.971815
71.630 18.073774
71.635 17.757889
71.640 18.327568
71.645 18.676819
71.650 18.806017
71.655 18.629227
71.660 19.34903
71.665 18.839054
71.670 18.941023
71.675 18.497589
71.680 18.405441
71.685 17.723354
71.690 17.224087
71.695 17.153805
71.700 17.877119
71.705 17.714521
71.710 17.510712
71.715 17.411785
71.720 18.776777
71.725 18.58713
71.730 18.47156
71.735 18.857527
71.740 19.166845
71.745 18.972151
71.750 18.880856
71.755 18.063004
71.760 18.257214
71.765 18.012329
71.770 17.61182
71.775 18.063152
71.780 18.241261
71.785 18.311724
71.790 18.614777
71.795 18.719116
71.800 19.054379
71.805 19.350473
71.810 19.323856
71.815 19.247229
71.820 18.975838
71.825 18.848541
71.830 18.379612
71.835 17.656237
71.840 17.031752
71.845 16.515688
71.850 17.34473
71.855 17.386915
71.860 17.484596
71.865 17.797813
71.870 17.639061
71.875 17.936298
71.880 17.674416
71.885 17.080008
71.890 17.460684
71.895 17.529013
71.900 17.57061
71.905 17.635599
71.910 17.370422
71.915 17.7983
71.920 17.790987
71.925 17.72571
71.930 17.276577
71.935 17.502985
71.940 17.755173
71.945 18.040154
71.950 18.086746
71.955 18.107178
71.960 18.412035
71.965 18.831501
71.970 18.691301
71.975 18.558722
71.980 18.797497
71.985 18.48086
71.990 18.105398
71.995 17.477207
72.000 17.556955
72.005 17.317825
72.010 16.96508
72.015 16.815971
72.020 16.639921
72.025 17.065689
72.030 17.06687
72.035 16.923874
72.040 17.117247
72.045 17.031746
72.050 16.550982
72.055 16.627756
72.060 15.905508
72.065 15.686976
72.070 15.949193
72.075 16.062567
72.080 16.453535
72.085 17.465679
72.090 17.286516
72.095 17.554516
72.100 18.102097
72.105 17.791939
72.110 17.78474
72.115 17.829891
72.120 17.150345
72.125 17.770613
72.130 17.734312
72.135 17.541605
72.140 17.636032
72.145 17.723131
72.150 17.765371
72.155 17.233221
72.160 16.920542
72.165 16.836224
72.170 17.144176
72.175 17.142591
72.180 16.590082
72.185 16.643936
72.190 17.371447
72.195 17.835955
72.200 17.269732
72.205 16.690685
72.210 16.537998
72.215 16.278456
72.220 16.448488
72.225 16.272041
72.230 16.307949
72.235 16.677353
72.240 16.84243
72.245 17.234915
72.250 17.672606
72.255 17.525385
72.260 17.527956
72.265 18.186144
72.270 18.529888
72.275 18.3242
72.280 18.305855
72.285 18.246723
72.290 18.320282
72.295 18.80859
72.300 18.004757
72.305 17.754366
72.310 18.189737
72.315 18.737856
72.320 18.435947
72.325 18.166693
72.330 17.630774
72.335 18.355688
72.340 18.486229
72.345 18.132114
72.350 17.102116
72.355 16.947214
72.360 16.8181
72.365 16.74579
72.370 16.652529
72.375 16.747446
72.380 16.83429
72.385 17.397776
72.390 17.701977
72.395 18.165827
72.400 18.185499
72.405 17.75174
72.410 17.767084
72.415 17.487944
72.420 16.884506
72.425 16.818678
72.430 16.687679
72.435 16.753851
72.440 16.727205
72.445 16.940536
72.450 17.53931
72.455 17.946465
72.460 17.724821
72.465 17.848293
72.470 18.017525
72.475 18.100389
72.480 17.319105
72.485 17.437775
72.490 17.611086
72.495 17.239651
72.500 16.932268
72.505 16.8943
72.510 17.246042
72.515 17.411036
72.520 16.821211
72.525 16.853291
72.530 17.219671
72.535 17.247696
72.540 17.142984
72.545 16.607845
72.550 17.08523
72.555 17.293079
72.560 17.468493
72.565 16.876232
72.570 16.516788
72.575 16.341869
72.580 16.534887
72.585 16.55711
72.590 16.64492
72.595 16.754534
72.600 17.434145
72.605 17.399477
72.610 17.287182
72.615 17.154959
72.620 16.615519
72.625 16.569048
72.630 16.310131
72.635 15.695754
72.640 15.871102
72.645 16.164301
72.650 16.153774
72.655 16.504051
72.660 16.121759
72.665 16.177135
72.670 16.739216
72.675 16.872763
72.680 16.682468
72.685 16.210405
72.690 15.83344
72.695 16.063883
72.700 15.548591
72.705 15.271108
72.710 14.928066
72.715 15.162056
72.720 15.480499
72.725 16.019709
72.730 16.07358
72.735 16.231945
72.740 16.160471
72.745 16.559282
72.750 16.932119
72.755 17.09211
72.760 16.568138
72.765 16.298693
72.770 16.452391
72.775 16.406742
72.780 16.504015
72.785 16.368469
72.790 17.266859
72.795 17.615744
72.800 17.854853
72.805 18.099478
72.810 18.147226
72.815 17.192989
72.820 16.371105
72.825 15.566049
72.830 15.508843
72.835 15.461945
72.840 15.827872
72.845 16.09543
72.850 16.784029
72.855 17.513172
72.860 17.701769
72.865 17.671803
72.870 17.848753
72.875 17.179823
72.880 17.531658
72.885 17.913515
72.890 17.246901
72.895 17.317085
72.900 17.150852
72.905 16.462141
72.910 16.336342
72.915 15.687968
72.920 15.330275
72.925 16.259041
72.930 16.23064
72.935 15.84129
72.940 16.312641
72.945 16.816219
72.950 17.504404
72.955 17.922613
72.960 17.310493
72.965 17.588882
72.970 18.080786
72.975 17.574186
72.980 17.195673
72.985 16.256689
72.990 16.541676
72.995 17.140629
73.000 16.545713
