!@!!GADDS PLOTSO FILE: Chi integration type
!@!!Title/SampleName: map-c1
!@!!Comment: ?
!@!!User: Bruker Instrument Administrator
!@!!Site: University of Illinois Chicago
!@!!Frame: map-c1_01_000.gfrm
!@!!Wavelengths    1.54184   1.54056   1.54439
!@!!Frame angles: 2Theta: 63.000 Omega: 50.000 Phi: 0.000 Chi: 90.000
!@!!Integration range: 2Theta: 53.000 to 73.000  Gamma: -105.000 to -75.000
!@!!Integration method: bin normalized
!@!N
!@!SS
!@!M
!@!L 0.0 0.0 0.0 0.0
!@!XDegrees
!@!YCounts
53.000 6.219635
53.005 5.926714
53.010 5.877837
53.015 6.178949
53.020 6.213424
53.025 5.895585
53.030 5.739286
53.035 5.769039
53.040 5.91275
53.045 6.078857
53.050 5.945841
53.055 5.849514
53.060 6.042562
53.065 6.17088
53.070 5.994105
53.075 6.102254
53.080 6.071659
53.085 6.120698
53.090 6.079076
53.095 6.219023
53.100 6.614577
53.105 7.019912
53.110 6.976743
53.115 6.776346
53.120 6.932365
53.125 6.83313
53.130 6.920765
53.135 6.66266
53.140 6.522961
53.145 6.535305
53.150 6.853471
53.155 6.675359
53.160 6.718677
53.165 6.341163
53.170 6.055126
53.175 5.902755
53.180 5.428938
53.185 5.313132
53.190 5.624389
53.195 6.016273
53.200 6.293237
53.205 6.541518
53.210 6.618472
53.215 6.516951
53.220 6.477901
53.225 6.70899
53.230 6.394882
53.235 6.419931
53.240 6.464582
53.245 6.854091
53.250 7.041878
53.255 7.013438
53.260 6.732614
53.265 6.484552
53.270 6.376535
53.275 6.456092
53.280 6.630446
53.285 6.838241
53.290 6.396297
53.295 6.493965
53.300 6.737803
53.305 6.544842
53.310 6.327403
53.315 6.240272
53.320 6.264913
53.325 6.157492
53.330 5.821002
53.335 5.806884
53.340 6.136231
53.345 5.589776
53.350 5.552749
53.355 5.609076
53.360 5.91979
53.365 6.317577
53.370 6.294442
53.375 6.257974
53.380 6.688156
53.385 6.6988
53.390 6.761937
53.395 7.038898
53.400 6.893193
53.405 6.944793
53.410 6.962365
53.415 6.843097
53.420 7.056229
53.425 6.968033
53.430 7.057229
53.435 7.401293
53.440 7.467211
53.445 7.61224
53.450 7.536944
53.455 7.242787
53.460 6.94558
53.465 6.763464
53.470 6.661556
53.475 6.677854
53.480 6.309212
53.485 6.140475
53.490 5.988926
53.495 6.034114
53.500 5.804085
53.505 5.716302
53.510 5.898874
53.515 6.006734
53.520 6.183852
53.525 6.409938
53.530 6.348272
53.535 6.350295
53.540 6.071392
53.545 5.823615
53.550 5.541363
53.555 5.376641
53.560 5.205668
53.565 5.20936
53.570 5.146413
53.575 5.190872
53.580 5.359328
53.585 5.844736
53.590 6.020484
53.595 6.412319
53.600 6.322081
53.605 6.659151
53.610 7.049396
53.615 7.305719
53.620 7.264231
53.625 7.346064
53.630 7.570707
53.635 7.913709
53.640 7.767864
53.645 7.807951
53.650 7.944602
53.655 7.939264
53.660 7.81243
53.665 8.126411
53.670 8.3186
53.675 8.01417
53.680 7.657902
53.685 7.910758
53.690 8.107048
53.695 7.911414
53.700 7.749998
53.705 7.761549
53.710 7.980139
53.715 7.936824
53.720 7.37591
53.725 7.133272
53.730 6.847221
53.735 6.3934
53.740 6.576953
53.745 6.856316
53.750 6.666028
53.755 6.775139
53.760 6.904192
53.765 7.113472
53.770 7.000962
53.775 6.699198
53.780 6.831854
53.785 6.989268
53.790 6.977468
53.795 6.992344
53.800 7.119298
53.805 7.081462
53.810 6.763177
53.815 6.691072
53.820 6.875295
53.825 7.35082
53.830 7.307152
53.835 7.099663
53.840 7.365401
53.845 7.427494
53.850 7.600556
53.855 7.595841
53.860 7.518926
53.865 7.583679
53.870 7.828379
53.875 8.049847
53.880 7.988695
53.885 7.442316
53.890 7.481741
53.895 7.650326
53.900 7.399904
53.905 7.226307
53.910 6.900371
53.915 7.060021
53.920 7.382233
53.925 7.244387
53.930 6.899008
53.935 6.724005
53.940 6.664732
53.945 6.947535
53.950 6.987387
53.955 6.7215
53.960 6.674304
53.965 7.247432
53.970 7.47666
53.975 7.440029
53.980 7.426887
53.985 7.365644
53.990 7.3752
53.995 7.120514
54.000 7.19008
54.005 7.61573
54.010 7.920881
54.015 7.952813
54.020 8.01443
54.025 7.856908
54.030 8.077045
54.035 7.692215
54.040 7.366411
54.045 7.140296
54.050 6.949521
54.055 7.271716
54.060 7.833974
54.065 7.910697
54.070 8.183581
54.075 8.178683
54.080 8.188087
54.085 8.131945
54.090 7.979091
54.095 7.18862
54.100 6.798512
54.105 6.576458
54.110 6.943638
54.115 7.070179
54.120 6.960014
54.125 7.29525
54.130 7.818657
54.135 8.24228
54.140 8.020079
54.145 7.916815
54.150 7.852526
54.155 8.095779
54.160 7.94875
54.165 7.73772
54.170 7.559916
54.175 7.62584
54.180 7.682664
54.185 7.382741
54.190 7.276996
54.195 7.296212
54.200 7.110784
54.205 7.449106
54.210 7.439295
54.215 7.896029
54.220 7.887733
54.225 7.89248
54.230 8.096643
54.235 8.495879
54.240 8.456616
54.245 8.133415
54.250 7.916486
54.255 8.105125
54.260 7.955406
54.265 8.662079
54.270 8.576575
54.275 8.915302
54.280 9.15941
54.285 9.695424
54.290 9.999476
54.295 9.611883
54.300 8.775389
54.305 8.502745
54.310 8.338913
54.315 8.490138
54.320 8.21646
54.325 8.381548
54.330 8.686108
54.335 8.611813
54.340 8.782277
54.345 8.71532
54.350 8.796771
54.355 8.588638
54.360 8.302805
54.365 8.282031
54.370 8.521837
54.375 8.678795
54.380 8.726577
54.385 8.44194
54.390 8.460966
54.395 8.589541
54.400 8.744156
54.405 8.649487
54.410 8.675426
54.415 8.564137
54.420 8.715488
54.425 8.701793
54.430 8.559003
54.435 8.439981
54.440 8.501325
54.445 8.364984
54.450 8.359988
54.455 8.188676
54.460 8.559462
54.465 8.933418
54.470 8.436854
54.475 8.176654
54.480 7.860457
54.485 7.701068
54.490 7.199884
54.495 6.571461
54.500 6.670736
54.505 6.812438
54.510 6.941775
54.515 6.785304
54.520 6.707556
54.525 7.171782
54.530 7.329348
54.535 7.601255
54.540 7.947652
54.545 7.897357
54.550 8.578603
54.555 9.135502
54.560 9.341986
54.565 9.415214
54.570 9.668179
54.575 9.835177
54.580 10.041262
54.585 9.746009
54.590 9.388317
54.595 9.250206
54.600 9.008004
54.605 8.588993
54.610 8.828142
54.615 9.047106
54.620 8.858385
54.625 8.968942
54.630 8.909886
54.635 8.817799
54.640 8.781344
54.645 8.288313
54.650 8.277328
54.655 8.167783
54.660 8.023982
54.665 8.240122
54.670 8.016223
54.675 8.020415
54.680 8.576308
54.685 8.325453
54.690 8.51919
54.695 8.611723
54.700 8.636456
54.705 8.765643
54.710 8.284619
54.715 8.102687
54.720 8.411165
54.725 8.487307
54.730 8.564674
54.735 8.32303
54.740 8.168022
54.745 8.007936
54.750 7.99856
54.755 8.223878
54.760 8.391873
54.765 8.703382
54.770 8.765624
54.775 8.996631
54.780 9.019325
54.785 8.776388
54.790 8.569388
54.795 8.144709
54.800 7.743461
54.805 8.241444
54.810 8.781281
54.815 9.090967
54.820 9.135277
54.825 9.278819
54.830 9.548184
54.835 9.753278
54.840 9.143395
54.845 8.343266
54.850 8.286838
54.855 8.419263
54.860 8.445601
54.865 8.265803
54.870 7.980927
54.875 7.960915
54.880 8.554243
54.885 8.554169
54.890 8.232931
54.895 7.967232
54.900 8.007489
54.905 8.226405
54.910 8.514598
54.915 8.348942
54.920 8.333534
54.925 8.624704
54.930 8.825535
54.935 8.525274
54.940 8.64872
54.945 8.738768
54.950 8.464888
54.955 8.438987
54.960 8.070159
54.965 8.340306
54.970 8.689358
54.975 8.488509
54.980 8.489014
54.985 8.808153
54.990 8.904293
54.995 9.296813
55.000 9.039372
55.005 8.830416
55.010 9.41655
55.015 9.070597
55.020 8.795989
55.025 8.335125
55.030 7.893651
55.035 8.380802
55.040 8.628861
55.045 8.520927
55.050 8.268134
55.055 8.675441
55.060 8.99528
55.065 8.947283
55.070 8.69974
55.075 8.683807
55.080 8.751385
55.085 8.77598
55.090 8.392929
55.095 8.440492
55.100 8.643359
55.105 8.343672
55.110 7.994963
55.115 7.802004
55.120 8.202182
55.125 8.324526
55.130 8.44113
55.135 8.666208
55.140 8.956315
55.145 9.167071
55.150 9.392482
55.155 9.215284
55.160 9.267922
55.165 9.318105
55.170 9.13613
55.175 8.915243
55.180 8.996675
55.185 8.843536
55.190 9.089347
55.195 9.200664
55.200 8.867288
55.205 9.182325
55.210 9.223934
55.215 9.279237
55.220 8.892316
55.225 8.619444
55.230 8.458222
55.235 8.454334
55.240 8.333788
55.245 8.177804
55.250 7.955336
55.255 7.899315
55.260 7.966626
55.265 7.98484
55.270 8.276417
55.275 8.12824
55.280 8.1574
55.285 8.609938
55.290 9.143431
55.295 9.367841
55.300 9.339271
55.305 9.325049
55.310 9.431449
55.315 9.285106
55.320 9.221823
55.325 9.563746
55.330 9.615389
55.335 9.644746
55.340 9.706052
55.345 10.021554
55.350 9.807799
55.355 9.257579
55.360 8.837173
55.365 8.627655
55.370 8.744566
55.375 8.748553
55.380 8.703977
55.385 9.28482
55.390 9.305748
55.395 9.373611
55.400 8.982368
55.405 8.755616
55.410 8.543504
55.415 8.227904
55.420 7.954144
55.425 7.876549
55.430 7.96447
55.435 8.062384
55.440 7.96097
55.445 8.652836
55.450 9.067714
55.455 9.143866
55.460 9.589856
55.465 9.788776
55.470 9.853333
55.475 9.859528
55.480 9.399589
55.485 9.085331
55.490 9.324626
55.495 9.379579
55.500 9.557384
55.505 9.97722
55.510 9.715946
55.515 9.791506
55.520 9.828236
55.525 9.695458
55.530 9.40519
55.535 9.50405
55.540 9.375665
55.545 9.647036
55.550 9.989619
55.555 10.330141
55.560 10.407642
55.565 9.997612
55.570 9.965981
55.575 10.192995
55.580 9.904013
55.585 9.562682
55.590 9.192033
55.595 9.470422
55.600 9.639515
55.605 9.350653
55.610 9.096299
55.615 9.410159
55.620 9.976
55.625 10.301711
55.630 10.41305
55.635 10.737504
55.640 10.390801
55.645 10.1843
55.650 9.688697
55.655 9.509707
55.660 9.33625
55.665 8.684335
55.670 7.95469
55.675 8.437346
55.680 8.760118
55.685 8.853091
55.690 8.598173
55.695 8.258914
55.700 8.614068
55.705 9.139605
55.710 8.829851
55.715 9.121309
55.720 8.945579
55.725 9.218189
55.730 9.323359
55.735 8.915741
55.740 8.913493
55.745 9.052548
55.750 8.95683
55.755 8.840854
55.760 8.74189
55.765 8.928493
55.770 9.285026
55.775 9.125933
55.780 9.24817
55.785 9.331898
55.790 9.320879
55.795 9.441665
55.800 9.399656
55.805 9.609484
55.810 9.863626
55.815 9.581464
55.820 9.922896
55.825 10.126351
55.830 9.728906
55.835 9.818871
55.840 9.729884
55.845 9.792593
55.850 9.836633
55.855 9.547799
55.860 9.685535
55.865 9.756757
55.870 9.73409
55.875 10.038415
55.880 10.302453
55.885 10.31453
55.890 10.526223
55.895 10.835308
55.900 10.969552
55.905 10.96139
55.910 10.738772
55.915 10.161065
55.920 10.065559
55.925 9.626236
55.930 9.579307
55.935 9.444323
55.940 9.481135
55.945 9.538173
55.950 9.83379
55.955 9.953153
55.960 9.971505
55.965 9.713506
55.970 9.974681
55.975 9.993166
55.980 10.033232
55.985 10.094194
55.990 10.253222
55.995 10.876664
56.000 10.984486
56.005 10.378997
56.010 10.374913
56.015 10.678623
56.020 10.806591
56.025 10.415756
56.030 9.826564
56.035 9.927398
56.040 10.173463
56.045 9.719427
56.050 9.228583
56.055 9.076269
56.060 8.962244
56.065 9.047053
56.070 8.864875
56.075 8.766818
56.080 9.106091
56.085 8.730785
56.090 8.394972
56.095 8.428257
56.100 8.255829
56.105 8.554653
56.110 9.103106
56.115 9.761545
56.120 9.95965
56.125 10.22361
56.130 10.472393
56.135 10.434316
56.140 10.339012
56.145 9.553468
56.150 9.293732
56.155 9.577472
56.160 9.170115
56.165 8.915663
56.170 8.979295
56.175 9.203959
56.180 9.425583
56.185 9.657248
56.190 9.747327
56.195 10.223599
56.200 10.474669
56.205 10.474874
56.210 10.205936
56.215 9.623389
56.220 9.644633
56.225 9.908112
56.230 9.558986
56.235 9.543206
56.240 9.725061
56.245 10.152616
56.250 10.213441
56.255 9.44913
56.260 9.106588
56.265 9.166913
56.270 9.226656
56.275 9.466759
56.280 9.576366
56.285 9.856207
56.290 10.273365
56.295 10.667046
56.300 10.607544
56.305 10.235861
56.310 9.99626
56.315 9.533813
56.320 9.613123
56.325 9.874978
56.330 9.876797
56.335 10.238693
56.340 10.4447
56.345 10.154237
56.350 10.645691
56.355 10.490682
56.360 10.033145
56.365 9.848834
56.370 9.437049
56.375 9.155758
56.380 9.045163
56.385 8.330427
56.390 8.466724
56.395 8.742661
56.400 9.19087
56.405 9.436385
56.410 9.341772
56.415 9.625524
56.420 10.08335
56.425 10.378724
56.430 10.403223
56.435 10.164625
56.440 10.299566
56.445 10.40518
56.450 10.716959
56.455 10.57173
56.460 9.917081
56.465 9.802873
56.470 9.905427
56.475 10.111502
56.480 10.27804
56.485 10.190557
56.490 10.824799
56.495 10.651704
56.500 10.643645
56.505 10.676323
56.510 11.143427
56.515 11.210751
56.520 11.212053
56.525 11.301658
56.530 11.480888
56.535 11.3943
56.540 11.368894
56.545 11.02756
56.550 11.047859
56.555 11.189739
56.560 11.192733
56.565 11.662971
56.570 11.269966
56.575 10.939193
56.580 11.114111
56.585 11.15281
56.590 10.40373
56.595 10.097348
56.600 9.779625
56.605 10.333668
56.610 10.367512
56.615 10.02274
56.620 10.037808
56.625 10.708509
56.630 10.945994
56.635 10.693226
56.640 10.604849
56.645 10.894473
56.650 10.90703
56.655 10.759257
56.660 10.246018
56.665 10.453095
56.670 10.611114
56.675 10.58084
56.680 10.438264
56.685 10.521168
56.690 10.35695
56.695 10.188807
56.700 10.048583
56.705 10.130039
56.710 9.921287
56.715 9.951702
56.720 10.240849
56.725 10.445041
56.730 10.77055
56.735 11.206312
56.740 11.510302
56.745 11.149078
56.750 11.018321
56.755 10.585499
56.760 10.1799
56.765 9.673428
56.770 9.225871
56.775 9.137076
56.780 9.686605
56.785 10.074902
56.790 10.246086
56.795 10.750961
56.800 11.293482
56.805 11.625424
56.810 11.683051
56.815 11.535284
56.820 11.868537
56.825 12.446112
56.830 12.722812
56.835 12.649594
56.840 12.632232
56.845 12.907532
56.850 12.698271
56.855 12.164657
56.860 12.193917
56.865 11.900196
56.870 12.173599
56.875 11.915265
56.880 11.602747
56.885 11.643846
56.890 11.60759
56.895 11.19915
56.900 10.977783
56.905 10.294744
56.910 9.749732
56.915 9.791613
56.920 10.014939
56.925 10.182534
56.930 10.174506
56.935 10.222749
56.940 10.674708
56.945 11.106086
56.950 10.833304
56.955 10.545045
56.960 10.297482
56.965 9.987669
56.970 9.969878
56.975 10.33567
56.980 10.515489
56.985 10.608051
56.990 10.872666
56.995 11.167524
57.000 11.437075
57.005 11.297868
57.010 10.697627
57.015 10.051008
57.020 9.929642
57.025 9.758931
57.030 9.890687
57.035 9.888526
57.040 10.051433
57.045 10.359422
57.050 11.084859
57.055 11.143005
57.060 11.084634
57.065 11.153918
57.070 10.909007
57.075 10.641444
57.080 10.774247
57.085 11.091507
57.090 11.389308
57.095 11.220171
57.100 10.909871
57.105 10.80812
57.110 11.080963
57.115 10.853822
57.120 10.190733
57.125 9.90444
57.130 9.874388
57.135 9.872806
57.140 10.381613
57.145 10.441262
57.150 10.185498
57.155 9.959021
57.160 9.923841
57.165 9.70382
57.170 9.678913
57.175 9.933976
57.180 9.862611
57.185 10.150104
57.190 10.509784
57.195 10.593756
57.200 11.071444
57.205 11.069906
57.210 10.50336
57.215 10.844544
57.220 11.173681
57.225 11.129495
57.230 11.137542
57.235 10.885883
57.240 11.263533
57.245 11.679818
57.250 11.251997
57.255 10.8567
57.260 10.675691
57.265 10.630217
57.270 10.888134
57.275 11.124797
57.280 10.631121
57.285 10.883688
57.290 10.949567
57.295 11.161695
57.300 11.592722
57.305 11.65589
57.310 11.30667
57.315 11.589385
57.320 11.42357
57.325 11.807066
57.330 11.864016
57.335 11.516227
57.340 10.840888
57.345 10.787749
57.350 10.630872
57.355 10.541196
57.360 10.585266
57.365 10.643708
57.370 10.695058
57.375 11.14676
57.380 11.257672
57.385 11.389891
57.390 11.426593
57.395 11.219261
57.400 11.398385
57.405 11.61416
57.410 11.266445
57.415 11.056581
57.420 10.737952
57.425 10.379773
57.430 10.009858
57.435 9.7985
57.440 9.99966
57.445 10.318415
57.450 10.923075
57.455 11.170451
57.460 11.457662
57.465 11.142742
57.470 10.747492
57.475 10.573433
57.480 10.999306
57.485 10.809471
57.490 10.630086
57.495 10.757359
57.500 11.070801
57.505 11.1181
57.510 10.76665
57.515 10.590008
57.520 10.82199
57.525 11.131991
57.530 11.574775
57.535 11.878113
57.540 12.28681
57.545 12.817793
57.550 12.759636
57.555 13.205727
57.560 13.265704
57.565 13.214348
57.570 13.258451
57.575 13.50525
57.580 13.475586
57.585 13.016831
57.590 12.400212
57.595 11.900104
57.600 11.943488
57.605 11.61028
57.610 11.101011
57.615 11.424915
57.620 12.034451
57.625 12.710925
57.630 12.906314
57.635 13.441268
57.640 13.690465
57.645 13.487384
57.650 13.139252
57.655 13.052206
57.660 13.201772
57.665 13.121921
57.670 12.964211
57.675 13.306186
57.680 13.380092
57.685 13.482657
57.690 13.194335
57.695 12.310876
57.700 12.111213
57.705 11.714415
57.710 11.479878
57.715 11.425097
57.720 11.470305
57.725 11.672506
57.730 12.091147
57.735 12.473495
57.740 12.323474
57.745 11.840067
57.750 11.603364
57.755 11.331077
57.760 10.97785
57.765 10.666061
57.770 10.354677
57.775 10.332891
57.780 10.364856
57.785 10.328262
57.790 10.452987
57.795 10.758331
57.800 11.230087
57.805 12.096058
57.810 12.660604
57.815 13.555142
57.820 13.878783
57.825 13.848812
57.830 14.2543
57.835 14.154387
57.840 13.136576
57.845 12.558418
57.850 12.000866
57.855 11.995646
57.860 12.295527
57.865 11.995669
57.870 12.023656
57.875 12.025246
57.880 12.254107
57.885 12.022385
57.890 11.708695
57.895 11.158174
57.900 11.320076
57.905 11.236698
57.910 11.644859
57.915 12.043351
57.920 12.574676
57.925 12.510536
57.930 12.648571
57.935 12.731091
57.940 13.189305
57.945 13.508953
57.950 13.219361
57.955 13.453816
57.960 13.653603
57.965 13.542532
57.970 13.135924
57.975 12.93986
57.980 13.03974
57.985 13.13304
57.990 12.938344
57.995 13.067214
58.000 13.25886
58.005 13.299658
58.010 13.396733
58.015 13.112614
58.020 12.93043
58.025 13.144163
58.030 13.569565
58.035 13.117476
58.040 13.16997
58.045 12.735003
58.050 12.908967
58.055 13.112479
58.060 13.206144
58.065 13.015996
58.070 13.854552
58.075 14.306515
58.080 14.708166
58.085 14.549132
58.090 14.143351
58.095 13.73105
58.100 13.508302
58.105 13.011621
58.110 12.523355
58.115 12.360125
58.120 12.464977
58.125 12.443039
58.130 12.489677
58.135 12.576514
58.140 12.806789
58.145 13.002186
58.150 12.998796
58.155 12.878587
58.160 13.393285
58.165 13.083012
58.170 13.459133
58.175 13.714656
58.180 13.791733
58.185 13.70553
58.190 13.811196
58.195 13.892142
58.200 14.053142
58.205 13.635434
58.210 13.410592
58.215 13.511479
58.220 13.474432
58.225 13.54561
58.230 13.40164
58.235 13.736814
58.240 13.868951
58.245 13.855873
58.250 14.125976
58.255 14.571476
58.260 14.488709
58.265 14.572097
58.270 14.009029
58.275 13.808672
58.280 13.732012
58.285 13.886888
58.290 13.737926
58.295 13.823631
58.300 13.811963
58.305 14.309198
58.310 14.97809
58.315 15.546057
58.320 15.667197
58.325 15.563232
58.330 15.446423
58.335 16.021549
58.340 16.394438
58.345 16.517965
58.350 16.687363
58.355 16.687624
58.360 17.267731
58.365 17.835077
58.370 17.873865
58.375 17.949013
58.380 17.30246
58.385 16.726662
58.390 16.353888
58.395 16.691513
58.400 16.217464
58.405 15.804018
58.410 15.828368
58.415 15.924822
58.420 16.246246
58.425 16.352137
58.430 16.197592
58.435 16.477251
58.440 16.894293
58.445 16.753723
58.450 16.788824
58.455 16.459684
58.460 16.820322
58.465 16.993176
58.470 17.216032
58.475 17.147409
58.480 17.471121
58.485 18.142281
58.490 19.306849
58.495 19.693939
58.500 20.245235
58.505 21.069038
58.510 21.614344
58.515 22.015675
58.520 22.683792
58.525 23.569212
58.530 24.011446
58.535 24.243877
58.540 24.432674
58.545 24.977861
58.550 25.557468
58.555 25.388742
58.560 25.542124
58.565 26.04302
58.570 26.082865
58.575 25.919096
58.580 25.626883
58.585 25.809753
58.590 26.609396
58.595 26.87318
58.600 27.116703
58.605 27.64539
58.610 28.321066
58.615 29.546335
58.620 29.814524
58.625 29.948095
58.630 30.704758
58.635 30.632647
58.640 31.205988
58.645 30.823765
58.650 29.699875
58.655 29.493288
58.660 29.762133
58.665 30.421835
58.670 30.471321
58.675 29.901964
58.680 30.285934
58.685 31.12295
58.690 31.167067
58.695 31.39123
58.700 30.116951
58.705 29.777296
58.710 30.08156
58.715 30.059956
58.720 29.668806
58.725 29.755596
58.730 29.732729
58.735 30.314852
58.740 29.807545
58.745 29.870573
58.750 30.33629
58.755 30.695959
58.760 30.969425
58.765 29.737926
58.770 29.65213
58.775 29.792355
58.780 29.514042
58.785 29.439865
58.790 29.040604
58.795 29.195974
58.800 29.419903
58.805 29.471252
58.810 29.378246
58.815 29.17444
58.820 28.338068
58.825 27.275526
58.830 26.089321
58.835 25.211226
58.840 24.470093
58.845 24.083839
58.850 23.696831
58.855 24.183924
58.860 24.293676
58.865 24.577456
58.870 24.017887
58.875 23.696156
58.880 23.570227
58.885 23.048086
58.890 22.651533
58.895 22.53772
58.900 21.57666
58.905 21.176796
58.910 21.044794
58.915 20.269918
58.920 20.029692
58.925 19.512348
58.930 19.542753
58.935 19.50946
58.940 19.351082
58.945 19.644575
58.950 19.465836
58.955 18.983149
58.960 18.872099
58.965 18.590641
58.970 18.893314
58.975 18.733862
58.980 17.855341
58.985 17.497274
58.990 16.93082
58.995 17.079901
59.000 16.606478
59.005 15.900093
59.010 15.591054
59.015 15.676007
59.020 15.729818
59.025 16.204897
59.030 15.671541
59.035 15.39987
59.040 16.383545
59.045 16.318207
59.050 15.982212
59.055 16.097944
59.060 15.868656
59.065 16.067266
59.070 16.018639
59.075 15.001288
59.080 15.558044
59.085 15.703405
59.090 15.599448
59.095 15.609674
59.100 15.56764
59.105 15.601064
59.110 15.3931
59.115 14.598059
59.120 14.622706
59.125 14.616326
59.130 14.347303
59.135 14.388404
59.140 14.634515
59.145 14.773044
59.150 15.136711
59.155 14.854687
59.160 14.482187
59.165 14.495955
59.170 14.159513
59.175 14.538685
59.180 14.443015
59.185 14.024798
59.190 14.095988
59.195 14.327347
59.200 14.284942
59.205 14.196892
59.210 13.955366
59.215 13.610185
59.220 13.351092
59.225 12.810042
59.230 12.667018
59.235 12.669867
59.240 12.283504
59.245 12.014885
59.250 12.077991
59.255 12.5079
59.260 12.780856
59.265 12.95664
59.270 13.231388
59.275 13.584945
59.280 13.682017
59.285 13.343099
59.290 13.045559
59.295 13.26913
59.300 12.797671
59.305 12.21726
59.310 12.259243
59.315 12.091627
59.320 12.130902
59.325 12.521555
59.330 12.506195
59.335 12.650648
59.340 12.522364
59.345 11.997448
59.350 12.097406
59.355 12.356915
59.360 12.472546
59.365 12.382763
59.370 12.704843
59.375 13.206481
59.380 13.502208
59.385 13.623376
59.390 13.757686
59.395 13.552063
59.400 13.636352
59.405 13.689728
59.410 13.801365
59.415 13.946614
59.420 14.103161
59.425 13.693844
59.430 14.069511
59.435 14.102758
59.440 13.905582
59.445 13.678289
59.450 13.591986
59.455 13.565362
59.460 13.703101
59.465 13.078205
59.470 12.94238
59.475 13.057023
59.480 13.267139
59.485 13.3644
59.490 13.29192
59.495 13.577012
59.500 13.784312
59.505 13.935908
59.510 14.1937
59.515 14.035087
59.520 13.718294
59.525 13.873752
59.530 13.904917
59.535 13.73112
59.540 13.545022
59.545 13.293578
59.550 13.478119
59.555 13.395499
59.560 13.225077
59.565 13.307176
59.570 13.507751
59.575 13.564951
59.580 13.541285
59.585 13.207162
59.590 13.015241
59.595 12.864457
59.600 12.392275
59.605 12.002817
59.610 12.10086
59.615 11.897015
59.620 12.600178
59.625 12.981097
59.630 13.064755
59.635 13.26221
59.640 13.633909
59.645 13.335138
59.650 13.318473
59.655 12.672905
59.660 12.472448
59.665 12.830403
59.670 12.827687
59.675 12.548847
59.680 13.028089
59.685 13.091365
59.690 13.16297
59.695 13.266321
59.700 14.004706
59.705 13.99577
59.710 13.933088
59.715 13.985182
59.720 14.089624
59.725 14.197109
59.730 14.086069
59.735 13.915046
59.740 14.498682
59.745 14.740891
59.750 14.349325
59.755 14.316339
59.760 14.423151
59.765 14.426152
59.770 13.841097
59.775 13.822686
59.780 13.791437
59.785 14.113851
59.790 13.986022
59.795 13.834159
59.800 14.00621
59.805 14.18132
59.810 14.078581
59.815 13.855217
59.820 13.51856
59.825 13.566247
59.830 14.044087
59.835 13.808668
59.840 13.275029
59.845 13.160669
59.850 13.198471
59.855 13.220285
59.860 13.063597
59.865 12.60435
59.870 12.269847
59.875 12.091326
59.880 11.888226
59.885 11.913141
59.890 11.653327
59.895 11.858022
59.900 12.250918
59.905 12.702387
59.910 13.108308
59.915 13.32237
59.920 13.59201
59.925 14.074473
59.930 14.055763
59.935 14.045552
59.940 14.110361
59.945 14.330784
59.950 14.861118
59.955 14.909001
59.960 14.713304
59.965 14.838006
59.970 14.894271
59.975 14.977505
59.980 14.30468
59.985 13.674341
59.990 13.981162
59.995 14.405784
60.000 14.614913
60.005 14.698272
60.010 14.684831
60.015 15.010861
60.020 14.535213
60.025 13.880835
60.030 13.676183
60.035 13.000454
60.040 12.658252
60.045 12.403666
60.050 12.573594
60.055 13.186746
60.060 13.606855
60.065 13.298764
60.070 13.464213
60.075 13.646578
60.080 13.576676
60.085 13.529246
60.090 12.971861
60.095 12.668336
60.100 13.129786
60.105 13.546834
60.110 13.472562
60.115 13.943861
60.120 14.48665
60.125 15.249559
60.130 15.473878
60.135 15.104952
60.140 15.020646
60.145 14.680994
60.150 14.733336
60.155 14.795063
60.160 14.653487
60.165 14.613628
60.170 14.634454
60.175 14.508707
60.180 15.065135
60.185 15.028465
60.190 14.656965
60.195 15.12702
60.200 15.628529
60.205 15.660752
60.210 15.730127
60.215 14.965186
60.220 14.497789
60.225 14.1875
60.230 13.636292
60.235 13.237221
60.240 12.727914
60.245 12.530654
60.250 13.076202
60.255 13.87827
60.260 14.073721
60.265 13.82485
60.270 14.419465
60.275 15.029242
60.280 15.50423
60.285 15.406509
60.290 15.027771
60.295 14.828591
60.300 14.501595
60.305 13.856727
60.310 13.260343
60.315 12.598299
60.320 12.364162
60.325 12.653647
60.330 13.509002
60.335 14.166817
60.340 14.602229
60.345 15.289305
60.350 15.501404
60.355 15.237133
60.360 14.774983
60.365 14.654163
60.370 14.83055
60.375 14.596466
60.380 13.936687
60.385 13.488531
60.390 13.560079
60.395 13.077136
60.400 12.168786
60.405 11.57434
60.410 11.34523
60.415 11.66831
60.420 11.890664
60.425 11.884621
60.430 12.174224
60.435 12.304584
60.440 12.349635
60.445 12.268367
60.450 12.253696
60.455 12.630709
60.460 12.415359
60.465 12.042192
60.470 12.01019
60.475 12.276875
60.480 12.429972
60.485 12.509125
60.490 12.365911
60.495 12.685987
60.500 12.736163
60.505 12.980692
60.510 13.449149
60.515 13.943066
60.520 13.711742
60.525 13.583752
60.530 13.690003
60.535 13.751678
60.540 13.363797
60.545 13.169536
60.550 12.593736
60.555 12.9771
60.560 13.219095
60.565 13.097281
60.570 13.765989
60.575 13.857889
60.580 13.487236
60.585 13.493826
60.590 13.270786
60.595 13.925345
60.600 13.90166
60.605 13.898949
60.610 13.838531
60.615 13.957652
60.620 14.411134
60.625 14.702036
60.630 14.078417
60.635 14.1021
60.640 14.391213
60.645 14.951202
60.650 14.972863
60.655 14.609501
60.660 14.566119
60.665 14.62299
60.670 13.970629
60.675 13.319535
60.680 12.545815
60.685 12.236529
60.690 12.13078
60.695 12.011449
60.700 11.95784
60.705 12.311022
60.710 12.695543
60.715 13.329954
60.720 13.706034
60.725 13.981139
60.730 14.143628
60.735 13.999636
60.740 13.803391
60.745 13.482628
60.750 13.090664
60.755 12.880209
60.760 12.749142
60.765 12.558096
60.770 12.487121
60.775 12.43567
60.780 12.681676
60.785 13.655498
60.790 14.563747
60.795 15.040926
60.800 15.131022
60.805 15.397012
60.810 15.613429
60.815 15.690619
60.820 15.025126
60.825 14.580546
60.830 14.047678
60.835 14.037404
60.840 13.698752
60.845 13.67739
60.850 13.593028
60.855 13.566046
60.860 12.946824
60.865 13.063962
60.870 13.265301
60.875 13.751012
60.880 13.943543
60.885 13.68156
60.890 13.48389
60.895 14.048782
60.900 13.871755
60.905 13.519765
60.910 13.161451
60.915 13.064269
60.920 13.260431
60.925 13.085047
60.930 12.992863
60.935 12.999853
60.940 12.819127
60.945 12.965906
60.950 12.61044
60.955 13.167961
60.960 13.312192
60.965 13.386362
60.970 14.064494
60.975 14.545809
60.980 14.380411
60.985 14.853292
60.990 14.71436
60.995 14.813101
61.000 14.401314
61.005 13.606639
61.010 13.588037
61.015 13.547464
61.020 12.938305
61.025 12.859773
61.030 12.792464
61.035 13.592713
61.040 14.452267
61.045 14.504501
61.050 14.438457
61.055 14.550233
61.060 13.990004
61.065 13.825633
61.070 13.206802
61.075 13.106946
61.080 13.145535
61.085 13.481975
61.090 13.752501
61.095 14.424442
61.100 14.868774
61.105 14.536969
61.110 14.126684
61.115 14.447926
61.120 14.416955
61.125 14.831865
61.130 14.743143
61.135 14.656813
61.140 14.938169
61.145 15.05197
61.150 14.923929
61.155 14.952379
61.160 14.558322
61.165 14.677092
61.170 14.958519
61.175 14.946738
61.180 14.620055
61.185 14.665201
61.190 14.701331
61.195 15.178657
61.200 15.363431
61.205 15.332501
61.210 15.15656
61.215 15.12246
61.220 15.034163
61.225 15.109026
61.230 15.274987
61.235 14.789967
61.240 14.446829
61.245 14.503202
61.250 14.793015
61.255 14.577257
61.260 14.108395
61.265 13.688076
61.270 13.768394
61.275 14.066268
61.280 14.309696
61.285 13.774983
61.290 13.642273
61.295 13.529973
61.300 13.68088
61.305 13.7862
61.310 13.461424
61.315 13.122166
61.320 13.575528
61.325 13.995789
61.330 14.009532
61.335 13.459383
61.340 13.356331
61.345 13.592529
61.350 13.514741
61.355 13.922414
61.360 14.276735
61.365 14.783824
61.370 14.917647
61.375 14.614994
61.380 14.575994
61.385 15.02223
61.390 14.685075
61.395 14.349403
61.400 13.95542
61.405 13.60008
61.410 13.72134
61.415 13.897737
61.420 13.618742
61.425 13.574221
61.430 13.466456
61.435 13.809861
61.440 14.260695
61.445 14.804779
61.450 14.831079
61.455 15.434476
61.460 15.529454
61.465 15.654268
61.470 15.74393
61.475 15.598142
61.480 15.257668
61.485 15.325588
61.490 15.041169
61.495 14.742501
61.500 14.408346
61.505 14.075587
61.510 14.185896
61.515 14.033484
61.520 14.194935
61.525 14.032128
61.530 14.349962
61.535 14.250363
61.540 14.24179
61.545 14.702193
61.550 15.050388
61.555 14.612363
61.560 14.729115
61.565 14.951519
61.570 15.522788
61.575 15.459417
61.580 15.50056
61.585 15.518721
61.590 15.47297
61.595 15.450222
61.600 14.789356
61.605 14.558631
61.610 14.781548
61.615 13.95637
61.620 14.024407
61.625 14.449913
61.630 14.2711
61.635 14.468936
61.640 14.533946
61.645 14.558513
61.650 14.686372
61.655 14.384284
61.660 14.2755
61.665 14.596687
61.670 14.545744
61.675 14.678316
61.680 14.025033
61.685 13.923718
61.690 13.993316
61.695 13.623483
61.700 13.411022
61.705 13.651582
61.710 13.776518
61.715 14.478561
61.720 14.761464
61.725 14.547686
61.730 14.964622
61.735 15.268264
61.740 15.109837
61.745 14.553121
61.750 14.49479
61.755 15.110478
61.760 14.956791
61.765 14.002099
61.770 13.7871
61.775 14.095828
61.780 14.951525
61.785 14.995409
61.790 14.622081
61.795 14.702279
61.800 15.45565
61.805 15.88784
61.810 15.839925
61.815 15.866894
61.820 15.87153
61.825 16.071924
61.830 16.298325
61.835 15.66949
61.840 15.406064
61.845 14.702312
61.850 14.615044
61.855 14.641692
61.860 14.283628
61.865 14.422247
61.870 14.822906
61.875 14.682059
61.880 14.925115
61.885 14.72498
61.890 15.081967
61.895 15.240542
61.900 15.573721
61.905 15.907488
61.910 15.905293
61.915 15.897958
61.920 15.333612
61.925 14.761039
61.930 14.642106
61.935 14.205473
61.940 13.891245
61.945 14.784883
61.950 15.185668
61.955 15.57898
61.960 15.297955
61.965 15.184187
61.970 15.187107
61.975 15.210114
61.980 14.619493
61.985 14.341605
61.990 14.475068
61.995 14.79757
62.000 14.752601
62.005 14.577185
62.010 14.671266
62.015 14.994937
62.020 15.13876
62.025 14.802397
62.030 14.885829
62.035 15.115601
62.040 14.992126
62.045 14.875453
62.050 14.857476
62.055 14.895782
62.060 14.922621
62.065 14.275472
62.070 14.014518
62.075 14.15359
62.080 14.072141
62.085 13.7384
62.090 13.339448
62.095 13.359768
62.100 14.124569
62.105 14.615194
62.110 15.098341
62.115 15.025344
62.120 15.225217
62.125 16.059587
62.130 16.277903
62.135 16.055086
62.140 16.233406
62.145 16.175735
62.150 16.285406
62.155 16.213423
62.160 15.556608
62.165 15.833696
62.170 16.019089
62.175 15.680149
62.180 16.272097
62.185 16.720833
62.190 17.251232
62.195 17.612028
62.200 16.828487
62.205 16.248312
62.210 16.094406
62.215 15.357291
62.220 14.790431
62.225 13.971551
62.230 14.067563
62.235 14.360382
62.240 14.29759
62.245 14.198621
62.250 14.244538
62.255 14.325271
62.260 14.46697
62.265 13.875015
62.270 14.067542
62.275 14.364018
62.280 14.129307
62.285 14.03469
62.290 13.935029
62.295 13.858343
62.300 14.262053
62.305 14.205826
62.310 14.408901
62.315 14.855768
62.320 14.858003
62.325 14.786444
62.330 14.79916
62.335 14.379414
62.340 14.157454
62.345 14.184993
62.350 14.374931
62.355 14.611302
62.360 15.087695
62.365 15.710857
62.370 16.217661
62.375 15.953828
62.380 15.557397
62.385 14.974514
62.390 14.626431
62.395 13.984653
62.400 13.920336
62.405 14.387458
62.410 15.269554
62.415 15.713152
62.420 16.089373
62.425 15.861438
62.430 15.699222
62.435 15.484465
62.440 14.89373
62.445 14.562304
62.450 14.675465
62.455 14.49391
62.460 15.362917
62.465 15.399243
62.470 15.330569
62.475 15.555871
62.480 16.032433
62.485 15.689347
62.490 15.784085
62.495 15.686874
62.500 15.849566
62.505 15.785406
62.510 15.570383
62.515 15.308477
62.520 15.294118
62.525 14.81638
62.530 14.786032
62.535 14.852956
62.540 14.851829
62.545 14.713449
62.550 14.268089
62.555 14.610304
62.560 15.212626
62.565 15.365668
62.570 15.390519
62.575 15.677846
62.580 15.92493
62.585 16.023014
62.590 15.935784
62.595 16.009697
62.600 15.906325
62.605 15.944449
62.610 15.808275
62.615 15.797643
62.620 15.691945
62.625 15.229896
62.630 15.001261
62.635 14.966505
62.640 14.630978
62.645 14.754146
62.650 14.94949
62.655 15.282192
62.660 16.215681
62.665 16.148964
62.670 15.986692
62.675 16.608633
62.680 16.302242
62.685 16.053812
62.690 15.473835
62.695 15.106892
62.700 14.665363
62.705 14.498722
62.710 14.533902
62.715 15.112014
62.720 15.567364
62.725 16.383076
62.730 16.479256
62.735 16.828527
62.740 16.6457
62.745 16.690025
62.750 16.612133
62.755 16.326586
62.760 15.974571
62.765 15.492818
62.770 15.412554
62.775 15.178099
62.780 14.60594
62.785 14.254727
62.790 14.278614
62.795 14.33544
62.800 14.98546
62.805 15.339285
62.810 15.833282
62.815 15.984115
62.820 15.977568
62.825 15.916054
62.830 16.009115
62.835 15.784312
62.840 15.728333
62.845 15.583253
62.850 15.250861
62.855 15.555728
62.860 15.612414
62.865 15.337691
62.870 15.393412
62.875 14.946315
62.880 15.267737
62.885 15.618968
62.890 15.170796
62.895 15.036113
62.900 15.148658
62.905 15.245405
62.910 15.710552
62.915 15.180324
62.920 15.189111
62.925 15.139787
62.930 15.008467
62.935 14.474272
62.940 14.358165
62.945 13.76392
62.950 13.760239
62.955 13.794995
62.960 13.880809
62.965 14.112092
62.970 14.361485
62.975 14.594138
62.980 15.063665
62.985 15.456458
62.990 15.833518
62.995 15.969359
63.000 16.067976
63.005 15.729562
63.010 15.568674
63.015 15.351485
63.020 15.006
63.025 15.000667
63.030 14.832685
63.035 15.085633
63.040 15.362823
63.045 15.159225
63.050 15.466703
63.055 15.936012
63.060 15.827136
63.065 15.865578
63.070 15.75757
63.075 15.958924
63.080 16.132412
63.085 15.956454
63.090 15.241265
63.095 15.226217
63.100 15.630672
63.105 15.36281
63.110 15.221501
63.115 15.423379
63.120 15.731916
63.125 15.986778
63.130 15.471124
63.135 15.16896
63.140 15.525728
63.145 15.734305
63.150 15.551823
63.155 15.4605
63.160 15.570927
63.165 15.990784
63.170 16.008783
63.175 16.017511
63.180 16.002279
63.185 15.63381
63.190 15.137878
63.195 15.05259
63.200 15.030565
63.205 14.940044
63.210 14.854893
63.215 15.114394
63.220 15.288356
63.225 15.607208
63.230 16.046635
63.235 16.096361
63.240 16.340733
63.245 16.535709
63.250 16.757828
63.255 16.910629
63.260 16.778284
63.265 16.686665
63.270 16.517267
63.275 16.234987
63.280 15.93189
63.285 15.439405
63.290 15.091337
63.295 15.116388
63.300 15.116145
63.305 15.936161
63.310 15.785576
63.315 16.0158
63.320 16.734188
63.325 17.435053
63.330 17.927206
63.335 17.701532
63.340 16.8463
63.345 16.755621
63.350 16.06583
63.355 15.690804
63.360 14.986641
63.365 14.326348
63.370 14.274793
63.375 14.771015
63.380 14.983857
63.385 15.396918
63.390 15.262071
63.395 15.604165
63.400 16.173134
63.405 16.176922
63.410 16.453182
63.415 16.714684
63.420 16.615398
63.425 16.799948
63.430 16.69454
63.435 16.348696
63.440 15.993265
63.445 15.506855
63.450 15.702356
63.455 15.491637
63.460 15.147737
63.465 15.317444
63.470 15.995789
63.475 16.394091
63.480 16.750465
63.485 16.797773
63.490 17.088987
63.495 17.556379
63.500 17.545013
63.505 17.187262
63.510 17.051804
63.515 16.838924
63.520 16.44375
63.525 16.660229
63.530 16.90962
63.535 16.751394
63.540 16.794094
63.545 16.701092
63.550 16.752764
63.555 16.710173
63.560 16.651703
63.565 16.070503
63.570 16.249945
63.575 16.540018
63.580 16.368048
63.585 16.516401
63.590 16.306997
63.595 15.816579
63.600 15.593081
63.605 15.504733
63.610 15.732358
63.615 16.090937
63.620 15.723582
63.625 15.946851
63.630 16.222301
63.635 16.377472
63.640 16.090487
63.645 15.289379
63.650 14.877196
63.655 14.625572
63.660 14.836845
63.665 14.897444
63.670 15.516153
63.675 15.964271
63.680 16.668823
63.685 17.123072
63.690 17.684885
63.695 17.877331
63.700 17.347486
63.705 17.071051
63.710 16.647123
63.715 16.575989
63.720 16.616562
63.725 15.946569
63.730 15.752084
63.735 16.741772
63.740 17.018339
63.745 17.516218
63.750 17.488501
63.755 17.501074
63.760 17.518253
63.765 17.26889
63.770 16.43659
63.775 15.768381
63.780 15.244699
63.785 15.184367
63.790 14.974605
63.795 15.155835
63.800 15.356755
63.805 15.64188
63.810 15.667709
63.815 15.456538
63.820 15.277989
63.825 15.666446
63.830 15.840281
63.835 15.956201
63.840 15.927849
63.845 16.34651
63.850 16.387281
63.855 15.909442
63.860 15.673409
63.865 16.087076
63.870 15.632912
63.875 15.335801
63.880 15.183136
63.885 15.660784
63.890 16.211576
63.895 16.436695
63.900 16.199379
63.905 16.665419
63.910 17.027905
63.915 17.446274
63.920 17.825087
63.925 17.592581
63.930 17.484556
63.935 17.411753
63.940 17.413412
63.945 17.825941
63.950 17.632059
63.955 17.928425
63.960 18.150566
63.965 18.175592
63.970 18.20402
63.975 17.979248
63.980 17.642426
63.985 17.254282
63.990 17.152538
63.995 17.231909
64.000 17.304516
64.005 17.729691
64.010 17.799679
64.015 18.396727
64.020 19.029308
64.025 19.272129
64.030 19.880249
64.035 20.336168
64.040 20.01475
64.045 20.197142
64.050 19.613008
64.055 18.68746
64.060 18.576927
64.065 18.723009
64.070 18.518711
64.075 18.804325
64.080 18.96089
64.085 19.830915
64.090 20.92882
64.095 21.192961
64.100 21.669489
64.105 21.945568
64.110 22.131487
64.115 23.187838
64.120 23.580303
64.125 23.107925
64.130 22.272224
64.135 21.614008
64.140 21.085531
64.145 20.729122
64.150 20.508799
64.155 21.372746
64.160 22.527567
64.165 23.814831
64.170 24.655293
64.175 25.240589
64.180 25.305399
64.185 25.093349
64.190 24.338657
64.195 24.638573
64.200 24.955482
64.205 25.085119
64.210 26.569866
64.215 27.891912
64.220 28.694614
64.225 29.572374
64.230 29.697329
64.235 29.839346
64.240 30.185158
64.245 30.091354
64.250 29.763014
64.255 29.984629
64.260 30.053976
64.265 30.204988
64.270 30.496269
64.275 31.047661
64.280 30.99699
64.285 31.730492
64.290 32.940098
64.295 34.007801
64.300 34.92881
64.305 35.611469
64.310 35.972523
64.315 36.555828
64.320 36.924606
64.325 37.177814
64.330 37.457592
64.335 37.977043
64.340 38.489082
64.345 38.809624
64.350 39.308296
64.355 39.715431
64.360 40.677433
64.365 41.074455
64.370 41.617908
64.375 42.042271
64.380 42.523521
64.385 42.789757
64.390 43.079666
64.395 43.755447
64.400 44.296341
64.405 44.407703
64.410 44.952148
64.415 45.462051
64.420 45.760887
64.425 46.150635
64.430 46.341305
64.435 46.245152
64.440 46.211346
64.445 46.341927
64.450 45.82312
64.455 45.497311
64.460 45.760284
64.465 44.876431
64.470 45.308422
64.475 45.831799
64.480 45.088772
64.485 45.30933
64.490 44.998478
64.495 44.856468
64.500 45.137947
64.505 45.103268
64.510 43.957161
64.515 43.800304
64.520 43.821972
64.525 44.355583
64.530 43.896465
64.535 43.587196
64.540 42.557175
64.545 42.79287
64.550 43.075081
64.555 43.246284
64.560 43.017097
64.565 42.317368
64.570 40.989929
64.575 40.32943
64.580 39.832096
64.585 38.927105
64.590 37.43763
64.595 36.823101
64.600 37.146946
64.605 37.443607
64.610 36.865398
64.615 36.871033
64.620 37.341171
64.625 37.244431
64.630 36.988049
64.635 36.380779
64.640 35.416775
64.645 35.543846
64.650 34.423519
64.655 33.701813
64.660 33.145039
64.665 32.43515
64.670 32.495785
64.675 32.554695
64.680 32.539066
64.685 32.004055
64.690 31.37631
64.695 31.378904
64.700 30.962915
64.705 29.674507
64.710 27.846739
64.715 27.264393
64.720 27.080584
64.725 26.682985
64.730 26.205063
64.735 25.440443
64.740 25.768496
64.745 26.311377
64.750 25.691738
64.755 25.255589
64.760 25.099533
64.765 25.146996
64.770 25.332432
64.775 25.381445
64.780 25.428417
64.785 25.352409
64.790 25.334621
64.795 25.080862
64.800 25.470139
64.805 25.634716
64.810 24.969563
64.815 23.922852
64.820 24.220434
64.825 23.721739
64.830 23.884256
64.835 23.593935
64.840 23.845901
64.845 23.758711
64.850 23.640203
64.855 23.413132
64.860 23.325701
64.865 22.680492
64.870 21.706209
64.875 21.27853
64.880 21.66267
64.885 21.157055
64.890 21.041346
64.895 21.905287
64.900 22.41065
64.905 22.585367
64.910 22.229534
64.915 22.676739
64.920 23.126663
64.925 22.941374
64.930 22.700043
64.935 23.088966
64.940 23.426003
64.945 23.084602
64.950 22.732285
64.955 23.48568
64.960 24.211428
64.965 25.127153
64.970 25.797461
64.975 26.811674
64.980 28.060221
64.985 28.402529
64.990 28.519163
64.995 28.46236
65.000 28.115679
65.005 27.79966
65.010 28.221895
65.015 28.919273
65.020 29.89941
65.025 29.798826
65.030 30.090418
65.035 30.473701
65.040 30.168869
65.045 29.275387
65.050 28.940039
65.055 29.446068
65.060 30.314407
65.065 30.268106
65.070 30.650423
65.075 31.661839
65.080 32.287544
65.085 32.294933
65.090 32.797977
65.095 33.51025
65.100 33.983776
65.105 33.97636
65.110 33.619041
65.115 33.6366
65.120 33.553017
65.125 33.156403
65.130 33.53746
65.135 34.437096
65.140 34.902302
65.145 34.778667
65.150 34.721439
65.155 34.926609
65.160 35.150593
65.165 35.886234
65.170 35.699326
65.175 35.989429
65.180 36.510677
65.185 36.559086
65.190 36.524277
65.195 36.23967
65.200 35.743935
65.205 35.884758
65.210 36.577911
65.215 37.678532
65.220 38.337597
65.225 38.52457
65.230 38.43325
65.235 37.844913
65.240 37.138145
65.245 36.650265
65.250 36.252907
65.255 35.853527
65.260 35.332001
65.265 35.206402
65.270 35.408108
65.275 35.937153
65.280 36.016453
65.285 35.436989
65.290 35.431152
65.295 35.571365
65.300 35.917873
65.305 35.512112
65.310 35.279682
65.315 35.16457
65.320 35.524685
65.325 35.606167
65.330 35.796219
65.335 35.48716
65.340 35.624413
65.345 35.189968
65.350 34.66597
65.355 34.891483
65.360 34.962841
65.365 34.317005
65.370 34.122444
65.375 33.829227
65.380 34.246292
65.385 34.865337
65.390 34.826233
65.395 35.251511
65.400 35.550976
65.405 35.597984
65.410 36.481461
65.415 37.009579
65.420 36.738735
65.425 36.576637
65.430 36.195065
65.435 36.382931
65.440 36.082047
65.445 35.700298
65.450 35.139057
65.455 34.567356
65.460 34.276989
65.465 34.259315
65.470 34.002438
65.475 33.112076
65.480 33.014698
65.485 33.695503
65.490 34.116032
65.495 34.753971
65.500 35.379719
65.505 36.195232
65.510 37.536758
65.515 37.149498
65.520 37.006638
65.525 36.183666
65.530 35.983799
65.535 35.519165
65.540 35.727779
65.545 35.454639
65.550 35.478436
65.555 35.204918
65.560 36.255322
65.565 35.762821
65.570 35.701271
65.575 34.746288
65.580 34.791237
65.585 34.102268
65.590 33.920841
65.595 32.623547
65.600 32.42474
65.605 32.352772
65.610 32.553375
65.615 33.064278
65.620 32.737289
65.625 32.27779
65.630 32.257008
65.635 31.851999
65.640 31.754862
65.645 31.652317
65.650 31.177408
65.655 31.435713
65.660 31.8661
65.665 31.893957
65.670 32.53281
65.675 32.520748
65.680 31.490004
65.685 30.397486
65.690 29.875893
65.695 28.907345
65.700 28.979097
65.705 27.810263
65.710 27.188614
65.715 26.9793
65.720 27.487202
65.725 27.111336
65.730 27.398535
65.735 27.192617
65.740 27.523653
65.745 27.694069
65.750 28.213232
65.755 27.910116
65.760 27.940229
65.765 27.990026
65.770 27.83795
65.775 27.666655
65.780 27.303505
65.785 26.934015
65.790 26.734653
65.795 26.328447
65.800 25.365425
65.805 24.798967
65.810 24.535074
65.815 24.48243
65.820 23.615461
65.825 23.120676
65.830 22.752451
65.835 22.625008
65.840 22.407337
65.845 22.053928
65.850 21.980055
65.855 21.354504
65.860 21.396778
65.865 21.481155
65.870 21.488016
65.875 21.267851
65.880 20.69945
65.885 20.820503
65.890 22.414557
65.895 22.444374
65.900 22.847704
65.905 23.165449
65.910 23.56814
65.915 24.156317
65.920 23.716211
65.925 22.073971
65.930 21.721928
65.935 21.44005
65.940 21.165689
65.945 20.938622
65.950 20.397728
65.955 20.304678
65.960 20.157923
65.965 20.334747
65.970 20.300083
65.975 20.336344
65.980 20.703037
65.985 20.656347
65.990 21.121552
65.995 21.68401
66.000 21.52611
66.005 21.44739
66.010 20.776709
66.015 20.505005
66.020 20.589462
66.025 20.356691
66.030 20.54561
66.035 20.928354
66.040 20.449745
66.045 20.263134
66.050 19.841946
66.055 19.565649
66.060 18.949055
66.065 18.41923
66.070 17.688585
66.075 17.657915
66.080 17.982218
66.085 18.470171
66.090 18.438644
66.095 18.807329
66.100 18.298037
66.105 18.215967
66.110 18.605259
66.115 18.25141
66.120 18.09762
66.125 18.183086
66.130 17.917894
66.135 17.943352
66.140 17.908728
66.145 17.187675
66.150 17.155571
66.155 16.221254
66.160 15.801571
66.165 15.377187
66.170 15.550999
66.175 15.627515
66.180 16.10895
66.185 16.377172
66.190 16.991011
66.195 17.545687
66.200 17.93125
66.205 17.72645
66.210 17.780693
66.215 17.428909
66.220 17.07914
66.225 17.186243
66.230 16.812721
66.235 16.602917
66.240 16.626642
66.245 16.568623
66.250 17.021513
66.255 17.486639
66.260 17.60256
66.265 18.176022
66.270 18.120749
66.275 17.688986
66.280 17.939859
66.285 17.899134
66.290 17.803509
66.295 17.370611
66.300 17.419849
66.305 17.721031
66.310 18.151178
66.315 17.918901
66.320 17.414637
66.325 17.0837
66.330 17.055674
66.335 16.363581
66.340 16.247122
66.345 15.752501
66.350 15.791047
66.355 16.480927
66.360 16.763182
66.365 17.470875
66.370 17.821253
66.375 17.510988
66.380 17.833645
66.385 17.823439
66.390 17.556253
66.395 17.182852
66.400 16.825169
66.405 16.513115
66.410 16.359257
66.415 16.436407
66.420 16.357296
66.425 16.665024
66.430 16.36412
66.435 16.264692
66.440 16.453152
66.445 16.233387
66.450 16.112886
66.455 15.838359
66.460 15.469887
66.465 16.116394
66.470 16.360603
66.475 16.983868
66.480 17.8165
66.485 18.192476
66.490 18.536671
66.495 18.383308
66.500 17.759647
66.505 17.736586
66.510 17.48468
66.515 17.40308
66.520 16.895321
66.525 16.53783
66.530 17.150166
66.535 17.653982
66.540 17.552435
66.545 17.378633
66.550 17.866837
66.555 17.749617
66.560 17.691168
66.565 18.066763
66.570 17.928562
66.575 17.965908
66.580 17.954132
66.585 17.544485
66.590 18.248674
66.595 18.539616
66.600 17.989302
66.605 17.583361
66.610 17.567862
66.615 17.768578
66.620 18.038803
66.625 18.101934
66.630 17.505438
66.635 17.232227
66.640 17.514048
66.645 17.011229
66.650 16.903109
66.655 16.852041
66.660 16.204308
66.665 16.213737
66.670 16.321516
66.675 16.051041
66.680 16.137272
66.685 16.213381
66.690 16.148411
66.695 16.934473
66.700 17.209965
66.705 17.328348
66.710 17.812418
66.715 17.66021
66.720 17.287762
66.725 16.93688
66.730 16.814955
66.735 16.760284
66.740 16.879189
66.745 17.108662
66.750 17.397306
66.755 18.088621
66.760 18.182966
66.765 17.649242
66.770 17.879326
66.775 17.779411
66.780 18.003714
66.785 18.660362
66.790 18.304987
66.795 18.510468
66.800 19.021172
66.805 18.942961
66.810 18.703428
66.815 17.96294
66.820 17.404055
66.825 17.411619
66.830 17.114799
66.835 16.857893
66.840 16.512852
66.845 16.226635
66.850 16.598709
66.855 16.286648
66.860 16.08733
66.865 16.663755
66.870 16.810555
66.875 17.256001
66.880 17.432991
66.885 17.206013
66.890 17.036316
66.895 16.922985
66.900 16.375452
66.905 16.473665
66.910 15.776376
66.915 16.174479
66.920 16.657652
66.925 16.628452
66.930 16.378714
66.935 16.603058
66.940 17.016161
66.945 17.261391
66.950 16.906891
66.955 16.571236
66.960 17.168232
66.965 18.05719
66.970 17.706882
66.975 17.198084
66.980 17.393875
66.985 17.744986
66.990 17.844309
66.995 17.455648
67.000 17.31394
67.005 17.32057
67.010 17.631649
67.015 17.024075
67.020 16.199293
67.025 16.018827
67.030 16.113083
67.035 15.697358
67.040 15.848886
67.045 15.898499
67.050 15.818505
67.055 15.950617
67.060 16.306326
67.065 16.050318
67.070 15.925512
67.075 16.197842
67.080 16.223663
67.085 16.812923
67.090 17.65465
67.095 17.665327
67.100 17.814589
67.105 17.075245
67.110 16.505064
67.115 16.851156
67.120 16.700251
67.125 15.642786
67.130 15.779357
67.135 15.565752
67.140 16.200127
67.145 15.863666
67.150 15.870302
67.155 16.346643
67.160 16.887676
67.165 16.837648
67.170 17.435436
67.175 17.727549
67.180 18.232975
67.185 18.094639
67.190 17.511366
67.195 17.188707
67.200 16.824638
67.205 16.549566
67.210 16.287668
67.215 16.210878
67.220 15.88389
67.225 15.894231
67.230 16.001625
67.235 16.429092
67.240 16.677763
67.245 16.460176
67.250 16.441153
67.255 17.010847
67.260 17.305443
67.265 17.885571
67.270 17.789124
67.275 17.106228
67.280 16.654976
67.285 16.346195
67.290 15.990558
67.295 15.601545
67.300 15.203168
67.305 15.483946
67.310 16.372496
67.315 17.1453
67.320 17.251905
67.325 17.312542
67.330 17.798727
67.335 18.018549
67.340 17.787989
67.345 17.336731
67.350 17.179071
67.355 17.229774
67.360 17.440859
67.365 17.036907
67.370 16.336693
67.375 16.369188
67.380 17.125448
67.385 17.550049
67.390 17.154436
67.395 16.550333
67.400 16.622181
67.405 16.983908
67.410 17.368496
67.415 16.813543
67.420 16.604584
67.425 17.022358
67.430 17.121979
67.435 17.002398
67.440 17.157284
67.445 17.281908
67.450 17.209347
67.455 16.979792
67.460 16.710672
67.465 16.668226
67.470 16.313679
67.475 16.07781
67.480 16.026577
67.485 16.69931
67.490 17.119347
67.495 17.603666
67.500 17.820066
67.505 18.004713
67.510 18.076582
67.515 17.941484
67.520 17.553738
67.525 17.200562
67.530 17.310349
67.535 17.820646
67.540 18.028759
67.545 17.833843
67.550 17.702984
67.555 17.844328
67.560 17.738283
67.565 17.738581
67.570 17.712126
67.575 18.148252
67.580 18.507519
67.585 18.313135
67.590 17.522083
67.595 17.261435
67.600 16.953136
67.605 16.797787
67.610 16.798903
67.615 16.79719
67.620 16.702517
67.625 17.359085
67.630 17.329037
67.635 16.831566
67.640 16.718021
67.645 16.476593
67.650 16.432131
67.655 16.425989
67.660 16.05055
67.665 16.822641
67.670 17.888121
67.675 18.291029
67.680 18.30183
67.685 18.369268
67.690 18.334724
67.695 18.598782
67.700 18.353535
67.705 17.753958
67.710 17.677885
67.715 17.853289
67.720 18.151569
67.725 18.804386
67.730 18.863405
67.735 19.146303
67.740 19.376217
67.745 19.747335
67.750 20.137575
67.755 19.620539
67.760 19.099236
67.765 18.43858
67.770 17.47126
67.775 16.526247
67.780 15.949771
67.785 15.627328
67.790 15.806202
67.795 16.058758
67.800 16.34082
67.805 17.025921
67.810 17.196196
67.815 17.319475
67.820 17.547634
67.825 17.910366
67.830 17.81922
67.835 18.140104
67.840 18.170347
67.845 18.362871
67.850 17.743671
67.855 17.3584
67.860 17.097187
67.865 16.465034
67.870 15.88381
67.875 15.864296
67.880 15.77618
67.885 15.465278
67.890 15.317348
67.895 15.790112
67.900 16.826643
67.905 17.978964
67.910 17.843735
67.915 17.703068
67.920 18.301199
67.925 18.189125
67.930 18.176163
67.935 17.988113
67.940 17.609638
67.945 18.436949
67.950 18.162502
67.955 17.93854
67.960 17.828522
67.965 17.620291
67.970 17.646132
67.975 17.567604
67.980 17.290724
67.985 17.778004
67.990 17.725384
67.995 18.060574
68.000 17.925091
68.005 17.975328
68.010 18.060211
68.015 18.455404
68.020 18.85841
68.025 19.648697
68.030 19.325867
68.035 19.177122
68.040 19.236746
68.045 19.314358
68.050 19.232695
68.055 18.709997
68.060 18.390335
68.065 18.308287
68.070 18.310577
68.075 17.901619
68.080 17.767969
68.085 17.554689
68.090 17.407185
68.095 17.644306
68.100 18.092207
68.105 18.100269
68.110 17.899782
68.115 17.347637
68.120 17.298328
68.125 17.472845
68.130 17.464828
68.135 17.456244
68.140 17.92222
68.145 18.285219
68.150 19.215229
68.155 19.570379
68.160 19.532366
68.165 19.469086
68.170 19.230751
68.175 19.51828
68.180 19.367559
68.185 18.601187
68.190 18.605995
68.195 18.95499
68.200 19.564381
68.205 19.689369
68.210 19.606501
68.215 19.777229
68.220 20.458569
68.225 20.832119
68.230 20.897533
68.235 20.736074
68.240 21.658239
68.245 22.558851
68.250 22.963629
68.255 23.015459
68.260 23.22448
68.265 23.375057
68.270 23.34219
68.275 22.648924
68.280 22.271622
68.285 22.061279
68.290 22.399906
68.295 22.444588
68.300 22.294916
68.305 23.166645
68.310 23.580532
68.315 23.532948
68.320 24.764616
68.325 25.306864
68.330 25.383753
68.335 25.757948
68.340 25.314716
68.345 26.572275
68.350 28.247746
68.355 28.679546
68.360 28.811447
68.365 29.10327
68.370 29.093069
68.375 28.456955
68.380 27.879183
68.385 27.559441
68.390 27.005032
68.395 27.142748
68.400 27.533197
68.405 28.657438
68.410 29.842691
68.415 30.24972
68.420 30.915878
68.425 31.397974
68.430 31.672924
68.435 32.092514
68.440 32.158985
68.445 31.586786
68.450 31.347511
68.455 30.84989
68.460 30.765074
68.465 30.483604
68.470 30.413521
68.475 30.273073
68.480 30.495113
68.485 30.969294
68.490 32.044178
68.495 32.21785
68.500 32.038654
68.505 31.850813
68.510 31.80862
68.515 31.852081
68.520 31.7638
68.525 31.116959
68.530 31.50255
68.535 31.924597
68.540 32.208172
68.545 32.503075
68.550 32.074856
68.555 31.583624
68.560 31.44842
68.565 31.12756
68.570 30.809679
68.575 30.222351
68.580 30.239088
68.585 30.665953
68.590 31.524868
68.595 31.853867
68.600 32.639435
68.605 33.41431
68.610 33.886211
68.615 34.764656
68.620 35.284687
68.625 35.172379
68.630 34.114506
68.635 33.829823
68.640 33.770626
68.645 33.724964
68.650 33.83234
68.655 33.885395
68.660 33.754555
68.665 33.458321
68.670 33.343563
68.675 33.114708
68.680 33.247349
68.685 32.785301
68.690 32.50687
68.695 32.918514
68.700 34.111622
68.705 34.373234
68.710 34.099468
68.715 34.322044
68.720 34.829529
68.725 34.587433
68.730 33.818325
68.735 33.034016
68.740 33.799702
68.745 33.466179
68.750 33.013935
68.755 32.293903
68.760 32.192928
68.765 33.179363
68.770 33.414608
68.775 32.822945
68.780 32.704292
68.785 32.884464
68.790 33.14061
68.795 33.103294
68.800 32.303059
68.805 31.761684
68.810 32.085171
68.815 31.962904
68.820 31.384691
68.825 30.916353
68.830 30.389904
68.835 30.69594
68.840 30.122107
68.845 29.908997
68.850 29.983519
68.855 30.107704
68.860 30.370327
68.865 30.996054
68.870 31.023323
68.875 30.981647
68.880 31.302528
68.885 30.907921
68.890 30.957809
68.895 30.842115
68.900 30.041273
68.905 29.818565
68.910 29.056648
68.915 28.485149
68.920 28.462399
68.925 28.00865
68.930 27.221151
68.935 26.547009
68.940 26.663748
68.945 26.693663
68.950 26.297823
68.955 26.284147
68.960 26.609573
68.965 26.634373
68.970 26.859282
68.975 26.200949
68.980 26.594879
68.985 26.700918
68.990 26.830532
68.995 26.369875
69.000 25.900743
69.005 25.431862
69.010 25.130465
69.015 24.140987
69.020 23.823824
69.025 23.49695
69.030 23.696068
69.035 24.286585
69.040 25.010601
69.045 25.739872
69.050 25.26362
69.055 25.486275
69.060 25.293957
69.065 25.117308
69.070 25.109726
69.075 24.676069
69.080 23.618027
69.085 23.467573
69.090 22.932001
69.095 23.174822
69.100 23.627745
69.105 22.7955
69.110 22.928333
69.115 23.660372
69.120 24.084745
69.125 24.205563
69.130 24.014664
69.135 23.552078
69.140 23.5798
69.145 22.917158
69.150 22.164484
69.155 21.616545
69.160 20.736284
69.165 20.400415
69.170 19.818069
69.175 19.583847
69.180 20.098597
69.185 20.914455
69.190 21.316692
69.195 21.753807
69.200 21.594429
69.205 21.670048
69.210 21.215555
69.215 20.709047
69.220 20.125069
69.225 20.214176
69.230 20.086794
69.235 20.112846
69.240 20.470045
69.245 20.941565
69.250 20.523874
69.255 20.212107
69.260 19.913424
69.265 19.422735
69.270 19.099792
69.275 18.537766
69.280 18.371193
69.285 18.564901
69.290 18.582663
69.295 19.202209
69.300 19.487061
69.305 19.50577
69.310 19.746689
69.315 19.823528
69.320 19.437784
69.325 18.707268
69.330 18.080059
69.335 18.486301
69.340 18.754166
69.345 18.55932
69.350 18.676075
69.355 19.053354
69.360 19.37541
69.365 19.164948
69.370 19.021654
69.375 18.615017
69.380 17.797171
69.385 17.193348
69.390 17.89328
69.395 18.441256
69.400 18.208355
69.405 17.453323
69.410 17.489546
69.415 18.181845
69.420 18.428816
69.425 17.685026
69.430 17.155718
69.435 17.21917
69.440 18.200624
69.445 18.406349
69.450 18.403385
69.455 18.411755
69.460 17.795044
69.465 17.455107
69.470 17.297682
69.475 16.827908
69.480 16.701967
69.485 16.690479
69.490 16.434414
69.495 17.014055
69.500 17.812675
69.505 18.125725
69.510 18.256281
69.515 18.329817
69.520 18.094696
69.525 18.718317
69.530 18.270702
69.535 17.824938
69.540 17.48085
69.545 17.501745
69.550 17.801886
69.555 17.83947
69.560 17.717955
69.565 17.971924
69.570 17.929932
69.575 18.102127
69.580 17.564348
69.585 17.338427
69.590 17.723387
69.595 17.458504
69.600 17.619101
69.605 17.181553
69.610 16.919846
69.615 16.993774
69.620 16.428152
69.625 16.14683
69.630 16.537758
69.635 16.647779
69.640 17.218073
69.645 17.504549
69.650 17.363626
69.655 17.497513
69.660 16.957201
69.665 16.396116
69.670 16.141808
69.675 16.060053
69.680 16.181976
69.685 16.620558
69.690 16.571054
69.695 16.224413
69.700 16.754171
69.705 16.707071
69.710 16.769226
69.715 16.364326
69.720 16.259628
69.725 16.546955
69.730 17.491274
69.735 17.949543
69.740 18.455151
69.745 18.901577
69.750 18.622229
69.755 18.866333
69.760 19.943605
69.765 20.000202
69.770 19.51156
69.775 19.375536
69.780 19.404449
69.785 19.599447
69.790 18.76244
69.795 17.755636
69.800 17.212011
69.805 17.090189
69.810 16.601074
69.815 16.745863
69.820 16.78899
69.825 17.105473
69.830 17.132259
69.835 17.858999
69.840 17.806496
69.845 18.045143
69.850 18.021837
69.855 18.571218
69.860 18.752922
69.865 18.234941
69.870 17.973663
69.875 18.076824
69.880 18.038555
69.885 18.37867
69.890 18.543213
69.895 18.516338
69.900 18.762878
69.905 18.503534
69.910 18.006376
69.915 17.22031
69.920 16.504187
69.925 16.32744
69.930 15.998648
69.935 15.834377
69.940 15.997339
69.945 16.537773
69.950 17.026869
69.955 17.182009
69.960 17.1402
69.965 17.483776
69.970 17.813541
69.975 17.894718
69.980 17.999058
69.985 17.727314
69.990 17.399841
69.995 17.232737
70.000 17.275246
70.005 17.148075
70.010 17.162067
70.015 17.197607
70.020 17.551472
70.025 18.276943
70.030 18.059393
70.035 17.666368
70.040 17.614035
70.045 17.856676
70.050 17.61632
70.055 17.180468
70.060 16.858749
70.065 17.419582
70.070 17.514566
70.075 17.503317
70.080 17.277214
70.085 17.360901
70.090 16.994469
70.095 17.005899
70.100 16.925211
70.105 16.950579
70.110 16.681322
70.115 16.730417
70.120 17.256983
70.125 17.474566
70.130 17.467266
70.135 17.578247
70.140 17.628937
70.145 18.004259
70.150 17.939341
70.155 17.949894
70.160 18.286909
70.165 18.023813
70.170 18.164846
70.175 18.397593
70.180 17.837032
70.185 17.68058
70.190 17.670248
70.195 17.624004
70.200 17.79471
70.205 17.518871
70.210 17.280867
70.215 17.284698
70.220 17.754675
70.225 17.470331
70.230 16.938446
70.235 17.044817
70.240 16.724293
70.245 16.853762
70.250 16.839554
70.255 16.606033
70.260 16.85738
70.265 17.259588
70.270 17.539175
70.275 18.417313
70.280 18.710821
70.285 18.617573
70.290 18.343941
70.295 18.153265
70.300 17.779236
70.305 17.564251
70.310 17.226439
70.315 17.666414
70.320 17.827194
70.325 18.287754
70.330 18.292028
70.335 18.280317
70.340 18.275421
70.345 18.002499
70.350 17.483133
70.355 17.57494
70.360 17.142467
70.365 17.414721
70.370 17.213287
70.375 16.790356
70.380 16.476984
70.385 16.328846
70.390 16.294662
70.395 15.808838
70.400 15.877906
70.405 15.674817
70.410 15.762485
70.415 16.410992
70.420 16.502218
70.425 16.855581
70.430 17.477489
70.435 17.61832
70.440 18.027895
70.445 17.944883
70.450 17.252697
70.455 17.340548
70.460 17.272991
70.465 17.497366
70.470 17.616714
70.475 17.513538
70.480 17.23724
70.485 17.479334
70.490 17.452194
70.495 17.335455
70.500 17.254263
70.505 17.497841
70.510 17.704767
70.515 17.883162
70.520 17.930199
70.525 17.692225
70.530 17.17
70.535 16.715971
70.540 16.547476
70.545 16.660103
70.550 17.028536
70.555 16.872662
70.560 17.325371
70.565 18.003841
70.570 18.416574
70.575 18.029467
70.580 18.461466
70.585 18.123636
70.590 17.784798
70.595 17.536081
70.600 16.899361
70.605 16.48131
70.610 16.557291
70.615 16.86091
70.620 17.571161
70.625 17.718058
70.630 17.59602
70.635 17.950338
70.640 17.830103
70.645 17.779137
70.650 17.000385
70.655 16.66777
70.660 16.935606
70.665 17.296431
70.670 16.887413
70.675 17.365221
70.680 17.507841
70.685 17.862259
70.690 18.322063
70.695 18.040783
70.700 18.158747
70.705 18.695303
70.710 18.453272
70.715 18.629971
70.720 17.963625
70.725 17.247694
70.730 17.437794
70.735 17.44585
70.740 17.416031
70.745 17.182165
70.750 17.211386
70.755 17.946747
70.760 18.345877
70.765 18.096817
70.770 18.011091
70.775 17.514036
70.780 17.202177
70.785 17.021423
70.790 17.332157
70.795 17.478853
70.800 17.253775
70.805 17.275841
70.810 17.072765
70.815 16.826925
70.820 16.546648
70.825 16.363621
70.830 16.204311
70.835 16.505285
70.840 16.435581
70.845 17.27219
70.850 17.374498
70.855 17.224413
70.860 17.228874
70.865 17.421518
70.870 17.466108
70.875 17.03529
70.880 16.757486
70.885 16.567816
70.890 16.792143
70.895 16.45072
70.900 16.580713
70.905 16.537823
70.910 16.743467
70.915 16.842587
70.920 16.705267
70.925 16.429581
70.930 16.596172
70.935 16.419937
70.940 16.145248
70.945 15.990631
70.950 16.130108
70.955 16.364601
70.960 15.943694
70.965 15.520487
70.970 15.52933
70.975 15.761863
70.980 15.774416
70.985 15.685239
70.990 15.612364
70.995 15.961422
71.000 16.349106
71.005 16.758995
71.010 17.317389
71.015 17.496656
71.020 17.607447
71.025 17.944218
71.030 18.08045
71.035 17.947582
71.040 18.145542
71.045 17.904444
71.050 17.915405
71.055 18.19031
71.060 17.999376
71.065 17.373095
71.070 16.900213
71.075 16.897455
71.080 17.299585
71.085 17.245068
71.090 17.214321
71.095 17.770693
71.100 18.027273
71.105 17.806351
71.110 17.254208
71.115 16.978703
71.120 16.765015
71.125 16.075344
71.130 15.887438
71.135 15.748096
71.140 16.003426
71.145 15.981823
71.150 15.921674
71.155 15.662471
71.160 15.906848
71.165 16.33271
71.170 17.444309
71.175 17.671701
71.180 17.918011
71.185 17.465174
71.190 17.799051
71.195 18.432013
71.200 17.528028
71.205 16.500053
71.210 16.673939
71.215 16.827261
71.220 17.622061
71.225 17.59008
71.230 17.452456
71.235 17.898256
71.240 17.432638
71.245 17.163368
71.250 17.045095
71.255 16.729532
71.260 16.835442
71.265 17.354326
71.270 17.170692
71.275 17.515064
71.280 17.493504
71.285 17.645958
71.290 17.978033
71.295 17.467489
71.300 17.129864
71.305 17.23962
71.310 16.983135
71.315 16.62862
71.320 16.380766
71.325 16.415016
71.330 16.60133
71.335 16.884317
71.340 17.310112
71.345 18.067778
71.350 18.360235
71.355 18.252497
71.360 18.023479
71.365 17.565689
71.370 16.508188
71.375 16.272797
71.380 16.287725
71.385 16.440546
71.390 16.573076
71.395 16.394011
71.400 17.209473
71.405 18.115189
71.410 18.043797
71.415 18.137527
71.420 18.033773
71.425 18.156061
71.430 18.772484
71.435 18.663286
71.440 18.398922
71.445 18.310678
71.450 17.921215
71.455 17.979288
71.460 17.733561
71.465 17.896555
71.470 17.785067
71.475 17.999474
71.480 18.313629
71.485 19.448393
71.490 19.543573
71.495 19.506498
71.500 19.472988
71.505 19.801573
71.510 19.141926
71.515 18.168041
71.520 17.556559
71.525 17.130791
71.530 16.998001
71.535 16.359215
71.540 16.084555
71.545 16.11833
71.550 16.050045
71.555 16.07328
71.560 16.37748
71.565 16.37743
71.570 16.684721
71.575 16.73641
71.580 16.972662
71.585 16.894257
71.590 16.515268
71.595 16.378307
71.600 16.449379
71.605 16.076153
71.610 16.097504
71.615 16.241846
71.620 16.759954
71.625 17.237978
71.630 17.294693
71.635 17.174231
71.640 17.374054
71.645 17.476629
71.650 17.188652
71.655 16.785286
71.660 16.464142
71.665 16.362919
71.670 16.252516
71.675 16.259672
71.680 16.445816
71.685 16.686235
71.690 17.276947
71.695 17.514904
71.700 18.064142
71.705 17.733477
71.710 17.195343
71.715 17.294086
71.720 16.497147
71.725 15.989697
71.730 15.974227
71.735 15.425387
71.740 15.176731
71.745 15.320893
71.750 15.616262
71.755 15.760047
71.760 16.297256
71.765 16.25493
71.770 16.453506
71.775 17.022001
71.780 16.891012
71.785 16.363264
71.790 16.602537
71.795 16.75947
71.800 16.649242
71.805 16.575878
71.810 16.343929
71.815 16.342836
71.820 16.546539
71.825 15.870111
71.830 15.856897
71.835 16.069658
71.840 16.355785
71.845 16.674652
71.850 17.112087
71.855 17.683422
71.860 18.319378
71.865 18.430428
71.870 18.461573
71.875 17.991451
71.880 17.662619
71.885 17.734777
71.890 17.232899
71.895 17.04089
71.900 16.466827
71.905 16.548899
71.910 17.329391
71.915 17.39925
71.920 17.236382
71.925 17.14888
71.930 16.274487
71.935 16.118221
71.940 16.185043
71.945 16.200331
71.950 16.121002
71.955 16.125376
71.960 16.28364
71.965 16.72324
71.970 16.783598
71.975 16.84384
71.980 16.87892
71.985 17.023605
71.990 16.76992
71.995 17.092035
72.000 17.2962
72.005 17.450201
72.010 16.90752
72.015 16.699335
72.020 16.894562
72.025 17.086691
72.030 16.903059
72.035 16.933346
72.040 17.030762
72.045 17.7869
72.050 17.920332
72.055 17.474236
72.060 17.433653
72.065 17.276775
72.070 17.414572
72.075 17.230223
72.080 17.269886
72.085 16.935087
72.090 16.903957
72.095 16.893307
72.100 16.971916
72.105 16.49905
72.110 15.774376
72.115 14.938375
72.120 15.185964
72.125 15.328542
72.130 15.554837
72.135 15.868265
72.140 16.348694
72.145 16.263357
72.150 16.252565
72.155 15.812573
72.160 16.250597
72.165 15.953156
72.170 15.829759
72.175 16.031773
72.180 16.357801
72.185 16.343441
72.190 16.285702
72.195 16.803665
72.200 16.757547
72.205 17.181967
72.210 16.953835
72.215 16.878778
72.220 17.592033
72.225 17.584414
72.230 16.983788
72.235 17.227921
72.240 16.790709
72.245 17.535503
72.250 18.510269
72.255 18.006638
72.260 18.694481
72.265 18.953854
72.270 18.64765
72.275 18.915749
72.280 18.190153
72.285 17.662745
72.290 17.282808
72.295 16.747791
72.300 16.923452
72.305 17.089203
72.310 16.861954
72.315 17.536921
72.320 17.547274
72.325 17.565344
72.330 17.477547
72.335 17.838396
72.340 17.5198
72.345 17.226837
72.350 16.836622
72.355 16.992607
72.360 17.125399
72.365 16.847389
72.370 16.489141
72.375 17.119083
72.380 17.433624
72.385 17.280033
72.390 17.132177
72.395 16.59553
72.400 16.425508
72.405 16.030212
72.410 15.77655
72.415 15.78138
72.420 15.398618
72.425 15.189739
72.430 15.548002
72.435 15.511036
72.440 15.741948
72.445 16.161449
72.450 16.183928
72.455 16.45657
72.460 16.349649
72.465 16.180111
72.470 16.558977
72.475 16.383259
72.480 15.664203
72.485 16.598167
72.490 17.354866
72.495 17.692158
72.500 17.153133
72.505 16.583992
72.510 16.415672
72.515 16.188328
72.520 15.566593
72.525 15.473611
72.530 15.729136
72.535 16.27615
72.540 16.880287
72.545 17.040077
72.550 16.943705
72.555 16.671423
72.560 16.50209
72.565 16.244633
72.570 15.921844
72.575 15.837817
72.580 15.891318
72.585 16.460445
72.590 16.217552
72.595 15.883017
72.600 16.626369
72.605 16.958977
72.610 16.532108
72.615 16.325428
72.620 15.931686
72.625 16.169281
72.630 16.049932
72.635 15.367971
72.640 15.42049
72.645 15.556455
72.650 15.648615
72.655 15.558113
72.660 15.875395
72.665 15.965435
72.670 16.245607
72.675 16.319841
72.680 16.290966
72.685 16.633837
72.690 16.990936
72.695 17.853151
72.700 18.079777
72.705 18.099976
72.710 18.163099
72.715 18.264076
72.720 18.107687
72.725 17.701521
72.730 16.765657
72.735 16.638899
72.740 16.387545
72.745 16.160938
72.750 16.023205
72.755 15.705629
72.760 15.893722
72.765 15.752862
72.770 15.874799
72.775 15.836233
72.780 15.566735
72.785 15.406618
72.790 15.569057
72.795 15.426348
72.800 15.553444
72.805 15.558734
72.810 15.431499
72.815 15.554875
72.820 15.567428
72.825 15.08744
72.830 14.947991
72.835 15.214198
72.840 15.041502
72.845 15.459967
72.850 15.840788
72.855 16.04117
72.860 16.842613
72.865 16.394653
72.870 16.407389
72.875 16.56196
72.880 16.382326
72.885 15.954791
72.890 15.595187
72.895 15.458434
72.900 15.409017
72.905 15.534652
72.910 15.726348
72.915 16.466213
72.920 16.905533
72.925 17.257179
72.930 17.114922
72.935 17.054132
72.940 17.323132
72.945 16.863081
72.950 16.512966
72.955 16.160332
72.960 15.605721
72.965 16.235201
72.970 16.765369
72.975 16.601667
72.980 16.637085
72.985 16.006401
72.990 16.387691
72.995 16.656792
73.000 16.252455
