!@!!GADDS PLOTSO FILE: Chi integration type
!@!!Title/SampleName: map-27
!@!!Comment: ?
!@!!User: Bruker Instrument Administrator
!@!!Site: University of Illinois Chicago
!@!!Frame: map-27_01_000.gfrm
!@!!Wavelengths    1.54184   1.54056   1.54439
!@!!Frame angles: 2Theta: 63.000 Omega: 50.000 Phi: 0.000 Chi: 90.000
!@!!Integration range: 2Theta: 53.000 to 73.000  Gamma: -105.000 to -75.000
!@!!Integration method: bin normalized
!@!N
!@!SS
!@!M
!@!L 0.0 0.0 0.0 0.0
!@!XDegrees
!@!YCounts
53.000 7.834854
53.005 7.326771
53.010 7.41465
53.015 7.401305
53.020 7.192265
53.025 6.990098
53.030 6.923931
53.035 7.621466
53.040 8.601295
53.045 8.744968
53.050 8.328603
53.055 8.174436
53.060 7.925692
53.065 7.612645
53.070 7.081534
53.075 6.3961
53.080 6.596015
53.085 6.877503
53.090 7.072746
53.095 7.423598
53.100 7.519222
53.105 7.620277
53.110 7.660184
53.115 7.885521
53.120 8.12607
53.125 8.141617
53.130 8.22043
53.135 8.423554
53.140 8.686407
53.145 8.373962
53.150 7.832634
53.155 7.432312
53.160 7.252962
53.165 6.74798
53.170 6.382822
53.175 6.170118
53.180 6.177169
53.185 6.662179
53.190 6.857597
53.195 6.920739
53.200 7.014029
53.205 7.410306
53.210 7.97581
53.215 8.405787
53.220 8.540676
53.225 8.552145
53.230 8.733071
53.235 8.7626
53.240 8.953238
53.245 8.686467
53.250 8.169372
53.255 8.1263
53.260 8.028944
53.265 8.192199
53.270 8.161862
53.275 7.727469
53.280 7.995138
53.285 8.042724
53.290 8.25937
53.295 8.357639
53.300 8.352504
53.305 8.25351
53.310 8.264258
53.315 8.157755
53.320 8.412537
53.325 8.299843
53.330 8.542123
53.335 8.621628
53.340 8.373228
53.345 8.327871
53.350 8.472042
53.355 8.494199
53.360 8.384618
53.365 8.2277
53.370 8.356355
53.375 8.791737
53.380 8.776588
53.385 8.804566
53.390 8.980915
53.395 8.94832
53.400 9.108454
53.405 9.375585
53.410 9.652619
53.415 9.596548
53.420 8.95044
53.425 8.88082
53.430 8.695556
53.435 8.511438
53.440 7.95886
53.445 7.587008
53.450 8.340178
53.455 8.669546
53.460 8.787863
53.465 8.968242
53.470 9.197895
53.475 9.319828
53.480 9.255981
53.485 8.521352
53.490 8.47254
53.495 8.127151
53.500 7.718579
53.505 7.437645
53.510 7.552205
53.515 8.083455
53.520 8.196582
53.525 8.2533
53.530 8.394646
53.535 8.595222
53.540 8.854661
53.545 8.648883
53.550 8.143003
53.555 7.954254
53.560 8.052179
53.565 8.226162
53.570 8.152844
53.575 7.84314
53.580 7.627919
53.585 7.665719
53.590 7.628886
53.595 7.563995
53.600 7.98511
53.605 7.944092
53.610 7.986908
53.615 8.046043
53.620 8.591138
53.625 9.065182
53.630 9.270251
53.635 8.948055
53.640 9.061859
53.645 9.514151
53.650 9.651868
53.655 9.398376
53.660 9.636148
53.665 9.075321
53.670 8.643927
53.675 8.265705
53.680 7.887658
53.685 7.857227
53.690 7.507443
53.695 7.147829
53.700 7.421847
53.705 7.784663
53.710 8.001206
53.715 8.133054
53.720 8.230641
53.725 8.251682
53.730 8.374228
53.735 8.299646
53.740 8.090596
53.745 7.676935
53.750 7.971553
53.755 8.163839
53.760 8.400129
53.765 8.351473
53.770 8.785689
53.775 9.254092
53.780 9.616511
53.785 9.528678
53.790 9.11909
53.795 8.811409
53.800 8.566076
53.805 8.450646
53.810 8.619427
53.815 8.461191
53.820 8.271951
53.825 8.339847
53.830 8.843654
53.835 9.13648
53.840 8.818427
53.845 8.628688
53.850 8.889289
53.855 9.462111
53.860 10.100965
53.865 10.273868
53.870 10.390532
53.875 10.743589
53.880 10.476152
53.885 10.019909
53.890 9.459956
53.895 8.968824
53.900 8.203685
53.905 8.23801
53.910 8.94669
53.915 9.362863
53.920 9.484152
53.925 9.179468
53.930 9.373046
53.935 9.676164
53.940 9.706266
53.945 9.106695
53.950 9.029863
53.955 9.044461
53.960 9.024522
53.965 8.859445
53.970 8.357867
53.975 8.211596
53.980 8.395245
53.985 8.660489
53.990 9.038895
53.995 9.295484
54.000 9.495085
54.005 9.897536
54.010 9.645351
54.015 9.017547
54.020 8.475789
54.025 8.022791
54.030 8.211089
54.035 8.302935
54.040 8.331672
54.045 8.626447
54.050 9.121307
54.055 9.193957
54.060 9.307858
54.065 9.108687
54.070 9.205917
54.075 9.191836
54.080 9.199071
54.085 9.508986
54.090 9.709718
54.095 9.292668
54.100 8.894875
54.105 8.815564
54.110 8.980826
54.115 8.54946
54.120 8.651871
54.125 8.879885
54.130 9.175801
54.135 9.873551
54.140 9.760766
54.145 9.621663
54.150 10.207242
54.155 9.713773
54.160 9.626864
54.165 9.550591
54.170 9.293134
54.175 9.649376
54.180 9.680562
54.185 9.565915
54.190 9.990296
54.195 10.15966
54.200 10.105493
54.205 9.773717
54.210 9.564482
54.215 9.499501
54.220 9.286613
54.225 9.40732
54.230 9.799047
54.235 10.565394
54.240 11.127086
54.245 11.513262
54.250 11.484498
54.255 11.430482
54.260 10.793513
54.265 10.17798
54.270 10.097243
54.275 9.922243
54.280 9.550424
54.285 9.101022
54.290 8.936225
54.295 9.385544
54.300 9.505822
54.305 9.151886
54.310 9.113042
54.315 9.272155
54.320 9.602438
54.325 9.891297
54.330 9.811061
54.335 9.830287
54.340 9.706439
54.345 9.598955
54.350 9.62492
54.355 9.13989
54.360 9.166883
54.365 8.561795
54.370 8.017753
54.375 8.325757
54.380 8.289385
54.385 8.426386
54.390 8.720375
54.395 8.839583
54.400 9.334915
54.405 9.442877
54.410 9.585282
54.415 9.679039
54.420 9.755698
54.425 10.090571
54.430 10.141235
54.435 11.029967
54.440 11.229055
54.445 11.283158
54.450 10.889838
54.455 10.683369
54.460 10.465923
54.465 10.094916
54.470 9.384123
54.475 9.486514
54.480 9.425576
54.485 9.846311
54.490 9.710414
54.495 9.620709
54.500 9.61204
54.505 9.98696
54.510 9.659739
54.515 10.102683
54.520 10.085813
54.525 9.743032
54.530 10.189096
54.535 10.057647
54.540 9.274371
54.545 9.234879
54.550 8.951631
54.555 9.122681
54.560 9.6934
54.565 9.697372
54.570 10.081791
54.575 10.746431
54.580 10.95677
54.585 10.891083
54.590 10.972364
54.595 10.597325
54.600 10.27742
54.605 10.004643
54.610 9.949529
54.615 10.180078
54.620 10.266661
54.625 9.839093
54.630 9.83926
54.635 9.710127
54.640 9.705226
54.645 9.209339
54.650 8.84591
54.655 9.166431
54.660 9.363759
54.665 9.652169
54.670 10.055707
54.675 10.218881
54.680 10.628891
54.685 10.469434
54.690 10.122873
54.695 10.027632
54.700 9.758306
54.705 9.621999
54.710 10.054493
54.715 10.226743
54.720 10.461402
54.725 10.506233
54.730 10.194538
54.735 10.26957
54.740 10.275804
54.745 9.996754
54.750 9.746058
54.755 9.39934
54.760 9.406317
54.765 9.964625
54.770 9.670033
54.775 9.601171
54.780 9.321651
54.785 9.23955
54.790 9.450656
54.795 9.577936
54.800 9.606268
54.805 9.755647
54.810 9.683015
54.815 10.068931
54.820 10.176612
54.825 10.034769
54.830 10.135585
54.835 9.847595
54.840 9.924377
54.845 10.262053
54.850 10.258444
54.855 10.448952
54.860 10.537263
54.865 10.226641
54.870 10.391241
54.875 10.450063
54.880 9.872396
54.885 9.868208
54.890 9.803705
54.895 10.256542
54.900 10.645686
54.905 10.301895
54.910 10.189137
54.915 10.4231
54.920 10.287168
54.925 10.230515
54.930 10.007346
54.935 9.978896
54.940 9.911786
54.945 9.851985
54.950 10.117019
54.955 10.135275
54.960 10.17063
54.965 10.161755
54.970 10.585896
54.975 10.844501
54.980 10.506784
54.985 9.837418
54.990 10.084198
54.995 10.160086
55.000 10.485363
55.005 10.309236
55.010 10.572755
55.015 10.668822
55.020 10.98535
55.025 10.887361
55.030 10.686455
55.035 10.573306
55.040 10.475508
55.045 10.504886
55.050 11.35618
55.055 11.510551
55.060 11.93954
55.065 12.202695
55.070 12.132818
55.075 11.984709
55.080 11.781025
55.085 10.761659
55.090 10.696469
55.095 10.343731
55.100 10.047511
55.105 10.155082
55.110 10.053963
55.115 10.069603
55.120 10.478217
55.125 10.53082
55.130 10.564373
55.135 10.857703
55.140 10.929044
55.145 10.943424
55.150 11.111208
55.155 10.588475
55.160 10.369717
55.165 10.519066
55.170 10.347259
55.175 10.255851
55.180 10.136151
55.185 10.243549
55.190 10.673604
55.195 10.65798
55.200 10.482006
55.205 10.737327
55.210 10.872347
55.215 10.784925
55.220 10.205542
55.225 10.124822
55.230 10.391024
55.235 10.249313
55.240 10.345541
55.245 10.452875
55.250 11.18374
55.255 11.435693
55.260 12.106297
55.265 12.144772
55.270 12.098496
55.275 11.615454
55.280 11.578518
55.285 11.203471
55.290 11.238025
55.295 10.660585
55.300 10.077219
55.305 10.431062
55.310 10.964813
55.315 10.898083
55.320 10.748905
55.325 10.356131
55.330 10.42091
55.335 10.524879
55.340 10.420959
55.345 10.2108
55.350 10.156161
55.355 10.46805
55.360 10.382424
55.365 10.539876
55.370 10.703099
55.375 10.389836
55.380 10.296122
55.385 10.314233
55.390 9.964602
55.395 10.175969
55.400 10.291867
55.405 10.746297
55.410 10.812553
55.415 10.678104
55.420 10.521461
55.425 10.401299
55.430 10.383911
55.435 10.192897
55.440 9.462651
55.445 9.718005
55.450 10.117702
55.455 10.485759
55.460 10.606173
55.465 10.052794
55.470 10.05632
55.475 10.51538
55.480 10.830698
55.485 10.694805
55.490 10.68378
55.495 11.295033
55.500 11.558407
55.505 11.934377
55.510 11.8621
55.515 11.633029
55.520 11.829299
55.525 11.298177
55.530 10.714554
55.535 10.979609
55.540 10.457104
55.545 10.123331
55.550 9.758452
55.555 10.32375
55.560 11.003758
55.565 11.35771
55.570 11.096533
55.575 11.458882
55.580 11.622067
55.585 11.458964
55.590 11.444328
55.595 11.530869
55.600 12.047739
55.605 12.23726
55.610 12.343563
55.615 12.955644
55.620 13.013427
55.625 12.395334
55.630 11.866566
55.635 11.385676
55.640 10.981787
55.645 10.383582
55.650 9.81272
55.655 9.823768
55.660 9.656615
55.665 9.625927
55.670 9.777555
55.675 10.325868
55.680 10.219692
55.685 10.299191
55.690 10.425088
55.695 10.859886
55.700 11.007181
55.705 10.90603
55.710 10.431182
55.715 10.380496
55.720 10.311733
55.725 10.079363
55.730 10.023002
55.735 9.617442
55.740 9.412258
55.745 9.712066
55.750 9.611514
55.755 9.530469
55.760 9.3972
55.765 9.500784
55.770 10.589695
55.775 10.784237
55.780 11.201845
55.785 11.561402
55.790 12.114688
55.795 12.280557
55.800 12.309274
55.805 12.407542
55.810 12.407814
55.815 12.169406
55.820 12.065948
55.825 11.813801
55.830 11.699725
55.835 11.490215
55.840 11.333115
55.845 11.252862
55.850 11.523029
55.855 11.948261
55.860 11.698787
55.865 11.346812
55.870 10.825849
55.875 10.78055
55.880 11.362641
55.885 11.540881
55.890 11.523315
55.895 12.20641
55.900 12.817286
55.905 13.1926
55.910 13.658403
55.915 13.213256
55.920 12.695955
55.925 12.280262
55.930 12.012895
55.935 12.078351
55.940 11.507848
55.945 11.008078
55.950 10.970785
55.955 11.264411
55.960 11.379959
55.965 11.411653
55.970 11.249794
55.975 11.072467
55.980 10.815592
55.985 10.61103
55.990 10.214073
55.995 10.024991
56.000 9.754649
56.005 10.362851
56.010 10.828823
56.015 11.072971
56.020 11.256487
56.025 11.723971
56.030 11.996629
56.035 12.012097
56.040 11.454006
56.045 11.025097
56.050 11.164978
56.055 10.886415
56.060 10.470142
56.065 10.476051
56.070 10.225661
56.075 10.086868
56.080 10.223156
56.085 10.44566
56.090 11.151096
56.095 11.574547
56.100 11.45749
56.105 11.84045
56.110 11.776388
56.115 11.459702
56.120 10.73784
56.125 10.163735
56.130 10.334386
56.135 10.493745
56.140 10.169768
56.145 10.286936
56.150 10.325151
56.155 10.886565
56.160 11.518282
56.165 11.649064
56.170 11.693727
56.175 11.99952
56.180 12.273662
56.185 12.347055
56.190 12.041499
56.195 11.425765
56.200 10.771757
56.205 10.431973
56.210 10.366926
56.215 10.322125
56.220 10.502295
56.225 10.807718
56.230 11.237178
56.235 12.177004
56.240 12.890469
56.245 13.036738
56.250 12.97051
56.255 13.315325
56.260 13.425797
56.265 13.332146
56.270 12.784815
56.275 12.550524
56.280 12.471001
56.285 12.288732
56.290 12.151961
56.295 12.092716
56.300 11.825771
56.305 11.931378
56.310 11.977584
56.315 12.180865
56.320 12.416073
56.325 12.725516
56.330 13.047778
56.335 13.300971
56.340 13.091086
56.345 12.863988
56.350 12.850809
56.355 12.950731
56.360 12.452149
56.365 12.205003
56.370 11.743351
56.375 11.349385
56.380 11.425899
56.385 11.294163
56.390 10.890749
56.395 10.610394
56.400 10.348795
56.405 10.640453
56.410 11.224339
56.415 11.417389
56.420 12.35353
56.425 13.099434
56.430 13.558896
56.435 13.713023
56.440 14.081739
56.445 14.11644
56.450 14.295872
56.455 13.4683
56.460 13.192715
56.465 12.726585
56.470 12.584592
56.475 12.207494
56.480 11.817509
56.485 11.755832
56.490 11.937427
56.495 12.081782
56.500 12.309683
56.505 12.317912
56.510 12.143198
56.515 12.294854
56.520 12.256924
56.525 12.270166
56.530 12.200338
56.535 12.089893
56.540 12.115505
56.545 12.327677
56.550 12.319752
56.555 12.701011
56.560 12.78868
56.565 13.029713
56.570 13.135857
56.575 13.362924
56.580 13.671268
56.585 13.667446
56.590 13.034216
56.595 12.698863
56.600 12.618852
56.605 12.308122
56.610 12.014188
56.615 11.984568
56.620 12.020253
56.625 12.170547
56.630 12.603852
56.635 12.503561
56.640 12.706757
56.645 12.580965
56.650 12.18181
56.655 12.200643
56.660 12.338235
56.665 12.667472
56.670 12.752892
56.675 13.124889
56.680 13.272511
56.685 13.784875
56.690 13.93913
56.695 13.394927
56.700 13.261982
56.705 13.147277
56.710 12.926484
56.715 13.254527
56.720 12.884136
56.725 12.806048
56.730 12.909199
56.735 12.737255
56.740 12.620738
56.745 12.445261
56.750 11.973147
56.755 12.228203
56.760 13.042844
56.765 13.33131
56.770 13.404239
56.775 13.529951
56.780 13.943874
56.785 14.26954
56.790 14.095548
56.795 14.060689
56.800 14.439225
56.805 14.644647
56.810 14.774907
56.815 14.54568
56.820 14.321177
56.825 13.720819
56.830 12.952755
56.835 12.404444
56.840 12.228049
56.845 12.309126
56.850 12.089995
56.855 11.884338
56.860 12.12351
56.865 12.559894
56.870 12.930336
56.875 12.899735
56.880 12.97098
56.885 13.564042
56.890 13.814071
56.895 13.619087
56.900 13.011801
56.905 13.129523
56.910 13.065755
56.915 12.574741
56.920 12.094568
56.925 12.378238
56.930 12.433788
56.935 12.213437
56.940 11.842391
56.945 11.873396
56.950 11.987967
56.955 12.057312
56.960 12.387503
56.965 12.219797
56.970 12.510127
56.975 12.718983
56.980 12.547366
56.985 12.464261
56.990 12.66362
56.995 12.223554
57.000 12.075728
57.005 11.968783
57.010 11.862931
57.015 12.36915
57.020 12.48929
57.025 12.903708
57.030 13.078411
57.035 13.394787
57.040 13.573167
57.045 13.206992
57.050 13.119225
57.055 12.555911
57.060 11.751641
57.065 11.749128
57.070 11.767738
57.075 11.768914
57.080 11.744378
57.085 11.08513
57.090 11.371416
57.095 11.775325
57.100 12.218925
57.105 12.019832
57.110 12.173293
57.115 12.519385
57.120 13.012861
57.125 12.854934
57.130 12.7445
57.135 12.645296
57.140 12.478975
57.145 12.31127
57.150 12.290675
57.155 12.855769
57.160 12.83189
57.165 12.425258
57.170 12.485671
57.175 12.804996
57.180 12.719862
57.185 12.461601
57.190 12.674347
57.195 12.901656
57.200 13.099362
57.205 13.488744
57.210 13.583162
57.215 13.330029
57.220 13.5397
57.225 13.141093
57.230 13.301201
57.235 13.078505
57.240 12.786487
57.245 12.846678
57.250 13.401073
57.255 13.206388
57.260 12.867411
57.265 13.103604
57.270 13.502521
57.275 13.13748
57.280 13.166229
57.285 12.763542
57.290 12.942617
57.295 13.006554
57.300 12.459438
57.305 12.305532
57.310 12.656974
57.315 12.374054
57.320 12.633172
57.325 12.420166
57.330 12.491501
57.335 12.944644
57.340 12.505594
57.345 12.091335
57.350 12.689164
57.355 12.708399
57.360 13.056279
57.365 12.815414
57.370 12.772038
57.375 13.204261
57.380 13.634291
57.385 13.483838
57.390 13.695563
57.395 13.657916
57.400 13.862835
57.405 13.709066
57.410 13.852782
57.415 13.966389
57.420 14.142735
57.425 13.688318
57.430 13.263133
57.435 13.418791
57.440 13.336695
57.445 13.171423
57.450 12.694019
57.455 12.711305
57.460 13.528538
57.465 14.211895
57.470 14.01163
57.475 14.125096
57.480 14.450899
57.485 14.636428
57.490 14.262683
57.495 13.732066
57.500 13.562081
57.505 13.646449
57.510 13.542835
57.515 12.990252
57.520 13.058092
57.525 13.041224
57.530 12.563346
57.535 12.511257
57.540 12.707276
57.545 12.839918
57.550 13.097477
57.555 13.060691
57.560 13.078317
57.565 13.162446
57.570 13.396948
57.575 13.254093
57.580 13.349138
57.585 13.359775
57.590 13.264169
57.595 13.740121
57.600 13.690711
57.605 13.448647
57.610 13.071927
57.615 12.758754
57.620 12.506906
57.625 13.04247
57.630 13.269615
57.635 13.502811
57.640 14.028038
57.645 14.245777
57.650 14.815688
57.655 15.345655
57.660 15.078361
57.665 14.597212
57.670 14.701578
57.675 14.307834
57.680 14.68323
57.685 14.953482
57.690 14.887357
57.695 14.997164
57.700 15.148548
57.705 15.095065
57.710 15.384939
57.715 15.03963
57.720 14.218663
57.725 13.997573
57.730 14.590727
57.735 14.541323
57.740 14.305308
57.745 14.295267
57.750 13.996059
57.755 14.087292
57.760 13.479295
57.765 12.677485
57.770 12.691442
57.775 12.533362
57.780 11.969472
57.785 12.096131
57.790 11.762932
57.795 11.692224
57.800 11.238844
57.805 11.343487
57.810 11.195412
57.815 11.232496
57.820 11.657209
57.825 12.47688
57.830 13.3486
57.835 14.297416
57.840 14.342677
57.845 14.703125
57.850 14.993619
57.855 14.927516
57.860 14.850151
57.865 14.747518
57.870 14.707311
57.875 15.002875
57.880 15.256971
57.885 15.517776
57.890 15.370889
57.895 15.319179
57.900 14.727467
57.905 14.373487
57.910 14.207916
57.915 13.664963
57.920 13.797851
57.925 13.895028
57.930 13.502742
57.935 13.908577
57.940 13.845422
57.945 13.659688
57.950 13.536637
57.955 12.994915
57.960 13.178937
57.965 13.428226
57.970 13.105322
57.975 13.316833
57.980 13.453066
57.985 13.865434
57.990 14.005097
57.995 13.941652
58.000 13.760617
58.005 14.500378
58.010 14.650739
58.015 14.440786
58.020 14.012895
58.025 13.820067
58.030 13.621345
58.035 13.787325
58.040 13.908994
58.045 13.243401
58.050 13.309186
58.055 13.693769
58.060 13.803907
58.065 14.014942
58.070 13.661379
58.075 13.082695
58.080 13.266854
58.085 13.277561
58.090 13.139869
58.095 13.241866
58.100 13.475845
58.105 13.718062
58.110 14.098837
58.115 14.373829
58.120 14.286827
58.125 13.957833
58.130 13.982916
58.135 13.647081
58.140 13.473172
58.145 13.233226
58.150 12.805017
58.155 13.20344
58.160 13.633791
58.165 13.352093
58.170 13.41963
58.175 13.232863
58.180 13.357666
58.185 13.837491
58.190 13.628293
58.195 13.475875
58.200 13.544233
58.205 13.379379
58.210 13.722683
58.215 14.144053
58.220 14.438108
58.225 14.891758
58.230 15.096037
58.235 15.117385
58.240 15.289854
58.245 15.092869
58.250 14.356932
58.255 14.075397
58.260 13.874475
58.265 13.628254
58.270 14.109233
58.275 13.955226
58.280 14.028767
58.285 14.72242
58.290 14.896331
58.295 15.518215
58.300 15.978857
58.305 15.663266
58.310 15.846776
58.315 15.763025
58.320 15.612436
58.325 14.994998
58.330 14.156829
58.335 13.725374
58.340 13.858481
58.345 14.133419
58.350 14.784072
58.355 15.003819
58.360 15.256594
58.365 15.777807
58.370 15.909389
58.375 16.064438
58.380 15.768477
58.385 14.439118
58.390 14.00991
58.395 14.074506
58.400 14.169724
58.405 14.417507
58.410 14.198503
58.415 14.501575
58.420 15.445795
58.425 14.963357
58.430 15.065609
58.435 14.848917
58.440 14.416429
58.445 14.619157
58.450 14.602678
58.455 14.54234
58.460 14.819564
58.465 14.741693
58.470 14.703753
58.475 14.61291
58.480 14.390897
58.485 14.357997
58.490 14.223202
58.495 14.936446
58.500 14.975886
58.505 15.069059
58.510 14.929961
58.515 14.714076
58.520 14.878736
58.525 14.776247
58.530 13.763694
58.535 13.413413
58.540 13.332094
58.545 13.803505
58.550 14.598358
58.555 14.689343
58.560 15.157096
58.565 15.652625
58.570 16.179268
58.575 16.238335
58.580 15.910919
58.585 14.971717
58.590 14.526523
58.595 14.46096
58.600 14.307443
58.605 13.816803
58.610 14.011497
58.615 14.071823
58.620 14.776054
58.625 15.269438
58.630 15.800759
58.635 16.0221
58.640 15.731342
58.645 15.566444
58.650 15.725233
58.655 15.593291
58.660 15.799397
58.665 15.621943
58.670 15.794612
58.675 16.100021
58.680 15.549785
58.685 15.49999
58.690 15.554496
58.695 15.470267
58.700 14.952994
58.705 14.767102
58.710 14.666229
58.715 14.933774
58.720 14.858963
58.725 14.747054
58.730 14.652541
58.735 14.604708
58.740 14.703703
58.745 15.250695
58.750 15.584765
58.755 15.765269
58.760 15.511905
58.765 15.615259
58.770 16.134241
58.775 16.105141
58.780 15.901545
58.785 15.548044
58.790 14.943038
58.795 15.111838
58.800 14.820915
58.805 14.844793
58.810 14.905137
58.815 14.748733
58.820 14.594421
58.825 14.814148
58.830 14.24427
58.835 13.902321
58.840 14.30282
58.845 14.216336
58.850 13.996264
58.855 14.516252
58.860 14.934719
58.865 15.521504
58.870 15.748879
58.875 15.896529
58.880 15.935062
58.885 16.1269
58.890 15.989158
58.895 15.751425
58.900 15.695703
58.905 15.403146
58.910 15.002532
58.915 14.386413
58.920 14.36076
58.925 14.172178
58.930 14.265822
58.935 14.340171
58.940 14.169515
58.945 14.286691
58.950 14.870195
58.955 14.865785
58.960 14.637454
58.965 14.339959
58.970 14.220242
58.975 14.501022
58.980 14.52297
58.985 14.398154
58.990 15.082156
58.995 15.33156
59.000 15.166138
59.005 14.930084
59.010 14.578925
59.015 14.459004
59.020 14.287285
59.025 13.792978
59.030 14.060257
59.035 14.131001
59.040 14.79092
59.045 15.6075
59.050 15.327453
59.055 15.655165
59.060 15.305139
59.065 15.972636
59.070 15.794609
59.075 15.37358
59.080 14.955714
59.085 15.201814
59.090 15.353518
59.095 15.484378
59.100 14.608664
59.105 14.630657
59.110 14.389862
59.115 14.459118
59.120 14.667701
59.125 14.63079
59.130 14.912689
59.135 15.466438
59.140 16.097664
59.145 16.538473
59.150 16.337067
59.155 16.49832
59.160 16.475094
59.165 16.781895
59.170 16.494709
59.175 16.198734
59.180 16.004614
59.185 16.267933
59.190 15.965079
59.195 15.582626
59.200 15.112799
59.205 15.054516
59.210 14.427492
59.215 14.437471
59.220 14.413087
59.225 14.256074
59.230 14.169891
59.235 14.366381
59.240 14.433611
59.245 14.650654
59.250 15.061154
59.255 14.823482
59.260 15.032231
59.265 15.561921
59.270 15.628814
59.275 15.934802
59.280 16.021259
59.285 15.933574
59.290 16.694208
59.295 16.897617
59.300 17.011124
59.305 17.160431
59.310 17.023785
59.315 16.942459
59.320 16.639185
59.325 16.471161
59.330 16.79804
59.335 16.283564
59.340 15.839005
59.345 15.67849
59.350 15.987609
59.355 15.726576
59.360 15.55376
59.365 15.155783
59.370 15.189544
59.375 15.880685
59.380 16.306219
59.385 16.261894
59.390 16.777147
59.395 16.822081
59.400 16.720179
59.405 16.941006
59.410 16.293991
59.415 16.575741
59.420 16.516253
59.425 16.052107
59.430 15.648399
59.435 16.07723
59.440 16.39924
59.445 16.584755
59.450 15.974402
59.455 15.623623
59.460 15.611658
59.465 16.07453
59.470 16.075529
59.475 16.293709
59.480 16.349806
59.485 16.73513
59.490 17.203871
59.495 17.274527
59.500 17.206364
59.505 16.736776
59.510 16.188169
59.515 15.786166
59.520 15.4466
59.525 15.236415
59.530 15.184855
59.535 15.330235
59.540 15.749435
59.545 15.919125
59.550 16.096422
59.555 16.282715
59.560 17.0152
59.565 17.171894
59.570 17.101778
59.575 17.133287
59.580 17.377695
59.585 17.244537
59.590 16.978832
59.595 16.709347
59.600 16.473232
59.605 16.147015
59.610 16.317934
59.615 16.16041
59.620 16.587589
59.625 16.773354
59.630 16.673008
59.635 16.823654
59.640 16.671268
59.645 16.204538
59.650 16.278193
59.655 16.081013
59.660 16.140795
59.665 15.611745
59.670 15.165946
59.675 15.138202
59.680 14.848068
59.685 14.600133
59.690 14.923425
59.695 15.535593
59.700 16.409222
59.705 17.191874
59.710 17.439615
59.715 17.773256
59.720 17.99263
59.725 17.989985
59.730 18.319105
59.735 18.237656
59.740 18.5023
59.745 19.099859
59.750 19.089403
59.755 19.029905
59.760 19.292477
59.765 18.627296
59.770 18.450792
59.775 17.928102
59.780 17.188829
59.785 17.277044
59.790 17.452314
59.795 16.828291
59.800 17.550394
59.805 18.290903
59.810 18.696062
59.815 19.3272
59.820 19.383215
59.825 19.208841
59.830 19.519899
59.835 19.1141
59.840 18.589458
59.845 18.673033
59.850 18.446989
59.855 18.125502
59.860 17.898823
59.865 17.505005
59.870 17.733398
59.875 18.180468
59.880 18.794342
59.885 18.694645
59.890 18.921291
59.895 18.885803
59.900 19.175184
59.905 18.59144
59.910 18.020788
59.915 17.661375
59.920 17.998566
59.925 18.375599
59.930 18.448969
59.935 18.165228
59.940 17.95808
59.945 17.872984
59.950 18.035387
59.955 18.016598
59.960 17.614082
59.965 17.643314
59.970 17.687956
59.975 18.098354
59.980 17.813993
59.985 17.149738
59.990 17.337917
59.995 17.365536
60.000 17.519985
60.005 18.220694
60.010 18.934446
60.015 19.478825
60.020 19.671555
60.025 19.770916
60.030 19.970844
60.035 20.158543
60.040 19.842907
60.045 19.458029
60.050 19.241436
60.055 19.218258
60.060 19.219021
60.065 19.4261
60.070 19.415648
60.075 19.703543
60.080 19.701706
60.085 19.837585
60.090 20.4189
60.095 20.197987
60.100 19.854359
60.105 20.123295
60.110 20.061939
60.115 20.033974
60.120 20.124666
60.125 20.077101
60.130 20.209291
60.135 20.877573
60.140 20.580952
60.145 20.522995
60.150 20.070337
60.155 20.374086
60.160 20.578537
60.165 20.439812
60.170 19.524061
60.175 19.016102
60.180 19.149534
60.185 19.983957
60.190 19.767397
60.195 19.702967
60.200 20.000011
60.205 20.975418
60.210 21.347771
60.215 21.661757
60.220 21.226254
60.225 21.28146
60.230 21.546566
60.235 21.815489
60.240 21.47456
60.245 22.034912
60.250 21.819601
60.255 21.560738
60.260 20.889141
60.265 20.283388
60.270 20.234081
60.275 20.261944
60.280 19.863089
60.285 19.433908
60.290 19.705706
60.295 19.881615
60.300 20.075096
60.305 20.170944
60.310 20.313053
60.315 20.28797
60.320 20.815628
60.325 20.873487
60.330 21.231663
60.335 21.670769
60.340 21.364796
60.345 21.421024
60.350 21.415836
60.355 21.320498
60.360 21.660786
60.365 22.113506
60.370 21.823502
60.375 21.904673
60.380 21.899744
60.385 21.889282
60.390 21.805214
60.395 21.858793
60.400 20.888252
60.405 20.873278
60.410 21.188982
60.415 20.829594
60.420 20.247847
60.425 20.038702
60.430 20.2682
60.435 20.590502
60.440 20.299805
60.445 20.025343
60.450 20.40221
60.455 21.199223
60.460 21.273161
60.465 20.568573
60.470 20.956211
60.475 20.786884
60.480 21.123257
60.485 21.128216
60.490 20.744152
60.495 20.970221
60.500 21.423477
60.505 21.189247
60.510 21.110258
60.515 20.800415
60.520 20.368959
60.525 20.442907
60.530 20.436932
60.535 20.145422
60.540 19.841764
60.545 20.021328
60.550 19.831371
60.555 19.858366
60.560 19.678108
60.565 19.60145
60.570 19.270248
60.575 19.34465
60.580 19.387226
60.585 18.941931
60.590 18.730162
60.595 19.26524
60.600 19.40427
60.605 19.708179
60.610 19.538094
60.615 19.817888
60.620 20.649755
60.625 20.21936
60.630 19.771008
60.635 19.575037
60.640 19.664753
60.645 20.077951
60.650 19.892794
60.655 19.123516
60.660 19.514824
60.665 19.69142
60.670 19.970079
60.675 19.864857
60.680 19.35441
60.685 19.816708
60.690 19.715012
60.695 19.472099
60.700 18.87789
60.705 18.807631
60.710 18.571274
60.715 18.625731
60.720 18.304493
60.725 18.520887
60.730 18.938148
60.735 19.311432
60.740 18.87746
60.745 19.220602
60.750 19.289253
60.755 18.849861
60.760 18.903322
60.765 18.972069
60.770 19.554426
60.775 19.635496
60.780 19.82172
60.785 19.832788
60.790 20.763342
60.795 21.213535
60.800 20.699617
60.805 19.529551
60.810 19.445982
60.815 18.914194
60.820 18.880302
60.825 18.895811
60.830 18.370085
60.835 18.123236
60.840 18.342667
60.845 18.303841
60.850 18.828106
60.855 18.248678
60.860 17.239662
60.865 17.519278
60.870 18.440107
60.875 18.675985
60.880 18.709753
60.885 18.558214
60.890 19.275677
60.895 20.052969
60.900 19.685843
60.905 19.238274
60.910 18.424227
60.915 18.873978
60.920 19.396307
60.925 19.290661
60.930 19.151871
60.935 19.159374
60.940 19.393257
60.945 20.005489
60.950 19.108927
60.955 18.332592
60.960 18.443115
60.965 18.522308
60.970 18.483305
60.975 18.672619
60.980 18.714531
60.985 18.70055
60.990 18.544617
60.995 18.117327
61.000 18.17359
61.005 18.190451
61.010 18.508791
61.015 18.367477
61.020 18.455832
61.025 18.327402
61.030 18.686558
61.035 17.973806
61.040 16.909788
61.045 16.042173
61.050 15.826947
61.055 15.186554
61.060 14.802136
61.065 14.603878
61.070 14.97861
61.075 15.267756
61.080 15.420223
61.085 15.58674
61.090 16.127125
61.095 15.926474
61.100 15.473788
61.105 15.785259
61.110 16.612267
61.115 16.540361
61.120 16.767559
61.125 17.678112
61.130 18.694811
61.135 19.459044
61.140 19.764833
61.145 19.928774
61.150 20.274464
61.155 19.97492
61.160 19.591839
61.165 19.325483
61.170 19.31052
61.175 19.151136
61.180 18.382208
61.185 18.428982
61.190 18.183323
61.195 17.900265
61.200 17.892103
61.205 17.687971
61.210 17.433958
61.215 17.289339
61.220 16.860699
61.225 16.856936
61.230 16.90749
61.235 16.495132
61.240 16.054224
61.245 16.669874
61.250 17.707733
61.255 18.181442
61.260 18.650936
61.265 19.030329
61.270 19.367979
61.275 19.556581
61.280 19.420675
61.285 18.882614
61.290 18.589565
61.295 18.16827
61.300 17.461649
61.305 17.563187
61.310 17.762413
61.315 17.624374
61.320 18.002048
61.325 18.101929
61.330 17.734571
61.335 17.512754
61.340 17.021521
61.345 16.507462
61.350 16.817818
61.355 16.463175
61.360 16.705437
61.365 17.151522
61.370 17.018852
61.375 17.618376
61.380 17.255508
61.385 16.464624
61.390 16.119024
61.395 15.60422
61.400 15.693465
61.405 15.044894
61.410 14.724806
61.415 14.7689
61.420 14.906306
61.425 15.316401
61.430 15.418141
61.435 15.034729
61.440 15.712475
61.445 15.591785
61.450 16.19508
61.455 16.336851
61.460 16.344858
61.465 16.298037
61.470 16.81028
61.475 17.349892
61.480 17.104328
61.485 16.328245
61.490 16.164988
61.495 15.922239
61.500 16.03887
61.505 16.009556
61.510 15.746346
61.515 16.39106
61.520 17.288816
61.525 17.499235
61.530 18.080267
61.535 18.146093
61.540 18.310198
61.545 18.088243
61.550 18.061232
61.555 17.777884
61.560 17.537651
61.565 16.912355
61.570 17.07164
61.575 17.007387
61.580 16.995945
61.585 16.568935
61.590 16.747334
61.595 17.486525
61.600 17.710604
61.605 17.418234
61.610 16.803516
61.615 16.284908
61.620 16.434055
61.625 16.039787
61.630 15.951569
61.635 15.809474
61.640 16.244225
61.645 16.376043
61.650 17.007626
61.655 16.779501
61.660 16.813042
61.665 16.13446
61.670 15.941782
61.675 15.492043
61.680 15.468253
61.685 15.460739
61.690 15.191628
61.695 15.159698
61.700 15.166177
61.705 15.345591
61.710 15.652487
61.715 15.509399
61.720 15.287947
61.725 15.553843
61.730 16.259989
61.735 16.83666
61.740 16.719673
61.745 16.90135
61.750 17.272732
61.755 17.044565
61.760 16.748207
61.765 15.94126
61.770 15.746373
61.775 15.621916
61.780 15.717995
61.785 16.071983
61.790 16.449448
61.795 16.351992
61.800 16.516258
61.805 16.145071
61.810 16.170193
61.815 15.856588
61.820 15.914145
61.825 15.983114
61.830 16.216152
61.835 16.274126
61.840 16.463211
61.845 16.185392
61.850 16.297892
61.855 16.079739
61.860 16.165367
61.865 16.558502
61.870 16.755049
61.875 17.396627
61.880 18.275703
61.885 18.425325
61.890 18.300459
61.895 18.656511
61.900 18.245476
61.905 17.980814
61.910 17.325394
61.915 16.327751
61.920 15.902298
61.925 16.329912
61.930 15.743541
61.935 16.413275
61.940 16.323046
61.945 16.716522
61.950 16.574354
61.955 16.669146
61.960 16.815786
61.965 16.905352
61.970 16.125116
61.975 16.499708
61.980 16.406424
61.985 16.812551
61.990 16.859333
61.995 16.454748
62.000 16.835405
62.005 16.739706
62.010 16.19035
62.015 16.003117
62.020 15.789141
62.025 15.413918
62.030 15.433331
62.035 15.316894
62.040 15.847013
62.045 16.274334
62.050 16.592491
62.055 16.328905
62.060 16.614029
62.065 17.080904
62.070 17.414366
62.075 17.447943
62.080 17.137371
62.085 16.728794
62.090 16.984154
62.095 17.064486
62.100 15.917072
62.105 15.583211
62.110 15.497881
62.115 15.332204
62.120 15.430684
62.125 15.405589
62.130 15.527461
62.135 16.026617
62.140 15.443324
62.145 15.299343
62.150 15.551007
62.155 15.668667
62.160 15.768727
62.165 15.592124
62.170 16.051971
62.175 17.184189
62.180 17.377386
62.185 17.826254
62.190 17.752323
62.195 17.840775
62.200 17.849365
62.205 17.45495
62.210 16.91921
62.215 17.002768
62.220 16.518839
62.225 16.843422
62.230 16.942364
62.235 16.74979
62.240 16.175901
62.245 16.390316
62.250 16.270975
62.255 16.217295
62.260 15.664626
62.265 15.418657
62.270 15.099797
62.275 15.083282
62.280 14.801979
62.285 14.598254
62.290 14.652587
62.295 14.570767
62.300 14.763852
62.305 15.488273
62.310 16.367783
62.315 16.636696
62.320 16.781796
62.325 17.096415
62.330 17.939936
62.335 17.953098
62.340 17.118044
62.345 16.444849
62.350 16.015867
62.355 15.809044
62.360 15.845871
62.365 15.340196
62.370 15.116944
62.375 15.402678
62.380 15.5731
62.385 15.509261
62.390 15.878461
62.395 15.934777
62.400 16.549171
62.405 17.067211
62.410 17.65221
62.415 18.101238
62.420 18.403912
62.425 18.334663
62.430 17.815145
62.435 17.286983
62.440 16.998554
62.445 16.528189
62.450 16.229025
62.455 16.040146
62.460 15.914312
62.465 15.926001
62.470 16.04562
62.475 16.392208
62.480 17.075375
62.485 17.212387
62.490 17.392885
62.495 18.008114
62.500 18.735168
62.505 18.705454
62.510 18.214685
62.515 17.428286
62.520 17.091211
62.525 16.644411
62.530 16.38192
62.535 15.983623
62.540 16.14369
62.545 16.282114
62.550 16.403425
62.555 16.678728
62.560 16.440313
62.565 15.82601
62.570 15.851344
62.575 15.646894
62.580 15.105118
62.585 15.228542
62.590 15.115353
62.595 15.2671
62.600 15.87641
62.605 16.216297
62.610 16.452953
62.615 16.764484
62.620 16.402763
62.625 16.453045
62.630 16.609779
62.635 16.271448
62.640 15.698994
62.645 16.17351
62.650 16.114412
62.655 16.498665
62.660 16.693172
62.665 16.630173
62.670 16.510118
62.675 16.557817
62.680 15.875854
62.685 15.888564
62.690 16.051388
62.695 16.883593
62.700 16.656898
62.705 16.750051
62.710 16.895599
62.715 17.012331
62.720 17.402683
62.725 16.703617
62.730 15.883079
62.735 16.089699
62.740 15.852684
62.745 15.965332
62.750 16.387465
62.755 16.142029
62.760 16.144732
62.765 15.980521
62.770 15.863595
62.775 16.240374
62.780 16.027185
62.785 15.993211
62.790 16.561262
62.795 16.94619
62.800 17.841969
62.805 18.234119
62.810 18.222326
62.815 18.260605
62.820 17.862284
62.825 17.363852
62.830 17.166481
62.835 16.914907
62.840 17.567251
62.845 17.579384
62.850 17.316639
62.855 17.433905
62.860 17.515301
62.865 17.623169
62.870 16.952454
62.875 16.412186
62.880 16.142668
62.885 16.602083
62.890 16.562639
62.895 16.868025
62.900 17.310326
62.905 17.610903
62.910 17.323397
62.915 17.818436
62.920 17.618935
62.925 17.270969
62.930 16.706619
62.935 16.165764
62.940 16.122976
62.945 16.239857
62.950 16.580324
62.955 16.827221
62.960 17.362265
62.965 17.355328
62.970 17.529623
62.975 17.347399
62.980 17.457825
62.985 16.472549
62.990 16.410395
62.995 16.97558
63.000 17.222134
63.005 17.204092
63.010 17.171272
63.015 16.614508
63.020 16.761292
63.025 16.339327
63.030 16.045179
63.035 15.622277
63.040 15.324471
63.045 15.34806
63.050 15.848322
63.055 16.341806
63.060 17.078552
63.065 17.004271
63.070 17.084097
63.075 17.371508
63.080 17.252607
63.085 16.60589
63.090 16.296766
63.095 15.852136
63.100 15.436195
63.105 15.658966
63.110 15.686797
63.115 16.066811
63.120 16.496605
63.125 16.62738
63.130 16.71806
63.135 16.975348
63.140 17.442862
63.145 17.436127
63.150 17.577082
63.155 18.163198
63.160 18.562826
63.165 18.777826
63.170 19.034958
63.175 19.222309
63.180 19.341774
63.185 19.049246
63.190 18.285963
63.195 17.239374
63.200 17.589039
63.205 17.366619
63.210 17.073076
63.215 17.20203
63.220 17.390022
63.225 17.904339
63.230 18.197697
63.235 17.530462
63.240 17.110636
63.245 17.112143
63.250 16.672508
63.255 16.285828
63.260 16.060307
63.265 16.108353
63.270 15.834391
63.275 16.061207
63.280 15.884385
63.285 15.870851
63.290 16.081749
63.295 15.748192
63.300 16.064507
63.305 16.52771
63.310 16.625734
63.315 16.312912
63.320 16.223478
63.325 16.593397
63.330 17.338089
63.335 17.315134
63.340 16.758768
63.345 16.568193
63.350 17.218773
63.355 17.614021
63.360 16.845743
63.365 16.389744
63.370 16.633837
63.375 17.318291
63.380 17.96072
63.385 17.64908
63.390 17.71862
63.395 18.260588
63.400 18.224888
63.405 18.241785
63.410 18.205996
63.415 17.745501
63.420 17.434748
63.425 17.313108
63.430 17.314898
63.435 17.183882
63.440 17.254206
63.445 17.161625
63.450 17.596132
63.455 18.040297
63.460 18.267517
63.465 18.161034
63.470 18.493486
63.475 18.667562
63.480 18.361898
63.485 18.69849
63.490 19.247417
63.495 18.82412
63.500 18.952236
63.505 18.750858
63.510 18.702919
63.515 18.666134
63.520 17.636993
63.525 16.610222
63.530 17.038273
63.535 17.173008
63.540 16.778595
63.545 16.442972
63.550 16.590876
63.555 16.590025
63.560 16.4823
63.565 15.85505
63.570 15.533699
63.575 15.804913
63.580 15.712355
63.585 15.927213
63.590 16.699366
63.595 17.683701
63.600 18.007999
63.605 18.452715
63.610 18.072647
63.615 17.677219
63.620 17.82313
63.625 17.973351
63.630 17.360685
63.635 17.395433
63.640 17.269361
63.645 18.018358
63.650 18.609896
63.655 18.128185
63.660 17.562496
63.665 17.763517
63.670 17.663784
63.675 18.150284
63.680 18.121756
63.685 18.273039
63.690 18.513069
63.695 18.475878
63.700 18.166637
63.705 17.492702
63.710 16.703981
63.715 16.851967
63.720 16.229542
63.725 15.56281
63.730 15.728782
63.735 15.504333
63.740 16.188089
63.745 16.049355
63.750 15.799757
63.755 16.450394
63.760 17.186686
63.765 16.936735
63.770 17.505737
63.775 17.653816
63.780 17.716965
63.785 17.737064
63.790 17.485453
63.795 17.646955
63.800 18.147919
63.805 17.957319
63.810 17.551577
63.815 17.638617
63.820 17.461681
63.825 17.235754
63.830 16.588888
63.835 16.46788
63.840 16.898184
63.845 17.668406
63.850 17.954428
63.855 17.449982
63.860 17.415489
63.865 17.678513
63.870 17.306602
63.875 16.645992
63.880 16.610971
63.885 16.742193
63.890 17.126965
63.895 17.282066
63.900 17.56011
63.905 17.613701
63.910 17.113424
63.915 16.531086
63.920 16.145805
63.925 16.108801
63.930 15.91582
63.935 15.896307
63.940 16.035599
63.945 16.595613
63.950 16.77301
63.955 17.230844
63.960 17.580814
63.965 18.056826
63.970 18.075111
63.975 18.324327
63.980 18.932228
63.985 18.704929
63.990 18.662802
63.995 19.048038
64.000 18.780689
64.005 18.611349
64.010 18.929201
64.015 19.058073
64.020 19.611547
64.025 19.653786
64.030 19.603794
64.035 19.906252
64.040 20.129488
64.045 19.412561
64.050 18.579758
64.055 18.131853
64.060 17.844782
64.065 17.73999
64.070 17.331463
64.075 16.754045
64.080 16.332369
64.085 16.256241
64.090 16.245554
64.095 16.557013
64.100 16.237368
64.105 16.233866
64.110 16.159014
64.115 16.476814
64.120 17.144991
64.125 17.211863
64.130 17.264374
64.135 17.682131
64.140 17.948114
64.145 18.415876
64.150 18.363512
64.155 18.172052
64.160 18.68766
64.165 18.833185
64.170 18.805954
64.175 18.492786
64.180 18.498621
64.185 18.780563
64.190 17.991184
64.195 17.469778
64.200 16.907982
64.205 16.697964
64.210 17.188717
64.215 17.034468
64.220 17.234604
64.225 17.494781
64.230 17.585222
64.235 17.997549
64.240 18.038275
64.245 17.857178
64.250 17.911003
64.255 17.977545
64.260 18.770864
64.265 18.747311
64.270 18.29476
64.275 17.84078
64.280 17.491165
64.285 17.729382
64.290 17.792921
64.295 17.287388
64.300 17.509953
64.305 17.761072
64.310 18.030945
64.315 18.413797
64.320 17.836557
64.325 17.589512
64.330 17.576845
64.335 17.068453
64.340 16.640162
64.345 16.650427
64.350 16.557232
64.355 17.028538
64.360 18.007858
64.365 18.083216
64.370 18.608755
64.375 19.34572
64.380 19.857954
64.385 20.093504
64.390 19.400108
64.395 18.496862
64.400 18.615604
64.405 18.715843
64.410 19.068249
64.415 18.778969
64.420 18.608736
64.425 18.778299
64.430 18.84857
64.435 18.653025
64.440 18.673246
64.445 18.190042
64.450 18.240097
64.455 18.806545
64.460 19.21369
64.465 19.447092
64.470 19.157198
64.475 18.458813
64.480 18.128447
64.485 18.004519
64.490 17.964008
64.495 18.217062
64.500 18.810986
64.505 19.616041
64.510 20.231979
64.515 20.264357
64.520 20.514198
64.525 20.292246
64.530 20.34185
64.535 19.822716
64.540 19.758184
64.545 19.680723
64.550 19.999352
64.555 19.781975
64.560 19.151796
64.565 18.490108
64.570 18.618549
64.575 18.224117
64.580 18.039721
64.585 17.769691
64.590 18.158007
64.595 19.03981
64.600 19.57729
64.605 19.722624
64.610 19.672338
64.615 20.035591
64.620 20.164089
64.625 19.722612
64.630 19.306162
64.635 18.497887
64.640 18.003006
64.645 18.09967
64.650 17.777996
64.655 17.721354
64.660 17.934046
64.665 18.930365
64.670 19.430706
64.675 19.73868
64.680 19.68668
64.685 20.022812
64.690 20.135458
64.695 19.917368
64.700 19.242533
64.705 19.190716
64.710 19.140951
64.715 19.14127
64.720 18.950775
64.725 18.89724
64.730 18.893585
64.735 18.400896
64.740 18.990316
64.745 19.388975
64.750 19.263802
64.755 19.403389
64.760 20.274612
64.765 20.769014
64.770 21.089098
64.775 19.939667
64.780 19.418255
64.785 19.337788
64.790 19.277853
64.795 18.615076
64.800 18.713087
64.805 19.293169
64.810 19.917475
64.815 19.816042
64.820 19.926231
64.825 20.044823
64.830 19.875023
64.835 19.911341
64.840 19.439703
64.845 19.346716
64.850 20.118338
64.855 20.029633
64.860 20.163218
64.865 20.336563
64.870 19.889362
64.875 19.61302
64.880 19.494251
64.885 19.084381
64.890 19.43918
64.895 18.881927
64.900 18.514114
64.905 18.367815
64.910 18.053431
64.915 17.53091
64.920 17.340645
64.925 17.367411
64.930 17.951206
64.935 18.294806
64.940 18.892088
64.945 19.573633
64.950 20.1877
64.955 19.966078
64.960 19.280428
64.965 19.005674
64.970 18.875729
64.975 18.411268
64.980 18.055944
64.985 18.639589
64.990 19.506567
64.995 19.964626
65.000 20.752571
65.005 21.094521
65.010 21.40745
65.015 21.809624
65.020 21.932919
65.025 22.126535
65.030 22.524895
65.035 21.902319
65.040 21.969128
65.045 22.215086
65.050 22.340706
65.055 22.04776
65.060 21.837667
65.065 21.30912
65.070 21.349264
65.075 21.295372
65.080 21.162979
65.085 21.253107
65.090 20.802868
65.095 20.78327
65.100 21.965796
65.105 22.24544
65.110 22.343288
65.115 22.349958
65.120 22.104336
65.125 22.403404
65.130 22.889093
65.135 22.411701
65.140 21.885208
65.145 21.846148
65.150 21.673584
65.155 21.928234
65.160 21.902344
65.165 21.08774
65.170 21.304829
65.175 21.206417
65.180 21.176483
65.185 21.462143
65.190 20.878332
65.195 20.602839
65.200 20.552912
65.205 20.535028
65.210 21.165668
65.215 21.189493
65.220 21.216473
65.225 21.342981
65.230 21.606251
65.235 21.851868
65.240 21.88426
65.245 21.530199
65.250 21.363678
65.255 20.716381
65.260 21.01848
65.265 21.202635
65.270 21.598343
65.275 21.670593
65.280 21.648346
65.285 21.771217
65.290 22.393047
65.295 22.352165
65.300 22.324854
65.305 21.850819
65.310 22.116846
65.315 22.302113
65.320 22.510294
65.325 22.487263
65.330 22.134556
65.335 22.020639
65.340 21.831213
65.345 21.427408
65.350 21.242615
65.355 20.747202
65.360 20.637606
65.365 21.048195
65.370 21.112923
65.375 21.630531
65.380 22.155787
65.385 22.705393
65.390 23.516121
65.395 24.116661
65.400 24.513905
65.405 24.775059
65.410 24.912859
65.415 24.978018
65.420 24.827896
65.425 24.733812
65.430 24.086056
65.435 23.724232
65.440 23.694479
65.445 23.356342
65.450 23.223118
65.455 23.778748
65.460 24.036732
65.465 24.175594
65.470 24.390327
65.475 24.431505
65.480 24.663927
65.485 24.781387
65.490 24.295511
65.495 24.130924
65.500 24.49332
65.505 24.467545
65.510 24.637936
65.515 25.331528
65.520 25.414408
65.525 26.028553
65.530 25.786123
65.535 26.071684
65.540 26.826963
65.545 27.12183
65.550 27.305601
65.555 27.77107
65.560 27.963362
65.565 28.014456
65.570 28.050886
65.575 28.199095
65.580 28.213097
65.585 27.209604
65.590 26.619282
65.595 26.515806
65.600 27.381186
65.605 27.941542
65.610 28.532633
65.615 29.482767
65.620 29.873812
65.625 30.485167
65.630 31.047356
65.635 30.727068
65.640 30.388468
65.645 29.863768
65.650 29.923326
65.655 30.675617
65.660 30.835463
65.665 31.220919
65.670 31.620846
65.675 31.552464
65.680 31.592136
65.685 31.965038
65.690 31.631836
65.695 31.53257
65.700 31.577126
65.705 31.77284
65.710 31.50889
65.715 31.517698
65.720 31.29924
65.725 31.933111
65.730 32.648033
65.735 32.9823
65.740 32.572891
65.745 33.357033
65.750 33.990185
65.755 34.244213
65.760 34.836605
65.765 34.246346
65.770 34.137421
65.775 35.438442
65.780 35.843414
65.785 36.246952
65.790 36.578156
65.795 36.032997
65.800 35.734116
65.805 35.901417
65.810 34.900764
65.815 34.693409
65.820 34.84005
65.825 34.996387
65.830 36.354313
65.835 37.405945
65.840 37.695129
65.845 38.78828
65.850 38.539829
65.855 38.134193
65.860 37.60817
65.865 36.650928
65.870 35.947483
65.875 35.652222
65.880 36.254421
65.885 36.324982
65.890 36.646332
65.895 37.022659
65.900 37.758389
65.905 38.145481
65.910 38.702572
65.915 38.247425
65.920 37.924248
65.925 37.068863
65.930 36.702919
65.935 36.77198
65.940 36.131207
65.945 35.795776
65.950 36.175148
65.955 36.891624
65.960 37.599064
65.965 37.530338
65.970 38.177586
65.975 38.824547
65.980 38.792068
65.985 39.200897
65.990 40.195477
65.995 40.275982
66.000 39.615231
66.005 39.157581
66.010 38.863743
66.015 38.174824
66.020 37.266281
66.025 36.906628
66.030 36.721649
66.035 36.918041
66.040 36.375
66.045 36.060471
66.050 36.371017
66.055 35.82217
66.060 35.552452
66.065 35.7911
66.070 35.791203
66.075 35.700722
66.080 35.577297
66.085 34.984398
66.090 34.434929
66.095 33.90942
66.100 34.23233
66.105 34.256374
66.110 34.945194
66.115 35.431782
66.120 36.217175
66.125 36.485962
66.130 36.255051
66.135 35.869289
66.140 35.520493
66.145 35.099308
66.150 35.061699
66.155 34.570915
66.160 34.517944
66.165 34.688095
66.170 34.689224
66.175 34.891037
66.180 34.841259
66.185 34.414215
66.190 34.235867
66.195 34.346935
66.200 34.18354
66.205 33.708199
66.210 33.14423
66.215 32.792095
66.220 32.821701
66.225 32.640331
66.230 32.239353
66.235 31.935392
66.240 31.92119
66.245 32.872272
66.250 32.795536
66.255 32.526237
66.260 32.858257
66.265 33.402653
66.270 33.54567
66.275 33.127274
66.280 32.474361
66.285 32.362041
66.290 32.509544
66.295 32.543755
66.300 31.438622
66.305 31.00238
66.310 31.200336
66.315 31.444906
66.320 32.456665
66.325 32.068829
66.330 31.661827
66.335 32.195255
66.340 32.149902
66.345 31.644339
66.350 31.269394
66.355 30.283909
66.360 30.070263
66.365 30.2983
66.370 30.562519
66.375 30.655727
66.380 30.855215
66.385 30.940788
66.390 31.814543
66.395 31.817999
66.400 31.512087
66.405 30.683102
66.410 30.536472
66.415 29.686073
66.420 28.783375
66.425 27.319685
66.430 26.984335
66.435 27.386608
66.440 27.433905
66.445 27.059652
66.450 27.46983
66.455 27.216248
66.460 27.577509
66.465 27.606209
66.470 27.657473
66.475 27.360939
66.480 26.841089
66.485 26.985601
66.490 27.632414
66.495 27.74131
66.500 28.089012
66.505 27.79911
66.510 27.835747
66.515 28.336786
66.520 28.08901
66.525 27.85898
66.530 28.068233
66.535 27.578491
66.540 28.171213
66.545 28.394901
66.550 28.122524
66.555 28.615587
66.560 28.848732
66.565 28.320026
66.570 28.603672
66.575 28.174606
66.580 28.209997
66.585 27.734606
66.590 27.967289
66.595 27.998358
66.600 28.32548
66.605 28.217766
66.610 28.372917
66.615 28.123861
66.620 27.709059
66.625 27.643446
66.630 27.791777
66.635 28.025732
66.640 27.521517
66.645 27.21105
66.650 27.548941
66.655 27.489136
66.660 26.667917
66.665 25.994289
66.670 25.445894
66.675 25.903738
66.680 26.174458
66.685 25.735092
66.690 25.874762
66.695 25.512178
66.700 25.36038
66.705 25.370319
66.710 25.050039
66.715 24.607891
66.720 24.880255
66.725 24.801767
66.730 24.370148
66.735 24.102844
66.740 23.656881
66.745 23.373421
66.750 23.619476
66.755 23.43569
66.760 23.209789
66.765 23.334352
66.770 23.848614
66.775 24.688822
66.780 24.166533
66.785 24.21945
66.790 24.357046
66.795 25.136271
66.800 25.596235
66.805 24.864185
66.810 24.116831
66.815 24.310127
66.820 24.246069
66.825 24.03977
66.830 23.31831
66.835 23.110884
66.840 23.15749
66.845 23.120489
66.850 22.34384
66.855 22.043089
66.860 21.776243
66.865 21.312244
66.870 20.379324
66.875 20.280762
66.880 20.412254
66.885 20.820271
66.890 20.146172
66.895 20.124472
66.900 21.12348
66.905 21.631641
66.910 21.889242
66.915 21.955898
66.920 22.310474
66.925 22.445419
66.930 22.099358
66.935 22.168526
66.940 22.734777
66.945 22.77738
66.950 22.803663
66.955 22.973972
66.960 23.576836
66.965 23.853733
66.970 24.095085
66.975 24.249561
66.980 23.953289
66.985 23.945761
66.990 23.849426
66.995 24.491432
67.000 24.850962
67.005 24.422796
67.010 23.682627
67.015 23.598732
67.020 23.48908
67.025 23.507267
67.030 23.088364
67.035 23.738531
67.040 24.501604
67.045 24.667322
67.050 24.8412
67.055 24.704594
67.060 24.548992
67.065 24.54895
67.070 23.325399
67.075 22.676392
67.080 22.156788
67.085 21.301228
67.090 20.739202
67.095 20.596764
67.100 20.351044
67.105 20.293985
67.110 20.019207
67.115 20.823944
67.120 21.957569
67.125 22.619091
67.130 22.578531
67.135 22.376263
67.140 21.77413
67.145 21.738794
67.150 21.609831
67.155 21.281239
67.160 21.367788
67.165 21.290001
67.170 21.40325
67.175 21.946609
67.180 22.443563
67.185 22.207148
67.190 21.981441
67.195 21.796616
67.200 21.853331
67.205 22.105591
67.210 21.993774
67.215 21.681561
67.220 21.713354
67.225 21.953659
67.230 21.630369
67.235 21.282
67.240 21.495523
67.245 21.283373
67.250 20.968616
67.255 21.23032
67.260 21.483406
67.265 21.453506
67.270 21.091047
67.275 20.882496
67.280 21.091644
67.285 21.371227
67.290 21.113403
67.295 21.119907
67.300 21.496372
67.305 21.934391
67.310 21.786589
67.315 21.835829
67.320 21.658888
67.325 22.095186
67.330 22.331938
67.335 22.811111
67.340 22.954573
67.345 22.806807
67.350 22.700775
67.355 22.620586
67.360 22.32818
67.365 21.571211
67.370 20.682369
67.375 21.105568
67.380 22.31889
67.385 22.331533
67.390 22.999887
67.395 23.037445
67.400 23.156528
67.405 23.397581
67.410 22.654877
67.415 21.099693
67.420 21.113277
67.425 20.781775
67.430 20.570196
67.435 21.00544
67.440 21.053511
67.445 21.363886
67.450 21.628113
67.455 21.446407
67.460 20.97205
67.465 20.638308
67.470 19.935398
67.475 19.585339
67.480 19.30175
67.485 20.025072
67.490 20.399792
67.495 20.80232
67.500 21.841194
67.505 22.187157
67.510 22.407051
67.515 22.936888
67.520 23.115904
67.525 23.446491
67.530 23.250959
67.535 23.768387
67.540 23.990643
67.545 24.037846
67.550 23.949389
67.555 23.509552
67.560 22.935993
67.565 23.233368
67.570 22.527771
67.575 21.916487
67.580 21.843819
67.585 21.443707
67.590 21.329014
67.595 21.642643
67.600 21.335653
67.605 21.194258
67.610 21.633406
67.615 21.338558
67.620 21.348537
67.625 21.003984
67.630 20.551405
67.635 20.081907
67.640 20.305885
67.645 20.669516
67.650 21.102201
67.655 21.90937
67.660 22.080847
67.665 22.260349
67.670 22.4496
67.675 22.37591
67.680 22.301292
67.685 22.673061
67.690 21.784309
67.695 21.245541
67.700 21.512407
67.705 21.468071
67.710 21.01564
67.715 20.653646
67.720 20.509867
67.725 20.772707
67.730 20.875952
67.735 21.093664
67.740 21.10714
67.745 21.64687
67.750 22.066837
67.755 22.002914
67.760 22.053125
67.765 22.321795
67.770 22.251965
67.775 22.382572
67.780 22.121641
67.785 21.343264
67.790 21.173672
67.795 20.849035
67.800 21.185984
67.805 20.995222
67.810 20.973597
67.815 21.017157
67.820 20.825857
67.825 20.422243
67.830 20.355602
67.835 19.985718
67.840 19.515591
67.845 19.093582
67.850 18.640175
67.855 18.832491
67.860 19.350462
67.865 19.552801
67.870 19.68475
67.875 19.937866
67.880 19.98942
67.885 20.333836
67.890 20.408808
67.895 20.640337
67.900 20.657692
67.905 21.056829
67.910 21.012341
67.915 20.783527
67.920 20.481276
67.925 20.30512
67.930 19.686361
67.935 19.187737
67.940 18.640965
67.945 18.431223
67.950 18.270597
67.955 18.735418
67.960 19.105015
67.965 19.669567
67.970 19.830482
67.975 19.879728
67.980 20.851255
67.985 21.271378
67.990 20.944998
67.995 20.79624
68.000 20.550665
68.005 20.434795
68.010 20.65786
68.015 20.078674
68.020 19.792799
68.025 19.593029
68.030 19.221033
68.035 19.231266
68.040 19.241285
68.045 18.677532
68.050 18.559961
68.055 19.142183
68.060 19.425112
68.065 20.024353
68.070 20.081781
68.075 19.84429
68.080 20.374592
68.085 20.914316
68.090 20.85334
68.095 20.764194
68.100 20.316986
68.105 20.594929
68.110 21.827436
68.115 21.429882
68.120 20.931591
68.125 21.130203
68.130 21.109749
68.135 21.042934
68.140 20.159548
68.145 19.235001
68.150 19.404341
68.155 19.583652
68.160 19.965479
68.165 20.242855
68.170 20.764225
68.175 20.979092
68.180 20.97543
68.185 21.105892
68.190 21.37825
68.195 21.14509
68.200 21.112619
68.205 21.175955
68.210 21.39488
68.215 20.815142
68.220 20.656364
68.225 20.034338
68.230 20.14822
68.235 20.204447
68.240 19.95373
68.245 19.710274
68.250 20.726902
68.255 20.661039
68.260 21.132368
68.265 21.066795
68.270 21.188972
68.275 21.381933
68.280 22.14432
68.285 21.513285
68.290 21.278389
68.295 20.38954
68.300 19.769915
68.305 19.575495
68.310 19.619648
68.315 19.19911
68.320 19.914349
68.325 20.026609
68.330 20.460308
68.335 20.614422
68.340 20.315979
68.345 19.75853
68.350 20.424679
68.355 20.315672
68.360 20.125175
68.365 19.75168
68.370 19.83753
68.375 20.147577
68.380 20.433281
68.385 19.459219
68.390 19.025629
68.395 19.271347
68.400 19.785503
68.405 19.961136
68.410 19.99843
68.415 20.611794
68.420 20.968761
68.425 20.861509
68.430 20.880032
68.435 20.42762
68.440 20.388584
68.445 20.225035
68.450 19.742729
68.455 19.765564
68.460 20.016872
68.465 20.491331
68.470 20.872236
68.475 21.590858
68.480 21.809807
68.485 21.053289
68.490 20.689207
68.495 20.669907
68.500 19.995829
68.505 20.111082
68.510 19.668655
68.515 19.361521
68.520 20.081827
68.525 19.988436
68.530 20.568514
68.535 21.31477
68.540 21.339977
68.545 21.144691
68.550 21.71245
68.555 22.435751
68.560 22.893768
68.565 22.244844
68.570 22.259918
68.575 22.801836
68.580 22.982498
68.585 22.431543
68.590 21.813295
68.595 21.753305
68.600 21.990902
68.605 21.404947
68.610 20.516178
68.615 20.447008
68.620 21.025948
68.625 20.974239
68.630 21.008841
68.635 20.926184
68.640 20.876808
68.645 21.292461
68.650 21.723709
68.655 21.45471
68.660 21.730501
68.665 21.932747
68.670 22.109846
68.675 22.584894
68.680 22.225876
68.685 22.180454
68.690 22.29752
68.695 22.4471
68.700 22.0755
68.705 21.498112
68.710 21.067535
68.715 21.312212
68.720 21.245316
68.725 21.34033
68.730 21.724829
68.735 22.507963
68.740 23.096611
68.745 23.607191
68.750 22.895174
68.755 22.437973
68.760 22.459698
68.765 21.892942
68.770 21.542526
68.775 21.468124
68.780 21.342896
68.785 21.427534
68.790 21.985312
68.795 21.761913
68.800 22.725725
68.805 23.387869
68.810 23.299061
68.815 23.457144
68.820 23.412716
68.825 22.940855
68.830 22.53368
68.835 21.69371
68.840 20.077147
68.845 20.10854
68.850 20.305359
68.855 20.515894
68.860 21.541178
68.865 21.969458
68.870 21.709394
68.875 21.968874
68.880 21.998569
68.885 21.834335
68.890 22.030592
68.895 21.788622
68.900 21.940176
68.905 22.515747
68.910 22.863894
68.915 22.972994
68.920 22.717913
68.925 22.398726
68.930 22.270035
68.935 21.963562
68.940 21.804968
68.945 21.763521
68.950 21.831051
68.955 21.946497
68.960 21.363358
68.965 20.879818
68.970 21.39616
68.975 22.022203
68.980 22.11446
68.985 22.271814
68.990 22.601921
68.995 23.301079
69.000 23.830845
69.005 23.956997
69.010 23.461443
69.015 23.261389
69.020 23.319607
69.025 23.641552
69.030 24.082474
69.035 23.826399
69.040 24.00119
69.045 24.319454
69.050 25.41032
69.055 25.287222
69.060 25.074209
69.065 24.82469
69.070 24.708063
69.075 24.209137
69.080 24.228479
69.085 24.127283
69.090 24.478209
69.095 24.096462
69.100 24.05802
69.105 24.348921
69.110 24.760284
69.115 24.391804
69.120 24.375074
69.125 24.64382
69.130 25.251114
69.135 25.363762
69.140 25.840054
69.145 26.611387
69.150 26.775352
69.155 26.773893
69.160 26.556726
69.165 25.94549
69.170 25.617367
69.175 24.567379
69.180 24.365419
69.185 24.544426
69.190 24.5156
69.195 24.919174
69.200 25.978252
69.205 26.814842
69.210 27.297752
69.215 27.35811
69.220 27.34556
69.225 27.459291
69.230 27.141697
69.235 26.466368
69.240 25.959204
69.245 25.99539
69.250 25.099823
69.255 24.962912
69.260 24.981298
69.265 25.32131
69.270 25.769194
69.275 25.991735
69.280 26.06171
69.285 26.589891
69.290 27.173317
69.295 27.221478
69.300 27.071342
69.305 27.178839
69.310 27.333832
69.315 26.632999
69.320 26.931349
69.325 26.148485
69.330 25.691374
69.335 25.912853
69.340 25.560532
69.345 26.561556
69.350 27.295496
69.355 27.322332
69.360 27.24472
69.365 27.584583
69.370 27.34885
69.375 27.295082
69.380 25.981503
69.385 26.196651
69.390 26.486877
69.395 27.268583
69.400 27.471348
69.405 27.623873
69.410 27.391985
69.415 27.734486
69.420 27.760201
69.425 27.947264
69.430 27.854334
69.435 27.89818
69.440 28.130726
69.445 29.240665
69.450 29.420004
69.455 29.190643
69.460 28.538662
69.465 28.163857
69.470 27.925415
69.475 27.818455
69.480 27.974316
69.485 28.397833
69.490 28.285109
69.495 28.19047
69.500 27.823154
69.505 27.964911
69.510 27.798855
69.515 27.547405
69.520 27.636698
69.525 27.464384
69.530 27.669218
69.535 27.690144
69.540 27.47299
69.545 27.601383
69.550 26.912701
69.555 26.976238
69.560 28.266584
69.565 28.894146
69.570 29.400627
69.575 29.456644
69.580 29.427729
69.585 29.741226
69.590 29.775309
69.595 28.716558
69.600 28.460135
69.605 27.756414
69.610 27.283905
69.615 27.493038
69.620 26.889286
69.625 26.354908
69.630 26.801163
69.635 27.452181
69.640 28.28846
69.645 28.748775
69.650 29.147053
69.655 29.356655
69.660 29.575939
69.665 29.165329
69.670 28.336323
69.675 28.28023
69.680 27.582945
69.685 27.053951
69.690 27.628519
69.695 26.650566
69.700 26.380312
69.705 27.11401
69.710 26.388037
69.715 25.993099
69.720 25.606428
69.725 25.232609
69.730 25.706264
69.735 26.123325
69.740 26.310902
69.745 26.622202
69.750 26.724707
69.755 27.217569
69.760 27.755203
69.765 27.923794
69.770 27.081942
69.775 26.383535
69.780 26.795853
69.785 26.905104
69.790 26.526188
69.795 25.650499
69.800 25.194378
69.805 25.343061
69.810 24.989285
69.815 25.044443
69.820 24.412561
69.825 24.093662
69.830 23.82058
69.835 24.192392
69.840 24.214447
69.845 24.0637
69.850 23.438692
69.855 23.606321
69.860 23.855604
69.865 24.382467
69.870 24.083988
69.875 24.683483
69.880 25.851458
69.885 26.137363
69.890 25.328991
69.895 24.002375
69.900 23.072271
69.905 22.3545
69.910 21.457445
69.915 20.597269
69.920 21.051977
69.925 21.776499
69.930 22.437986
69.935 22.816357
69.940 22.845177
69.945 22.49979
69.950 21.754246
69.955 21.71117
69.960 22.066088
69.965 21.242294
69.970 21.31374
69.975 21.152737
69.980 21.703873
69.985 22.24826
69.990 21.901146
69.995 21.302589
70.000 21.719313
70.005 21.318962
70.010 21.423254
70.015 21.088318
70.020 20.733765
70.025 20.759174
70.030 21.538317
70.035 22.177975
70.040 22.721323
70.045 22.384678
70.050 21.622086
70.055 21.405012
70.060 20.982958
70.065 20.430433
70.070 20.335382
70.075 20.242216
70.080 21.0938
70.085 21.670341
70.090 21.932892
70.095 22.207302
70.100 21.898516
70.105 21.390043
70.110 20.7911
70.115 20.548811
70.120 21.040695
70.125 21.258984
70.130 20.625526
70.135 20.617882
70.140 20.841518
70.145 21.233503
70.150 21.499376
70.155 21.537846
70.160 21.583574
70.165 22.250765
70.170 22.84387
70.175 23.15642
70.180 22.879568
70.185 22.432173
70.190 21.595388
70.195 21.583002
70.200 21.403973
70.205 20.903191
70.210 20.235865
70.215 20.332655
70.220 20.369957
70.225 20.406322
70.230 20.835724
70.235 20.21701
70.240 20.196762
70.245 20.575016
70.250 21.021803
70.255 21.169224
70.260 20.67893
70.265 20.626377
70.270 20.931738
70.275 20.880104
70.280 19.956373
70.285 19.234039
70.290 19.682663
70.295 19.743748
70.300 18.975548
70.305 19.147797
70.310 19.782806
70.315 20.869106
70.320 20.844265
70.325 20.580454
70.330 20.987417
70.335 21.961136
70.340 21.358568
70.345 20.49308
70.350 19.983677
70.355 19.96763
70.360 19.71217
70.365 19.887295
70.370 19.487328
70.375 19.73093
70.380 19.572538
70.385 19.688326
70.390 19.183451
70.395 18.913019
70.400 18.648443
70.405 18.872231
70.410 18.987244
70.415 19.400805
70.420 19.647085
70.425 19.994965
70.430 19.87779
70.435 19.613306
70.440 19.432045
70.445 18.951664
70.450 17.88068
70.455 17.129662
70.460 17.34248
70.465 17.524544
70.470 17.227335
70.475 17.509844
70.480 18.434114
70.485 19.551537
70.490 19.917696
70.495 19.913294
70.500 20.035273
70.505 20.04213
70.510 19.500692
70.515 19.267059
70.520 19.682253
70.525 19.533808
70.530 19.752804
70.535 19.89901
70.540 20.05991
70.545 20.301689
70.550 19.69372
70.555 18.828865
70.560 19.631239
70.565 20.140909
70.570 20.28072
70.575 20.213711
70.580 21.21513
70.585 21.552094
70.590 21.424471
70.595 20.64893
70.600 19.420248
70.605 19.036766
70.610 19.004187
70.615 18.752768
70.620 19.435663
70.625 19.184875
70.630 18.935091
70.635 19.361099
70.640 19.323526
70.645 19.023258
70.650 18.468067
70.655 18.640451
70.660 18.810511
70.665 18.922132
70.670 18.823099
70.675 18.82403
70.680 18.490389
70.685 19.373634
70.690 19.764046
70.695 19.947733
70.700 19.938749
70.705 19.938444
70.710 20.092617
70.715 20.18932
70.720 18.911438
70.725 18.925161
70.730 19.186066
70.735 19.251055
70.740 19.007345
70.745 18.83008
70.750 18.584602
70.755 18.982059
70.760 18.391764
70.765 18.541174
70.770 18.656408
70.775 18.490255
70.780 18.724585
70.785 18.926826
70.790 18.492523
70.795 18.231348
70.800 18.111261
70.805 18.563749
70.810 19.174843
70.815 19.142818
70.820 19.917997
70.825 19.99313
70.830 20.089962
70.835 20.176186
70.840 19.62167
70.845 19.862444
70.850 20.330103
70.855 19.609404
70.860 19.512754
70.865 19.405636
70.870 19.376043
70.875 19.506491
70.880 19.058428
70.885 18.294483
70.890 18.457947
70.895 18.859369
70.900 18.60355
70.905 18.455986
70.910 18.108973
70.915 18.019073
70.920 18.469328
70.925 18.375542
70.930 18.371471
70.935 18.609064
70.940 18.784943
70.945 19.009439
70.950 19.017832
70.955 19.073307
70.960 19.385338
70.965 19.559551
70.970 19.740995
70.975 19.841045
70.980 19.864271
70.985 19.622601
70.990 19.431179
70.995 19.099737
71.000 18.906914
71.005 19.218569
71.010 19.899597
71.015 20.196222
71.020 20.404165
71.025 20.640844
71.030 20.618246
71.035 20.406843
71.040 19.704506
71.045 19.090546
71.050 19.206406
71.055 18.66082
71.060 18.309324
71.065 17.99671
71.070 17.727253
71.075 17.795401
71.080 17.606792
71.085 17.827177
71.090 18.112045
71.095 18.073515
71.100 18.760626
71.105 19.045221
71.110 18.57983
71.115 18.198221
71.120 17.922853
71.125 18.120941
71.130 18.88096
71.135 18.458771
71.140 18.817442
71.145 19.574251
71.150 19.711355
71.155 19.543449
71.160 19.037115
71.165 18.588198
71.170 18.844885
71.175 18.671816
71.180 18.216208
71.185 18.053698
71.190 18.214542
71.195 18.335587
71.200 18.398998
71.205 18.541071
71.210 18.807871
71.215 19.02002
71.220 19.814199
71.225 20.040333
71.230 19.74058
71.235 19.417809
71.240 19.446587
71.245 19.039524
71.250 19.368721
71.255 18.977669
71.260 19.11327
71.265 19.473551
71.270 19.326632
71.275 18.897539
71.280 18.756517
71.285 18.450611
71.290 18.524914
71.295 18.242834
71.300 18.34096
71.305 18.48505
71.310 19.14057
71.315 19.523565
71.320 19.094152
71.325 19.363516
71.330 18.766876
71.335 18.867062
71.340 19.123457
71.345 18.794285
71.350 19.152113
71.355 19.342684
71.360 19.390724
71.365 20.000551
71.370 19.869287
71.375 20.297899
71.380 20.782749
71.385 20.743773
71.390 20.553383
71.395 20.609713
71.400 20.382391
71.405 20.459257
71.410 19.95528
71.415 19.464424
71.420 19.562746
71.425 19.729631
71.430 19.204344
71.435 18.459316
71.440 17.72233
71.445 17.774799
71.450 18.027863
71.455 17.811411
71.460 17.595228
71.465 18.087629
71.470 19.173656
71.475 19.356012
71.480 19.08182
71.485 19.268637
71.490 19.25094
71.495 19.760872
71.500 19.898874
71.505 19.461931
71.510 19.165852
71.515 19.060112
71.520 19.540541
71.525 19.722569
71.530 19.18298
71.535 18.767721
71.540 18.682394
71.545 19.245499
71.550 19.037605
71.555 18.121721
71.560 18.01263
71.565 18.731733
71.570 18.531401
71.575 18.577614
71.580 18.6052
71.585 18.557852
71.590 19.34985
71.595 19.565697
71.600 19.486967
71.605 19.964268
71.610 20.014795
71.615 19.652433
71.620 19.370768
71.625 19.043219
71.630 19.686333
71.635 19.866142
71.640 19.646694
71.645 19.033821
71.650 18.879141
71.655 18.828646
71.660 18.182917
71.665 17.379072
71.670 17.382076
71.675 17.539324
71.680 17.726046
71.685 18.003906
71.690 18.848356
71.695 19.011984
71.700 19.480558
71.705 19.070786
71.710 19.044298
71.715 18.757776
71.720 18.535059
71.725 18.057323
71.730 18.071709
71.735 17.792362
71.740 18.355482
71.745 18.821108
71.750 18.88953
71.755 18.909449
71.760 18.489201
71.765 18.080801
71.770 18.177172
71.775 18.07214
71.780 18.668964
71.785 19.334547
71.790 19.617132
71.795 19.875929
71.800 20.15111
71.805 20.314993
71.810 19.671991
71.815 18.739569
71.820 18.239374
71.825 18.290749
71.830 18.426472
71.835 18.091341
71.840 18.117338
71.845 17.776924
71.850 18.041058
71.855 17.776516
71.860 17.113266
71.865 16.872503
71.870 16.605724
71.875 17.239817
71.880 17.929792
71.885 18.378828
71.890 19.179201
71.895 19.540028
71.900 19.36747
71.905 18.930214
71.910 18.058132
71.915 17.358879
71.920 17.108664
71.925 16.375523
71.930 16.231802
71.935 16.424442
71.940 16.248444
71.945 16.167702
71.950 16.447165
71.955 16.670595
71.960 16.657475
71.965 16.773367
71.970 16.983679
71.975 17.971476
71.980 18.744759
71.985 18.746965
71.990 18.55271
71.995 18.883146
72.000 18.968298
72.005 18.567179
72.010 18.515781
72.015 18.369509
72.020 18.631067
72.025 18.857134
72.030 18.548286
72.035 18.797493
72.040 18.530201
72.045 18.329071
72.050 18.043932
72.055 17.707491
72.060 18.379919
72.065 18.542957
72.070 19.099504
72.075 19.198015
72.080 19.233839
72.085 19.611174
72.090 19.213821
72.095 18.761549
72.100 18.759119
72.105 18.622969
72.110 18.221733
72.115 18.084251
72.120 18.079336
72.125 18.219889
72.130 18.48704
72.135 18.77364
72.140 18.970974
72.145 19.161989
72.150 18.598856
72.155 18.682848
72.160 18.350225
72.165 18.169718
72.170 18.157707
72.175 18.418007
72.180 18.522001
72.185 18.819963
72.190 19.354282
72.195 19.697897
72.200 19.870922
72.205 20.10095
72.210 20.616451
72.215 20.44124
72.220 20.093664
72.225 19.652994
72.230 19.572981
72.235 19.047371
72.240 18.806555
72.245 19.085659
72.250 19.263895
72.255 18.972635
72.260 19.004749
72.265 18.899504
72.270 18.870073
72.275 18.740063
72.280 18.394079
72.285 18.702337
72.290 19.06201
72.295 19.50017
72.300 19.484215
72.305 19.696468
72.310 19.431227
72.315 20.004122
72.320 19.978897
72.325 19.884808
72.330 19.930439
72.335 20.422419
72.340 20.431789
72.345 20.628614
72.350 19.988747
72.355 19.884878
72.360 20.091757
72.365 20.124502
72.370 19.907139
72.375 19.887508
72.380 19.802757
72.385 19.608995
72.390 19.688341
72.395 19.374567
72.400 18.575832
72.405 18.16717
72.410 18.392366
72.415 18.163778
72.420 18.155249
72.425 18.695311
72.430 18.459597
72.435 18.695074
72.440 18.402664
72.445 17.894215
72.450 18.42745
72.455 18.140408
72.460 17.707205
72.465 17.717855
72.470 17.701988
72.475 17.917166
72.480 17.64377
72.485 17.309473
72.490 17.245798
72.495 16.874947
72.500 17.037811
72.505 16.859039
72.510 16.735365
72.515 16.487671
72.520 16.24909
72.525 15.898302
72.530 16.299257
72.535 16.554049
72.540 16.589289
72.545 17.161922
72.550 17.90398
72.555 17.904968
72.560 17.935642
72.565 17.923597
72.570 18.473568
72.575 18.742664
72.580 18.796835
72.585 18.99102
72.590 19.663731
72.595 19.817192
72.600 19.826771
72.605 19.733887
72.610 19.485552
72.615 19.033888
72.620 18.484352
72.625 18.740768
72.630 18.525839
72.635 17.84281
72.640 17.593124
72.645 17.182091
72.650 17.113312
72.655 16.922462
72.660 16.957468
72.665 17.066296
72.670 17.917852
72.675 18.098269
72.680 18.32398
72.685 18.625446
72.690 18.248589
72.695 18.045488
72.700 17.537687
72.705 16.66737
72.710 16.458479
72.715 15.98363
72.720 15.509838
72.725 16.340786
72.730 16.44894
72.735 16.133463
72.740 15.48101
72.745 15.523507
72.750 15.880187
72.755 16.213459
72.760 15.696803
72.765 15.863353
72.770 16.238142
72.775 16.665197
72.780 16.468042
72.785 16.09094
72.790 16.005934
72.795 16.205767
72.800 16.785643
72.805 17.256353
72.810 17.563976
72.815 18.057901
72.820 18.483202
72.825 18.199554
72.830 17.824255
72.835 17.871607
72.840 17.944418
72.845 17.784548
72.850 17.864864
72.855 17.732986
72.860 17.58456
72.865 17.201385
72.870 16.428692
72.875 16.733103
72.880 16.55595
72.885 16.755543
72.890 16.668747
72.895 17.460175
72.900 17.765635
72.905 17.944262
72.910 17.756086
72.915 18.178919
72.920 18.295292
72.925 18.150644
72.930 18.297585
72.935 18.132429
72.940 18.349592
72.945 18.611652
72.950 18.283934
72.955 18.461107
72.960 18.374908
72.965 18.198355
72.970 18.427666
72.975 18.25724
72.980 17.981277
72.985 17.962536
72.990 17.480507
72.995 16.923546
73.000 16.692739
