!@!!GADDS PLOTSO FILE: Chi integration type
!@!!Title/SampleName: map-4d
!@!!Comment: ?
!@!!User: Bruker Instrument Administrator
!@!!Site: University of Illinois Chicago
!@!!Frame: map-4d_01_000.gfrm
!@!!Wavelengths    1.54184   1.54056   1.54439
!@!!Frame angles: 2Theta: 63.000 Omega: 50.000 Phi: 0.000 Chi: 90.000
!@!!Integration range: 2Theta: 53.000 to 73.000  Gamma: -105.000 to -75.000
!@!!Integration method: bin normalized
!@!N
!@!SS
!@!M
!@!L 0.0 0.0 0.0 0.0
!@!XDegrees
!@!YCounts
53.000 12.219047
53.005 11.647875
53.010 10.842925
53.015 10.461385
53.020 9.784891
53.025 8.644315
53.030 8.417742
53.035 8.380301
53.040 8.734896
53.045 9.14971
53.050 9.615685
53.055 9.95658
53.060 10.438143
53.065 10.17635
53.070 10.11456
53.075 9.767098
53.080 9.182974
53.085 9.234555
53.090 9.242453
53.095 9.512596
53.100 9.852512
53.105 10.30297
53.110 11.048811
53.115 11.354547
53.120 11.144008
53.125 11.465921
53.130 11.143593
53.135 10.678232
53.140 10.408513
53.145 9.914469
53.150 10.115307
53.155 10.513458
53.160 10.722157
53.165 10.900606
53.170 11.286634
53.175 11.537095
53.180 11.526535
53.185 11.525071
53.190 10.94282
53.195 10.468828
53.200 10.321755
53.205 10.374825
53.210 10.349144
53.215 10.228662
53.220 10.221108
53.225 10.477817
53.230 10.735589
53.235 10.879086
53.240 10.483386
53.245 10.582562
53.250 10.596217
53.255 10.426463
53.260 10.441393
53.265 10.350384
53.270 10.40361
53.275 10.344466
53.280 10.419755
53.285 11.247891
53.290 11.302127
53.295 10.948124
53.300 10.630095
53.305 10.701771
53.310 11.079395
53.315 11.367805
53.320 10.993757
53.325 11.201671
53.330 11.111497
53.335 11.044687
53.340 10.536541
53.345 10.047564
53.350 9.841094
53.355 9.846341
53.360 10.417775
53.365 10.473257
53.370 10.622924
53.375 10.962639
53.380 10.804809
53.385 11.08453
53.390 11.054643
53.395 11.332786
53.400 11.701107
53.405 11.443648
53.410 10.988604
53.415 11.36785
53.420 10.954479
53.425 10.563815
53.430 10.45331
53.435 10.549351
53.440 10.487635
53.445 10.338937
53.450 9.908456
53.455 10.278908
53.460 10.426403
53.465 10.44023
53.470 10.652493
53.475 10.748935
53.480 10.989519
53.485 11.132653
53.490 10.617619
53.495 10.411745
53.500 10.755341
53.505 10.83281
53.510 10.736746
53.515 11.131176
53.520 11.490337
53.525 11.992908
53.530 11.93373
53.535 11.691873
53.540 11.46632
53.545 11.661189
53.550 11.053919
53.555 10.540892
53.560 10.475813
53.565 10.75811
53.570 11.304341
53.575 11.376314
53.580 11.174208
53.585 11.207942
53.590 11.191143
53.595 11.257494
53.600 11.217914
53.605 11.061128
53.610 11.383572
53.615 11.597707
53.620 11.989146
53.625 12.028575
53.630 11.958099
53.635 11.660492
53.640 12.025692
53.645 11.965718
53.650 11.886271
53.655 11.648745
53.660 11.422172
53.665 11.378137
53.670 11.333796
53.675 10.77748
53.680 10.843699
53.685 11.380285
53.690 11.720675
53.695 11.588318
53.700 11.730541
53.705 11.668986
53.710 11.858327
53.715 11.328298
53.720 10.988663
53.725 10.844326
53.730 10.629647
53.735 10.344196
53.740 9.963067
53.745 9.825444
53.750 10.199331
53.755 10.269209
53.760 10.392536
53.765 10.751077
53.770 10.940152
53.775 11.227565
53.780 11.115578
53.785 10.789211
53.790 11.355826
53.795 11.595062
53.800 11.200115
53.805 11.131969
53.810 10.924805
53.815 11.341888
53.820 11.537766
53.825 11.271914
53.830 11.023185
53.835 11.129369
53.840 11.540024
53.845 12.138048
53.850 12.13286
53.855 11.857377
53.860 12.303446
53.865 12.611006
53.870 13.105878
53.875 13.284886
53.880 13.088439
53.885 13.000723
53.890 13.151636
53.895 12.891561
53.900 12.068763
53.905 11.417645
53.910 10.610547
53.915 10.874313
53.920 11.166951
53.925 10.787993
53.930 11.000273
53.935 11.698207
53.940 11.779752
53.945 11.535618
53.950 10.686692
53.955 10.135076
53.960 10.130396
53.965 10.074217
53.970 9.804414
53.975 10.18961
53.980 10.87412
53.985 11.398968
53.990 11.787343
53.995 11.946552
54.000 12.12679
54.005 11.869015
54.010 11.182087
54.015 10.905425
54.020 10.916967
54.025 10.672029
54.030 10.455725
54.035 10.530534
54.040 10.7525
54.045 11.17713
54.050 11.331378
54.055 11.38753
54.060 11.068306
54.065 10.924775
54.070 11.179721
54.075 11.55034
54.080 11.390379
54.085 11.209345
54.090 11.7892
54.095 11.973555
54.100 11.761291
54.105 11.64747
54.110 11.811723
54.115 11.750993
54.120 11.597012
54.125 11.187502
54.130 11.898908
54.135 11.643501
54.140 10.987561
54.145 10.784514
54.150 10.486815
54.155 10.519721
54.160 10.480474
54.165 10.702749
54.170 11.008061
54.175 11.372357
54.180 11.567864
54.185 12.113856
54.190 12.2514
54.195 12.251782
54.200 12.065845
54.205 12.23906
54.210 12.450003
54.215 12.411429
54.220 12.047939
54.225 11.667221
54.230 11.195171
54.235 11.096992
54.240 11.183586
54.245 10.85005
54.250 10.704202
54.255 10.727067
54.260 11.086221
54.265 11.331033
54.270 11.55718
54.275 11.49746
54.280 11.564511
54.285 12.036775
54.290 12.1514
54.295 11.817194
54.300 11.801341
54.305 11.515781
54.310 11.977052
54.315 11.927394
54.320 11.433807
54.325 11.99369
54.330 12.155429
54.335 12.309028
54.340 11.950873
54.345 12.098343
54.350 12.44141
54.355 12.680451
54.360 12.535662
54.365 12.812337
54.370 12.561999
54.375 12.638774
54.380 12.187812
54.385 12.009734
54.390 11.753073
54.395 11.703881
54.400 11.773505
54.405 11.594704
54.410 11.545841
54.415 11.845622
54.420 12.158275
54.425 12.159966
54.430 11.823096
54.435 11.415615
54.440 11.910454
54.445 11.871857
54.450 11.638243
54.455 11.486931
54.460 11.231135
54.465 11.379278
54.470 11.348409
54.475 11.068916
54.480 10.619417
54.485 10.708723
54.490 11.337777
54.495 11.685782
54.500 11.718341
54.505 11.86487
54.510 12.184428
54.515 12.624692
54.520 12.648447
54.525 12.390622
54.530 12.687612
54.535 13.223428
54.540 13.493377
54.545 13.764427
54.550 13.775251
54.555 13.714546
54.560 13.049978
54.565 12.811059
54.570 12.440501
54.575 11.562086
54.580 11.412032
54.585 11.52584
54.590 11.616567
54.595 11.861288
54.600 11.724607
54.605 12.238426
54.610 12.990727
54.615 12.905285
54.620 12.988344
54.625 12.870276
54.630 12.79336
54.635 12.53387
54.640 12.453832
54.645 11.962054
54.650 11.791603
54.655 11.255574
54.660 11.83405
54.665 12.173003
54.670 11.692057
54.675 11.612836
54.680 11.965196
54.685 11.876651
54.690 12.117226
54.695 11.375497
54.700 10.884485
54.705 11.106899
54.710 10.958326
54.715 10.87343
54.720 10.488361
54.725 10.531209
54.730 11.089432
54.735 11.558511
54.740 12.044129
54.745 12.075432
54.750 12.054867
54.755 12.411395
54.760 12.330095
54.765 12.403913
54.770 12.131208
54.775 11.573979
54.780 11.915614
54.785 12.226213
54.790 12.517159
54.795 12.291437
54.800 12.208717
54.805 12.380127
54.810 12.451542
54.815 11.990765
54.820 11.724547
54.825 11.362144
54.830 11.671915
54.835 11.687028
54.840 11.541953
54.845 11.554569
54.850 11.793519
54.855 11.7587
54.860 12.358697
54.865 12.268404
54.870 12.136535
54.875 11.985919
54.880 12.509253
54.885 12.50327
54.890 12.670071
54.895 12.449304
54.900 12.363412
54.905 12.600041
54.910 12.519504
54.915 12.30289
54.920 12.202676
54.925 12.233156
54.930 12.249833
54.935 12.081622
54.940 11.884139
54.945 12.415689
54.950 12.533856
54.955 12.713082
54.960 12.77045
54.965 12.42899
54.970 12.625961
54.975 12.854918
54.980 12.496729
54.985 12.090216
54.990 11.49402
54.995 11.255125
55.000 11.777036
55.005 12.064407
55.010 11.927202
55.015 12.046326
55.020 12.161336
55.025 12.328884
55.030 11.76674
55.035 11.317677
55.040 10.926927
55.045 11.01284
55.050 11.381553
55.055 11.566377
55.060 11.895567
55.065 12.334052
55.070 12.339791
55.075 12.377559
55.080 11.46612
55.085 11.0813
55.090 10.866713
55.095 10.989988
55.100 10.735069
55.105 11.252031
55.110 11.79765
55.115 12.487909
55.120 12.60599
55.125 12.809438
55.130 12.837387
55.135 12.601333
55.140 12.272594
55.145 12.273061
55.150 12.166842
55.155 11.794896
55.160 12.058623
55.165 12.254766
55.170 12.807096
55.175 13.029792
55.180 13.268585
55.185 14.178098
55.190 14.911576
55.195 14.78123
55.200 15.148384
55.205 14.913298
55.210 14.579692
55.215 14.352476
55.220 13.251843
55.225 12.862141
55.230 12.187924
55.235 11.959323
55.240 12.393291
55.245 12.117471
55.250 11.831279
55.255 12.050087
55.260 11.707024
55.265 12.148663
55.270 12.110877
55.275 11.761271
55.280 12.225775
55.285 12.08277
55.290 11.886137
55.295 12.307885
55.300 11.810487
55.305 11.930099
55.310 12.156551
55.315 11.643764
55.320 11.870649
55.325 12.79708
55.330 12.888958
55.335 12.992171
55.340 12.524681
55.345 12.275663
55.350 12.971262
55.355 12.847535
55.360 12.386479
55.365 12.598576
55.370 12.515368
55.375 12.729287
55.380 13.019705
55.385 12.85376
55.390 12.723433
55.395 12.61831
55.400 12.518378
55.405 12.493296
55.410 12.349697
55.415 12.346757
55.420 12.452439
55.425 12.883234
55.430 12.827435
55.435 12.97327
55.440 13.342187
55.445 13.350912
55.450 13.136065
55.455 12.987849
55.460 12.994445
55.465 13.402253
55.470 13.53515
55.475 13.441751
55.480 13.054188
55.485 13.089935
55.490 12.992409
55.495 12.534758
55.500 12.154237
55.505 12.313416
55.510 12.272119
55.515 12.296349
55.520 12.378056
55.525 12.540075
55.530 12.587387
55.535 12.597656
55.540 12.568585
55.545 12.940224
55.550 13.303404
55.555 13.541844
55.560 13.304023
55.565 13.610166
55.570 13.801437
55.575 13.539246
55.580 13.724313
55.585 13.523115
55.590 13.081302
55.595 13.035453
55.600 12.810841
55.605 12.721266
55.610 13.014176
55.615 12.717658
55.620 12.906292
55.625 12.958751
55.630 13.047704
55.635 13.108735
55.640 13.567604
55.645 13.590923
55.650 13.840416
55.655 14.011071
55.660 13.794424
55.665 13.823968
55.670 12.915925
55.675 12.189336
55.680 12.062181
55.685 11.6689
55.690 12.02586
55.695 12.886869
55.700 12.82618
55.705 13.780651
55.710 13.946959
55.715 14.32079
55.720 14.696445
55.725 13.907924
55.730 13.45645
55.735 13.348421
55.740 12.829152
55.745 12.84436
55.750 12.5845
55.755 12.319226
55.760 12.29421
55.765 12.300262
55.770 12.459456
55.775 12.691073
55.780 12.480466
55.785 12.426684
55.790 12.452563
55.795 12.428657
55.800 12.478484
55.805 12.049624
55.810 12.109596
55.815 13.115335
55.820 13.605545
55.825 13.91923
55.830 14.189054
55.835 14.735674
55.840 15.035502
55.845 15.195875
55.850 14.828383
55.855 14.532605
55.860 14.82334
55.865 14.652801
55.870 14.600327
55.875 14.746858
55.880 14.109571
55.885 13.687396
55.890 13.658596
55.895 13.413833
55.900 13.134361
55.905 12.802835
55.910 12.397328
55.915 12.185591
55.920 12.356731
55.925 12.46576
55.930 12.641199
55.935 12.955136
55.940 13.385494
55.945 13.675374
55.950 14.145876
55.955 14.345768
55.960 14.4055
55.965 13.901175
55.970 13.485832
55.975 12.73216
55.980 12.913898
55.985 12.352591
55.990 11.877888
55.995 11.081103
56.000 11.37752
56.005 11.584598
56.010 12.110581
56.015 12.489398
56.020 12.67458
56.025 12.695904
56.030 12.816246
56.035 12.980043
56.040 13.240074
56.045 12.915918
56.050 13.224355
56.055 13.849863
56.060 14.202304
56.065 14.57443
56.070 14.284015
56.075 14.007908
56.080 13.972578
56.085 13.163253
56.090 12.700446
56.095 13.156939
56.100 13.590389
56.105 13.384233
56.110 12.982475
56.115 12.718031
56.120 12.814924
56.125 12.708579
56.130 11.917715
56.135 11.893366
56.140 12.110712
56.145 12.933083
56.150 13.623839
56.155 13.622652
56.160 13.622601
56.165 13.840993
56.170 13.808089
56.175 14.201022
56.180 13.614357
56.185 13.100015
56.190 13.038674
56.195 12.704033
56.200 12.576088
56.205 12.942425
56.210 12.537994
56.215 12.503529
56.220 12.851312
56.225 13.096078
56.230 13.740616
56.235 13.708484
56.240 13.131874
56.245 13.152082
56.250 13.199462
56.255 13.238746
56.260 13.81904
56.265 13.818025
56.270 13.904816
56.275 14.023531
56.280 14.107767
56.285 13.870432
56.290 13.08735
56.295 12.732266
56.300 12.595751
56.305 12.452608
56.310 12.463734
56.315 12.809972
56.320 13.212573
56.325 13.629464
56.330 13.627026
56.335 13.67592
56.340 13.818883
56.345 13.960411
56.350 14.14079
56.355 14.081685
56.360 14.186173
56.365 14.24553
56.370 14.261811
56.375 14.452902
56.380 14.277941
56.385 14.032495
56.390 14.26368
56.395 14.006657
56.400 13.755743
56.405 13.871054
56.410 13.335079
56.415 12.829399
56.420 12.791303
56.425 12.636151
56.430 12.722643
56.435 12.722997
56.440 12.614872
56.445 12.562165
56.450 13.001348
56.455 13.612888
56.460 13.898535
56.465 13.794972
56.470 13.686822
56.475 13.70765
56.480 13.53346
56.485 13.546378
56.490 14.047577
56.495 14.229423
56.500 14.219658
56.505 13.776595
56.510 14.137573
56.515 14.638303
56.520 14.474646
56.525 13.674466
56.530 13.669454
56.535 13.958989
56.540 14.392516
56.545 14.368929
56.550 14.178171
56.555 14.352165
56.560 14.300364
56.565 13.680308
56.570 13.650053
56.575 13.348276
56.580 12.849529
56.585 12.588221
56.590 12.173
56.595 12.636377
56.600 12.867159
56.605 13.062808
56.610 13.311721
56.615 13.999516
56.620 14.296094
56.625 14.744819
56.630 14.885587
56.635 14.881703
56.640 15.910779
56.645 16.76729
56.650 16.387999
56.655 15.932036
56.660 15.222651
56.665 15.30284
56.670 15.366214
56.675 14.363411
56.680 14.415707
56.685 14.952221
56.690 15.408117
56.695 15.392525
56.700 15.007417
56.705 15.001965
56.710 15.574035
56.715 15.441982
56.720 16.03746
56.725 16.519026
56.730 16.536472
56.735 17.011015
56.740 17.468983
56.745 17.559645
56.750 17.321684
56.755 16.659586
56.760 17.022247
56.765 18.081982
56.770 17.624231
56.775 17.180359
56.780 16.517195
56.785 16.486607
56.790 16.331333
56.795 15.684587
56.800 15.182921
56.805 15.839469
56.810 16.001656
56.815 16.490221
56.820 16.149004
56.825 16.117315
56.830 15.768929
56.835 14.940331
56.840 14.273695
56.845 13.937149
56.850 13.986119
56.855 14.276852
56.860 14.446439
56.865 15.031747
56.870 15.474028
56.875 15.438445
56.880 15.390535
56.885 15.076119
56.890 14.938184
56.895 14.982027
56.900 14.422216
56.905 14.339837
56.910 14.528346
56.915 14.734339
56.920 14.474129
56.925 14.540945
56.930 14.794785
56.935 15.191267
56.940 15.379025
56.945 15.266112
56.950 14.961929
56.955 15.008229
56.960 14.73033
56.965 13.785186
56.970 13.145412
56.975 12.957398
56.980 13.090963
56.985 13.624121
56.990 13.697845
56.995 13.823442
57.000 14.229987
57.005 14.436784
57.010 14.660137
57.015 14.562837
57.020 14.647364
57.025 14.808572
57.030 14.483517
57.035 14.658594
57.040 14.413018
57.045 14.196815
57.050 14.048183
57.055 13.633008
57.060 13.711741
57.065 14.454971
57.070 14.556439
57.075 14.683455
57.080 14.838997
57.085 14.980723
57.090 15.464602
57.095 15.990004
57.100 15.809889
57.105 15.723471
57.110 15.889159
57.115 15.846195
57.120 15.397214
57.125 15.425066
57.130 15.130462
57.135 15.315452
57.140 15.398041
57.145 15.485415
57.150 15.926011
57.155 15.843231
57.160 15.248285
57.165 14.583987
57.170 14.533167
57.175 14.370198
57.180 13.658859
57.185 13.573159
57.190 14.415017
57.195 14.602648
57.200 14.496817
57.205 14.653573
57.210 15.01109
57.215 15.523363
57.220 15.425582
57.225 14.812032
57.230 14.542327
57.235 14.536783
57.240 14.126681
57.245 13.632878
57.250 13.325369
57.255 13.157246
57.260 13.270867
57.265 13.576711
57.270 13.265992
57.275 13.256078
57.280 12.739691
57.285 12.459833
57.290 12.432895
57.295 12.476273
57.300 12.841004
57.305 13.234281
57.310 13.393466
57.315 14.013195
57.320 13.999005
57.325 14.236719
57.330 14.433544
57.335 14.397661
57.340 14.502548
57.345 14.522347
57.350 14.561228
57.355 14.812749
57.360 14.891288
57.365 14.580404
57.370 14.277483
57.375 13.950694
57.380 14.307683
57.385 14.306782
57.390 14.042379
57.395 13.241632
57.400 13.01644
57.405 13.152057
57.410 13.445357
57.415 13.499239
57.420 14.220029
57.425 15.130362
57.430 16.371538
57.435 17.092468
57.440 17.624645
57.445 17.7435
57.450 17.791788
57.455 17.259222
57.460 16.536222
57.465 16.036089
57.470 15.56462
57.475 15.057281
57.480 15.004644
57.485 15.211091
57.490 15.623115
57.495 16.60033
57.500 17.003935
57.505 17.074156
57.510 17.143396
57.515 17.071922
57.520 16.665598
57.525 16.160833
57.530 15.393258
57.535 15.393142
57.540 15.280578
57.545 15.035768
57.550 14.962181
57.555 15.35376
57.560 15.715729
57.565 15.733926
57.570 15.630678
57.575 15.979753
57.580 16.166
57.585 16.140615
57.590 15.653537
57.595 15.44313
57.600 15.338517
57.605 15.038178
57.610 15.475598
57.615 16.045675
57.620 16.091558
57.625 16.760481
57.630 17.254078
57.635 16.891136
57.640 16.975103
57.645 17.312439
57.650 17.166393
57.655 17.058273
57.660 16.274992
57.665 16.177242
57.670 16.45499
57.675 16.639477
57.680 16.004004
57.685 15.804127
57.690 15.82402
57.695 15.913874
57.700 15.746878
57.705 15.906643
57.710 15.768784
57.715 15.814793
57.720 15.811093
57.725 15.94859
57.730 16.596611
57.735 16.571617
57.740 16.441887
57.745 15.893298
57.750 16.051561
57.755 16.317993
57.760 16.608732
57.765 16.995609
57.770 16.953064
57.775 17.365217
57.780 17.833191
57.785 17.316231
57.790 17.438391
57.795 17.167791
57.800 16.649881
57.805 17.05069
57.810 17.109758
57.815 17.169676
57.820 17.529053
57.825 17.317827
57.830 17.261457
57.835 17.11245
57.840 17.230423
57.845 17.081299
57.850 16.956333
57.855 16.508307
57.860 16.554728
57.865 17.173632
57.870 17.254248
57.875 17.677851
57.880 17.580704
57.885 17.557961
57.890 18.375334
57.895 17.96335
57.900 17.92766
57.905 17.89963
57.910 17.618044
57.915 17.473587
57.920 17.633369
57.925 17.455521
57.930 17.673548
57.935 17.167171
57.940 16.704952
57.945 16.431726
57.950 16.960636
57.955 17.236881
57.960 17.377293
57.965 17.376488
57.970 17.271597
57.975 17.514313
57.980 17.885897
57.985 17.615177
57.990 16.971813
57.995 16.451654
58.000 16.745104
58.005 17.465759
58.010 17.414473
58.015 17.371084
58.020 18.199169
58.025 18.436125
58.030 18.836195
58.035 18.663893
58.040 18.779249
58.045 18.879217
58.050 18.537373
58.055 18.07036
58.060 17.744421
58.065 17.239321
58.070 16.878857
58.075 16.800131
58.080 16.459557
58.085 16.275373
58.090 15.999828
58.095 16.012302
58.100 15.944717
58.105 15.927714
58.110 15.251355
58.115 15.53861
58.120 16.325285
58.125 16.981096
58.130 17.894667
58.135 18.719435
58.140 19.106176
58.145 19.284142
58.150 18.806465
58.155 18.639576
58.160 18.727749
58.165 18.647795
58.170 18.330467
58.175 18.451937
58.180 19.025692
58.185 19.308641
58.190 19.226175
58.195 19.399239
58.200 19.159512
58.205 19.244169
58.210 19.211506
58.215 19.41848
58.220 19.65814
58.225 19.760252
58.230 19.639931
58.235 19.781925
58.240 19.84778
58.245 19.730986
58.250 19.626108
58.255 19.775526
58.260 19.681067
58.265 19.810963
58.270 19.610567
58.275 19.490263
58.280 19.781891
58.285 19.778757
58.290 19.83205
58.295 19.627802
58.300 19.961035
58.305 20.33843
58.310 20.687765
58.315 20.73819
58.320 20.801367
58.325 21.116377
58.330 21.379477
58.335 21.433813
58.340 21.285192
58.345 21.598902
58.350 21.141182
58.355 21.32826
58.360 21.081194
58.365 21.73341
58.370 22.339956
58.375 22.45425
58.380 22.681492
58.385 23.278643
58.390 23.382496
58.395 23.68498
58.400 24.003777
58.405 25.113216
58.410 26.207832
58.415 26.493534
58.420 27.646074
58.425 28.377693
58.430 28.394506
58.435 27.699287
58.440 26.885902
58.445 26.264959
58.450 26.596169
58.455 26.210165
58.460 26.522413
58.465 26.953251
58.470 27.279486
58.475 28.127964
58.480 28.887449
58.485 29.097273
58.490 30.509537
58.495 31.329199
58.500 31.98991
58.505 32.097008
58.510 32.190098
58.515 33.036346
58.520 34.02993
58.525 34.663578
58.530 34.464741
58.535 34.387909
58.540 34.925957
58.545 34.651512
58.550 34.276867
58.555 33.768635
58.560 33.942524
58.565 34.748592
58.570 35.266953
58.575 35.81839
58.580 35.858131
58.585 36.003201
58.590 36.597382
58.595 36.862068
58.600 36.668217
58.605 36.155861
58.610 36.087677
58.615 36.455376
58.620 37.26926
58.625 37.111282
58.630 36.894451
58.635 36.942688
58.640 37.584209
58.645 37.921211
58.650 37.639336
58.655 36.622578
58.660 36.965633
58.665 37.080673
58.670 37.269703
58.675 36.516396
58.680 35.570038
58.685 35.434654
58.690 34.974777
58.695 34.436615
58.700 33.583138
58.705 32.872288
58.710 33.128635
58.715 33.384251
58.720 33.697136
58.725 33.529408
58.730 33.106903
58.735 33.623474
58.740 34.264977
58.745 34.245327
58.750 33.976276
58.755 33.138573
58.760 33.487236
58.765 33.387119
58.770 32.647217
58.775 31.719175
58.780 31.037649
58.785 30.660425
58.790 30.671158
58.795 30.123011
58.800 29.545391
58.805 29.680145
58.810 29.599447
58.815 29.441061
58.820 28.920557
58.825 28.752773
58.830 28.284449
58.835 27.059307
58.840 26.570482
58.845 26.550699
58.850 26.373804
58.855 26.042824
58.860 25.801275
58.865 25.440807
58.870 25.609018
58.875 24.064226
58.880 23.279688
58.885 23.081358
58.890 23.870399
58.895 23.521894
58.900 23.253365
58.905 22.798349
58.910 23.002546
58.915 22.396189
58.920 22.009108
58.925 21.010796
58.930 20.945076
58.935 20.526405
58.940 20.513784
58.945 20.725077
58.950 21.020483
58.955 21.056803
58.960 21.068382
58.965 21.050472
58.970 21.604021
58.975 21.129324
58.980 20.83663
58.985 20.368883
58.990 19.893351
58.995 19.695318
59.000 19.282747
59.005 19.191141
59.010 19.555389
59.015 19.881159
59.020 20.135672
59.025 20.09733
59.030 20.099602
59.035 19.804123
59.040 20.010603
59.045 19.753658
59.050 19.076572
59.055 18.788935
59.060 18.543337
59.065 18.791239
59.070 19.425365
59.075 18.92664
59.080 18.670538
59.085 18.607126
59.090 18.817165
59.095 19.037823
59.100 18.705507
59.105 18.070784
59.110 17.912832
59.115 17.957138
59.120 18.073137
59.125 17.961081
59.130 17.950399
59.135 17.691046
59.140 17.422615
59.145 17.27696
59.150 17.053745
59.155 16.883665
59.160 16.44681
59.165 16.722206
59.170 17.320457
59.175 17.378159
59.180 17.54331
59.185 18.205011
59.190 18.712458
59.195 18.828531
59.200 18.510513
59.205 18.000002
59.210 17.567898
59.215 16.84782
59.220 16.022079
59.225 15.516931
59.230 15.441542
59.235 14.938046
59.240 14.54191
59.245 15.114732
59.250 15.748857
59.255 15.888169
59.260 16.525089
59.265 16.446014
59.270 16.598433
59.275 17.396069
59.280 17.685089
59.285 17.46423
59.290 17.36385
59.295 17.268156
59.300 17.706423
59.305 18.497282
59.310 18.44696
59.315 18.294453
59.320 18.817074
59.325 18.64361
59.330 18.513216
59.335 18.227579
59.340 17.38238
59.345 16.944145
59.350 16.493614
59.355 16.597431
59.360 17.297182
59.365 17.188986
59.370 16.854605
59.375 17.151735
59.380 17.101925
59.385 17.096945
59.390 16.904236
59.395 16.254177
59.400 16.038717
59.405 16.597647
59.410 16.667133
59.415 16.900316
59.420 17.091009
59.425 16.453011
59.430 16.714474
59.435 16.454353
59.440 15.962375
59.445 15.579221
59.450 15.313638
59.455 15.061769
59.460 15.404684
59.465 15.659163
59.470 16.067942
59.475 16.209547
59.480 16.557041
59.485 16.943892
59.490 17.277132
59.495 17.07497
59.500 16.856409
59.505 16.717146
59.510 16.483082
59.515 16.482744
59.520 16.508205
59.525 16.565418
59.530 16.207466
59.535 15.886556
59.540 16.40761
59.545 16.974737
59.550 17.16926
59.555 17.329445
59.560 17.155642
59.565 17.479982
59.570 17.634132
59.575 17.532221
59.580 17.270765
59.585 16.700239
59.590 16.475576
59.595 16.751951
59.600 16.538427
59.605 16.620888
59.610 16.566694
59.615 16.940346
59.620 16.973831
59.625 16.793175
59.630 17.350477
59.635 18.089365
59.640 17.64999
59.645 16.994448
59.650 16.50259
59.655 16.484175
59.660 16.306295
59.665 15.526574
59.670 15.186233
59.675 15.661863
59.680 16.571806
59.685 16.727037
59.690 16.810875
59.695 17.041353
59.700 17.388393
59.705 17.422863
59.710 17.00038
59.715 16.598793
59.720 16.386745
59.725 16.076612
59.730 15.619829
59.735 15.638059
59.740 15.623624
59.745 15.679504
59.750 16.348042
59.755 16.641603
59.760 16.709568
59.765 17.342936
59.770 16.982185
59.775 16.967295
59.780 16.906055
59.785 16.116631
59.790 16.296139
59.795 17.006376
59.800 17.051275
59.805 17.103151
59.810 17.008581
59.815 16.73291
59.820 16.806122
59.825 17.264849
59.830 17.07564
59.835 16.810802
59.840 16.695875
59.845 16.312826
59.850 16.309963
59.855 16.202915
59.860 15.451328
59.865 15.368489
59.870 15.013684
59.875 15.091632
59.880 15.84356
59.885 16.198765
59.890 16.427494
59.895 16.242369
59.900 16.014624
59.905 16.25152
59.910 16.70487
59.915 16.526043
59.920 16.296816
59.925 15.985975
59.930 16.350466
59.935 16.792639
59.940 16.685072
59.945 16.752888
59.950 16.6696
59.955 17.111448
59.960 17.47847
59.965 17.839947
59.970 17.758831
59.975 17.487812
59.980 17.410635
59.985 17.513348
59.990 17.379061
59.995 17.057297
60.000 16.169077
60.005 16.361265
60.010 16.621851
60.015 16.226431
60.020 15.763451
60.025 15.620813
60.030 15.969683
60.035 16.517982
60.040 16.324926
60.045 16.194117
60.050 16.206858
60.055 16.541462
60.060 16.352856
60.065 15.976708
60.070 15.908307
60.075 15.819098
60.080 16.244282
60.085 16.780287
60.090 16.912737
60.095 17.118004
60.100 17.465445
60.105 18.058067
60.110 18.034258
60.115 17.32448
60.120 16.308527
60.125 16.339224
60.130 16.583445
60.135 15.980478
60.140 15.159863
60.145 15.197539
60.150 15.243985
60.155 15.713613
60.160 15.739427
60.165 15.819565
60.170 16.189894
60.175 16.245407
60.180 16.109051
60.185 16.158464
60.190 16.168322
60.195 16.035503
60.200 15.695384
60.205 15.747864
60.210 16.089319
60.215 16.408688
60.220 16.687923
60.225 16.868793
60.230 17.379698
60.235 17.389565
60.240 17.141312
60.245 17.089939
60.250 17.091576
60.255 16.5921
60.260 16.419771
60.265 15.983959
60.270 16.514359
60.275 16.607323
60.280 16.713202
60.285 16.691891
60.290 17.544123
60.295 18.040104
60.300 17.681225
60.305 17.439869
60.310 17.43516
60.315 17.491886
60.320 17.360918
60.325 16.962461
60.330 16.408033
60.335 16.668598
60.340 16.604864
60.345 16.835348
60.350 16.978209
60.355 16.699308
60.360 16.648415
60.365 16.729349
60.370 16.620857
60.375 16.430536
60.380 16.717827
60.385 16.468441
60.390 16.859888
60.395 16.793644
60.400 16.65374
60.405 16.713856
60.410 16.580177
60.415 16.293081
60.420 16.435072
60.425 16.870543
60.430 16.786835
60.435 16.814161
60.440 16.560627
60.445 16.061785
60.450 15.609903
60.455 15.225142
60.460 14.867079
60.465 14.765684
60.470 14.942513
60.475 15.112374
60.480 15.647094
60.485 15.777323
60.490 15.581573
60.495 15.642565
60.500 17.01988
60.505 17.050415
60.510 17.256285
60.515 17.577412
60.520 17.78636
60.525 18.240921
60.530 17.831083
60.535 17.014841
60.540 17.294004
60.545 17.624788
60.550 17.629789
60.555 17.942205
60.560 17.89295
60.565 17.922113
60.570 17.599483
60.575 17.230221
60.580 16.858732
60.585 17.06378
60.590 17.351013
60.595 17.586
60.600 17.745419
60.605 18.276245
60.610 18.345873
60.615 18.462008
60.620 18.032511
60.625 17.492779
60.630 17.395739
60.635 17.790924
60.640 17.486059
60.645 17.7887
60.650 17.518959
60.655 16.75386
60.660 16.610693
60.665 16.371981
60.670 15.749094
60.675 15.709486
60.680 15.721452
60.685 15.582428
60.690 15.630959
60.695 16.0224
60.700 16.279268
60.705 16.027159
60.710 15.600891
60.715 14.993664
60.720 15.600625
60.725 15.991693
60.730 15.80822
60.735 15.945035
60.740 16.468546
60.745 16.998533
60.750 17.412924
60.755 17.497452
60.760 17.648672
60.765 17.583851
60.770 17.501432
60.775 17.10532
60.780 17.184011
60.785 17.01255
60.790 16.908028
60.795 16.704308
60.800 16.184423
60.805 16.163364
60.810 16.585169
60.815 16.803274
60.820 16.846962
60.825 17.02754
60.830 17.58522
60.835 18.201296
60.840 18.222559
60.845 18.088156
60.850 18.00893
60.855 18.361027
60.860 18.391628
60.865 17.879749
60.870 17.584023
60.875 17.407145
60.880 17.219776
60.885 16.807894
60.890 15.589618
60.895 15.166276
60.900 15.720515
60.905 15.999907
60.910 16.074934
60.915 15.768552
60.920 15.70936
60.925 16.464983
60.930 16.702049
60.935 16.465132
60.940 16.429785
60.945 16.469824
60.950 16.860041
60.955 17.245422
60.960 17.244526
60.965 16.817646
60.970 16.752298
60.975 16.69672
60.980 16.406084
60.985 16.570869
60.990 16.671829
60.995 16.293516
61.000 16.670242
61.005 16.496742
61.010 16.47447
61.015 16.590551
61.020 17.367243
61.025 17.499519
61.030 17.849483
61.035 17.786135
61.040 17.811094
61.045 17.657328
61.050 17.738077
61.055 17.084003
61.060 17.288658
61.065 17.258089
61.070 17.186337
61.075 17.318485
61.080 17.828676
61.085 18.083361
61.090 17.799164
61.095 17.589092
61.100 17.837214
61.105 18.033039
61.110 18.125002
61.115 17.775717
61.120 17.981848
61.125 18.10952
61.130 18.223936
61.135 18.366995
61.140 17.986965
61.145 18.186714
61.150 18.322248
61.155 17.565111
61.160 17.696247
61.165 17.372517
61.170 16.527365
61.175 16.183397
61.180 15.656524
61.185 15.758516
61.190 15.621319
61.195 15.833025
61.200 16.649887
61.205 17.129652
61.210 17.350538
61.215 17.116169
61.220 17.145321
61.225 17.579067
61.230 17.241024
61.235 16.708717
61.240 16.904987
61.245 17.264811
61.250 17.271965
61.255 16.899258
61.260 16.816626
61.265 16.669909
61.270 16.539385
61.275 16.655252
61.280 16.924356
61.285 17.830584
61.290 18.663881
61.295 18.725569
61.300 18.547209
61.305 18.530142
61.310 18.018925
61.315 17.838449
61.320 17.326658
61.325 16.933418
61.330 16.9809
61.335 16.86887
61.340 16.465433
61.345 16.784128
61.350 16.764915
61.355 16.598875
61.360 16.862036
61.365 17.031982
61.370 17.491762
61.375 18.217365
61.380 18.660162
61.385 19.092133
61.390 19.015997
61.395 18.656521
61.400 18.241724
61.405 17.56892
61.410 17.538525
61.415 17.327541
61.420 16.979843
61.425 16.688366
61.430 16.607801
61.435 16.947731
61.440 17.243071
61.445 17.173124
61.450 17.205986
61.455 17.352486
61.460 17.329044
61.465 17.468338
61.470 17.002228
61.475 16.929651
61.480 16.360857
61.485 16.342232
61.490 16.171083
61.495 15.935625
61.500 15.520423
61.505 16.224104
61.510 16.471512
61.515 16.947191
61.520 16.876392
61.525 17.474844
61.530 18.252813
61.535 19.194794
61.540 19.648941
61.545 19.623487
61.550 18.955278
61.555 18.877092
61.560 18.523802
61.565 18.057079
61.570 17.472033
61.575 17.144203
61.580 17.101345
61.585 17.460876
61.590 17.13327
61.595 16.78161
61.600 16.103264
61.605 15.705695
61.610 15.40049
61.615 15.515234
61.620 15.460567
61.625 15.43693
61.630 16.058651
61.635 16.93116
61.640 17.504015
61.645 17.740561
61.650 17.959166
61.655 18.027161
61.660 18.07416
61.665 17.909206
61.670 17.968422
61.675 17.65061
61.680 17.154482
61.685 16.478968
61.690 16.427282
61.695 16.558537
61.700 16.758444
61.705 16.753555
61.710 16.86116
61.715 17.327715
61.720 17.254894
61.725 16.769823
61.730 16.547945
61.735 16.656071
61.740 16.278942
61.745 16.007641
61.750 15.413386
61.755 15.740107
61.760 16.794334
61.765 16.926168
61.770 16.758823
61.775 17.359501
61.780 17.559639
61.785 17.920115
61.790 17.76371
61.795 17.489252
61.800 17.26226
61.805 16.879705
61.810 16.653809
61.815 16.531929
61.820 16.959898
61.825 17.371832
61.830 17.231424
61.835 17.444429
61.840 17.406122
61.845 16.827398
61.850 17.214542
61.855 16.72154
61.860 16.575361
61.865 16.895336
61.870 16.820894
61.875 17.40135
61.880 18.024797
61.885 18.407045
61.890 17.795151
61.895 17.437403
61.900 17.290215
61.905 17.477182
61.910 16.735935
61.915 15.83223
61.920 15.898528
61.925 16.389013
61.930 15.896396
61.935 15.410054
61.940 15.456023
61.945 15.738359
61.950 15.273993
61.955 14.697984
61.960 15.158145
61.965 15.987487
61.970 16.239378
61.975 15.889275
61.980 16.451427
61.985 17.370342
61.990 17.372482
61.995 16.988665
62.000 16.103065
62.005 16.194866
62.010 16.460215
62.015 15.975881
62.020 15.563433
62.025 15.898583
62.030 15.770912
62.035 15.656254
62.040 15.233012
62.045 15.057583
62.050 15.808691
62.055 16.070391
62.060 15.922605
62.065 16.275036
62.070 16.857792
62.075 17.190567
62.080 17.325808
62.085 17.492378
62.090 17.316498
62.095 17.572775
62.100 18.149881
62.105 18.107023
62.110 18.150505
62.115 18.077208
62.120 17.680666
62.125 18.276419
62.130 18.203497
62.135 18.038197
62.140 18.237785
62.145 17.787382
62.150 17.386301
62.155 16.914572
62.160 16.377462
62.165 16.067944
62.170 16.235708
62.175 16.876535
62.180 17.144733
62.185 17.447247
62.190 17.661325
62.195 17.426205
62.200 17.252731
62.205 16.568172
62.210 16.180248
62.215 16.41033
62.220 16.25189
62.225 16.508677
62.230 16.751902
62.235 16.816788
62.240 17.085167
62.245 17.332544
62.250 17.522852
62.255 17.584541
62.260 17.57835
62.265 17.795595
62.270 17.848896
62.275 17.955822
62.280 17.49851
62.285 17.353857
62.290 16.783354
62.295 16.227011
62.300 15.65644
62.305 15.579487
62.310 15.289443
62.315 15.301226
62.320 15.103218
62.325 14.83293
62.330 15.225428
62.335 15.706347
62.340 15.949384
62.345 15.7501
62.350 15.767116
62.355 16.383169
62.360 16.832615
62.365 16.73
62.370 16.469315
62.375 16.598026
62.380 16.713409
62.385 16.922297
62.390 16.720718
62.395 17.253923
62.400 17.749804
62.405 17.952003
62.410 17.846745
62.415 17.913294
62.420 17.928738
62.425 17.960009
62.430 17.663475
62.435 17.193563
62.440 17.301445
62.445 17.886513
62.450 18.03756
62.455 18.069397
62.460 18.144018
62.465 18.606585
62.470 19.078196
62.475 19.308578
62.480 18.941446
62.485 18.471642
62.490 18.663101
62.495 18.267754
62.500 17.951832
62.505 17.369228
62.510 17.091476
62.515 17.497194
62.520 17.336767
62.525 17.157818
62.530 17.286989
62.535 17.267385
62.540 17.357246
62.545 17.468052
62.550 17.588541
62.555 17.606869
62.560 17.323503
62.565 17.001287
62.570 16.6703
62.575 16.965443
62.580 16.694445
62.585 15.988524
62.590 16.240454
62.595 17.07897
62.600 17.827045
62.605 18.100752
62.610 18.133501
62.615 18.359892
62.620 18.8585
62.625 19.01038
62.630 18.869648
62.635 19.073309
62.640 19.059565
62.645 18.858782
62.650 18.997311
62.655 19.610346
62.660 19.673117
62.665 18.984131
62.670 18.30249
62.675 17.881058
62.680 17.867203
62.685 17.459513
62.690 17.161757
62.695 17.017626
62.700 17.062258
62.705 17.243353
62.710 17.244883
62.715 17.587545
62.720 17.898489
62.725 17.599319
62.730 18.349861
62.735 18.19523
62.740 18.378469
62.745 18.807205
62.750 18.263208
62.755 18.228868
62.760 18.052235
62.765 17.843374
62.770 18.734131
62.775 18.729527
62.780 19.092207
62.785 18.947962
62.790 18.6304
62.795 19.031624
62.800 18.804731
62.805 18.266146
62.810 18.465012
62.815 18.21167
62.820 18.784809
62.825 18.983065
62.830 18.376419
62.835 18.772369
62.840 19.274824
62.845 19.006208
62.850 19.16423
62.855 18.922405
62.860 18.94282
62.865 18.634939
62.870 17.980923
62.875 17.831299
62.880 17.468655
62.885 16.526775
62.890 15.943017
62.895 15.690963
62.900 16.528313
62.905 16.964373
62.910 17.127747
62.915 18.407566
62.920 19.201973
62.925 19.723049
62.930 19.817175
62.935 18.910442
62.940 18.951481
62.945 18.604366
62.950 18.256937
62.955 18.280159
62.960 17.978575
62.965 18.520685
62.970 19.014626
62.975 19.180857
62.980 19.14884
62.985 18.717224
62.990 19.241718
62.995 19.978376
63.000 19.701923
63.005 19.818403
63.010 20.015648
63.015 20.270887
63.020 20.420326
63.025 19.355665
63.030 18.660027
63.035 18.433432
63.040 18.100716
63.045 17.504719
63.050 17.362156
63.055 17.240852
63.060 17.207836
63.065 16.892874
63.070 17.212265
63.075 17.773369
63.080 18.369942
63.085 18.151133
63.090 17.694094
63.095 17.819317
63.100 18.313766
63.105 18.172827
63.110 17.126156
63.115 16.406603
63.120 16.375223
63.125 16.723112
63.130 17.297106
63.135 17.196468
63.140 16.997267
63.145 17.359608
63.150 17.137281
63.155 17.119564
63.160 16.845963
63.165 16.613743
63.170 16.516623
63.175 16.69186
63.180 17.144873
63.185 17.372116
63.190 17.539026
63.195 17.789236
63.200 17.84709
63.205 17.26297
63.210 17.305897
63.215 17.259146
63.220 17.523083
63.225 17.656414
63.230 17.452717
63.235 17.745361
63.240 18.330595
63.245 17.669538
63.250 17.387192
63.255 17.477467
63.260 17.158976
63.265 16.911037
63.270 16.42168
63.275 16.424782
63.280 16.574434
63.285 16.712767
63.290 16.370335
63.295 16.235392
63.300 16.594643
63.305 16.812061
63.310 16.883135
63.315 17.319693
63.320 17.59981
63.325 18.329945
63.330 18.669703
63.335 18.518158
63.340 18.423746
63.345 18.573742
63.350 18.570436
63.355 18.410042
63.360 17.932751
63.365 18.056698
63.370 18.604998
63.375 19.422766
63.380 19.612186
63.385 19.560743
63.390 19.668768
63.395 19.818596
63.400 20.399065
63.405 19.975449
63.410 18.646183
63.415 18.465477
63.420 17.706141
63.425 17.122913
63.430 17.773157
63.435 17.678497
63.440 18.121824
63.445 18.690613
63.450 18.625685
63.455 18.635956
63.460 18.792942
63.465 18.277657
63.470 17.804621
63.475 18.217554
63.480 18.519518
63.485 18.12891
63.490 18.672668
63.495 18.68643
63.500 18.421345
63.505 18.297607
63.510 18.065403
63.515 17.611666
63.520 17.922712
63.525 18.383018
63.530 19.057472
63.535 19.457664
63.540 20.015715
63.545 19.327772
63.550 19.130623
63.555 18.842453
63.560 18.332216
63.565 18.399479
63.570 18.570612
63.575 18.824459
63.580 19.113001
63.585 19.449093
63.590 19.428024
63.595 19.277365
63.600 18.428059
63.605 17.499266
63.610 16.381914
63.615 16.665415
63.620 16.994852
63.625 16.807728
63.630 16.679308
63.635 17.13027
63.640 18.137707
63.645 18.917202
63.650 19.486204
63.655 19.892694
63.660 20.419073
63.665 21.074617
63.670 21.069996
63.675 21.031536
63.680 20.789022
63.685 20.347107
63.690 19.857616
63.695 20.064384
63.700 19.882153
63.705 19.754452
63.710 19.112188
63.715 18.771416
63.720 18.585852
63.725 18.90065
63.730 19.06271
63.735 19.308567
63.740 19.394787
63.745 19.176758
63.750 19.000496
63.755 19.010719
63.760 18.821161
63.765 18.720404
63.770 18.63789
63.775 18.896612
63.780 19.186281
63.785 19.635252
63.790 19.534603
63.795 20.404064
63.800 20.759064
63.805 20.594318
63.810 21.162809
63.815 22.079742
63.820 22.425604
63.825 22.030828
63.830 20.865595
63.835 20.296919
63.840 20.347351
63.845 20.320623
63.850 20.481548
63.855 20.282583
63.860 20.977175
63.865 21.52286
63.870 21.39076
63.875 21.438314
63.880 20.318979
63.885 19.436657
63.890 19.753614
63.895 19.838535
63.900 19.482281
63.905 19.738745
63.910 19.808748
63.915 20.514242
63.920 20.906006
63.925 21.169521
63.930 21.232428
63.935 21.672441
63.940 21.962633
63.945 22.220375
63.950 22.796774
63.955 22.961361
63.960 22.582529
63.965 22.648285
63.970 22.906412
63.975 23.335663
63.980 24.126049
63.985 24.616581
63.990 25.127653
63.995 25.866182
64.000 26.483894
64.005 26.703119
64.010 27.098635
64.015 27.601311
64.020 27.733715
64.025 27.880964
64.030 28.028601
64.035 27.957729
64.040 27.685186
64.045 27.566607
64.050 27.457336
64.055 27.178877
64.060 27.394957
64.065 27.619623
64.070 27.908556
64.075 28.083113
64.080 28.076485
64.085 28.434061
64.090 29.087549
64.095 29.071053
64.100 28.734339
64.105 28.761244
64.110 29.428905
64.115 29.887043
64.120 30.336412
64.125 31.083603
64.130 31.944324
64.135 32.797554
64.140 33.575577
64.145 33.719902
64.150 34.357399
64.155 34.741516
64.160 34.665623
64.165 35.236626
64.170 36.479267
64.175 37.068447
64.180 37.518246
64.185 37.337124
64.190 37.556129
64.195 37.741863
64.200 37.299911
64.205 36.460606
64.210 36.074242
64.215 36.861183
64.220 37.559475
64.225 37.781174
64.230 38.174629
64.235 38.291397
64.240 38.687435
64.245 39.190613
64.250 39.027519
64.255 39.631516
64.260 40.500969
64.265 41.266418
64.270 42.009239
64.275 42.497478
64.280 42.232185
64.285 42.442307
64.290 43.187302
64.295 42.521511
64.300 42.061871
64.305 42.443054
64.310 43.217617
64.315 44.013813
64.320 44.150764
64.325 44.130726
64.330 44.807728
64.335 44.926201
64.340 45.079327
64.345 45.070053
64.350 45.645451
64.355 45.695171
64.360 45.011139
64.365 46.197887
64.370 47.341881
64.375 46.929771
64.380 46.535984
64.385 46.361679
64.390 46.027363
64.395 45.83263
64.400 44.558331
64.405 43.161236
64.410 43.62254
64.415 44.24437
64.420 43.915752
64.425 43.767208
64.430 43.857838
64.435 44.265938
64.440 44.561932
64.445 43.83445
64.450 42.558025
64.455 42.718864
64.460 42.36367
64.465 41.742893
64.470 40.772514
64.475 39.668655
64.480 38.957428
64.485 39.213261
64.490 38.963577
64.495 39.266754
64.500 38.56284
64.505 38.661503
64.510 38.987896
64.515 39.088654
64.520 38.628002
64.525 37.911491
64.530 37.18512
64.535 37.051941
64.540 36.973518
64.545 35.959011
64.550 35.171505
64.555 34.982349
64.560 34.674995
64.565 34.205276
64.570 33.315727
64.575 33.133549
64.580 33.007198
64.585 32.332153
64.590 31.492496
64.595 30.744856
64.600 29.992041
64.605 29.900991
64.610 28.896315
64.615 28.979187
64.620 29.049221
64.625 28.701571
64.630 29.06562
64.635 29.314959
64.640 29.433575
64.645 29.461866
64.650 29.050032
64.655 28.891163
64.660 28.763775
64.665 28.149059
64.670 27.34886
64.675 26.279636
64.680 26.239199
64.685 26.569439
64.690 26.537495
64.695 25.696146
64.700 26.012426
64.705 26.461246
64.710 26.231953
64.715 25.249619
64.720 24.505184
64.725 24.368418
64.730 24.774948
64.735 24.974649
64.740 24.989908
64.745 24.994993
64.750 25.139051
64.755 24.86614
64.760 24.437017
64.765 24.362356
64.770 23.736542
64.775 23.323404
64.780 22.798426
64.785 22.263048
64.790 22.154087
64.795 22.389893
64.800 22.123976
64.805 21.855875
64.810 22.019457
64.815 22.516291
64.820 22.929197
64.825 22.792036
64.830 22.454065
64.835 23.129906
64.840 23.686375
64.845 23.604441
64.850 23.247118
64.855 23.441145
64.860 23.618607
64.865 24.213577
64.870 24.051994
64.875 23.681982
64.880 23.527893
64.885 23.640461
64.890 23.653765
64.895 23.669218
64.900 23.044006
64.905 22.687359
64.910 22.378519
64.915 22.050325
64.920 21.645107
64.925 21.531376
64.930 21.355209
64.935 21.464115
64.940 21.63945
64.945 21.886724
64.950 22.36558
64.955 22.049406
64.960 22.49214
64.965 22.641068
64.970 22.905998
64.975 23.56222
64.980 23.999699
64.985 24.657965
64.990 25.425987
64.995 24.939129
65.000 25.564453
65.005 25.718811
65.010 26.208382
65.015 26.340174
65.020 26.242334
65.025 26.841339
65.030 27.49424
65.035 27.344097
65.040 27.444117
65.045 26.741762
65.050 27.122694
65.055 27.402721
65.060 27.593914
65.065 28.46217
65.070 29.432758
65.075 29.82814
65.080 30.491734
65.085 30.120537
65.090 30.543434
65.095 30.378584
65.100 30.275251
65.105 30.38633
65.110 30.337063
65.115 30.268312
65.120 30.373926
65.125 30.78651
65.130 30.182777
65.135 29.527773
65.140 28.857504
65.145 28.540516
65.150 28.705214
65.155 28.821199
65.160 28.745949
65.165 29.756006
65.170 29.61311
65.175 29.077278
65.180 29.631296
65.185 29.608824
65.190 29.320654
65.195 28.461409
65.200 29.063116
65.205 30.089285
65.210 30.837633
65.215 30.633051
65.220 30.975803
65.225 31.042244
65.230 31.157528
65.235 30.008966
65.240 29.637972
65.245 29.516418
65.250 29.60005
65.255 29.132748
65.260 29.343451
65.265 29.158817
65.270 28.837908
65.275 28.793119
65.280 28.778231
65.285 28.559362
65.290 28.807505
65.295 29.169115
65.300 30.004627
65.305 30.382696
65.310 30.92049
65.315 31.517803
65.320 32.13929
65.325 32.249237
65.330 32.428879
65.335 32.931423
65.340 33.049786
65.345 33.079849
65.350 32.487499
65.355 32.072639
65.360 32.175213
65.365 31.972281
65.370 32.552887
65.375 32.966679
65.380 32.329208
65.385 32.962391
65.390 33.091244
65.395 32.925644
65.400 32.822521
65.405 32.218098
65.410 32.066322
65.415 32.291416
65.420 32.437969
65.425 32.806862
65.430 33.222515
65.435 33.463528
65.440 33.902973
65.445 33.499252
65.450 33.192974
65.455 32.830456
65.460 33.331554
65.465 33.72797
65.470 34.489967
65.475 34.234547
65.480 34.997646
65.485 35.624763
65.490 35.586273
65.495 35.514503
65.500 35.087868
65.505 34.795288
65.510 34.871025
65.515 34.69772
65.520 34.6619
65.525 34.874531
65.530 35.312801
65.535 36.180862
65.540 36.379131
65.545 36.587162
65.550 36.941544
65.555 37.224876
65.560 37.266312
65.565 37.121269
65.570 36.94466
65.575 36.490547
65.580 37.058685
65.585 37.003742
65.590 37.084263
65.595 37.104446
65.600 36.778694
65.605 37.134205
65.610 38.148651
65.615 38.859592
65.620 39.444321
65.625 39.985504
65.630 39.496185
65.635 39.378105
65.640 38.997562
65.645 38.654583
65.650 37.536774
65.655 36.762432
65.660 36.1605
65.665 36.565704
65.670 36.116062
65.675 35.814499
65.680 36.294331
65.685 37.019543
65.690 37.730087
65.695 37.668133
65.700 38.070087
65.705 38.580879
65.710 38.469707
65.715 38.040176
65.720 37.862206
65.725 37.974117
65.730 38.886467
65.735 37.919449
65.740 37.611164
65.745 37.962742
65.750 38.504307
65.755 38.546017
65.760 38.242348
65.765 37.952316
65.770 38.924946
65.775 39.298813
65.780 39.102291
65.785 38.675282
65.790 38.035679
65.795 37.681034
65.800 37.753639
65.805 37.662579
65.810 37.261223
65.815 37.312572
65.820 36.899197
65.825 37.043633
65.830 36.565289
65.835 36.799248
65.840 36.769554
65.845 36.89164
65.850 36.226849
65.855 36.911026
65.860 37.403984
65.865 37.904827
65.870 36.95892
65.875 36.745762
65.880 36.957314
65.885 37.060589
65.890 36.466743
65.895 34.924183
65.900 34.192814
65.905 34.78735
65.910 35.519566
65.915 35.525772
65.920 35.476475
65.925 35.579269
65.930 35.667568
65.935 35.665138
65.940 35.393768
65.945 34.901917
65.950 34.904457
65.955 34.319328
65.960 34.194931
65.965 34.358513
65.970 34.610363
65.975 34.077843
65.980 33.804043
65.985 33.404053
65.990 33.150997
65.995 33.16935
66.000 32.870323
66.005 32.847488
66.010 32.837128
66.015 32.058456
66.020 31.428577
66.025 31.148653
66.030 30.381323
66.035 29.90904
66.040 28.944761
66.045 28.743305
66.050 28.7036
66.055 29.044117
66.060 29.015985
66.065 29.762615
66.070 30.344337
66.075 29.681862
66.080 29.571735
66.085 29.175604
66.090 28.905876
66.095 28.525249
66.100 27.481794
66.105 27.339699
66.110 26.734777
66.115 26.218294
66.120 26.384733
66.125 26.110142
66.130 26.080257
66.135 26.143559
66.140 25.966105
66.145 26.394337
66.150 26.526529
66.155 26.78603
66.160 27.122118
66.165 27.424643
66.170 27.241638
66.175 26.864563
66.180 26.792719
66.185 26.676447
66.190 26.470364
66.195 26.369932
66.200 26.10564
66.205 26.359455
66.210 26.522655
66.215 26.868374
66.220 26.919401
66.225 26.629055
66.230 26.169611
66.235 26.170876
66.240 25.462423
66.245 25.084463
66.250 24.708559
66.255 24.473627
66.260 24.350821
66.265 24.392033
66.270 23.861698
66.275 24.311932
66.280 24.471874
66.285 24.094839
66.290 24.530741
66.295 24.576277
66.300 24.511881
66.305 24.955509
66.310 25.537983
66.315 25.564646
66.320 25.729958
66.325 24.919329
66.330 24.854416
66.335 24.777344
66.340 24.592215
66.345 24.156721
66.350 23.401854
66.355 22.530905
66.360 23.025444
66.365 23.247826
66.370 23.20768
66.375 22.446072
66.380 21.553513
66.385 21.842287
66.390 21.919874
66.395 21.292599
66.400 20.833313
66.405 20.691587
66.410 20.748524
66.415 21.499771
66.420 21.796144
66.425 21.937586
66.430 21.950079
66.435 21.946209
66.440 21.891546
66.445 22.196455
66.450 21.545061
66.455 20.965221
66.460 20.191732
66.465 20.172974
66.470 20.078875
66.475 20.294504
66.480 20.108757
66.485 20.583448
66.490 20.904871
66.495 21.338537
66.500 21.527687
66.505 21.575871
66.510 21.418438
66.515 21.131052
66.520 20.895132
66.525 20.984957
66.530 20.944761
66.535 21.123241
66.540 21.827648
66.545 21.619225
66.550 21.787321
66.555 21.732676
66.560 21.605997
66.565 20.741064
66.570 20.429575
66.575 19.953747
66.580 19.735071
66.585 19.558767
66.590 19.803162
66.595 20.428604
66.600 20.987589
66.605 20.44129
66.610 19.972769
66.615 20.173346
66.620 20.390673
66.625 19.780031
66.630 19.411325
66.635 19.475698
66.640 19.830799
66.645 19.925348
66.650 19.359644
66.655 18.940231
66.660 18.355888
66.665 18.065006
66.670 18.045483
66.675 17.771589
66.680 17.241816
66.685 17.529577
66.690 18.105984
66.695 18.613573
66.700 18.797915
66.705 18.366486
66.710 18.51696
66.715 18.781181
66.720 18.557617
66.725 18.366842
66.730 19.03973
66.735 19.038528
66.740 19.109978
66.745 19.469606
66.750 19.91791
66.755 19.84617
66.760 19.148615
66.765 18.611614
66.770 18.961906
66.775 19.391439
66.780 19.068378
66.785 18.825972
66.790 18.542526
66.795 18.46044
66.800 18.213543
66.805 18.437204
66.810 18.508612
66.815 18.670771
66.820 18.625385
66.825 19.384657
66.830 20.094158
66.835 20.268524
66.840 20.007282
66.845 19.386923
66.850 19.350037
66.855 18.912701
66.860 18.306448
66.865 17.842348
66.870 17.318806
66.875 17.281878
66.880 17.754877
66.885 18.314327
66.890 18.848974
66.895 19.187801
66.900 18.543306
66.905 18.117863
66.910 17.756001
66.915 17.577526
66.920 17.399998
66.925 17.898724
66.930 17.995255
66.935 18.2187
66.940 18.592779
66.945 19.469057
66.950 19.901962
66.955 19.55899
66.960 19.36997
66.965 19.736492
66.970 20.277187
66.975 20.263521
66.980 19.797487
66.985 19.796503
66.990 19.617174
66.995 19.305313
67.000 18.707922
67.005 18.836721
67.010 18.942171
67.015 19.142282
67.020 19.116379
67.025 19.238726
67.030 19.353718
67.035 19.833857
67.040 20.020105
67.045 20.284903
67.050 20.651457
67.055 21.008476
67.060 21.326164
67.065 20.329344
67.070 20.161095
67.075 20.040009
67.080 19.902025
67.085 19.244902
67.090 18.634392
67.095 18.593142
67.100 19.621719
67.105 19.848051
67.110 20.018147
67.115 19.827734
67.120 20.495998
67.125 20.825275
67.130 20.549202
67.135 20.120735
67.140 20.287859
67.145 19.994116
67.150 19.859776
67.155 19.135048
67.160 18.935041
67.165 19.316652
67.170 19.403133
67.175 18.68449
67.180 18.723221
67.185 18.566418
67.190 18.508877
67.195 18.586615
67.200 18.128645
67.205 17.724363
67.210 17.479658
67.215 17.331055
67.220 17.67009
67.225 17.648529
67.230 17.327559
67.235 17.435328
67.240 18.259932
67.245 19.169939
67.250 19.303146
67.255 19.169519
67.260 18.736515
67.265 18.644478
67.270 18.418139
67.275 17.896584
67.280 17.259771
67.285 17.701328
67.290 17.795954
67.295 18.327154
67.300 18.205662
67.305 18.609882
67.310 18.532421
67.315 19.082888
67.320 18.822433
67.325 18.708624
67.330 18.937437
67.335 19.497101
67.340 19.643932
67.345 19.868958
67.350 19.970505
67.355 19.98461
67.360 19.8561
67.365 19.605829
67.370 19.985022
67.375 20.263359
67.380 20.657459
67.385 20.452177
67.390 20.370762
67.395 20.654354
67.400 20.539524
67.405 20.366268
67.410 19.844629
67.415 19.129589
67.420 18.999073
67.425 19.426687
67.430 19.74324
67.435 19.639761
67.440 18.915655
67.445 19.022221
67.450 18.632698
67.455 18.739561
67.460 18.602659
67.465 18.135328
67.470 18.635881
67.475 19.17004
67.480 19.317993
67.485 20.206249
67.490 19.681107
67.495 19.347025
67.500 19.649784
67.505 20.060474
67.510 20.731323
67.515 21.397123
67.520 21.573301
67.525 21.883968
67.530 22.414352
67.535 22.193922
67.540 21.569283
67.545 20.910046
67.550 20.231787
67.555 20.446379
67.560 20.238926
67.565 19.873558
67.570 20.088148
67.575 19.636814
67.580 19.606848
67.585 19.443846
67.590 19.093204
67.595 19.386574
67.600 19.16836
67.605 19.110851
67.610 19.218943
67.615 19.274626
67.620 18.98394
67.625 18.910698
67.630 18.853054
67.635 18.898378
67.640 19.141068
67.645 18.902021
67.650 19.253204
67.655 19.675583
67.660 19.484852
67.665 19.787991
67.670 20.048491
67.675 20.232506
67.680 20.109993
67.685 19.311987
67.690 18.825415
67.695 19.476896
67.700 18.967844
67.705 18.316809
67.710 18.566872
67.715 19.290478
67.720 19.949305
67.725 20.844025
67.730 21.215479
67.735 21.97957
67.740 22.97501
67.745 22.713753
67.750 22.449524
67.755 22.361507
67.760 21.552336
67.765 20.819658
67.770 20.128494
67.775 19.61274
67.780 19.517233
67.785 19.125496
67.790 19.001686
67.795 18.696568
67.800 18.697645
67.805 19.620602
67.810 18.995218
67.815 19.019499
67.820 19.395382
67.825 19.249678
67.830 19.666555
67.835 19.661402
67.840 18.734509
67.845 19.012564
67.850 18.934439
67.855 19.024771
67.860 19.631001
67.865 20.210384
67.870 20.102623
67.875 19.787388
67.880 19.132301
67.885 19.07987
67.890 19.423079
67.895 18.850054
67.900 18.867022
67.905 19.335346
67.910 20.209604
67.915 20.393484
67.920 19.920748
67.925 19.006399
67.930 18.896065
67.935 18.624975
67.940 18.627756
67.945 18.980223
67.950 19.419147
67.955 20.18383
67.960 20.743923
67.965 20.606224
67.970 20.013832
67.975 19.627447
67.980 18.922071
67.985 18.471481
67.990 17.870272
67.995 17.374043
68.000 17.540728
68.005 17.613762
68.010 17.923367
68.015 18.16469
68.020 18.803802
68.025 19.916243
68.030 19.979818
68.035 19.918139
68.040 20.460089
68.045 21.026815
68.050 21.370884
68.055 21.116396
68.060 20.487909
68.065 20.532366
68.070 20.852947
68.075 20.694969
68.080 19.740261
68.085 19.679455
68.090 19.657618
68.095 19.838306
68.100 20.031258
68.105 19.821985
68.110 20.039692
68.115 20.794394
68.120 20.424326
68.125 20.585859
68.130 20.241982
68.135 20.257637
68.140 20.274235
68.145 19.778522
68.150 20.287184
68.155 20.794342
68.160 20.185541
68.165 20.653805
68.170 20.736551
68.175 20.825306
68.180 20.640703
68.185 19.656883
68.190 19.227121
68.195 19.407797
68.200 19.322056
68.205 19.697781
68.210 19.613657
68.215 19.886784
68.220 20.373119
68.225 20.563255
68.230 20.35862
68.235 20.542681
68.240 20.561127
68.245 20.821598
68.250 21.213392
68.255 21.071672
68.260 21.323486
68.265 21.544741
68.270 21.177874
68.275 20.896181
68.280 20.996281
68.285 21.360828
68.290 21.281206
68.295 21.349236
68.300 21.262295
68.305 21.138304
68.310 21.523607
68.315 21.519377
68.320 21.966652
68.325 22.490059
68.330 22.285547
68.335 22.565283
68.340 23.089567
68.345 23.009655
68.350 22.508434
68.355 22.151962
68.360 22.094898
68.365 22.221233
68.370 22.236303
68.375 22.812172
68.380 23.121105
68.385 23.493488
68.390 23.397167
68.395 23.570696
68.400 24.368315
68.405 24.216187
68.410 23.873213
68.415 24.462742
68.420 24.751446
68.425 24.461527
68.430 24.169222
68.435 23.653074
68.440 23.939528
68.445 23.854097
68.450 23.647154
68.455 23.898558
68.460 24.442724
68.465 25.176292
68.470 25.402292
68.475 25.186171
68.480 25.570568
68.485 25.379381
68.490 25.433256
68.495 25.799946
68.500 25.149744
68.505 25.678909
68.510 25.953276
68.515 25.892548
68.520 26.396887
68.525 25.961668
68.530 25.663954
68.535 25.883268
68.540 26.000286
68.545 25.976067
68.550 26.412819
68.555 26.900038
68.560 27.07192
68.565 28.234224
68.570 29.005695
68.575 28.906139
68.580 29.593853
68.585 29.712521
68.590 30.325333
68.595 31.162241
68.600 31.206778
68.605 31.404335
68.610 31.550575
68.615 31.432508
68.620 31.253389
68.625 31.267479
68.630 31.091364
68.635 31.152254
68.640 31.423794
68.645 31.611691
68.650 31.617899
68.655 31.352127
68.660 31.184252
68.665 31.189062
68.670 31.07741
68.675 31.575876
68.680 31.937349
68.685 32.178757
68.690 32.198074
68.695 33.093681
68.700 32.760605
68.705 32.444019
68.710 32.092106
68.715 32.06192
68.720 32.501476
68.725 32.132454
68.730 31.848675
68.735 31.627821
68.740 31.372412
68.745 31.028957
68.750 31.121569
68.755 31.024582
68.760 31.190403
68.765 31.770081
68.770 32.616142
68.775 33.269783
68.780 33.607445
68.785 34.076469
68.790 34.479191
68.795 34.674263
68.800 34.494194
68.805 34.38332
68.810 34.495743
68.815 34.373745
68.820 34.34169
68.825 34.128052
68.830 34.846653
68.835 35.429165
68.840 35.057819
68.845 35.219833
68.850 35.063049
68.855 34.750977
68.860 34.588482
68.865 34.635586
68.870 35.120796
68.875 35.31876
68.880 35.031261
68.885 35.328159
68.890 36.14283
68.895 36.538578
68.900 36.433273
68.905 36.313759
68.910 36.247551
68.915 35.857147
68.920 35.691696
68.925 35.284206
68.930 35.639137
68.935 35.126617
68.940 34.898781
68.945 35.20718
68.950 35.071926
68.955 34.540031
68.960 34.02726
68.965 33.257221
68.970 33.364227
68.975 32.927029
68.980 33.25444
68.985 33.392769
68.990 33.585453
68.995 33.606815
69.000 33.540604
69.005 33.481445
69.010 33.59502
69.015 32.785908
69.020 32.97924
69.025 33.849895
69.030 34.061577
69.035 34.464432
69.040 34.282089
69.045 34.092888
69.050 34.427876
69.055 34.833549
69.060 34.877808
69.065 35.264919
69.070 35.061443
69.075 34.962032
69.080 35.151035
69.085 35.376781
69.090 34.816143
69.095 33.82679
69.100 34.052483
69.105 34.784637
69.110 35.12048
69.115 35.048393
69.120 34.895073
69.125 34.248096
69.130 34.14019
69.135 33.507385
69.140 32.733562
69.145 32.092873
69.150 32.238651
69.155 32.37265
69.160 32.802349
69.165 32.542103
69.170 32.231319
69.175 31.742401
69.180 31.262175
69.185 30.575567
69.190 30.0623
69.195 29.770287
69.200 30.157364
69.205 30.145744
69.210 30.275778
69.215 30.356045
69.220 29.778851
69.225 29.960531
69.230 29.697046
69.235 29.770607
69.240 29.164415
69.245 29.111059
69.250 29.012947
69.255 29.279797
69.260 28.908197
69.265 28.698517
69.270 27.863129
69.275 27.949949
69.280 27.583784
69.285 27.111322
69.290 27.543808
69.295 27.297495
69.300 27.172262
69.305 27.103056
69.310 26.673309
69.315 26.327839
69.320 26.046396
69.325 25.277222
69.330 25.110153
69.335 25.061562
69.340 24.675354
69.345 24.405788
69.350 25.159815
69.355 25.53282
69.360 25.570751
69.365 25.564966
69.370 25.293501
69.375 25.313318
69.380 25.880386
69.385 25.299932
69.390 25.265696
69.395 24.67676
69.400 24.231258
69.405 24.223692
69.410 24.091417
69.415 24.001774
69.420 23.710138
69.425 23.39834
69.430 23.923203
69.435 24.017593
69.440 23.964226
69.445 23.952129
69.450 24.088503
69.455 24.327858
69.460 24.606592
69.465 24.505104
69.470 24.800444
69.475 24.81876
69.480 25.337336
69.485 24.671255
69.490 24.201611
69.495 24.127167
69.500 24.139982
69.505 23.506626
69.510 22.546118
69.515 21.286448
69.520 20.816153
69.525 21.245905
69.530 20.977129
69.535 21.079048
69.540 21.585783
69.545 21.524658
69.550 22.256878
69.555 22.552593
69.560 21.931171
69.565 21.87682
69.570 21.70775
69.575 22.122993
69.580 22.677183
69.585 22.218847
69.590 22.134645
69.595 22.249725
69.600 22.111521
69.605 21.887085
69.610 21.569565
69.615 21.28381
69.620 20.665234
69.625 20.370312
69.630 19.815531
69.635 19.344751
69.640 18.957344
69.645 18.609114
69.650 18.549974
69.655 19.063925
69.660 18.986574
69.665 19.47744
69.670 19.890835
69.675 20.034128
69.680 20.094769
69.685 20.823433
69.690 21.166567
69.695 21.145458
69.700 21.214468
69.705 20.760794
69.710 21.185019
69.715 21.116083
69.720 20.218744
69.725 19.959921
69.730 19.688347
69.735 19.335785
69.740 19.085583
69.745 18.939276
69.750 19.209009
69.755 19.337973
69.760 20.113617
69.765 20.821831
69.770 20.92609
69.775 21.408445
69.780 21.293791
69.785 21.343084
69.790 20.67729
69.795 19.429625
69.800 19.157087
69.805 19.007803
69.810 18.985359
69.815 18.70854
69.820 17.991123
69.825 18.618763
69.830 18.517492
69.835 18.518763
69.840 18.780235
69.845 19.146286
69.850 19.295408
69.855 19.918756
69.860 19.744493
69.865 20.088249
69.870 20.514585
69.875 20.651093
69.880 20.541721
69.885 20.186884
69.890 19.942812
69.895 20.884583
69.900 21.10976
69.905 20.88682
69.910 21.299046
69.915 21.335545
69.920 21.608015
69.925 21.044594
69.930 20.289095
69.935 20.214474
69.940 20.026217
69.945 19.640903
69.950 19.62138
69.955 19.920769
69.960 20.479387
69.965 20.825148
69.970 20.311327
69.975 19.656624
69.980 19.003164
69.985 18.544806
69.990 18.941544
69.995 18.702291
70.000 18.042818
70.005 18.101765
70.010 19.118217
70.015 19.279318
70.020 19.091988
70.025 18.849878
70.030 18.921671
70.035 19.149185
70.040 19.285694
70.045 18.718798
70.050 18.714207
70.055 18.42012
70.060 18.108532
70.065 18.685163
70.070 18.77733
70.075 18.613379
70.080 18.31703
70.085 18.316128
70.090 18.734411
70.095 18.641399
70.100 18.540085
70.105 18.102892
70.110 18.269585
70.115 19.052952
70.120 19.568672
70.125 19.676144
70.130 19.888407
70.135 19.734322
70.140 20.126789
70.145 20.73559
70.150 20.481937
70.155 20.197405
70.160 19.84955
70.165 19.323309
70.170 18.688744
70.175 18.427416
70.180 17.782026
70.185 17.783972
70.190 17.668726
70.195 18.203732
70.200 18.958864
70.205 19.855608
70.210 19.194445
70.215 18.912336
70.220 18.95166
70.225 19.044273
70.230 18.813412
70.235 18.495455
70.240 18.559359
70.245 19.316746
70.250 20.479872
70.255 20.935942
70.260 20.4105
70.265 20.389891
70.270 19.807228
70.275 19.059158
70.280 18.981514
70.285 18.580441
70.290 18.16935
70.295 19.189789
70.300 19.477858
70.305 19.82551
70.310 19.788549
70.315 19.119205
70.320 18.768793
70.325 18.52943
70.330 17.881762
70.335 17.401115
70.340 17.458498
70.345 17.07942
70.350 16.684469
70.355 17.070618
70.360 17.301331
70.365 17.239868
70.370 17.31657
70.375 17.022236
70.380 17.477083
70.385 18.411409
70.390 17.886919
70.395 17.909286
70.400 18.035503
70.405 18.375122
70.410 18.703659
70.415 18.34296
70.420 18.547874
70.425 19.15642
70.430 19.203306
70.435 19.176931
70.440 19.223484
70.445 19.482944
70.450 19.058088
70.455 18.669718
70.460 18.06251
70.465 18.093086
70.470 18.304934
70.475 18.300671
70.480 18.489828
70.485 19.263592
70.490 19.439215
70.495 19.376637
70.500 18.993006
70.505 18.74831
70.510 19.019918
70.515 19.058811
70.520 19.051594
70.525 19.144724
70.530 19.558628
70.535 19.573526
70.540 20.055437
70.545 19.454767
70.550 19.241232
70.555 18.422443
70.560 17.822609
70.565 17.74551
70.570 17.951883
70.575 17.639597
70.580 17.880121
70.585 17.857414
70.590 18.340584
70.595 18.864826
70.600 19.801634
70.605 19.690834
70.610 19.486183
70.615 19.920414
70.620 20.424955
70.625 20.844393
70.630 20.718132
70.635 19.568031
70.640 19.504036
70.645 19.982311
70.650 19.985689
70.655 19.501974
70.660 19.57864
70.665 19.379847
70.670 19.862328
70.675 19.784475
70.680 19.516888
70.685 19.430759
70.690 19.43363
70.695 19.147509
70.700 18.745745
70.705 18.456814
70.710 18.291327
70.715 18.659101
70.720 19.34433
70.725 19.532486
70.730 19.626188
70.735 20.652699
70.740 21.325809
70.745 21.281803
70.750 20.255613
70.755 19.954611
70.760 19.890129
70.765 19.289371
70.770 18.034653
70.775 17.644505
70.780 17.745018
70.785 17.43836
70.790 16.8459
70.795 16.923368
70.800 17.972681
70.805 18.511896
70.810 18.389439
70.815 18.397163
70.820 18.929897
70.825 18.964558
70.830 18.127136
70.835 17.830484
70.840 17.913265
70.845 17.929306
70.850 18.242044
70.855 18.868763
70.860 19.160305
70.865 19.389288
70.870 19.449257
70.875 19.817089
70.880 19.86437
70.885 19.880938
70.890 18.898373
70.895 18.806034
70.900 18.880281
70.905 18.530338
70.910 18.625122
70.915 18.766953
70.920 18.269058
70.925 18.87077
70.930 18.917906
70.935 18.522587
70.940 17.900944
70.945 17.510181
70.950 17.322533
70.955 17.864206
70.960 17.643232
70.965 17.547026
70.970 17.932472
70.975 18.291454
70.980 18.176462
70.985 18.448538
70.990 18.522766
70.995 18.408909
71.000 18.282358
71.005 18.918837
71.010 19.08165
71.015 19.397076
71.020 19.504622
71.025 19.54446
71.030 19.779325
71.035 19.861771
71.040 18.922392
71.045 18.60564
71.050 18.477804
71.055 17.96022
71.060 18.019264
71.065 17.919739
71.070 18.283173
71.075 18.090649
71.080 18.432028
71.085 18.500723
71.090 18.589743
71.095 18.579054
71.100 17.993616
71.105 17.770578
71.110 18.508329
71.115 18.951956
71.120 18.900557
71.125 18.751244
71.130 18.475622
71.135 19.284307
71.140 19.669203
71.145 18.560555
71.150 17.635382
71.155 17.784281
71.160 17.938351
71.165 18.009222
71.170 17.749407
71.175 17.630283
71.180 17.85458
71.185 18.377346
71.190 18.329025
71.195 18.503756
71.200 18.530235
71.205 18.319782
71.210 17.681921
71.215 17.669048
71.220 17.101377
71.225 16.829821
71.230 16.93457
71.235 16.652697
71.240 17.126013
71.245 18.090374
71.250 18.273817
71.255 18.940931
71.260 19.029356
71.265 19.175083
71.270 18.91527
71.275 18.368191
71.280 18.496061
71.285 18.439459
71.290 18.422878
71.295 17.926561
71.300 17.631165
71.305 17.84062
71.310 17.749073
71.315 17.479958
71.320 17.374733
71.325 17.239019
71.330 17.746372
71.335 17.700195
71.340 17.706905
71.345 18.22611
71.350 18.035282
71.355 18.326097
71.360 18.677572
71.365 18.529354
71.370 18.342625
71.375 19.088856
71.380 18.823126
71.385 18.450539
71.390 18.044739
71.395 18.119993
71.400 19.278086
71.405 19.623068
71.410 18.453604
71.415 18.73476
71.420 18.82933
71.425 18.911358
71.430 18.368616
71.435 17.372683
71.440 16.914614
71.445 17.406212
71.450 17.660236
71.455 17.562429
71.460 17.80138
71.465 17.787931
71.470 17.812725
71.475 17.615366
71.480 17.66539
71.485 17.723593
71.490 17.946566
71.495 18.053949
71.500 17.848864
71.505 18.119707
71.510 18.121284
71.515 17.816263
71.520 17.596556
71.525 17.072868
71.530 17.087662
71.535 17.090088
71.540 17.543793
71.545 18.090078
71.550 18.148964
71.555 18.349058
71.560 18.676474
71.565 18.706537
71.570 18.767925
71.575 18.125933
71.580 17.53161
71.585 17.502695
71.590 17.875296
71.595 18.002878
71.600 18.677134
71.605 19.097912
71.610 19.731407
71.615 20.287617
71.620 19.823269
71.625 19.700274
71.630 19.871416
71.635 19.363728
71.640 19.164637
71.645 18.847412
71.650 18.899437
71.655 19.214323
71.660 18.960409
71.665 18.900616
71.670 19.31822
71.675 19.480112
71.680 19.410812
71.685 19.576021
71.690 19.83473
71.695 20.453617
71.700 20.434536
71.705 19.91297
71.710 19.385418
71.715 18.990978
71.720 18.723045
71.725 18.582905
71.730 17.996983
71.735 17.338057
71.740 18.068563
71.745 18.25293
71.750 18.27294
71.755 18.069294
71.760 18.419655
71.765 18.557308
71.770 18.345608
71.775 18.08436
71.780 18.546326
71.785 19.222445
71.790 19.409002
71.795 19.252024
71.800 19.636972
71.805 19.945168
71.810 19.842592
71.815 20.168404
71.820 19.539532
71.825 18.708275
71.830 18.19648
71.835 18.229004
71.840 18.61607
71.845 18.484453
71.850 17.57041
71.855 17.865923
71.860 18.503561
71.865 18.680159
71.870 18.703074
71.875 19.031784
71.880 19.4009
71.885 19.697798
71.890 19.586529
71.895 20.101446
71.900 19.860292
71.905 19.513296
71.910 19.616184
71.915 19.942163
71.920 20.376671
71.925 20.191992
71.930 20.255611
71.935 20.759245
71.940 20.582626
71.945 20.555304
71.950 20.34886
71.955 19.398758
71.960 19.564449
71.965 18.795914
71.970 17.791252
71.975 16.828188
71.980 16.294136
71.985 16.247335
71.990 16.735506
71.995 16.72472
72.000 17.081533
72.005 17.859911
72.010 18.555592
72.015 18.883011
72.020 19.17045
72.025 19.523531
72.030 19.753254
72.035 19.755026
72.040 19.859753
72.045 19.625462
72.050 19.342007
72.055 19.099762
72.060 18.150986
72.065 17.314297
72.070 17.28524
72.075 16.486443
72.080 16.39259
72.085 16.417639
72.090 16.059694
72.095 16.380047
72.100 16.624277
72.105 16.74832
72.110 17.134024
72.115 16.702534
72.120 16.958858
72.125 17.1028
72.130 17.057966
72.135 17.299395
72.140 17.550207
72.145 17.444931
72.150 17.895184
72.155 17.712809
72.160 17.86307
72.165 17.780134
72.170 17.798586
72.175 18.105385
72.180 18.771551
72.185 19.140207
72.190 19.382517
72.195 19.624702
72.200 19.535168
72.205 19.248226
72.210 19.256498
72.215 19.31645
72.220 19.037247
72.225 19.128399
72.230 19.269173
72.235 19.61211
72.240 19.734707
72.245 19.397821
72.250 19.30789
72.255 19.542891
72.260 19.636581
72.265 19.341415
72.270 18.81019
72.275 18.885241
72.280 18.882572
72.285 18.633472
72.290 18.429249
72.295 18.157927
72.300 18.619133
72.305 18.881575
72.310 18.979309
72.315 19.541214
72.320 19.671057
72.325 19.866266
72.330 19.617275
72.335 19.488739
72.340 19.260021
72.345 18.765078
72.350 18.395708
72.355 18.472744
72.360 17.815678
72.365 17.744658
72.370 17.381819
72.375 16.825577
72.380 17.084902
72.385 16.869732
72.390 16.99402
72.395 17.388847
72.400 17.276604
72.405 17.793747
72.410 17.82888
72.415 17.267582
72.420 17.429298
72.425 17.190777
72.430 17.141237
72.435 17.29723
72.440 17.159573
72.445 17.300518
72.450 17.43417
72.455 17.182177
72.460 17.234272
72.465 17.342241
72.470 17.310274
72.475 17.35416
72.480 17.5147
72.485 17.31636
72.490 17.371666
72.495 16.891964
72.500 16.992607
72.505 17.397551
72.510 17.493973
72.515 17.497679
72.520 18.007116
72.525 17.93615
72.530 18.245939
72.535 17.864777
72.540 17.104374
72.545 16.554031
72.550 16.226402
72.555 16.489758
72.560 16.037584
72.565 15.756952
72.570 16.102665
72.575 16.94149
72.580 17.454735
72.585 17.476416
72.590 17.715717
72.595 18.444033
72.600 18.907843
72.605 19.170412
72.610 19.295397
72.615 18.938265
72.620 18.699289
72.625 18.549063
72.630 18.341301
72.635 17.99976
72.640 16.947424
72.645 16.534824
72.650 16.983982
72.655 17.89426
72.660 18.187893
72.665 18.027283
72.670 17.768257
72.675 18.283039
72.680 18.27298
72.685 17.674318
72.690 17.039272
72.695 16.9182
72.700 17.135937
72.705 17.346375
72.710 17.500381
72.715 17.10932
72.720 16.761101
72.725 16.926687
72.730 17.158163
72.735 17.731409
72.740 17.42864
72.745 17.313391
72.750 17.818123
72.755 18.288639
72.760 17.749123
72.765 17.144308
72.770 16.798046
72.775 17.07551
72.780 17.115194
72.785 17.209938
72.790 17.648838
72.795 17.318277
72.800 17.566568
72.805 17.031643
72.810 17.310696
72.815 17.303961
72.820 16.549658
72.825 16.566647
72.830 17.134413
72.835 17.883411
72.840 18.353769
72.845 18.378206
72.850 18.319632
72.855 18.276838
72.860 18.131538
72.865 17.43202
72.870 16.759218
72.875 16.582563
72.880 16.521379
72.885 16.956202
72.890 16.830538
72.895 16.368069
72.900 17.166262
72.905 17.578173
72.910 17.40008
72.915 16.83419
72.920 16.786911
72.925 17.073999
72.930 17.40601
72.935 16.683758
72.940 16.250408
72.945 16.279022
72.950 16.520254
72.955 16.327272
72.960 15.880899
72.965 15.796834
72.970 16.061653
72.975 16.50186
72.980 17.024355
72.985 17.540642
72.990 18.006418
72.995 18.611397
73.000 18.811964
