!@!!GADDS PLOTSO FILE: Chi integration type
!@!!Title/SampleName: map-163
!@!!Comment: ?
!@!!User: Bruker Instrument Administrator
!@!!Site: University of Illinois Chicago
!@!!Frame: map-163_01_000.gfrm
!@!!Wavelengths    1.54184   1.54056   1.54439
!@!!Frame angles: 2Theta: 63.000 Omega: 50.000 Phi: 0.000 Chi: 90.000
!@!!Integration range: 2Theta: 53.000 to 73.000  Gamma: -105.000 to -75.000
!@!!Integration method: bin normalized
!@!N
!@!SS
!@!M
!@!L 0.0 0.0 0.0 0.0
!@!XDegrees
!@!YCounts
53.000 4.380232
53.005 4.235006
53.010 3.99231
53.015 3.88117
53.020 3.872417
53.025 4.090611
53.030 4.013873
53.035 3.854074
53.040 3.674188
53.045 3.595376
53.050 3.340267
53.055 3.291745
53.060 3.131465
53.065 3.351137
53.070 3.360852
53.075 3.410906
53.080 3.786339
53.085 4.147512
53.090 4.333467
53.095 4.185567
53.100 4.222348
53.105 4.38744
53.110 4.604194
53.115 4.852053
53.120 4.682835
53.125 4.586213
53.130 4.630282
53.135 4.572623
53.140 4.524177
53.145 4.597247
53.150 4.210541
53.155 4.248195
53.160 4.539547
53.165 4.299503
53.170 4.322657
53.175 4.295037
53.180 4.375646
53.185 4.284844
53.190 4.27284
53.195 4.164409
53.200 4.302805
53.205 4.33587
53.210 4.133156
53.215 4.090667
53.220 4.214973
53.225 4.307536
53.230 4.435862
53.235 4.451755
53.240 4.442613
53.245 4.56875
53.250 4.569706
53.255 4.712064
53.260 4.778532
53.265 4.680459
53.270 4.704181
53.275 4.799459
53.280 5.059936
53.285 5.093632
53.290 5.027152
53.295 4.838727
53.300 5.126405
53.305 5.084333
53.310 4.842556
53.315 4.325267
53.320 4.084405
53.325 3.929342
53.330 4.007391
53.335 3.768413
53.340 3.597782
53.345 3.725755
53.350 3.741344
53.355 3.876405
53.360 4.354553
53.365 4.654571
53.370 4.981302
53.375 5.165517
53.380 5.379205
53.385 5.609975
53.390 5.436905
53.395 5.032101
53.400 4.331946
53.405 3.933777
53.410 3.588202
53.415 3.387249
53.420 3.394187
53.425 3.135537
53.430 3.285533
53.435 3.601096
53.440 3.607208
53.445 4.060788
53.450 4.096057
53.455 4.091193
53.460 4.436565
53.465 4.617234
53.470 4.822218
53.475 4.778704
53.480 4.531585
53.485 4.893703
53.490 5.016042
53.495 5.085211
53.500 4.968821
53.505 5.130055
53.510 5.330133
53.515 5.155769
53.520 4.851132
53.525 4.71082
53.530 4.523635
53.535 4.663507
53.540 4.634226
53.545 4.659657
53.550 4.557908
53.555 4.401537
53.560 4.617892
53.565 4.480386
53.570 3.864373
53.575 3.710424
53.580 3.53789
53.585 3.450902
53.590 3.55328
53.595 3.383224
53.600 3.592502
53.605 3.892427
53.610 3.668995
53.615 3.961965
53.620 4.181321
53.625 4.038649
53.630 4.303182
53.635 4.535563
53.640 4.737443
53.645 5.089448
53.650 4.940482
53.655 4.978247
53.660 4.836125
53.665 4.850236
53.670 4.968074
53.675 4.969603
53.680 5.113012
53.685 5.048968
53.690 4.999021
53.695 5.094944
53.700 4.990978
53.705 4.548642
53.710 4.599267
53.715 4.44386
53.720 4.746932
53.725 4.664667
53.730 4.680391
53.735 4.669871
53.740 5.025054
53.745 5.195898
53.750 5.083791
53.755 5.289962
53.760 5.818277
53.765 5.775304
53.770 5.533657
53.775 5.508403
53.780 5.48958
53.785 5.754946
53.790 5.456104
53.795 4.977218
53.800 5.105414
53.805 5.349377
53.810 5.289306
53.815 5.32862
53.820 5.173354
53.825 5.340639
53.830 5.345196
53.835 5.26369
53.840 5.033844
53.845 4.871657
53.850 4.769355
53.855 4.835595
53.860 4.581835
53.865 4.571661
53.870 4.460541
53.875 4.53491
53.880 4.604555
53.885 4.448269
53.890 4.266622
53.895 4.396286
53.900 4.494299
53.905 4.658825
53.910 4.578662
53.915 4.404494
53.920 4.431708
53.925 4.740414
53.930 4.670913
53.935 4.648905
53.940 4.581871
53.945 4.566437
53.950 4.654694
53.955 4.634211
53.960 4.379506
53.965 4.454467
53.970 4.922919
53.975 4.979551
53.980 4.949623
53.985 5.004119
53.990 5.359151
53.995 5.813253
54.000 5.772411
54.005 5.580045
54.010 5.468041
54.015 5.569162
54.020 5.50071
54.025 5.088408
54.030 5.15594
54.035 5.140313
54.040 5.175189
54.045 5.535141
54.050 5.438086
54.055 5.467237
54.060 5.39022
54.065 5.072405
54.070 5.262977
54.075 5.209835
54.080 5.264993
54.085 5.546433
54.090 6.119712
54.095 6.301554
54.100 6.302615
54.105 6.474983
54.110 6.69846
54.115 6.794615
54.120 6.364198
54.125 5.655953
54.130 5.712919
54.135 6.056164
54.140 6.095435
54.145 5.836698
54.150 5.782014
54.155 6.172885
54.160 6.421155
54.165 6.442864
54.170 6.182765
54.175 5.79957
54.180 5.484755
54.185 5.283429
54.190 5.625043
54.195 5.937019
54.200 5.922175
54.205 6.172698
54.210 6.300383
54.215 6.556081
54.220 6.593078
54.225 6.249701
54.230 5.895852
54.235 5.77367
54.240 5.764376
54.245 5.877311
54.250 5.615184
54.255 5.401643
54.260 5.733288
54.265 6.000565
54.270 6.136574
54.275 5.92682
54.280 5.825322
54.285 6.025976
54.290 6.115874
54.295 5.859593
54.300 5.445765
54.305 5.327716
54.310 5.530807
54.315 5.700045
54.320 5.741459
54.325 5.567082
54.330 5.425677
54.335 5.494446
54.340 5.191221
54.345 5.196624
54.350 5.118485
54.355 5.079722
54.360 5.059026
54.365 5.046103
54.370 4.960582
54.375 5.3631
54.380 5.481862
54.385 5.377083
54.390 5.497373
54.395 5.702315
54.400 5.917049
54.405 6.235507
54.410 6.171262
54.415 6.166646
54.420 6.128102
54.425 5.97176
54.430 5.942215
54.435 5.770314
54.440 5.676959
54.445 5.628701
54.450 5.677966
54.455 5.974997
54.460 6.008429
54.465 5.803454
54.470 5.522112
54.475 5.337238
54.480 5.308309
54.485 5.349952
54.490 5.344604
54.495 5.592267
54.500 5.517091
54.505 5.499198
54.510 5.3061
54.515 5.28344
54.520 4.906081
54.525 4.561436
54.530 4.230086
54.535 4.118557
54.540 4.125838
54.545 4.081121
54.550 4.046631
54.555 4.259237
54.560 4.417236
54.565 4.647503
54.570 4.918652
54.575 4.855855
54.580 4.840014
54.585 4.793427
54.590 4.923021
54.595 5.075169
54.600 4.870486
54.605 4.747085
54.610 4.718404
54.615 4.589735
54.620 4.857348
54.625 4.702652
54.630 4.836499
54.635 5.34927
54.640 5.821834
54.645 6.357731
54.650 6.300498
54.655 6.020909
54.660 6.070282
54.665 6.145276
54.670 6.11303
54.675 5.384041
54.680 4.987149
54.685 5.267934
54.690 5.34582
54.695 5.084429
54.700 4.870131
54.705 4.837666
54.710 5.163662
54.715 5.111539
54.720 4.82892
54.725 4.981569
54.730 4.955397
54.735 4.895805
54.740 5.015512
54.745 5.295548
54.750 5.332557
54.755 5.170633
54.760 4.931697
54.765 4.962899
54.770 5.033047
54.775 4.852681
54.780 4.687958
54.785 4.612414
54.790 4.784377
54.795 4.914972
54.800 5.058582
54.805 5.156939
54.810 5.54768
54.815 6.050984
54.820 6.527481
54.825 6.609527
54.830 6.573777
54.835 6.270931
54.840 6.04974
54.845 5.525734
54.850 5.179363
54.855 5.066325
54.860 5.243808
54.865 5.355867
54.870 5.718147
54.875 5.719141
54.880 5.591161
54.885 5.515526
54.890 5.353886
54.895 5.11304
54.900 4.932171
54.905 4.586077
54.910 4.524296
54.915 4.387785
54.920 4.36456
54.925 4.749341
54.930 4.973723
54.935 5.126114
54.940 4.923287
54.945 4.816794
54.950 4.993493
54.955 4.920502
54.960 4.455539
54.965 4.081864
54.970 4.114693
54.975 4.458875
54.980 4.637317
54.985 4.506483
54.990 4.497092
54.995 4.590211
55.000 4.935717
55.005 5.195911
55.010 5.289684
55.015 5.329731
55.020 5.724395
55.025 5.983808
55.030 5.998609
55.035 5.868301
55.040 5.546745
55.045 5.860523
55.050 5.750743
55.055 5.246542
55.060 5.197124
55.065 5.014824
55.070 4.832932
55.075 4.745328
55.080 4.460023
55.085 4.365333
55.090 4.338383
55.095 4.242327
55.100 4.398588
55.105 4.598135
55.110 4.888274
55.115 5.387054
55.120 6.083487
55.125 6.293372
55.130 6.568968
55.135 6.857658
55.140 6.873936
55.145 6.77627
55.150 6.214034
55.155 5.570409
55.160 5.224771
55.165 4.675763
55.170 4.375607
55.175 4.186616
55.180 4.263738
55.185 4.749013
55.190 5.345823
55.195 5.834322
55.200 6.191163
55.205 6.1117
55.210 6.371624
55.215 6.075231
55.220 5.53132
55.225 5.165708
55.230 4.825605
55.235 4.635799
55.240 4.889939
55.245 5.103933
55.250 5.295202
55.255 5.742943
55.260 5.807484
55.265 6.15872
55.270 6.359294
55.275 6.095699
55.280 6.09968
55.285 6.106218
55.290 5.716556
55.295 5.800601
55.300 5.476289
55.305 5.438015
55.310 5.290712
55.315 5.102531
55.320 5.236506
55.325 5.278636
55.330 5.148905
55.335 5.323266
55.340 5.431149
55.345 5.258732
55.350 5.290457
55.355 5.346777
55.360 5.328676
55.365 5.105316
55.370 4.687748
55.375 4.599769
55.380 4.787966
55.385 4.81049
55.390 4.724906
55.395 4.367309
55.400 4.504467
55.405 4.694672
55.410 4.485106
55.415 4.043453
55.420 3.822191
55.425 4.076743
55.430 4.378191
55.435 4.219378
55.440 4.412033
55.445 4.460002
55.450 4.558956
55.455 4.3699
55.460 4.349123
55.465 4.766819
55.470 4.699866
55.475 4.589595
55.480 4.816064
55.485 4.834592
55.490 4.851409
55.495 4.97922
55.500 4.958548
55.505 5.114805
55.510 5.216969
55.515 5.342961
55.520 5.485712
55.525 5.470078
55.530 5.256573
55.535 5.279505
55.540 5.444395
55.545 5.693777
55.550 5.678414
55.555 5.842093
55.560 5.978134
55.565 6.037013
55.570 5.866431
55.575 5.447649
55.580 5.044328
55.585 4.822088
55.590 4.615916
55.595 4.653303
55.600 4.442576
55.605 4.510038
55.610 4.669997
55.615 4.795088
55.620 4.790071
55.625 4.693435
55.630 4.510451
55.635 4.514596
55.640 4.51265
55.645 4.683431
55.650 4.847312
55.655 5.125073
55.660 5.282691
55.665 5.414305
55.670 5.668382
55.675 5.895137
55.680 5.814526
55.685 5.883752
55.690 6.017995
55.695 5.917695
55.700 5.926835
55.705 5.711876
55.710 5.512078
55.715 5.475852
55.720 5.116395
55.725 4.838369
55.730 4.638107
55.735 4.651934
55.740 4.468006
55.745 4.262195
55.750 4.502418
55.755 4.586796
55.760 4.901816
55.765 5.026112
55.770 4.929358
55.775 5.031531
55.780 5.312541
55.785 5.020651
55.790 4.930342
55.795 4.801288
55.800 4.976137
55.805 5.20433
55.810 5.181983
55.815 4.961556
55.820 4.982346
55.825 5.5069
55.830 5.426623
55.835 5.495352
55.840 5.481099
55.845 5.4814
55.850 5.376723
55.855 5.296836
55.860 5.105826
55.865 5.008823
55.870 4.81031
55.875 4.659662
55.880 4.477548
55.885 4.495301
55.890 4.545601
55.895 4.653468
55.900 5.077103
55.905 5.114069
55.910 5.256801
55.915 5.900037
55.920 6.124026
55.925 5.918263
55.930 5.474761
55.935 5.022684
55.940 4.950727
55.945 5.026078
55.950 4.825398
55.955 4.935967
55.960 4.886201
55.965 5.080546
55.970 5.149752
55.975 5.147445
55.980 5.005679
55.985 4.639241
55.990 4.503409
55.995 4.644336
56.000 4.661497
56.005 4.765282
56.010 5.007579
56.015 4.712386
56.020 4.685381
56.025 5.039861
56.030 4.793664
56.035 4.957517
56.040 4.929099
56.045 4.832069
56.050 5.259301
56.055 5.225082
56.060 5.103511
56.065 5.593759
56.070 5.553032
56.075 5.476818
56.080 5.577532
56.085 5.781198
56.090 5.697194
56.095 5.552001
56.100 5.194489
56.105 5.431621
56.110 5.51568
56.115 5.190977
56.120 5.048877
56.125 5.235072
56.130 5.602445
56.135 5.793942
56.140 5.65369
56.145 5.752407
56.150 5.781984
56.155 5.936233
56.160 5.893902
56.165 5.410268
56.170 5.285454
56.175 5.07335
56.180 5.102318
56.185 5.274861
56.190 5.142235
56.195 4.952098
56.200 5.425225
56.205 5.373919
56.210 5.720047
56.215 6.157428
56.220 6.358554
56.225 6.534658
56.230 7.036314
56.235 7.005649
56.240 7.033391
56.245 6.588776
56.250 6.166703
56.255 5.826083
56.260 5.674179
56.265 5.35287
56.270 4.951316
56.275 5.001407
56.280 4.898019
56.285 4.718862
56.290 4.791608
56.295 4.734766
56.300 4.660233
56.305 4.885918
56.310 4.849479
56.315 4.951813
56.320 4.875383
56.325 4.957913
56.330 5.167017
56.335 5.444737
56.340 5.628787
56.345 5.700495
56.350 5.728965
56.355 5.626546
56.360 5.327415
56.365 5.19194
56.370 4.714964
56.375 4.440703
56.380 4.45591
56.385 4.735938
56.390 5.172075
56.395 5.410736
56.400 5.591621
56.405 6.131728
56.410 6.505843
56.415 6.526893
56.420 6.228666
56.425 5.934957
56.430 5.896906
56.435 5.798262
56.440 5.636515
56.445 5.694657
56.450 5.611549
56.455 5.66194
56.460 5.890913
56.465 6.14209
56.470 6.066277
56.475 6.005767
56.480 5.800238
56.485 5.97936
56.490 6.553652
56.495 6.163523
56.500 5.815402
56.505 5.892128
56.510 6.045446
56.515 6.059982
56.520 6.076716
56.525 5.633036
56.530 5.702164
56.535 5.846129
56.540 6.00461
56.545 6.027654
56.550 5.68499
56.555 5.876672
56.560 5.892364
56.565 5.949273
56.570 5.666736
56.575 5.340501
56.580 5.371123
56.585 5.384245
56.590 5.454697
56.595 5.601677
56.600 5.613676
56.605 5.886593
56.610 5.904994
56.615 6.010098
56.620 5.892799
56.625 5.316378
56.630 5.18494
56.635 5.062674
56.640 4.876661
56.645 4.794347
56.650 4.692354
56.655 4.444814
56.660 4.622532
56.665 4.871874
56.670 4.967734
56.675 4.81124
56.680 5.064592
56.685 5.210622
56.690 5.486208
56.695 5.493299
56.700 5.535876
56.705 5.583056
56.710 5.734319
56.715 5.329571
56.720 5.503928
56.725 5.75977
56.730 5.845121
56.735 5.772297
56.740 5.731392
56.745 5.622149
56.750 5.520874
56.755 5.515536
56.760 5.591194
56.765 5.631509
56.770 6.044858
56.775 6.151402
56.780 6.159926
56.785 6.406649
56.790 6.471058
56.795 6.571942
56.800 6.611602
56.805 6.35979
56.810 6.42569
56.815 6.607965
56.820 6.546036
56.825 6.289127
56.830 6.513103
56.835 6.263779
56.840 6.473302
56.845 6.553813
56.850 6.388838
56.855 6.314041
56.860 6.22938
56.865 6.010375
56.870 6.422483
56.875 6.217899
56.880 6.167288
56.885 6.024412
56.890 6.148122
56.895 5.97245
56.900 5.934709
56.905 5.680755
56.910 5.515038
56.915 5.364067
56.920 5.541913
56.925 5.421215
56.930 5.552266
56.935 5.46972
56.940 5.360811
56.945 5.176533
56.950 5.236787
56.955 5.238711
56.960 5.416012
56.965 5.446073
56.970 5.745953
56.975 6.387141
56.980 6.767331
56.985 6.92101
56.990 7.275542
56.995 7.062968
57.000 6.921762
57.005 6.289746
57.010 5.670768
57.015 5.796589
57.020 5.679479
57.025 5.631666
57.030 5.653852
57.035 5.489355
57.040 5.960514
57.045 6.281164
57.050 6.384679
57.055 6.554262
57.060 6.537864
57.065 6.616099
57.070 6.765714
57.075 6.339395
57.080 5.947353
57.085 5.398025
57.090 5.003788
57.095 4.891388
57.100 4.746768
57.105 4.491276
57.110 4.563017
57.115 4.483899
57.120 4.623166
57.125 4.596578
57.130 4.567401
57.135 4.648053
57.140 4.767802
57.145 4.411465
57.150 4.36581
57.155 4.25078
57.160 4.352333
57.165 4.242362
57.170 4.452491
57.175 4.684402
57.180 4.89608
57.185 5.009935
57.190 5.197331
57.195 5.464515
57.200 5.649969
57.205 5.951123
57.210 6.053157
57.215 6.177611
57.220 6.281427
57.225 6.335044
57.230 5.953439
57.235 5.490036
57.240 4.925672
57.245 5.027388
57.250 5.002661
57.255 5.045025
57.260 5.124299
57.265 5.341346
57.270 5.538797
57.275 5.878377
57.280 5.765038
57.285 5.860065
57.290 5.794373
57.295 5.965628
57.300 6.196171
57.305 6.447926
57.310 6.319054
57.315 6.093297
57.320 6.450676
57.325 6.30242
57.330 6.050784
57.335 5.784176
57.340 5.384068
57.345 5.530333
57.350 5.939494
57.355 6.036874
57.360 6.50368
57.365 6.775013
57.370 6.772209
57.375 6.742782
57.380 6.67607
57.385 6.590303
57.390 6.356216
57.395 6.160365
57.400 6.560799
57.405 7.12471
57.410 7.524867
57.415 7.382808
57.420 6.905371
57.425 6.387558
57.430 6.140083
57.435 5.513357
57.440 5.0288
57.445 4.7594
57.450 4.781916
57.455 4.944392
57.460 5.260482
57.465 5.219051
57.470 5.425736
57.475 5.553565
57.480 5.675384
57.485 5.97507
57.490 5.722655
57.495 5.533819
57.500 5.595349
57.505 5.369184
57.510 5.448762
57.515 5.53842
57.520 5.263531
57.525 5.436313
57.530 5.621117
57.535 5.331564
57.540 5.415438
57.545 5.00202
57.550 4.792398
57.555 4.83709
57.560 5.18494
57.565 5.20378
57.570 5.405233
57.575 5.472706
57.580 5.661199
57.585 5.879497
57.590 5.764188
57.595 5.554787
57.600 5.415421
57.605 5.220683
57.610 4.986778
57.615 4.876184
57.620 4.664658
57.625 4.998343
57.630 5.110578
57.635 5.050424
57.640 5.674258
57.645 6.002202
57.650 6.293792
57.655 6.543487
57.660 6.584115
57.665 6.684725
57.670 7.066669
57.675 6.617944
57.680 6.392747
57.685 6.356899
57.690 6.400617
57.695 6.315299
57.700 6.100611
57.705 5.829458
57.710 5.885516
57.715 5.980447
57.720 5.717624
57.725 5.460291
57.730 5.476498
57.735 5.193856
57.740 5.487717
57.745 5.600688
57.750 5.777544
57.755 5.91446
57.760 5.866947
57.765 5.691632
57.770 5.880759
57.775 5.582331
57.780 5.629944
57.785 5.654817
57.790 5.667428
57.795 5.777659
57.800 5.845014
57.805 6.089298
57.810 6.295853
57.815 6.145571
57.820 5.786264
57.825 5.925267
57.830 6.282005
57.835 6.271057
57.840 6.134021
57.845 5.802047
57.850 5.890629
57.855 6.036206
57.860 6.1107
57.865 5.884399
57.870 5.803837
57.875 5.925169
57.880 6.237951
57.885 6.193121
57.890 6.293119
57.895 6.03726
57.900 6.212558
57.905 6.352708
57.910 6.256344
57.915 6.441948
57.920 6.82787
57.925 6.766329
57.930 6.683598
57.935 6.412176
57.940 5.800292
57.945 5.439025
57.950 5.387124
57.955 5.085557
57.960 5.017066
57.965 4.774792
57.970 4.946723
57.975 5.596228
57.980 5.651319
57.985 5.669652
57.990 5.879677
57.995 5.872663
58.000 6.158133
58.005 6.397621
58.010 6.29984
58.015 6.330858
58.020 5.855504
58.025 5.8834
58.030 6.318789
58.035 6.672625
58.040 6.693719
58.045 6.822585
58.050 7.159655
58.055 7.476071
58.060 7.123736
58.065 6.801266
58.070 6.527007
58.075 6.463017
58.080 6.128941
58.085 5.523001
58.090 5.380045
58.095 5.425662
58.100 5.278368
58.105 4.779666
58.110 4.304945
58.115 4.584707
58.120 4.938911
58.125 5.078005
58.130 5.160705
58.135 5.335346
58.140 5.546312
58.145 5.843895
58.150 5.625982
58.155 5.367451
58.160 5.149755
58.165 4.912724
58.170 4.822901
58.175 4.997438
58.180 4.850485
58.185 4.800261
58.190 4.723962
58.195 4.90306
58.200 5.173834
58.205 5.180582
58.210 4.883311
58.215 5.274354
58.220 5.700475
58.225 6.16128
58.230 6.111825
58.235 5.903226
58.240 6.032734
58.245 6.197638
58.250 5.961277
58.255 5.576119
58.260 5.394304
58.265 5.610742
58.270 5.718698
58.275 5.604246
58.280 5.728692
58.285 5.80251
58.290 6.143411
58.295 6.280073
58.300 6.228485
58.305 6.385948
58.310 6.532268
58.315 6.461063
58.320 6.694579
58.325 6.389868
58.330 6.072081
58.335 5.973853
58.340 5.624645
58.345 5.544707
58.350 5.338056
58.355 5.518601
58.360 5.559469
58.365 5.654543
58.370 5.682957
58.375 5.838446
58.380 5.661438
58.385 6.006089
58.390 5.76816
58.395 5.829572
58.400 5.744748
58.405 5.776317
58.410 5.685535
58.415 5.631945
58.420 5.311377
58.425 4.971209
58.430 5.272702
58.435 5.601586
58.440 5.729148
58.445 5.959605
58.450 6.067189
58.455 6.179667
58.460 6.953806
58.465 7.005132
58.470 6.68204
58.475 6.575043
58.480 6.60033
58.485 6.637902
58.490 6.578671
58.495 5.997107
58.500 5.91386
58.505 5.87214
58.510 5.887373
58.515 5.77532
58.520 5.569659
58.525 5.863074
58.530 6.237854
58.535 6.252284
58.540 6.631304
58.545 6.4359
58.550 6.516426
58.555 6.346767
58.560 6.174749
58.565 5.773242
58.570 5.930912
58.575 5.70815
58.580 6.189525
58.585 6.356657
58.590 6.511971
58.595 6.433235
58.600 6.560904
58.605 6.358296
58.610 6.320951
58.615 5.922706
58.620 5.697115
58.625 5.996963
58.630 5.714795
58.635 5.562838
58.640 5.320311
58.645 5.03834
58.650 4.949533
58.655 5.139728
58.660 4.883621
58.665 4.895524
58.670 5.079544
58.675 5.224393
58.680 5.339092
58.685 5.562871
58.690 5.641579
58.695 6.045022
58.700 6.63884
58.705 6.69063
58.710 6.72043
58.715 6.793484
58.720 6.600136
58.725 6.438437
58.730 6.507686
58.735 6.023842
58.740 5.708507
58.745 5.690936
58.750 5.764415
58.755 5.921273
58.760 6.015457
58.765 5.575438
58.770 5.654792
58.775 5.63381
58.780 5.609167
58.785 5.481753
58.790 5.394291
58.795 5.360055
58.800 5.453037
58.805 5.68254
58.810 6.126089
58.815 6.513019
58.820 6.781959
58.825 6.795512
58.830 6.624178
58.835 6.612808
58.840 6.36105
58.845 6.077535
58.850 5.797618
58.855 5.823119
58.860 5.78681
58.865 5.986887
58.870 6.170381
58.875 6.143433
58.880 5.866685
58.885 5.755005
58.890 5.961281
58.895 6.326966
58.900 6.318895
58.905 6.064299
58.910 6.315705
58.915 6.634487
58.920 6.45465
58.925 6.090643
58.930 5.865446
58.935 5.51769
58.940 5.420032
58.945 5.169635
58.950 5.135379
58.955 5.200132
58.960 5.056919
58.965 4.906656
58.970 5.066228
58.975 5.104547
58.980 5.314051
58.985 5.619606
58.990 5.673079
58.995 5.746529
59.000 6.020654
59.005 6.595524
59.010 7.198905
59.015 6.953036
59.020 6.528667
59.025 6.426553
59.030 6.690846
59.035 6.599723
59.040 6.199642
59.045 5.823443
59.050 5.827858
59.055 6.024205
59.060 5.916648
59.065 5.627743
59.070 5.670842
59.075 5.674637
59.080 5.857106
59.085 5.667095
59.090 5.592811
59.095 5.639585
59.100 5.581226
59.105 5.522329
59.110 5.28307
59.115 5.151176
59.120 5.266446
59.125 5.59853
59.130 6.10945
59.135 6.184401
59.140 6.122705
59.145 5.759668
59.150 5.461034
59.155 5.881709
59.160 5.556348
59.165 5.148966
59.170 5.108789
59.175 5.190557
59.180 5.396807
59.185 5.776362
59.190 5.383641
59.195 5.096263
59.200 5.195576
59.205 5.673748
59.210 5.917228
59.215 5.721469
59.220 5.393067
59.225 5.842939
59.230 6.12703
59.235 5.943239
59.240 5.479256
59.245 5.55757
59.250 6.053223
59.255 6.155308
59.260 5.868827
59.265 5.945597
59.270 6.409609
59.275 6.529906
59.280 6.31929
59.285 6.393633
59.290 6.255704
59.295 6.282767
59.300 6.371842
59.305 6.313686
59.310 6.455779
59.315 6.693188
59.320 6.562906
59.325 6.351083
59.330 6.497032
59.335 6.527962
59.340 6.476937
59.345 6.399655
59.350 6.158023
59.355 6.401209
59.360 6.874168
59.365 6.648823
59.370 6.443057
59.375 6.007888
59.380 5.833962
59.385 6.081793
59.390 6.408997
59.395 6.370548
59.400 6.485427
59.405 6.615919
59.410 6.923904
59.415 7.098595
59.420 6.870592
59.425 5.926118
59.430 5.743633
59.435 5.65488
59.440 5.357791
59.445 5.414284
59.450 5.211628
59.455 5.174839
59.460 5.755307
59.465 5.756732
59.470 5.864234
59.475 6.023131
59.480 5.895583
59.485 6.088785
59.490 6.181742
59.495 6.053614
59.500 6.205561
59.505 6.205211
59.510 6.167093
59.515 6.141651
59.520 6.000087
59.525 6.002759
59.530 5.896446
59.535 5.54789
59.540 5.797083
59.545 5.860376
59.550 5.723528
59.555 5.844172
59.560 5.63641
59.565 5.573832
59.570 5.642595
59.575 5.322144
59.580 5.262436
59.585 5.438945
59.590 5.30459
59.595 5.446247
59.600 5.517463
59.605 5.59512
59.610 5.58329
59.615 5.604602
59.620 5.486485
59.625 5.79163
59.630 6.01071
59.635 6.036629
59.640 5.833059
59.645 6.144821
59.650 6.187715
59.655 5.953131
59.660 5.921402
59.665 6.115362
59.670 6.449117
59.675 6.728082
59.680 6.532532
59.685 6.625833
59.690 6.889395
59.695 6.35819
59.700 5.859631
59.705 5.873959
59.710 5.784503
59.715 5.802327
59.720 5.607044
59.725 5.5348
59.730 5.901717
59.735 6.131848
59.740 5.870354
59.745 5.99374
59.750 6.217553
59.755 6.504908
59.760 6.698138
59.765 6.672914
59.770 6.366368
59.775 6.396276
59.780 6.197625
59.785 5.845063
59.790 5.68199
59.795 5.624752
59.800 5.478978
59.805 5.404546
59.810 5.057724
59.815 5.19766
59.820 5.599852
59.825 5.957421
59.830 6.005778
59.835 6.121487
59.840 6.401548
59.845 6.491955
59.850 6.301724
59.855 5.721066
59.860 5.051978
59.865 4.908572
59.870 4.969345
59.875 5.016901
59.880 5.290473
59.885 5.468054
59.890 5.662934
59.895 5.99623
59.900 6.19989
59.905 5.948997
59.910 5.870473
59.915 5.855361
59.920 5.770829
59.925 5.589425
59.930 5.35674
59.935 5.061416
59.940 4.916198
59.945 4.886394
59.950 4.817241
59.955 4.910024
59.960 5.145072
59.965 5.323128
59.970 5.572416
59.975 5.726171
59.980 5.739864
59.985 6.014494
59.990 6.072716
59.995 6.180278
60.000 6.021456
60.005 5.801288
60.010 5.701905
60.015 5.659919
60.020 5.67704
60.025 5.759231
60.030 5.737922
60.035 5.809155
60.040 6.027341
60.045 5.849733
60.050 5.580521
60.055 5.130809
60.060 5.075394
60.065 4.94904
60.070 5.17107
60.075 5.352059
60.080 5.9722
60.085 6.632283
60.090 6.818934
60.095 6.641349
60.100 6.895143
60.105 6.713022
60.110 6.545207
60.115 6.30815
60.120 5.949617
60.125 6.121177
60.130 5.995894
60.135 5.659035
60.140 5.893457
60.145 5.83812
60.150 5.862684
60.155 5.99547
60.160 5.767798
60.165 5.859366
60.170 6.045476
60.175 5.996913
60.180 6.191742
60.185 6.121895
60.190 5.701169
60.195 5.681353
60.200 5.944651
60.205 6.04775
60.210 5.949838
60.215 5.877041
60.220 5.820336
60.225 6.062257
60.230 6.186556
60.235 5.993251
60.240 5.839536
60.245 5.621001
60.250 5.651127
60.255 5.490293
60.260 5.603729
60.265 5.464066
60.270 5.439619
60.275 5.389786
60.280 5.720576
60.285 5.854861
60.290 6.120311
60.295 6.240287
60.300 6.314203
60.305 6.475458
60.310 6.427675
60.315 6.348654
60.320 6.300752
60.325 6.019961
60.330 5.837936
60.335 5.618683
60.340 5.555363
60.345 5.794096
60.350 5.756106
60.355 5.715098
60.360 6.120017
60.365 6.292103
60.370 6.563972
60.375 6.826261
60.380 6.831826
60.385 6.670035
60.390 6.491582
60.395 6.225826
60.400 6.144388
60.405 6.316413
60.410 6.147531
60.415 5.925348
60.420 5.92363
60.425 5.649448
60.430 5.749472
60.435 5.556257
60.440 5.113184
60.445 4.705095
60.450 4.559058
60.455 4.71161
60.460 4.710383
60.465 4.757342
60.470 4.961287
60.475 5.273949
60.480 5.756322
60.485 6.308244
60.490 6.334462
60.495 6.746759
60.500 6.980096
60.505 6.90595
60.510 6.856309
60.515 6.569289
60.520 6.276265
60.525 6.55014
60.530 6.175379
60.535 5.756569
60.540 5.769641
60.545 5.781297
60.550 6.252509
60.555 6.201414
60.560 6.070771
60.565 6.106635
60.570 6.063542
60.575 6.01421
60.580 5.908984
60.585 5.4082
60.590 5.221783
60.595 5.148581
60.600 5.240975
60.605 5.508067
60.610 5.609375
60.615 5.535165
60.620 5.665657
60.625 5.947789
60.630 6.209665
60.635 6.152375
60.640 5.996823
60.645 5.968982
60.650 6.47315
60.655 6.589169
60.660 6.317076
60.665 6.119822
60.670 6.206274
60.675 6.425079
60.680 6.513276
60.685 6.446887
60.690 6.748772
60.695 7.13833
60.700 7.14452
60.705 7.417851
60.710 7.323396
60.715 7.391012
60.720 7.254266
60.725 6.830872
60.730 6.682574
60.735 6.868578
60.740 6.6082
60.745 6.430177
60.750 6.041481
60.755 5.592899
60.760 5.511865
60.765 5.506797
60.770 5.294426
60.775 5.143661
60.780 5.099183
60.785 5.302273
60.790 5.264301
60.795 5.183008
60.800 5.10395
60.805 5.345035
60.810 5.655528
60.815 5.785224
60.820 6.114686
60.825 6.585701
60.830 6.849304
60.835 6.674281
60.840 6.325863
60.845 6.181025
60.850 6.352012
60.855 6.049517
60.860 5.773478
60.865 5.584134
60.870 5.640348
60.875 5.74295
60.880 5.782065
60.885 5.749762
60.890 5.91243
60.895 6.208664
60.900 6.311781
60.905 6.447498
60.910 6.314722
60.915 6.221142
60.920 5.858514
60.925 5.317786
60.930 5.29678
60.935 5.844536
60.940 5.835421
60.945 5.749952
60.950 5.613527
60.955 5.534084
60.960 6.03935
60.965 5.86335
60.970 5.547464
60.975 5.839877
60.980 6.43642
60.985 6.782347
60.990 6.984788
60.995 7.075192
61.000 7.250772
61.005 7.114614
61.010 6.743087
61.015 6.256974
61.020 6.203192
61.025 6.113557
61.030 5.795551
61.035 5.513958
61.040 5.376244
61.045 5.677729
61.050 5.85638
61.055 5.780502
61.060 5.654115
61.065 5.610469
61.070 5.553779
61.075 5.632284
61.080 5.47468
61.085 5.419002
61.090 6.060948
61.095 6.740568
61.100 7.049153
61.105 7.162059
61.110 7.211504
61.115 7.208938
61.120 7.191346
61.125 6.749025
61.130 6.104514
61.135 5.717153
61.140 5.687706
61.145 5.433615
61.150 5.434478
61.155 5.577354
61.160 5.19229
61.165 5.268094
61.170 5.416657
61.175 5.567481
61.180 5.937265
61.185 6.071573
61.190 5.874804
61.195 6.183095
61.200 6.649412
61.205 6.597135
61.210 6.545794
61.215 6.335317
61.220 6.19908
61.225 6.135954
61.230 5.906232
61.235 5.541823
61.240 5.39681
61.245 5.386476
61.250 5.417675
61.255 5.573224
61.260 5.585799
61.265 5.742633
61.270 5.871901
61.275 6.209953
61.280 5.918174
61.285 5.786392
61.290 5.530672
61.295 5.357366
61.300 5.36272
61.305 5.37829
61.310 5.114409
61.315 5.170761
61.320 5.123592
61.325 5.2319
61.330 5.193982
61.335 5.107794
61.340 5.110087
61.345 5.096731
61.350 5.291072
61.355 5.330911
61.360 5.581965
61.365 6.133574
61.370 6.370763
61.375 6.390332
61.380 6.376274
61.385 6.325426
61.390 6.281506
61.395 6.22665
61.400 6.039632
61.405 5.861091
61.410 5.643492
61.415 5.906746
61.420 6.239643
61.425 6.220724
61.430 6.140031
61.435 6.235902
61.440 6.397988
61.445 6.347639
61.450 6.427046
61.455 6.185314
61.460 6.220722
61.465 6.216665
61.470 6.266859
61.475 6.358433
61.480 6.195927
61.485 6.151122
61.490 6.280368
61.495 6.29505
61.500 6.115915
61.505 6.133876
61.510 6.217148
61.515 6.358209
61.520 6.157306
61.525 5.82558
61.530 5.780695
61.535 5.86031
61.540 5.627901
61.545 5.537787
61.550 5.404008
61.555 5.464137
61.560 5.502602
61.565 5.472956
61.570 5.572567
61.575 5.74374
61.580 6.019693
61.585 6.534119
61.590 6.718144
61.595 6.859125
61.600 6.863802
61.605 6.963666
61.610 6.828794
61.615 6.21245
61.620 5.838617
61.625 5.848053
61.630 6.026807
61.635 6.047373
61.640 6.012845
61.645 6.248914
61.650 6.611542
61.655 6.473891
61.660 6.16459
61.665 6.12863
61.670 6.287044
61.675 6.012884
61.680 5.886903
61.685 5.972722
61.690 6.361895
61.695 6.804704
61.700 6.644401
61.705 6.423232
61.710 6.769262
61.715 6.783032
61.720 6.954657
61.725 6.817084
61.730 6.531963
61.735 6.522433
61.740 6.303083
61.745 5.92492
61.750 5.65825
61.755 5.297293
61.760 5.362495
61.765 5.535775
61.770 5.688634
61.775 6.123802
61.780 6.261689
61.785 6.535381
61.790 6.647238
61.795 6.661711
61.800 6.497186
61.805 6.375736
61.810 6.529288
61.815 6.911589
61.820 6.995905
61.825 7.225501
61.830 7.081213
61.835 6.720967
61.840 6.580565
61.845 6.411073
61.850 6.052744
61.855 5.999618
61.860 6.105344
61.865 6.468785
61.870 7.428969
61.875 7.644815
61.880 7.861487
61.885 8.211985
61.890 8.230074
61.895 8.059221
61.900 7.973958
61.905 7.660053
61.910 7.698211
61.915 7.28117
61.920 7.153587
61.925 7.214309
61.930 7.247376
61.935 7.108817
61.940 6.940328
61.945 6.819701
61.950 7.075801
61.955 7.410669
61.960 7.111226
61.965 7.004022
61.970 6.979737
61.975 6.930089
61.980 6.605688
61.985 6.272786
61.990 6.149954
61.995 6.260939
62.000 6.414415
62.005 6.682837
62.010 6.981173
62.015 7.091161
62.020 6.895651
62.025 6.597221
62.030 6.573375
62.035 6.388592
62.040 5.911151
62.045 6.071478
62.050 6.234008
62.055 6.306313
62.060 6.439065
62.065 6.77036
62.070 6.883332
62.075 6.980721
62.080 6.51504
62.085 6.334118
62.090 6.398179
62.095 6.160283
62.100 6.001688
62.105 6.060979
62.110 6.003171
62.115 6.12424
62.120 6.312862
62.125 6.241257
62.130 6.373818
62.135 6.422181
62.140 6.537908
62.145 6.43027
62.150 6.452229
62.155 6.419975
62.160 6.602109
62.165 6.305136
62.170 5.791326
62.175 5.278098
62.180 5.508154
62.185 5.454981
62.190 5.417506
62.195 5.529203
62.200 5.714559
62.205 5.674073
62.210 5.700485
62.215 5.719858
62.220 5.709602
62.225 5.696952
62.230 5.394808
62.235 5.45472
62.240 5.76075
62.245 6.124062
62.250 6.202663
62.255 6.61457
62.260 6.89911
62.265 6.930994
62.270 6.941066
62.275 6.864079
62.280 6.859565
62.285 6.529341
62.290 6.063084
62.295 5.677861
62.300 5.688498
62.305 5.544444
62.310 5.64909
62.315 5.48875
62.320 5.733988
62.325 5.618683
62.330 5.615575
62.335 5.835743
62.340 6.119169
62.345 6.012968
62.350 5.858637
62.355 5.755967
62.360 5.794314
62.365 5.791037
62.370 5.942482
62.375 5.917776
62.380 6.042881
62.385 6.265774
62.390 6.223332
62.395 6.242258
62.400 6.568133
62.405 6.611323
62.410 6.616013
62.415 6.683882
62.420 6.897602
62.425 6.739601
62.430 7.173435
62.435 7.038686
62.440 6.786113
62.445 6.901878
62.450 7.003848
62.455 6.52535
62.460 6.653075
62.465 6.588009
62.470 6.810968
62.475 6.721354
62.480 6.75186
62.485 6.526125
62.490 6.831232
62.495 6.729867
62.500 6.520392
62.505 6.515466
62.510 6.73791
62.515 6.741465
62.520 7.170752
62.525 7.457973
62.530 7.389398
62.535 7.200729
62.540 7.238523
62.545 7.344517
62.550 7.076266
62.555 6.602716
62.560 6.364427
62.565 6.623732
62.570 6.617163
62.575 6.473574
62.580 6.351456
62.585 6.502778
62.590 6.630037
62.595 6.489966
62.600 6.239613
62.605 6.148631
62.610 6.110408
62.615 6.220692
62.620 6.439045
62.625 6.367001
62.630 6.680543
62.635 7.119939
62.640 7.552481
62.645 7.363211
62.650 7.446591
62.655 7.499401
62.660 7.624715
62.665 7.344291
62.670 6.69508
62.675 6.433371
62.680 6.325873
62.685 5.998911
62.690 6.05452
62.695 6.305463
62.700 6.521359
62.705 7.122551
62.710 7.461713
62.715 7.566451
62.720 8.00285
62.725 7.66369
62.730 7.856191
62.735 8.191213
62.740 8.098688
62.745 8.398567
62.750 8.608574
62.755 8.522564
62.760 8.60877
62.765 8.23262
62.770 7.764952
62.775 7.527565
62.780 6.913969
62.785 6.993176
62.790 7.095433
62.795 7.420999
62.800 7.512167
62.805 7.698373
62.810 8.09996
62.815 8.279087
62.820 7.863132
62.825 7.620989
62.830 7.354074
62.835 7.674483
62.840 7.75573
62.845 7.398979
62.850 7.480716
62.855 7.37778
62.860 7.437936
62.865 7.450288
62.870 7.376057
62.875 7.205152
62.880 7.050181
62.885 6.877831
62.890 7.321332
62.895 7.500349
62.900 7.302394
62.905 7.301362
62.910 7.382171
62.915 7.596187
62.920 7.478519
62.925 7.189562
62.930 6.921124
62.935 6.887776
62.940 6.66995
62.945 6.452122
62.950 6.127129
62.955 5.966048
62.960 5.746345
62.965 5.57719
62.970 5.498889
62.975 5.802416
62.980 6.036705
62.985 6.225752
62.990 6.465086
62.995 6.972528
63.000 7.108661
63.005 6.928255
63.010 6.787017
63.015 6.790309
63.020 7.042537
63.025 6.985207
63.030 6.591588
63.035 6.536942
63.040 6.542754
63.045 6.175938
63.050 5.999406
63.055 5.858885
63.060 5.615747
63.065 5.673967
63.070 5.647167
63.075 5.439578
63.080 5.680748
63.085 5.766636
63.090 5.668174
63.095 5.77427
63.100 5.775692
63.105 5.715706
63.110 6.058768
63.115 6.165344
63.120 5.767295
63.125 5.758094
63.130 6.053529
63.135 6.01905
63.140 6.249296
63.145 5.798521
63.150 5.800312
63.155 6.632769
63.160 6.769745
63.165 6.460443
63.170 6.336452
63.175 6.361833
63.180 6.472136
63.185 6.147561
63.190 5.622727
63.195 5.431801
63.200 5.800841
63.205 5.895346
63.210 5.973149
63.215 6.302298
63.220 6.367045
63.225 6.583797
63.230 6.810313
63.235 6.725671
63.240 6.492868
63.245 6.864083
63.250 6.805552
63.255 7.050076
63.260 7.162627
63.265 7.02415
63.270 7.341804
63.275 7.521658
63.280 6.842196
63.285 6.661584
63.290 6.627512
63.295 6.284513
63.300 6.217126
63.305 6.02381
63.310 6.259688
63.315 6.753749
63.320 7.120775
63.325 6.779391
63.330 6.999887
63.335 6.812248
63.340 6.512105
63.345 6.190236
63.350 5.80651
63.355 5.466498
63.360 5.459542
63.365 5.601448
63.370 5.770446
63.375 6.324285
63.380 6.479352
63.385 6.594138
63.390 6.757385
63.395 7.048164
63.400 7.005705
63.405 7.048609
63.410 6.586182
63.415 6.359962
63.420 6.251489
63.425 6.26803
63.430 6.196773
63.435 5.940131
63.440 6.173794
63.445 6.25185
63.450 6.469443
63.455 6.960857
63.460 6.91803
63.465 6.69906
63.470 6.486312
63.475 6.378551
63.480 6.555514
63.485 6.838033
63.490 6.534441
63.495 6.460399
63.500 6.567208
63.505 6.838149
63.510 6.838006
63.515 6.604958
63.520 6.372305
63.525 6.052645
63.530 5.937425
63.535 6.023541
63.540 6.049864
63.545 5.61524
63.550 5.623077
63.555 5.564212
63.560 5.803724
63.565 5.815691
63.570 6.35331
63.575 6.498056
63.580 6.518383
63.585 6.141415
63.590 6.080355
63.595 6.606254
63.600 6.759733
63.605 6.153404
63.610 5.982757
63.615 6.238694
63.620 6.610009
63.625 6.556803
63.630 5.99948
63.635 5.984343
63.640 5.969568
63.645 5.990104
63.650 6.181565
63.655 6.29287
63.660 6.460743
63.665 6.89254
63.670 6.920426
63.675 6.833049
63.680 6.731873
63.685 6.561773
63.690 6.375575
63.695 6.15347
63.700 5.428526
63.705 5.531162
63.710 5.896113
63.715 6.060173
63.720 6.126565
63.725 6.19795
63.730 6.439661
63.735 6.667221
63.740 6.419072
63.745 6.364752
63.750 6.12485
63.755 5.944299
63.760 5.748815
63.765 5.691504
63.770 5.834075
63.775 6.136458
63.780 6.168755
63.785 6.435596
63.790 6.850234
63.795 6.872415
63.800 6.647912
63.805 6.48017
63.810 6.211369
63.815 6.333824
63.820 6.231064
63.825 5.763926
63.830 6.11654
63.835 6.192754
63.840 6.304729
63.845 6.171024
63.850 6.074062
63.855 6.38941
63.860 6.478038
63.865 6.399615
63.870 6.554051
63.875 6.456816
63.880 6.740085
63.885 6.857567
63.890 6.518984
63.895 6.395661
63.900 6.573892
63.905 6.511435
63.910 6.542219
63.915 6.315996
63.920 6.051152
63.925 6.22086
63.930 6.157314
63.935 6.108045
63.940 6.217033
63.945 6.377329
63.950 6.621286
63.955 6.749234
63.960 6.731847
63.965 6.684316
63.970 6.623964
63.975 6.680371
63.980 6.700428
63.985 6.634388
63.990 6.494397
63.995 6.859758
64.000 7.34255
64.005 7.357747
64.010 7.483782
64.015 7.491343
64.020 7.379904
64.025 7.326136
64.030 6.955008
64.035 6.562943
64.040 6.85107
64.045 7.04935
64.050 6.912094
64.055 6.733927
64.060 6.84353
64.065 6.969722
64.070 6.916444
64.075 6.372566
64.080 6.303432
64.085 6.501368
64.090 6.529327
64.095 6.391752
64.100 6.25705
64.105 6.305054
64.110 6.560128
64.115 6.620594
64.120 6.505157
64.125 6.387406
64.130 6.484976
64.135 6.498297
64.140 6.401533
64.145 6.206458
64.150 6.069237
64.155 6.297726
64.160 6.477469
64.165 6.554463
64.170 6.8481
64.175 7.097906
64.180 7.179098
64.185 6.9708
64.190 6.876239
64.195 7.018883
64.200 6.844497
64.205 6.543658
64.210 6.542337
64.215 6.700449
64.220 6.87283
64.225 6.462388
64.230 5.95509
64.235 5.755657
64.240 5.887496
64.245 5.341942
64.250 5.022521
64.255 5.068254
64.260 5.700136
64.265 6.121465
64.270 6.42141
64.275 6.365527
64.280 6.713614
64.285 6.858704
64.290 6.806293
64.295 6.478283
64.300 6.560157
64.305 6.637109
64.310 6.949646
64.315 7.13063
64.320 6.985447
64.325 6.933185
64.330 6.903314
64.335 6.816291
64.340 6.443085
64.345 6.055343
64.350 6.059391
64.355 6.390153
64.360 6.237744
64.365 6.444286
64.370 6.535355
64.375 6.933537
64.380 7.10147
64.385 7.222282
64.390 7.073045
64.395 7.657101
64.400 7.754885
64.405 7.735257
64.410 7.525251
64.415 7.763649
64.420 7.769344
64.425 7.863494
64.430 7.594911
64.435 7.596177
64.440 7.91155
64.445 7.984262
64.450 7.710234
64.455 7.414504
64.460 7.281772
64.465 7.050446
64.470 6.661535
64.475 6.589461
64.480 6.492865
64.485 6.50161
64.490 6.388731
64.495 6.464188
64.500 6.821079
64.505 6.845734
64.510 6.698345
64.515 6.788636
64.520 6.871428
64.525 7.135886
64.530 7.042589
64.535 6.730636
64.540 6.867178
64.545 6.920718
64.550 6.754597
64.555 6.742981
64.560 6.833837
64.565 7.351646
64.570 7.491674
64.575 7.303611
64.580 7.008455
64.585 7.050807
64.590 6.835022
64.595 6.611972
64.600 6.483563
64.605 6.710492
64.610 6.876374
64.615 6.908108
64.620 6.999914
64.625 7.317532
64.630 7.364894
64.635 7.098838
64.640 7.139788
64.645 7.607943
64.650 7.58315
64.655 7.654831
64.660 7.70662
64.665 7.637288
64.670 7.564373
64.675 7.130982
64.680 6.622322
64.685 6.778331
64.690 6.70167
64.695 6.181897
64.700 6.259449
64.705 6.340833
64.710 6.593615
64.715 6.838487
64.720 7.043559
64.725 7.100755
64.730 7.477108
64.735 7.558638
64.740 7.661242
64.745 7.767581
64.750 7.783371
64.755 7.65298
64.760 7.706832
64.765 8.006953
64.770 8.345809
64.775 8.186602
64.780 8.267252
64.785 8.129454
64.790 8.261364
64.795 8.189291
64.800 7.981344
64.805 8.128716
64.810 8.157168
64.815 7.539086
64.820 7.87364
64.825 7.790234
64.830 7.59769
64.835 7.614055
64.840 7.458355
64.845 7.734996
64.850 7.795151
64.855 7.465055
64.860 7.598176
64.865 7.974696
64.870 8.077385
64.875 8.133299
64.880 8.059095
64.885 8.242746
64.890 8.012012
64.895 8.188631
64.900 7.959733
64.905 7.692821
64.910 7.250247
64.915 7.273502
64.920 7.297583
64.925 7.309008
64.930 7.156692
64.935 7.209305
64.940 7.305916
64.945 7.533639
64.950 7.652501
64.955 7.66865
64.960 7.597992
64.965 7.675375
64.970 7.514143
64.975 7.329157
64.980 7.117631
64.985 7.067099
64.990 7.218874
64.995 7.524733
65.000 7.739654
65.005 8.343483
65.010 8.655304
65.015 8.940248
65.020 9.273991
65.025 9.325679
65.030 9.081117
65.035 8.389621
65.040 7.866714
65.045 7.944773
65.050 8.292999
65.055 8.107471
65.060 7.940876
65.065 8.086782
65.070 8.709479
65.075 8.878584
65.080 8.782494
65.085 8.504075
65.090 8.64924
65.095 8.710413
65.100 8.755948
65.105 8.21252
65.110 8.018474
65.115 7.942428
65.120 7.80606
65.125 7.625531
65.130 7.28081
65.135 7.247904
65.140 7.947482
65.145 8.115713
65.150 7.980225
65.155 7.91218
65.160 8.100353
65.165 8.316955
65.170 8.47716
65.175 8.060228
65.180 7.730199
65.185 7.548643
65.190 7.886826
65.195 7.761002
65.200 7.572139
65.205 7.217789
65.210 7.087858
65.215 7.380862
65.220 7.298049
65.225 6.858383
65.230 7.025171
65.235 7.257311
65.240 7.357373
65.245 7.263703
65.250 7.179125
65.255 7.318484
65.260 7.244382
65.265 7.587724
65.270 7.783909
65.275 7.839105
65.280 8.090727
65.285 8.0189
65.290 7.928864
65.295 7.833802
65.300 7.369158
65.305 7.129311
65.310 7.27743
65.315 7.143146
65.320 7.708911
65.325 8.047701
65.330 8.203123
65.335 8.148516
65.340 8.53664
65.345 8.314167
65.350 8.302192
65.355 7.643276
65.360 7.503981
65.365 7.601119
65.370 7.5762
65.375 7.356886
65.380 7.423843
65.385 7.448896
65.390 7.480346
65.395 7.611101
65.400 7.891778
65.405 7.939744
65.410 7.777197
65.415 7.728207
65.420 7.698179
65.425 7.72265
65.430 7.745097
65.435 7.554999
65.440 7.365571
65.445 7.470855
65.450 7.583872
65.455 7.612594
65.460 7.598879
65.465 7.166259
65.470 6.806921
65.475 6.941795
65.480 7.413765
65.485 7.600082
65.490 7.634924
65.495 7.866768
65.500 8.486016
65.505 8.823746
65.510 8.651065
65.515 7.737432
65.520 7.541853
65.525 7.358252
65.530 6.925454
65.535 6.247049
65.540 5.99439
65.545 6.076144
65.550 6.559703
65.555 6.776204
65.560 7.300234
65.565 7.61549
65.570 7.895162
65.575 8.005963
65.580 8.221914
65.585 7.923481
65.590 7.565705
65.595 7.413219
65.600 7.273212
65.605 7.255397
65.610 7.399618
65.615 7.323343
65.620 7.372942
65.625 7.330741
65.630 6.962534
65.635 6.953382
65.640 7.207568
65.645 7.297605
65.650 7.196036
65.655 7.084767
65.660 7.287565
65.665 7.386702
65.670 7.211765
65.675 7.011576
65.680 6.673928
65.685 6.760781
65.690 6.996902
65.695 7.144825
65.700 7.400355
65.705 7.550009
65.710 7.63054
65.715 7.712335
65.720 7.843349
65.725 7.547244
65.730 7.594102
65.735 7.244331
65.740 7.060345
65.745 7.142648
65.750 7.322307
65.755 7.22424
65.760 7.13989
65.765 7.093505
65.770 7.326065
65.775 7.666331
65.780 7.541034
65.785 7.429269
65.790 7.400822
65.795 7.395115
65.800 7.286279
65.805 7.27216
65.810 7.014129
65.815 6.79057
65.820 6.961196
65.825 7.104165
65.830 6.834293
65.835 6.866468
65.840 6.650776
65.845 6.509615
65.850 6.362708
65.855 5.767511
65.860 5.692245
65.865 5.902701
65.870 5.86622
65.875 6.268274
65.880 6.571402
65.885 7.071537
65.890 6.912711
65.895 6.530793
65.900 6.452557
65.905 6.463243
65.910 6.216641
65.915 6.068858
65.920 5.872027
65.925 6.430806
65.930 6.646829
65.935 6.627456
65.940 6.575325
65.945 6.542044
65.950 6.541047
65.955 6.296865
65.960 6.405665
65.965 6.619948
65.970 6.742735
65.975 6.590275
65.980 6.735962
65.985 6.89723
65.990 7.037541
65.995 7.025565
66.000 6.756895
66.005 6.776199
66.010 6.723219
66.015 6.497867
66.020 6.221202
66.025 6.339756
66.030 6.455927
66.035 6.603837
66.040 6.486306
66.045 6.658692
66.050 6.698358
66.055 6.743291
66.060 6.779254
66.065 7.216277
66.070 7.227115
66.075 7.32095
66.080 7.38996
66.085 7.399191
66.090 7.526941
66.095 7.339422
66.100 6.603356
66.105 6.493386
66.110 6.371257
66.115 6.296268
66.120 6.262148
66.125 6.390194
66.130 6.608266
66.135 7.110041
66.140 7.342152
66.145 7.381698
66.150 7.250239
66.155 7.47504
66.160 7.294871
66.165 6.815157
66.170 6.531858
66.175 6.467601
66.180 6.715552
66.185 6.679918
66.190 6.745921
66.195 7.041661
66.200 7.191349
66.205 7.086714
66.210 7.064245
66.215 7.00616
66.220 7.022228
66.225 6.590935
66.230 6.314748
66.235 6.250964
66.240 6.241368
66.245 6.17508
66.250 6.175174
66.255 6.209482
66.260 6.698383
66.265 6.971178
66.270 6.931482
66.275 6.806741
66.280 6.938053
66.285 6.744612
66.290 6.940758
66.295 6.519312
66.300 6.392763
66.305 6.570958
66.310 6.710139
66.315 6.427738
66.320 6.730798
66.325 6.822626
66.330 7.068372
66.335 7.242641
66.340 7.447039
66.345 7.434712
66.350 7.769193
66.355 7.595632
66.360 7.422271
66.365 7.346556
66.370 7.507377
66.375 7.535433
66.380 7.507781
66.385 7.327089
66.390 7.286064
66.395 6.922434
66.400 6.750772
66.405 6.51392
66.410 6.548121
66.415 6.995131
66.420 7.03657
66.425 7.454523
66.430 7.587394
66.435 7.671116
66.440 7.751733
66.445 7.334434
66.450 7.3647
66.455 7.260981
66.460 7.026804
66.465 7.155914
66.470 6.903644
66.475 6.882056
66.480 7.080668
66.485 7.013489
66.490 7.152049
66.495 7.030674
66.500 6.896873
66.505 6.948487
66.510 6.850633
66.515 6.634186
66.520 6.460048
66.525 6.448273
66.530 6.569667
66.535 6.729434
66.540 6.969854
66.545 6.817783
66.550 6.847606
66.555 6.984829
66.560 6.74893
66.565 6.572855
66.570 6.60127
66.575 6.474691
66.580 6.483163
66.585 6.170098
66.590 6.185943
66.595 6.322931
66.600 6.618227
66.605 6.691769
66.610 6.796422
66.615 7.096085
66.620 7.268677
66.625 7.214428
66.630 6.873621
66.635 6.562673
66.640 6.354186
66.645 6.269938
66.650 6.172355
66.655 6.097713
66.660 6.146501
66.665 6.468988
66.670 6.455926
66.675 6.605447
66.680 6.69414
66.685 6.617581
66.690 6.720659
66.695 6.734965
66.700 6.930045
66.705 6.978232
66.710 6.863893
66.715 6.713337
66.720 6.71759
66.725 6.726509
66.730 6.946313
66.735 6.742336
66.740 6.467264
66.745 6.399328
66.750 6.616958
66.755 6.728402
66.760 6.791499
66.765 6.573179
66.770 6.684713
66.775 6.97932
66.780 7.297618
66.785 7.418175
66.790 7.539645
66.795 7.699505
66.800 7.481879
66.805 7.208275
66.810 7.048481
66.815 6.522838
66.820 6.364272
66.825 5.974643
66.830 5.71102
66.835 6.012413
66.840 6.628499
66.845 6.908823
66.850 6.814097
66.855 6.720385
66.860 6.518707
66.865 6.697218
66.870 6.781806
66.875 6.251039
66.880 5.917608
66.885 6.064028
66.890 6.130425
66.895 6.422101
66.900 6.020876
66.905 5.93899
66.910 6.117038
66.915 6.252629
66.920 6.38016
66.925 6.380298
66.930 6.415941
66.935 6.948043
66.940 7.093815
66.945 7.062401
66.950 7.348676
66.955 7.15642
66.960 7.138044
66.965 6.971513
66.970 6.762263
66.975 6.962256
66.980 6.900148
66.985 6.641516
66.990 6.651896
66.995 6.803039
67.000 7.216056
67.005 6.900398
67.010 6.819013
67.015 7.154229
67.020 7.170811
67.025 7.414969
67.030 7.824794
67.035 7.920861
67.040 8.351291
67.045 8.405684
67.050 8.327681
67.055 8.451275
67.060 8.473873
67.065 8.273482
67.070 7.889983
67.075 7.444647
67.080 6.935289
67.085 6.78289
67.090 6.65157
67.095 6.202137
67.100 5.997317
67.105 6.254656
67.110 6.531595
67.115 7.025432
67.120 7.42993
67.125 7.335377
67.130 7.58159
67.135 7.617386
67.140 7.64147
67.145 7.795962
67.150 7.295783
67.155 6.952635
67.160 7.226262
67.165 7.262717
67.170 7.682425
67.175 7.591871
67.180 7.21112
67.185 7.401003
67.190 7.7808
67.195 7.946579
67.200 8.054646
67.205 7.671423
67.210 7.454949
67.215 7.513057
67.220 7.527306
67.225 7.147282
67.230 6.843197
67.235 6.665599
67.240 7.008752
67.245 7.152265
67.250 7.159476
67.255 7.10604
67.260 7.098151
67.265 6.858753
67.270 6.736417
67.275 6.612053
67.280 6.705702
67.285 6.748956
67.290 6.645211
67.295 7.026294
67.300 7.492915
67.305 7.860477
67.310 7.953844
67.315 8.122874
67.320 8.358894
67.325 8.12359
67.330 7.848297
67.335 7.510913
67.340 7.034553
67.345 6.842723
67.350 6.542006
67.355 6.473421
67.360 6.909436
67.365 6.873316
67.370 7.174403
67.375 7.380708
67.380 7.424477
67.385 7.631977
67.390 7.408782
67.395 7.673883
67.400 7.738706
67.405 7.462807
67.410 7.168825
67.415 7.177135
67.420 7.187874
67.425 7.337789
67.430 7.188557
67.435 7.444794
67.440 7.708364
67.445 7.557475
67.450 7.289826
67.455 7.270669
67.460 6.904545
67.465 6.6398
67.470 6.392004
67.475 6.049891
67.480 6.47552
67.485 6.834949
67.490 6.855138
67.495 6.966798
67.500 7.14959
67.505 7.419351
67.510 7.455638
67.515 7.125293
67.520 6.915936
67.525 6.897287
67.530 7.270607
67.535 6.970989
67.540 6.679924
67.545 6.682707
67.550 6.68528
67.555 6.955664
67.560 6.968865
67.565 6.888649
67.570 7.303805
67.575 7.462608
67.580 7.881903
67.585 8.135404
67.590 8.171789
67.595 8.20846
67.600 8.285252
67.605 8.194232
67.610 8.164072
67.615 7.813645
67.620 7.73113
67.625 7.50059
67.630 7.723996
67.635 7.560624
67.640 7.249336
67.645 6.98347
67.650 7.329952
67.655 7.316488
67.660 7.414108
67.665 7.178876
67.670 7.186934
67.675 6.880933
67.680 6.605401
67.685 6.116646
67.690 6.076973
67.695 5.702338
67.700 5.24862
67.705 5.035248
67.710 5.32018
67.715 5.725956
67.720 5.722953
67.725 5.804979
67.730 5.912523
67.735 6.010571
67.740 6.226718
67.745 6.192407
67.750 6.220205
67.755 6.44368
67.760 6.426598
67.765 6.502948
67.770 6.632154
67.775 6.588875
67.780 6.860116
67.785 6.90375
67.790 6.922473
67.795 7.106325
67.800 7.261904
67.805 7.691715
67.810 7.84635
67.815 7.59429
67.820 7.300767
67.825 7.108958
67.830 7.063357
67.835 6.529923
67.840 5.976729
67.845 5.826894
67.850 5.790792
67.855 6.186533
67.860 6.265767
67.865 5.989965
67.870 6.601372
67.875 6.851509
67.880 6.921089
67.885 7.094127
67.890 7.046289
67.895 7.457855
67.900 7.655065
67.905 7.631129
67.910 7.433335
67.915 7.636845
67.920 7.683703
67.925 7.343982
67.930 6.851567
67.935 7.004466
67.940 7.154401
67.945 7.294065
67.950 6.884839
67.955 6.526135
67.960 6.804173
67.965 7.118099
67.970 6.940027
67.975 6.457438
67.980 6.554661
67.985 6.988431
67.990 7.242845
67.995 6.876007
68.000 7.033048
68.005 7.202083
68.010 7.577377
68.015 7.439231
68.020 7.352182
68.025 7.505167
68.030 7.651338
68.035 7.283801
68.040 6.989627
68.045 6.788046
68.050 7.0974
68.055 7.318263
68.060 7.446374
68.065 7.642503
68.070 7.70015
68.075 7.910839
68.080 8.23742
68.085 7.856871
68.090 7.663888
68.095 7.228236
68.100 7.275131
68.105 7.351382
68.110 6.964366
68.115 6.488958
68.120 6.937979
68.125 6.891302
68.130 6.64351
68.135 6.465566
68.140 6.329348
68.145 6.473952
68.150 6.638669
68.155 6.656612
68.160 6.7441
68.165 6.812636
68.170 6.661414
68.175 6.798051
68.180 6.634431
68.185 6.286396
68.190 5.956221
68.195 5.925633
68.200 5.8606
68.205 5.819997
68.210 5.756965
68.215 6.032434
68.220 6.121102
68.225 6.23609
68.230 6.517293
68.235 6.677891
68.240 6.587715
68.245 6.631676
68.250 6.799116
68.255 7.09585
68.260 6.964697
68.265 6.733783
68.270 6.559036
68.275 6.793537
68.280 6.892154
68.285 6.444705
68.290 6.20207
68.295 6.429911
68.300 6.652456
68.305 6.526416
68.310 6.257124
68.315 5.831136
68.320 5.924761
68.325 5.693565
68.330 5.334522
68.335 5.188575
68.340 5.180197
68.345 5.171962
68.350 5.148746
68.355 5.349462
68.360 5.50763
68.365 5.915835
68.370 6.194534
68.375 6.210917
68.380 6.584039
68.385 6.800545
68.390 6.823008
68.395 7.215154
68.400 6.960275
68.405 7.201438
68.410 7.683173
68.415 7.521955
68.420 7.212286
68.425 6.973874
68.430 6.6792
68.435 6.646113
68.440 6.209701
68.445 6.051138
68.450 5.833046
68.455 6.063037
68.460 6.223473
68.465 6.355247
68.470 6.212427
68.475 6.264335
68.480 6.348776
68.485 6.799927
68.490 6.782934
68.495 6.795018
68.500 6.897844
68.505 7.082181
68.510 7.314684
68.515 7.525194
68.520 7.258375
68.525 7.604933
68.530 7.436909
68.535 7.052953
68.540 7.187484
68.545 6.988434
68.550 6.706048
68.555 6.984307
68.560 6.726271
68.565 6.93261
68.570 7.397355
68.575 7.208305
68.580 7.15097
68.585 7.348418
68.590 7.231997
68.595 7.269817
68.600 7.176563
68.605 7.186019
68.610 7.298058
68.615 7.440272
68.620 7.526178
68.625 7.407919
68.630 7.753105
68.635 7.896022
68.640 7.827787
68.645 7.773433
68.650 7.811183
68.655 7.742702
68.660 7.884429
68.665 7.768816
68.670 7.853375
68.675 7.913837
68.680 7.810845
68.685 7.637523
68.690 7.583431
68.695 7.622966
68.700 7.66386
68.705 7.543513
68.710 7.495916
68.715 7.376691
68.720 7.098876
68.725 7.292731
68.730 7.085335
68.735 6.825262
68.740 6.767473
68.745 6.831337
68.750 7.305861
68.755 7.741667
68.760 7.414577
68.765 7.47776
68.770 7.350618
68.775 7.03878
68.780 6.760231
68.785 6.754644
68.790 6.734818
68.795 6.773711
68.800 6.84501
68.805 7.038733
68.810 7.103319
68.815 7.080706
68.820 6.446135
68.825 6.228783
68.830 6.231777
68.835 6.11808
68.840 5.95961
68.845 6.149205
68.850 6.045011
68.855 6.535161
68.860 6.520538
68.865 6.536364
68.870 6.669787
68.875 6.86572
68.880 6.934565
68.885 7.149412
68.890 6.887539
68.895 7.226865
68.900 7.349949
68.905 7.367318
68.910 7.288097
68.915 7.460059
68.920 7.667347
68.925 7.725506
68.930 7.625533
68.935 7.349677
68.940 7.827173
68.945 7.600201
68.950 7.294538
68.955 7.025383
68.960 7.127363
68.965 7.315873
68.970 7.902982
68.975 7.675087
68.980 8.091979
68.985 8.313326
68.990 8.452127
68.995 8.333318
69.000 7.58928
69.005 7.172937
69.010 7.254983
69.015 6.880738
69.020 6.642715
69.025 6.348221
69.030 6.390479
69.035 6.833817
69.040 6.790664
69.045 6.450613
69.050 6.646333
69.055 7.207388
69.060 7.290276
69.065 7.441666
69.070 7.424771
69.075 7.542777
69.080 7.731883
69.085 7.636597
69.090 7.434109
69.095 7.476984
69.100 7.672586
69.105 7.545753
69.110 7.378224
69.115 7.250592
69.120 7.266399
69.125 7.235335
69.130 7.129988
69.135 6.926645
69.140 7.400295
69.145 7.439547
69.150 7.398692
69.155 7.487072
69.160 7.861738
69.165 7.905975
69.170 7.787861
69.175 7.514023
69.180 7.504574
69.185 7.66102
69.190 7.658636
69.195 7.433231
69.200 7.091728
69.205 6.852003
69.210 6.46873
69.215 6.893858
69.220 6.66634
69.225 6.480454
69.230 6.414851
69.235 6.630135
69.240 7.049277
69.245 7.427004
69.250 7.457379
69.255 7.457473
69.260 7.654455
69.265 7.800265
69.270 7.725988
69.275 8.126536
69.280 8.208401
69.285 8.125637
69.290 7.875897
69.295 7.487127
69.300 7.762771
69.305 7.651334
69.310 7.358534
69.315 7.085326
69.320 7.106831
69.325 7.19883
69.330 7.219688
69.335 6.947752
69.340 6.975236
69.345 6.758497
69.350 6.53566
69.355 7.092507
69.360 7.399573
69.365 7.422692
69.370 7.482646
69.375 7.199604
69.380 7.164999
69.385 7.055316
69.390 6.380027
69.395 6.184742
69.400 6.359542
69.405 6.298549
69.410 6.713869
69.415 7.101848
69.420 7.389325
69.425 7.826413
69.430 7.901215
69.435 7.959756
69.440 8.194707
69.445 8.11407
69.450 7.79727
69.455 7.575314
69.460 7.155278
69.465 6.965305
69.470 6.693878
69.475 6.684184
69.480 6.718899
69.485 6.355415
69.490 6.251598
69.495 6.087669
69.500 6.399949
69.505 6.518002
69.510 6.570444
69.515 6.909251
69.520 7.151638
69.525 7.193033
69.530 7.222794
69.535 7.101453
69.540 6.687573
69.545 6.276847
69.550 6.17958
69.555 6.298969
69.560 6.581017
69.565 6.530566
69.570 6.897223
69.575 7.2204
69.580 7.437531
69.585 7.173327
69.590 6.948233
69.595 7.006538
69.600 7.236385
69.605 7.04103
69.610 6.910384
69.615 6.67844
69.620 6.859999
69.625 7.427032
69.630 7.472044
69.635 7.416605
69.640 7.808181
69.645 8.036782
69.650 8.008883
69.655 8.099996
69.660 7.956722
69.665 7.997502
69.670 7.656618
69.675 7.182698
69.680 7.311849
69.685 7.550326
69.690 7.543962
69.695 7.680116
69.700 7.827244
69.705 7.748681
69.710 7.722176
69.715 7.621772
69.720 7.689734
69.725 7.665957
69.730 7.345106
69.735 7.054776
69.740 7.265431
69.745 7.302721
69.750 7.295287
69.755 7.053116
69.760 6.566824
69.765 6.517525
69.770 6.791606
69.775 6.958537
69.780 7.139822
69.785 7.224826
69.790 7.129009
69.795 7.344482
69.800 7.168902
69.805 6.944647
69.810 6.690718
69.815 6.940677
69.820 6.800565
69.825 6.75998
69.830 6.823674
69.835 7.219889
69.840 7.389095
69.845 7.35456
69.850 7.132683
69.855 7.258373
69.860 7.626002
69.865 7.716208
69.870 7.675183
69.875 7.602684
69.880 7.303634
69.885 7.276724
69.890 7.391677
69.895 7.490707
69.900 7.207724
69.905 7.041669
69.910 7.174386
69.915 7.399836
69.920 7.30281
69.925 6.864037
69.930 6.421466
69.935 6.327071
69.940 6.256986
69.945 6.163184
69.950 6.135196
69.955 5.82069
69.960 5.882369
69.965 6.028876
69.970 6.080174
69.975 5.96798
69.980 6.309927
69.985 6.535821
69.990 6.978368
69.995 6.919261
70.000 6.998495
70.005 7.168001
70.010 7.212003
70.015 6.941392
70.020 7.164233
70.025 6.983971
70.030 7.228606
70.035 7.141321
70.040 7.258087
70.045 7.413821
70.050 7.127848
70.055 7.328371
70.060 7.474535
70.065 7.343359
70.070 7.591687
70.075 7.571249
70.080 7.786242
70.085 7.675519
70.090 7.373893
70.095 7.596597
70.100 7.240538
70.105 6.839282
70.110 6.752999
70.115 6.598782
70.120 7.188324
70.125 7.506123
70.130 7.558971
70.135 7.768036
70.140 7.835642
70.145 7.920196
70.150 7.544341
70.155 6.933866
70.160 6.497036
70.165 6.325853
70.170 6.940181
70.175 7.032559
70.180 7.079184
70.185 7.088652
70.190 7.554928
70.195 7.597756
70.200 7.720223
70.205 7.246447
70.210 7.593546
70.215 7.734673
70.220 7.707619
70.225 7.716325
70.230 7.55898
70.235 7.350656
70.240 7.018634
70.245 6.760573
70.250 6.91146
70.255 7.157565
70.260 7.069993
70.265 7.108924
70.270 7.136993
70.275 7.244634
70.280 7.137397
70.285 6.97674
70.290 6.429703
70.295 6.758486
70.300 7.280623
70.305 7.781931
70.310 8.264877
70.315 8.087087
70.320 8.102009
70.325 8.168907
70.330 7.535196
70.335 7.112745
70.340 6.474489
70.345 5.744776
70.350 5.589236
70.355 5.639179
70.360 5.793299
70.365 6.055905
70.370 5.87039
70.375 6.042133
70.380 6.690217
70.385 7.183883
70.390 7.369891
70.395 7.080468
70.400 7.479001
70.405 7.724713
70.410 7.610403
70.415 7.73347
70.420 7.964783
70.425 7.981458
70.430 8.733559
70.435 8.548627
70.440 8.867782
70.445 9.103357
70.450 8.966035
70.455 8.787536
70.460 8.310988
70.465 7.760867
70.470 7.783637
70.475 8.17805
70.480 8.310677
70.485 8.271788
70.490 8.467881
70.495 8.774421
70.500 9.050111
70.505 9.09528
70.510 8.582107
70.515 8.738559
70.520 8.70725
70.525 8.509313
70.530 8.46338
70.535 8.34781
70.540 8.258186
70.545 8.145384
70.550 8.218207
70.555 8.043856
70.560 7.937695
70.565 7.995724
70.570 7.804026
70.575 7.638647
70.580 7.90893
70.585 7.807891
70.590 7.949917
70.595 7.759096
70.600 7.534113
70.605 7.472858
70.610 7.549146
70.615 7.417825
70.620 7.382299
70.625 7.395597
70.630 7.79415
70.635 7.65493
70.640 7.576298
70.645 7.08826
70.650 6.403694
70.655 6.141529
70.660 6.184028
70.665 6.274222
70.670 6.566782
70.675 6.924333
70.680 7.303359
70.685 7.679304
70.690 7.802815
70.695 7.440323
70.700 7.064199
70.705 7.108968
70.710 7.250491
70.715 7.36586
70.720 7.301907
70.725 7.531143
70.730 7.743764
70.735 7.703022
70.740 7.312431
70.745 6.723781
70.750 6.509042
70.755 6.085675
70.760 5.751333
70.765 5.680848
70.770 5.838983
70.775 5.68199
70.780 5.993481
70.785 6.482347
70.790 6.731248
70.795 6.978954
70.800 7.061291
70.805 7.236307
70.810 7.761878
70.815 7.546502
70.820 7.342727
70.825 7.424823
70.830 7.378915
70.835 7.089734
70.840 6.79255
70.845 6.247502
70.850 6.287508
70.855 6.58598
70.860 6.522854
70.865 6.411219
70.870 6.659026
70.875 6.539929
70.880 6.689797
70.885 6.53047
70.890 6.446319
70.895 6.651428
70.900 6.678396
70.905 6.785586
70.910 7.341208
70.915 7.240133
70.920 7.180701
70.925 7.19174
70.930 6.972204
70.935 6.906501
70.940 6.742188
70.945 6.431643
70.950 6.641592
70.955 6.723422
70.960 6.459384
70.965 6.573277
70.970 6.72015
70.975 6.595922
70.980 6.560967
70.985 6.308217
70.990 5.725141
70.995 5.531892
71.000 5.820796
71.005 6.088161
71.010 6.146102
71.015 6.266799
71.020 6.405093
71.025 6.532188
71.030 6.740573
71.035 6.176353
71.040 5.739555
71.045 5.461434
71.050 5.371886
71.055 5.225401
71.060 5.280129
71.065 5.103755
71.070 5.294533
71.075 5.862974
71.080 6.253398
71.085 6.447871
71.090 6.73665
71.095 6.800349
71.100 6.963301
71.105 7.233753
71.110 7.074883
71.115 6.693956
71.120 6.70774
71.125 6.633238
71.130 6.853172
71.135 6.699828
71.140 6.476744
71.145 6.48161
71.150 6.963062
71.155 6.921819
71.160 6.848865
71.165 6.588281
71.170 6.655541
71.175 6.382927
71.180 6.239234
71.185 5.759648
71.190 5.971876
71.195 6.002084
71.200 6.011533
71.205 6.024586
71.210 6.728478
71.215 7.086465
71.220 7.024112
71.225 6.842083
71.230 7.119239
71.235 7.223734
71.240 7.042181
71.245 6.698973
71.250 6.686689
71.255 7.115257
71.260 7.225076
71.265 7.367782
71.270 7.595341
71.275 7.719102
71.280 7.538702
71.285 7.506289
71.290 7.450048
71.295 7.453495
71.300 6.871323
71.305 6.792725
71.310 6.343377
71.315 6.342706
71.320 6.699424
71.325 6.880322
71.330 7.032543
71.335 7.212294
71.340 7.601587
71.345 8.065282
71.350 7.671204
71.355 7.557696
71.360 7.505802
71.365 7.51557
71.370 7.485747
71.375 6.946908
71.380 6.719126
71.385 6.761588
71.390 6.30207
71.395 6.320091
71.400 6.293044
71.405 6.540473
71.410 6.885735
71.415 6.965779
71.420 7.298237
71.425 7.445579
71.430 7.293337
71.435 7.123586
71.440 7.237477
71.445 7.30058
71.450 7.19189
71.455 7.443763
71.460 7.609592
71.465 7.337127
71.470 7.260832
71.475 7.02862
71.480 6.983707
71.485 6.998514
71.490 6.398512
71.495 6.332208
71.500 6.422837
71.505 6.252883
71.510 6.266738
71.515 6.212948
71.520 6.160704
71.525 6.123198
71.530 5.93613
71.535 5.963805
71.540 6.144761
71.545 6.191767
71.550 6.11675
71.555 6.176362
71.560 6.125666
71.565 6.091304
71.570 6.168585
71.575 5.821922
71.580 5.615334
71.585 5.612647
71.590 5.597344
71.595 6.0007
71.600 5.972637
71.605 5.941265
71.610 6.327782
71.615 6.813578
71.620 6.963764
71.625 6.935038
71.630 6.798783
71.635 6.831588
71.640 6.961275
71.645 6.821917
71.650 6.475031
71.655 6.182825
71.660 5.974403
71.665 6.115724
71.670 6.35836
71.675 6.332881
71.680 6.544466
71.685 6.746376
71.690 6.698515
71.695 6.745069
71.700 6.648194
71.705 6.099926
71.710 6.15485
71.715 5.72083
71.720 6.033866
71.725 6.533565
71.730 6.695587
71.735 7.074756
71.740 7.245628
71.745 7.01883
71.750 7.087508
71.755 6.725199
71.760 6.481636
71.765 6.218204
71.770 5.945923
71.775 5.910026
71.780 6.333798
71.785 6.412475
71.790 6.51084
71.795 6.501632
71.800 6.64074
71.805 6.67217
71.810 6.360134
71.815 6.062054
71.820 6.154062
71.825 6.603232
71.830 7.078547
71.835 6.971943
71.840 6.739294
71.845 6.902046
71.850 6.947549
71.855 6.704635
71.860 6.248403
71.865 5.944323
71.870 5.895601
71.875 6.349721
71.880 6.498426
71.885 6.525183
71.890 6.709741
71.895 6.617344
71.900 6.845858
71.905 6.963812
71.910 6.685215
71.915 6.435991
71.920 6.46536
71.925 6.883723
71.930 7.067403
71.935 6.957719
71.940 7.000808
71.945 7.600343
71.950 7.933825
71.955 7.726491
71.960 7.382782
71.965 7.281832
71.970 7.315022
71.975 7.23679
71.980 7.079887
71.985 6.990203
71.990 7.238941
71.995 7.073391
72.000 7.127326
72.005 7.316056
72.010 7.183986
72.015 7.013967
72.020 7.11577
72.025 6.873566
72.030 6.969334
72.035 7.026284
72.040 7.121249
72.045 7.234364
72.050 7.440596
72.055 7.065309
72.060 7.273137
72.065 6.963348
72.070 6.583961
72.075 6.719507
72.080 6.631287
72.085 6.360884
72.090 6.259734
72.095 5.778531
72.100 6.10394
72.105 6.228815
72.110 5.760223
72.115 5.524673
72.120 5.441985
72.125 5.897681
72.130 6.32337
72.135 6.411757
72.140 6.329502
72.145 6.454863
72.150 6.74919
72.155 6.986326
72.160 7.131721
72.165 6.961633
72.170 6.880794
72.175 7.000288
72.180 6.993369
72.185 6.990359
72.190 6.632797
72.195 6.565978
72.200 6.52216
72.205 6.50099
72.210 6.456207
72.215 6.513372
72.220 6.364673
72.225 6.579954
72.230 6.6117
72.235 6.532241
72.240 6.376087
72.245 6.593206
72.250 6.516481
72.255 6.741596
72.260 6.45521
72.265 6.255278
72.270 6.76155
72.275 6.733846
72.280 6.864272
72.285 6.627657
72.290 6.67947
72.295 6.902305
72.300 6.892365
72.305 6.739772
72.310 6.762523
72.315 6.886186
72.320 6.891899
72.325 6.796604
72.330 6.563421
72.335 6.275325
72.340 6.264317
72.345 6.031132
72.350 6.021894
72.355 6.359262
72.360 6.177115
72.365 6.742217
72.370 7.066423
72.375 6.793421
72.380 6.882903
72.385 6.602707
72.390 6.30883
72.395 6.465601
72.400 6.320505
72.405 6.458827
72.410 6.637995
72.415 6.637724
72.420 6.755621
72.425 6.558053
72.430 6.549143
72.435 6.05608
72.440 5.692682
72.445 5.709804
72.450 5.535146
72.455 5.739727
72.460 5.919253
72.465 5.967038
72.470 6.004493
72.475 6.190604
72.480 6.203783
72.485 6.509418
72.490 6.37481
72.495 6.178264
72.500 6.267842
72.505 6.319848
72.510 6.237413
72.515 6.484015
72.520 6.296237
72.525 6.503992
72.530 6.483083
72.535 6.594963
72.540 6.950786
72.545 7.027878
72.550 7.07595
72.555 6.926983
72.560 7.153481
72.565 7.466359
72.570 7.391356
72.575 7.223363
72.580 6.962578
72.585 6.840392
72.590 6.746658
72.595 6.595091
72.600 6.486428
72.605 6.346155
72.610 6.159504
72.615 5.974187
72.620 5.904615
72.625 5.775815
72.630 5.141431
72.635 4.847891
72.640 5.071638
72.645 5.579277
72.650 6.209356
72.655 6.652392
72.660 6.948383
72.665 7.10598
72.670 7.405442
72.675 7.435709
72.680 6.908003
72.685 6.564857
72.690 6.643802
72.695 6.589204
72.700 6.768309
72.705 6.616371
72.710 6.954916
72.715 7.299471
72.720 6.742053
72.725 6.292406
72.730 6.569811
72.735 6.637619
72.740 6.497718
72.745 6.21798
72.750 6.083859
72.755 6.664229
72.760 6.866775
72.765 7.292325
72.770 7.125412
72.775 7.013334
72.780 6.837132
72.785 6.667143
72.790 6.774691
72.795 6.546758
72.800 6.245072
72.805 6.400281
72.810 6.646118
72.815 6.384419
72.820 6.260098
72.825 6.106248
72.830 6.00906
72.835 6.109156
72.840 5.997297
72.845 6.168519
72.850 6.504535
72.855 6.671429
72.860 6.86516
72.865 7.285034
72.870 7.35336
72.875 7.10886
72.880 7.089138
72.885 6.798193
72.890 7.052925
72.895 7.092155
72.900 6.743448
72.905 6.920659
72.910 7.221647
72.915 7.244903
72.920 7.387463
72.925 7.041661
72.930 6.863687
72.935 6.588458
72.940 6.234873
72.945 6.19148
72.950 6.257542
72.955 6.471721
72.960 6.557664
72.965 6.770804
72.970 6.493605
72.975 6.455725
72.980 6.317688
72.985 6.105446
72.990 5.874047
72.995 5.511261
73.000 5.293803
