!@!!GADDS PLOTSO FILE: Chi integration type
!@!!Title/SampleName: map-fa
!@!!Comment: ?
!@!!User: Bruker Instrument Administrator
!@!!Site: University of Illinois Chicago
!@!!Frame: map-fa_01_000.gfrm
!@!!Wavelengths    1.54184   1.54056   1.54439
!@!!Frame angles: 2Theta: 63.000 Omega: 50.000 Phi: 0.000 Chi: 90.000
!@!!Integration range: 2Theta: 53.000 to 73.000  Gamma: -105.000 to -75.000
!@!!Integration method: bin normalized
!@!N
!@!SS
!@!M
!@!L 0.0 0.0 0.0 0.0
!@!XDegrees
!@!YCounts
53.000 4.772168
53.005 5.097014
53.010 5.399402
53.015 5.329948
53.020 5.453141
53.025 5.449442
53.030 5.268445
53.035 5.547664
53.040 5.166464
53.045 5.19079
53.050 5.68338
53.055 5.796348
53.060 6.156535
53.065 5.854348
53.070 5.718874
53.075 5.6924
53.080 5.42361
53.085 5.375047
53.090 5.089691
53.095 5.025997
53.100 5.086923
53.105 4.903522
53.110 4.770779
53.115 4.614531
53.120 4.819024
53.125 4.999562
53.130 5.131428
53.135 5.129585
53.140 4.790413
53.145 4.749804
53.150 4.678065
53.155 4.429749
53.160 4.337934
53.165 4.446926
53.170 5.182654
53.175 5.882607
53.180 5.992848
53.185 6.076392
53.190 6.196693
53.195 6.268945
53.200 6.021113
53.205 5.688946
53.210 5.530463
53.215 5.653068
53.220 5.687623
53.225 5.295244
53.230 5.237781
53.235 5.15205
53.240 4.869044
53.245 4.844494
53.250 4.787515
53.255 5.030508
53.260 5.467267
53.265 5.29282
53.270 5.174425
53.275 5.203545
53.280 5.000874
53.285 4.694645
53.290 4.51007
53.295 4.316182
53.300 4.687757
53.305 4.845202
53.310 4.94877
53.315 5.250449
53.320 5.424819
53.325 5.12768
53.330 5.022511
53.335 4.828185
53.340 4.638973
53.345 4.498534
53.350 4.325357
53.355 4.441671
53.360 4.77585
53.365 4.940621
53.370 4.989013
53.375 5.29026
53.380 5.34122
53.385 5.711586
53.390 5.756139
53.395 5.634553
53.400 5.638884
53.405 6.073926
53.410 5.644442
53.415 5.373204
53.420 4.940729
53.425 5.005962
53.430 5.35921
53.435 5.112934
53.440 4.890975
53.445 5.120282
53.450 5.529654
53.455 5.8135
53.460 5.327071
53.465 4.859223
53.470 4.820414
53.475 4.784605
53.480 4.875773
53.485 4.639779
53.490 4.669151
53.495 4.905698
53.500 4.983742
53.505 4.988051
53.510 5.150741
53.515 5.006636
53.520 5.013121
53.525 4.717483
53.530 4.501986
53.535 4.55656
53.540 4.615304
53.545 4.784822
53.550 4.780255
53.555 4.938509
53.560 5.280738
53.565 5.367113
53.570 5.460286
53.575 5.190938
53.580 5.128161
53.585 5.23461
53.590 5.300196
53.595 5.505647
53.600 5.557412
53.605 5.663017
53.610 5.668796
53.615 5.899293
53.620 5.882759
53.625 5.607732
53.630 5.719418
53.635 5.589515
53.640 5.520711
53.645 5.63865
53.650 5.175902
53.655 5.381832
53.660 5.216444
53.665 5.045699
53.670 5.314788
53.675 5.275444
53.680 5.174649
53.685 5.193032
53.690 4.849124
53.695 5.122828
53.700 5.267996
53.705 5.049356
53.710 5.525119
53.715 5.711859
53.720 5.669768
53.725 5.982339
53.730 5.913368
53.735 5.769773
53.740 5.76337
53.745 5.239563
53.750 5.288217
53.755 5.146318
53.760 5.035259
53.765 5.138828
53.770 5.646289
53.775 5.943437
53.780 6.029657
53.785 6.203838
53.790 6.526273
53.795 6.354407
53.800 5.66853
53.805 5.331245
53.810 5.264119
53.815 5.255036
53.820 5.327343
53.825 5.191402
53.830 5.202468
53.835 5.640798
53.840 5.826417
53.845 5.721345
53.850 5.705135
53.855 5.396019
53.860 5.41412
53.865 5.500976
53.870 5.213007
53.875 5.335004
53.880 5.696742
53.885 5.568168
53.890 6.011737
53.895 6.613142
53.900 6.671763
53.905 6.905156
53.910 6.83319
53.915 6.796425
53.920 6.736936
53.925 6.464968
53.930 6.09704
53.935 6.088542
53.940 5.754053
53.945 5.671919
53.950 5.646475
53.955 5.816822
53.960 5.594651
53.965 5.522403
53.970 5.524576
53.975 5.513826
53.980 5.495365
53.985 5.756969
53.990 5.684875
53.995 5.91883
54.000 5.716518
54.005 5.32629
54.010 5.734565
54.015 5.656139
54.020 5.525822
54.025 5.567732
54.030 5.644804
54.035 5.99343
54.040 5.975223
54.045 5.457486
54.050 5.216678
54.055 5.265253
54.060 5.189066
54.065 5.250623
54.070 5.238062
54.075 5.499312
54.080 5.626052
54.085 5.666911
54.090 5.740211
54.095 5.843202
54.100 5.841678
54.105 5.798667
54.110 5.62808
54.115 5.922453
54.120 6.145607
54.125 6.567227
54.130 6.365582
54.135 6.14743
54.140 6.219691
54.145 6.252177
54.150 5.968734
54.155 5.463011
54.160 5.186364
54.165 5.110304
54.170 5.509204
54.175 5.840088
54.180 5.987432
54.185 5.947769
54.190 5.951364
54.195 6.139171
54.200 6.346617
54.205 6.257478
54.210 5.910841
54.215 5.713805
54.220 5.858524
54.225 6.065245
54.230 6.399199
54.235 6.919299
54.240 7.058629
54.245 7.542693
54.250 7.453121
54.255 7.071547
54.260 7.087929
54.265 6.524717
54.270 6.088668
54.275 5.607898
54.280 5.21541
54.285 5.704317
54.290 5.83515
54.295 5.629764
54.300 5.629777
54.305 5.713092
54.310 6.048513
54.315 6.35758
54.320 6.453084
54.325 6.440317
54.330 6.251376
54.335 6.168212
54.340 6.356621
54.345 6.317526
54.350 6.397975
54.355 6.097663
54.360 6.376358
54.365 6.231249
54.370 6.23956
54.375 6.034873
54.380 5.932078
54.385 5.875051
54.390 6.186336
54.395 6.257404
54.400 6.786605
54.405 6.960841
54.410 6.953776
54.415 6.808643
54.420 6.492562
54.425 6.288681
54.430 6.499152
54.435 6.450193
54.440 6.606947
54.445 7.032282
54.450 7.462918
54.455 7.597942
54.460 7.542238
54.465 7.40866
54.470 7.1474
54.475 7.046772
54.480 6.846812
54.485 6.796835
54.490 6.752372
54.495 6.573594
54.500 6.517992
54.505 6.36421
54.510 6.037992
54.515 6.267469
54.520 6.11887
54.525 6.328211
54.530 6.247156
54.535 6.317648
54.540 6.420926
54.545 6.443742
54.550 6.052622
54.555 6.2278
54.560 6.34229
54.565 6.290138
54.570 6.443176
54.575 6.388101
54.580 6.430922
54.585 6.752762
54.590 6.557437
54.595 6.661323
54.600 7.04732
54.605 6.904816
54.610 6.732177
54.615 6.801411
54.620 6.731156
54.625 6.668685
54.630 6.272005
54.635 6.019321
54.640 6.51275
54.645 6.87258
54.650 6.861008
54.655 6.858309
54.660 6.952091
54.665 7.267978
54.670 7.501686
54.675 7.14317
54.680 7.140484
54.685 6.98842
54.690 6.782064
54.695 6.824531
54.700 6.571187
54.705 6.297769
54.710 6.087653
54.715 5.725929
54.720 5.921122
54.725 6.101146
54.730 6.030271
54.735 5.727309
54.740 5.868556
54.745 6.318069
54.750 6.561237
54.755 6.489133
54.760 6.669008
54.765 7.107572
54.770 7.620651
54.775 7.78119
54.780 7.819027
54.785 7.568113
54.790 7.445827
54.795 7.255642
54.800 7.199385
54.805 7.382308
54.810 6.851257
54.815 6.678322
54.820 6.937207
54.825 7.095935
54.830 7.144669
54.835 6.890715
54.840 6.609607
54.845 6.88438
54.850 6.833454
54.855 6.677256
54.860 6.62772
54.865 6.487425
54.870 6.486413
54.875 6.544538
54.880 6.631243
54.885 6.522408
54.890 6.720758
54.895 6.777033
54.900 6.873455
54.905 6.727285
54.910 6.848087
54.915 7.249851
54.920 7.312734
54.925 7.298352
54.930 7.33526
54.935 7.499057
54.940 7.557384
54.945 7.047131
54.950 6.787917
54.955 6.924868
54.960 7.221369
54.965 6.966681
54.970 6.344574
54.975 6.155103
54.980 6.431001
54.985 6.537757
54.990 5.941955
54.995 5.565149
55.000 5.741346
55.005 6.126369
55.010 6.259242
55.015 6.24854
55.020 6.358274
55.025 6.868801
55.030 7.069526
55.035 7.126601
55.040 7.155577
55.045 7.027068
55.050 6.519372
55.055 6.220496
55.060 5.929005
55.065 6.150817
55.070 6.664299
55.075 6.369019
55.080 6.562774
55.085 6.95154
55.090 7.462228
55.095 7.564934
55.100 7.145669
55.105 7.024226
55.110 7.14445
55.115 7.330119
55.120 7.828897
55.125 7.699294
55.130 7.596754
55.135 8.110651
55.140 8.354589
55.145 8.48554
55.150 8.404878
55.155 7.908704
55.160 7.975467
55.165 7.854317
55.170 7.539087
55.175 7.247592
55.180 7.368565
55.185 7.83132
55.190 7.754076
55.195 7.998683
55.200 8.203109
55.205 7.910526
55.210 7.772725
55.215 7.740128
55.220 7.150687
55.225 7.098934
55.230 6.51097
55.235 6.180439
55.240 6.115936
55.245 6.159687
55.250 5.876083
55.255 5.892765
55.260 5.733222
55.265 5.809513
55.270 6.237447
55.275 6.732683
55.280 6.787739
55.285 6.755986
55.290 6.841691
55.295 7.250056
55.300 7.532329
55.305 7.121364
55.310 6.718862
55.315 7.135344
55.320 7.186532
55.325 6.867218
55.330 6.851953
55.335 6.937524
55.340 7.292772
55.345 7.335155
55.350 6.922098
55.355 7.35712
55.360 8.078728
55.365 8.042883
55.370 7.789551
55.375 8.015131
55.380 8.061468
55.385 7.911385
55.390 8.021127
55.395 7.853242
55.400 7.563
55.405 7.273746
55.410 7.236779
55.415 7.792649
55.420 7.932476
55.425 7.930673
55.430 7.834566
55.435 8.252013
55.440 8.611304
55.445 8.371531
55.450 7.832819
55.455 7.859151
55.460 7.862268
55.465 7.89373
55.470 8.120155
55.475 8.005104
55.480 8.248434
55.485 8.626975
55.490 8.704323
55.495 8.623385
55.500 8.203933
55.505 7.840303
55.510 7.779587
55.515 7.655368
55.520 7.845624
55.525 7.663807
55.530 7.805062
55.535 8.045967
55.540 8.179912
55.545 7.983022
55.550 7.768143
55.555 7.15738
55.560 7.064189
55.565 7.096384
55.570 7.635436
55.575 7.794271
55.580 8.027316
55.585 8.134424
55.590 8.178544
55.595 8.041364
55.600 7.560518
55.605 7.169097
55.610 6.914377
55.615 6.631377
55.620 6.836442
55.625 7.192334
55.630 7.430959
55.635 7.534813
55.640 7.359837
55.645 7.230636
55.650 7.368109
55.655 7.023958
55.660 6.884653
55.665 6.903188
55.670 7.021674
55.675 7.192702
55.680 7.180935
55.685 7.282027
55.690 7.381112
55.695 7.044967
55.700 7.353444
55.705 7.40529
55.710 7.556178
55.715 8.161048
55.720 8.143828
55.725 8.324389
55.730 8.352902
55.735 7.633572
55.740 7.454783
55.745 7.235863
55.750 7.114703
55.755 7.211527
55.760 7.146767
55.765 7.238619
55.770 7.560369
55.775 7.892503
55.780 8.331472
55.785 8.249166
55.790 8.159598
55.795 8.520286
55.800 9.114741
55.805 9.220654
55.810 9.009759
55.815 8.710803
55.820 8.644729
55.825 8.780931
55.830 8.572358
55.835 8.520418
55.840 8.778034
55.845 8.714286
55.850 8.567403
55.855 8.917853
55.860 9.149551
55.865 9.097411
55.870 8.607732
55.875 8.171197
55.880 8.585896
55.885 8.844879
55.890 8.323339
55.895 8.323047
55.900 8.326215
55.905 7.990196
55.910 8.079908
55.915 7.517098
55.920 7.217749
55.925 7.34816
55.930 6.869191
55.935 6.739041
55.940 7.086089
55.945 7.424806
55.950 7.757735
55.955 7.806761
55.960 7.850518
55.965 8.0056
55.970 8.032169
55.975 8.144268
55.980 7.702556
55.985 7.731608
55.990 7.644855
55.995 7.746775
56.000 7.765353
56.005 7.810399
56.010 7.968449
56.015 7.894212
56.020 7.648162
56.025 7.787781
56.030 7.571647
56.035 7.661611
56.040 7.634323
56.045 7.612497
56.050 7.73877
56.055 7.818564
56.060 7.962558
56.065 8.146914
56.070 8.067014
56.075 8.000917
56.080 7.823287
56.085 7.680817
56.090 8.116034
56.095 8.102533
56.100 7.393524
56.105 7.234106
56.110 6.846691
56.115 7.201053
56.120 7.461629
56.125 7.065716
56.130 7.544265
56.135 8.080957
56.140 8.392922
56.145 9.152136
56.150 9.021741
56.155 9.090948
56.160 8.81339
56.165 8.642466
56.170 8.948835
56.175 8.809736
56.180 8.397688
56.185 8.582751
56.190 8.362638
56.195 8.406365
56.200 8.321313
56.205 8.043914
56.210 7.99614
56.215 7.956349
56.220 7.635383
56.225 7.607282
56.230 7.701588
56.235 7.592228
56.240 7.991458
56.245 8.064881
56.250 7.979032
56.255 8.16051
56.260 8.331675
56.265 8.290802
56.270 8.443063
56.275 8.410387
56.280 8.134541
56.285 7.860272
56.290 7.884191
56.295 7.853533
56.300 8.13935
56.305 8.17842
56.310 8.178157
56.315 8.584413
56.320 8.920037
56.325 9.001594
56.330 9.223695
56.335 9.287397
56.340 9.136966
56.345 9.286745
56.350 8.86293
56.355 8.956594
56.360 8.986031
56.365 8.584185
56.370 8.615939
56.375 8.488554
56.380 8.364797
56.385 8.771617
56.390 8.692188
56.395 8.808969
56.400 8.71806
56.405 8.665435
56.410 8.970938
56.415 9.186695
56.420 8.860607
56.425 8.560663
56.430 9.09777
56.435 9.477942
56.440 9.354589
56.445 9.325302
56.450 9.189271
56.455 9.188359
56.460 9.112247
56.465 8.811058
56.470 8.56759
56.475 8.411978
56.480 8.542735
56.485 8.536184
56.490 8.621984
56.495 9.073051
56.500 8.770033
56.505 8.867594
56.510 9.039846
56.515 8.827416
56.520 8.999186
56.525 8.75999
56.530 8.31107
56.535 8.442622
56.540 8.127632
56.545 8.154102
56.550 8.306095
56.555 8.19652
56.560 8.523681
56.565 8.625196
56.570 8.644612
56.575 8.794778
56.580 8.84381
56.585 8.709478
56.590 8.89027
56.595 8.569485
56.600 8.44951
56.605 8.252687
56.610 8.270693
56.615 8.16191
56.620 8.416266
56.625 8.54901
56.630 9.159387
56.635 9.260272
56.640 9.427296
56.645 9.363331
56.650 9.508684
56.655 9.605741
56.660 9.584227
56.665 9.676458
56.670 9.625076
56.675 9.955257
56.680 9.998462
56.685 9.85412
56.690 9.805001
56.695 9.547195
56.700 9.323092
56.705 9.338904
56.710 9.060373
56.715 9.091705
56.720 8.811846
56.725 8.568345
56.730 9.155463
56.735 9.453511
56.740 9.775338
56.745 10.111634
56.750 10.047422
56.755 10.113841
56.760 10.18704
56.765 9.480254
56.770 9.406348
56.775 9.147672
56.780 8.734711
56.785 8.914646
56.790 9.394653
56.795 9.559491
56.800 9.749725
56.805 9.925213
56.810 9.954116
56.815 10.215005
56.820 10.14559
56.825 9.874797
56.830 9.90227
56.835 9.860703
56.840 9.346096
56.845 9.402895
56.850 9.243132
56.855 9.254601
56.860 9.035846
56.865 8.683974
56.870 8.758618
56.875 8.894509
56.880 8.758779
56.885 8.78893
56.890 8.481423
56.895 8.482892
56.900 8.680475
56.905 8.805365
56.910 8.992961
56.915 8.882141
56.920 8.63291
56.925 8.742418
56.930 9.133872
56.935 9.283918
56.940 8.895279
56.945 9.246576
56.950 9.796419
56.955 9.959039
56.960 10.069028
56.965 9.691536
56.970 9.857949
56.975 10.069624
56.980 9.904012
56.985 9.851844
56.990 10.096982
56.995 10.75964
57.000 11.137339
57.005 10.859247
57.010 10.600328
57.015 10.312191
57.020 10.199529
57.025 10.107069
57.030 9.194963
57.035 8.777615
57.040 8.705691
57.045 8.609683
57.050 8.796535
57.055 8.636465
57.060 8.403034
57.065 8.518809
57.070 8.928046
57.075 9.451916
57.080 9.48826
57.085 9.164176
57.090 9.380494
57.095 9.973063
57.100 9.98535
57.105 9.634638
57.110 8.991023
57.115 8.929318
57.120 8.989405
57.125 9.12298
57.130 9.099037
57.135 9.472764
57.140 9.826902
57.145 10.295674
57.150 10.52879
57.155 10.429399
57.160 10.092192
57.165 9.829467
57.170 9.871494
57.175 9.50126
57.180 9.246197
57.185 8.839163
57.190 8.723326
57.195 8.997261
57.200 8.972737
57.205 8.81542
57.210 9.003648
57.215 9.072895
57.220 9.840376
57.225 10.115613
57.230 10.036522
57.235 10.483706
57.240 10.808248
57.245 10.912015
57.250 10.707043
57.255 10.079618
57.260 10.005239
57.265 9.910167
57.270 9.557295
57.275 9.345659
57.280 9.565346
57.285 10.288274
57.290 10.91284
57.295 10.591294
57.300 10.466427
57.305 10.37643
57.310 10.507545
57.315 10.74795
57.320 10.558801
57.325 10.305575
57.330 10.449746
57.335 10.415861
57.340 10.156137
57.345 9.80991
57.350 9.162095
57.355 8.747798
57.360 9.109746
57.365 9.554437
57.370 9.682652
57.375 9.646284
57.380 9.738919
57.385 9.889922
57.390 9.659472
57.395 9.71835
57.400 9.799343
57.405 9.845492
57.410 10.32799
57.415 10.706165
57.420 11.014977
57.425 11.207974
57.430 10.305509
57.435 9.517383
57.440 9.531585
57.445 9.219322
57.450 9.05111
57.455 9.265248
57.460 9.560611
57.465 9.848541
57.470 10.383172
57.475 10.024987
57.480 9.835115
57.485 10.039259
57.490 10.225736
57.495 10.261628
57.500 10.651756
57.505 10.36202
57.510 10.389039
57.515 10.455049
57.520 10.166492
57.525 9.716544
57.530 9.651115
57.535 9.483615
57.540 9.954329
57.545 9.973166
57.550 9.792952
57.555 10.23398
57.560 10.157839
57.565 10.018418
57.570 9.914211
57.575 9.548848
57.580 9.806828
57.585 9.541504
57.590 9.21283
57.595 9.215777
57.600 9.53715
57.605 9.839534
57.610 10.175353
57.615 10.093782
57.620 10.409405
57.625 10.319862
57.630 10.845011
57.635 10.737667
57.640 10.603889
57.645 10.338517
57.650 10.65775
57.655 11.184127
57.660 10.985154
57.665 10.344103
57.670 10.043368
57.675 10.024866
57.680 10.068948
57.685 9.580959
57.690 9.103098
57.695 9.038183
57.700 9.07943
57.705 9.064975
57.710 9.074001
57.715 9.084363
57.720 9.160888
57.725 9.273514
57.730 9.228578
57.735 9.341436
57.740 9.638018
57.745 9.811082
57.750 9.63793
57.755 9.768689
57.760 9.711458
57.765 10.330085
57.770 10.461948
57.775 10.49169
57.780 10.523624
57.785 10.858226
57.790 10.880514
57.795 10.456836
57.800 10.018475
57.805 10.101378
57.810 9.991668
57.815 10.232363
57.820 10.131912
57.825 10.223585
57.830 10.612411
57.835 10.729205
57.840 10.446502
57.845 10.555556
57.850 10.392951
57.855 10.178025
57.860 10.241667
57.865 10.440551
57.870 10.547225
57.875 10.663266
57.880 10.480281
57.885 10.53927
57.890 10.590292
57.895 10.507256
57.900 10.474391
57.905 10.449722
57.910 10.381203
57.915 10.417693
57.920 10.34633
57.925 10.738873
57.930 10.70476
57.935 10.882609
57.940 11.248649
57.945 11.362825
57.950 11.50802
57.955 11.501612
57.960 11.469411
57.965 11.429226
57.970 11.423705
57.975 10.873406
57.980 11.352897
57.985 11.508171
57.990 11.506683
57.995 11.532723
58.000 11.63533
58.005 11.595205
58.010 11.953388
58.015 11.90248
58.020 12.163523
58.025 11.793816
58.030 11.89707
58.035 12.095852
58.040 11.932364
58.045 11.797501
58.050 11.654113
58.055 11.813804
58.060 12.110978
58.065 12.340595
58.070 12.464489
58.075 13.006754
58.080 12.741061
58.085 12.353085
58.090 12.210962
58.095 12.517333
58.100 12.145025
58.105 11.85624
58.110 11.685203
58.115 12.465936
58.120 12.615043
58.125 12.518448
58.130 12.087388
58.135 11.904865
58.140 11.721762
58.145 11.191835
58.150 10.801157
58.155 11.353974
58.160 11.610961
58.165 11.772079
58.170 12.564417
58.175 13.325238
58.180 13.739032
58.185 13.808919
58.190 13.467226
58.195 13.452099
58.200 13.337729
58.205 12.976378
58.210 12.671479
58.215 12.466165
58.220 12.155696
58.225 11.993561
58.230 12.072755
58.235 12.352736
58.240 12.065781
58.245 11.603749
58.250 12.118701
58.255 12.630003
58.260 12.959536
58.265 13.202987
58.270 13.349926
58.275 13.319678
58.280 13.532007
58.285 13.543156
58.290 13.650327
58.295 13.167929
58.300 12.929327
58.305 13.055916
58.310 13.727732
58.315 13.526506
58.320 13.113132
58.325 13.053825
58.330 13.481604
58.335 13.572261
58.340 13.336447
58.345 13.098621
58.350 13.542555
58.355 13.531143
58.360 13.106387
58.365 13.072724
58.370 13.354162
58.375 13.584292
58.380 13.897373
58.385 13.473271
58.390 13.305779
58.395 13.047254
58.400 13.206275
58.405 13.357554
58.410 13.174809
58.415 13.044345
58.420 13.994122
58.425 14.598316
58.430 14.903093
58.435 14.517916
58.440 15.067648
58.445 15.463408
58.450 15.44865
58.455 15.708275
58.460 16.714687
58.465 17.529341
58.470 18.389568
58.475 18.085199
58.480 18.209312
58.485 18.748407
58.490 18.991486
58.495 18.800001
58.500 19.356516
58.505 19.427912
58.510 19.885448
58.515 20.912544
58.520 21.04838
58.525 21.324993
58.530 21.134457
58.535 20.706966
58.540 21.106613
58.545 21.591028
58.550 20.752943
58.555 20.322422
58.560 20.823399
58.565 21.81901
58.570 22.307245
58.575 22.201811
58.580 21.851826
58.585 22.298946
58.590 23.148933
58.595 23.612883
58.600 23.370668
58.605 23.521635
58.610 24.14839
58.615 24.725857
58.620 25.483761
58.625 25.201115
58.630 25.195911
58.635 25.689795
58.640 25.951406
58.645 25.455784
58.650 25.092728
58.655 24.944147
58.660 25.632389
58.665 25.091064
58.670 25.041113
58.675 25.084721
58.680 25.018621
58.685 24.777491
58.690 24.957664
58.695 25.136282
58.700 25.717443
58.705 26.281584
58.710 26.280924
58.715 26.289387
58.720 26.31715
58.725 26.195492
58.730 25.403198
58.735 25.019255
58.740 24.549191
58.745 24.544052
58.750 25.065792
58.755 25.023426
58.760 24.644581
58.765 24.945482
58.770 24.420698
58.775 23.579227
58.780 23.365269
58.785 22.869305
58.790 22.228144
58.795 21.390066
58.800 20.998419
58.805 20.82443
58.810 21.150999
58.815 20.662642
58.820 20.446272
58.825 20.818005
58.830 21.321587
58.835 20.752544
58.840 21.259758
58.845 21.054535
58.850 20.634151
58.855 20.373877
58.860 19.711227
58.865 19.291117
58.870 19.059361
58.875 18.584988
58.880 18.505102
58.885 18.799154
58.890 18.527102
58.895 18.872286
58.900 19.427378
58.905 18.959892
58.910 18.366556
58.915 18.14604
58.920 17.543549
58.925 17.461863
58.930 17.111719
58.935 16.320442
58.940 16.305428
58.945 16.292429
58.950 16.033789
58.955 15.803901
58.960 15.688548
58.965 15.373978
58.970 15.401289
58.975 15.684462
58.980 15.430058
58.985 15.6741
58.990 15.686315
58.995 15.703486
59.000 15.309737
59.005 14.603778
59.010 14.221507
59.015 14.654087
59.020 14.060973
59.025 13.933714
59.030 14.411594
59.035 14.571587
59.040 15.017194
59.045 14.619925
59.050 14.124715
59.055 13.807145
59.060 13.628579
59.065 13.0686
59.070 12.679168
59.075 11.90865
59.080 12.047157
59.085 12.960442
59.090 13.162076
59.095 13.2033
59.100 13.44645
59.105 13.685462
59.110 14.179081
59.115 14.051291
59.120 13.404502
59.125 13.575356
59.130 13.278214
59.135 13.069781
59.140 13.842103
59.145 13.756374
59.150 13.789502
59.155 13.862379
59.160 14.063818
59.165 14.339866
59.170 14.151299
59.175 13.784909
59.180 13.532432
59.185 13.09435
59.190 13.207265
59.195 13.501616
59.200 13.262656
59.205 13.362019
59.210 13.193605
59.215 13.262485
59.220 13.191863
59.225 12.869571
59.230 12.323064
59.235 12.030161
59.240 11.723286
59.245 11.972569
59.250 11.696769
59.255 11.37503
59.260 11.440269
59.265 11.797125
59.270 12.367956
59.275 12.526957
59.280 12.656856
59.285 13.238236
59.290 13.851445
59.295 13.669187
59.300 13.22292
59.305 12.969959
59.310 12.994945
59.315 12.744956
59.320 12.647721
59.325 12.226067
59.330 12.310658
59.335 12.963127
59.340 13.329103
59.345 12.843861
59.350 12.126
59.355 11.952233
59.360 12.16397
59.365 12.186214
59.370 11.707405
59.375 11.751697
59.380 12.102899
59.385 12.275661
59.390 12.545044
59.395 12.279097
59.400 12.19486
59.405 12.000828
59.410 11.697046
59.415 11.989612
59.420 12.396612
59.425 12.399192
59.430 12.423213
59.435 12.424296
59.440 12.821001
59.445 12.372239
59.450 12.42819
59.455 12.97624
59.460 12.970407
59.465 12.82329
59.470 12.685351
59.475 12.330139
59.480 12.736335
59.485 12.856862
59.490 12.468816
59.495 12.263694
59.500 12.293571
59.505 12.395736
59.510 12.871212
59.515 12.602909
59.520 12.029263
59.525 11.727121
59.530 11.43735
59.535 11.281459
59.540 11.055893
59.545 10.698421
59.550 10.531529
59.555 10.673243
59.560 10.972459
59.565 11.607581
59.570 11.774974
59.575 11.938507
59.580 12.396902
59.585 13.066271
59.590 13.113419
59.595 12.590252
59.600 12.26558
59.605 12.359043
59.610 12.292761
59.615 11.845778
59.620 11.680376
59.625 11.656901
59.630 12.012922
59.635 12.154111
59.640 12.553887
59.645 12.888018
59.650 13.221025
59.655 12.91011
59.660 12.783732
59.665 12.436894
59.670 12.226861
59.675 11.790951
59.680 11.149044
59.685 10.785577
59.690 10.95558
59.695 10.835823
59.700 11.389773
59.705 11.393626
59.710 11.446478
59.715 12.467374
59.720 12.62427
59.725 12.54666
59.730 12.285861
59.735 11.750852
59.740 11.944538
59.745 11.400623
59.750 11.18207
59.755 11.055655
59.760 11.309708
59.765 12.079808
59.770 12.365551
59.775 12.688044
59.780 13.246736
59.785 13.119549
59.790 13.303064
59.795 13.600625
59.800 13.467919
59.805 13.415925
59.810 13.00545
59.815 12.781099
59.820 13.125643
59.825 13.329583
59.830 12.888597
59.835 12.4149
59.840 12.013424
59.845 12.325899
59.850 12.362578
59.855 12.041062
59.860 12.008984
59.865 11.923019
59.870 12.107687
59.875 12.341022
59.880 11.715175
59.885 11.375551
59.890 11.355834
59.895 11.215002
59.900 11.089265
59.905 11.397141
59.910 11.514666
59.915 11.851876
59.920 12.006782
59.925 11.925519
59.930 12.23042
59.935 12.804229
59.940 12.547843
59.945 12.464265
59.950 12.554364
59.955 12.623466
59.960 13.081124
59.965 12.77131
59.970 12.218294
59.975 12.42369
59.980 12.779137
59.985 12.318156
59.990 11.898005
59.995 11.948324
60.000 11.965012
60.005 12.051028
60.010 11.746315
60.015 11.273977
60.020 11.585288
60.025 11.707938
60.030 11.262982
60.035 11.399808
60.040 11.349372
60.045 11.452824
60.050 11.95711
60.055 12.194257
60.060 12.252788
60.065 12.120116
60.070 12.042022
60.075 12.374248
60.080 12.459696
60.085 12.485315
60.090 12.629765
60.095 13.141181
60.100 13.395082
60.105 13.666623
60.110 13.4548
60.115 12.968533
60.120 12.916514
60.125 12.537645
60.130 11.644805
60.135 11.604636
60.140 11.207317
60.145 11.125761
60.150 10.798223
60.155 10.434759
60.160 10.965431
60.165 11.74594
60.170 11.696547
60.175 11.751739
60.180 12.479891
60.185 13.162365
60.190 13.554893
60.195 13.189382
60.200 13.00196
60.205 13.25293
60.210 12.987815
60.215 12.622999
60.220 12.353188
60.225 12.255685
60.230 12.441931
60.235 12.481252
60.240 12.266006
60.245 12.384769
60.250 11.938556
60.255 12.400587
60.260 12.851828
60.265 12.782155
60.270 12.198956
60.275 12.288867
60.280 12.86159
60.285 13.414972
60.290 12.735767
60.295 11.887194
60.300 11.603923
60.305 12.274753
60.310 12.057466
60.315 11.529187
60.320 11.561489
60.325 11.761513
60.330 11.906201
60.335 12.230986
60.340 12.214714
60.345 12.456165
60.350 12.64741
60.355 12.724633
60.360 12.714533
60.365 13.011564
60.370 12.829871
60.375 12.779122
60.380 13.155838
60.385 13.133852
60.390 13.05129
60.395 13.011119
60.400 12.708307
60.405 12.696725
60.410 12.563154
60.415 12.091989
60.420 11.813443
60.425 11.743686
60.430 12.173093
60.435 12.518952
60.440 12.772203
60.445 12.972734
60.450 13.513897
60.455 13.958833
60.460 13.935328
60.465 13.394469
60.470 13.022297
60.475 13.102221
60.480 13.188871
60.485 12.92043
60.490 12.894387
60.495 12.887206
60.500 12.682303
60.505 12.840465
60.510 12.1922
60.515 12.131972
60.520 11.777004
60.525 11.713641
60.530 11.857971
60.535 12.03042
60.540 12.26752
60.545 12.265576
60.550 12.087424
60.555 12.244936
60.560 12.110105
60.565 11.826345
60.570 11.730319
60.575 11.697485
60.580 11.859241
60.585 11.810605
60.590 12.022335
60.595 12.538801
60.600 12.773174
60.605 12.828256
60.610 12.92456
60.615 12.937101
60.620 13.668988
60.625 13.212852
60.630 12.752938
60.635 12.744864
60.640 12.61225
60.645 12.900096
60.650 12.494314
60.655 11.677924
60.660 12.085369
60.665 12.216976
60.670 12.387364
60.675 12.831769
60.680 12.69668
60.685 13.088783
60.690 13.189722
60.695 12.881256
60.700 13.237495
60.705 13.52841
60.710 13.289477
60.715 13.352217
60.720 13.925557
60.725 13.796165
60.730 13.907712
60.735 13.693102
60.740 13.252801
60.745 12.891301
60.750 12.795802
60.755 12.101613
60.760 12.2029
60.765 12.402234
60.770 12.011717
60.775 11.913765
60.780 12.107932
60.785 12.042983
60.790 12.134626
60.795 12.376048
60.800 12.429327
60.805 12.770949
60.810 13.17905
60.815 13.008003
60.820 12.543418
60.825 12.357811
60.830 12.307069
60.835 12.825153
60.840 12.695672
60.845 12.304817
60.850 12.43539
60.855 12.746879
60.860 12.377756
60.865 11.953201
60.870 11.511369
60.875 11.574924
60.880 11.757516
60.885 11.998295
60.890 12.056885
60.895 12.716914
60.900 13.115402
60.905 13.143601
60.910 13.199766
60.915 13.247918
60.920 13.035314
60.925 13.013246
60.930 12.65033
60.935 12.298416
60.940 12.010419
60.945 11.927492
60.950 11.765454
60.955 12.136912
60.960 12.47733
60.965 12.651385
60.970 12.823997
60.975 13.023739
60.980 13.034971
60.985 12.921546
60.990 12.705996
60.995 12.480237
61.000 12.344266
61.005 11.968298
61.010 11.749365
61.015 11.675023
61.020 12.292551
61.025 12.587552
61.030 12.341031
61.035 12.446847
61.040 12.586106
61.045 12.531258
61.050 12.585766
61.055 12.328491
61.060 11.966433
61.065 12.692549
61.070 12.974722
61.075 13.045838
61.080 13.324438
61.085 13.54101
61.090 13.313705
61.095 13.544292
61.100 13.236348
61.105 13.238153
61.110 13.191422
61.115 13.145849
61.120 13.245924
61.125 13.140639
61.130 13.000434
61.135 12.748533
61.140 12.835666
61.145 13.029649
61.150 12.766402
61.155 12.636052
61.160 13.022895
61.165 13.201488
61.170 13.113192
61.175 12.811272
61.180 12.597052
61.185 12.828932
61.190 12.845622
61.195 12.651181
61.200 12.802541
61.205 13.286428
61.210 13.585797
61.215 13.909801
61.220 14.124323
61.225 14.516443
61.230 15.00766
61.235 14.525823
61.240 14.187504
61.245 14.065589
61.250 14.179358
61.255 13.84053
61.260 13.777118
61.265 13.792397
61.270 14.085619
61.275 14.245919
61.280 14.377169
61.285 14.694132
61.290 15.214931
61.295 15.544229
61.300 15.673019
61.305 15.87099
61.310 16.179836
61.315 15.942472
61.320 15.501751
61.325 15.177694
61.330 14.821862
61.335 14.356741
61.340 13.905537
61.345 13.185233
61.350 12.938211
61.355 12.883788
61.360 12.650126
61.365 12.504794
61.370 12.403181
61.375 12.80907
61.380 12.836122
61.385 12.713171
61.390 12.65829
61.395 12.472814
61.400 12.162069
61.405 11.940121
61.410 12.033774
61.415 12.540732
61.420 13.013388
61.425 12.689276
61.430 12.811375
61.435 13.04604
61.440 13.225793
61.445 13.251174
61.450 13.329506
61.455 13.092113
61.460 13.437336
61.465 13.580945
61.470 13.294052
61.475 12.99417
61.480 12.610419
61.485 12.467117
61.490 12.482344
61.495 12.438232
61.500 12.328116
61.505 12.58232
61.510 12.911451
61.515 13.110256
61.520 13.094242
61.525 13.418077
61.530 13.350848
61.535 13.425533
61.540 13.621841
61.545 14.03196
61.550 13.805103
61.555 13.811995
61.560 13.761552
61.565 14.132864
61.570 14.008793
61.575 13.844491
61.580 13.676243
61.585 14.281487
61.590 14.554843
61.595 14.682711
61.600 14.7534
61.605 15.097964
61.610 15.042278
61.615 15.040051
61.620 14.703103
61.625 14.772084
61.630 14.605963
61.635 14.403402
61.640 14.03824
61.645 13.571689
61.650 13.444071
61.655 13.961466
61.660 14.214767
61.665 14.172994
61.670 13.661764
61.675 13.427491
61.680 13.446311
61.685 13.10739
61.690 12.600572
61.695 12.11693
61.700 11.803633
61.705 12.523463
61.710 12.838913
61.715 13.469249
61.720 13.571745
61.725 13.526011
61.730 13.383241
61.735 13.36884
61.740 13.161372
61.745 12.92278
61.750 12.57526
61.755 12.380091
61.760 12.425606
61.765 12.627748
61.770 12.985941
61.775 12.942122
61.780 12.83677
61.785 12.071565
61.790 12.14775
61.795 11.827396
61.800 11.715641
61.805 11.81185
61.810 11.711407
61.815 11.999389
61.820 12.654998
61.825 12.852536
61.830 13.235822
61.835 13.249353
61.840 13.705055
61.845 14.17929
61.850 14.183028
61.855 14.147836
61.860 14.430472
61.865 14.728424
61.870 14.737638
61.875 14.517007
61.880 14.618136
61.885 14.886517
61.890 15.239305
61.895 15.183619
61.900 14.951377
61.905 15.373639
61.910 15.133128
61.915 15.179843
61.920 15.193795
61.925 15.275715
61.930 14.947936
61.935 15.046027
61.940 14.465743
61.945 14.054233
61.950 13.980974
61.955 13.890624
61.960 13.917766
61.965 14.445011
61.970 14.155493
61.975 14.128922
61.980 14.297973
61.985 14.229279
61.990 14.237761
61.995 13.397207
62.000 13.016418
62.005 13.117267
62.010 13.301034
62.015 13.244282
62.020 13.084781
62.025 13.086538
62.030 13.900553
62.035 14.15514
62.040 14.286195
62.045 14.441599
62.050 14.287292
62.055 14.350121
62.060 14.126748
62.065 13.568154
62.070 13.030028
62.075 12.458329
62.080 12.365839
62.085 12.410007
62.090 12.255534
62.095 12.497532
62.100 11.836627
62.105 12.127654
62.110 12.880797
62.115 13.4348
62.120 13.851763
62.125 14.072271
62.130 14.087802
62.135 14.545712
62.140 14.164731
62.145 13.699639
62.150 13.37851
62.155 13.091244
62.160 13.030534
62.165 12.876883
62.170 13.12236
62.175 13.828482
62.180 14.296079
62.185 14.212096
62.190 14.328632
62.195 14.61756
62.200 14.294265
62.205 14.516228
62.210 14.467758
62.215 13.953295
62.220 13.695776
62.225 13.028298
62.230 12.615705
62.235 12.916977
62.240 13.338037
62.245 12.879625
62.250 12.765228
62.255 13.522245
62.260 13.923608
62.265 14.343233
62.270 14.419579
62.275 14.359162
62.280 14.611366
62.285 14.469269
62.290 13.999649
62.295 14.116825
62.300 13.930874
62.305 13.825901
62.310 13.554799
62.315 13.056872
62.320 13.015177
62.325 12.910932
62.330 12.900911
62.335 13.058003
62.340 12.74813
62.345 12.214911
62.350 12.18351
62.355 12.178619
62.360 12.609125
62.365 12.777912
62.370 12.832032
62.375 12.855581
62.380 13.172676
62.385 13.554529
62.390 13.904099
62.395 13.88319
62.400 13.753452
62.405 13.396864
62.410 13.633981
62.415 13.921859
62.420 14.099096
62.425 14.052724
62.430 13.844825
62.435 14.405519
62.440 15.115303
62.445 15.366425
62.450 15.437431
62.455 15.407613
62.460 15.364334
62.465 15.120533
62.470 14.414328
62.475 14.261052
62.480 14.008954
62.485 13.589319
62.490 13.735084
62.495 14.220656
62.500 14.67364
62.505 14.741738
62.510 14.432564
62.515 14.459401
62.520 14.906653
62.525 14.410321
62.530 13.854204
62.535 13.645005
62.540 13.62308
62.545 14.019211
62.550 14.208614
62.555 13.927697
62.560 13.677927
62.565 13.339916
62.570 13.049226
62.575 12.974794
62.580 12.789404
62.585 12.505123
62.590 12.360039
62.595 12.879111
62.600 13.038067
62.605 13.042199
62.610 13.04352
62.615 13.035183
62.620 13.316665
62.625 13.969092
62.630 13.706475
62.635 13.858457
62.640 13.946663
62.645 13.786554
62.650 13.442021
62.655 13.094645
62.660 13.226933
62.665 13.595588
62.670 13.474424
62.675 13.632534
62.680 13.846886
62.685 14.075138
62.690 14.257839
62.695 13.557611
62.700 13.164165
62.705 13.142272
62.710 13.214909
62.715 13.978935
62.720 14.595489
62.725 14.322788
62.730 14.764482
62.735 15.239212
62.740 15.697939
62.745 15.61089
62.750 14.986311
62.755 14.636137
62.760 14.553871
62.765 14.489225
62.770 14.433749
62.775 14.532192
62.780 14.487609
62.785 14.208702
62.790 14.163971
62.795 14.794627
62.800 14.877852
62.805 15.015529
62.810 14.988031
62.815 14.833978
62.820 15.541682
62.825 15.948647
62.830 15.622931
62.835 15.081701
62.840 15.095426
62.845 15.02624
62.850 15.240925
62.855 14.780835
62.860 14.613622
62.865 14.327138
62.870 14.217073
62.875 14.451519
62.880 14.134968
62.885 13.941051
62.890 13.809395
62.895 13.721919
62.900 14.19122
62.905 14.444349
62.910 13.935067
62.915 14.207753
62.920 14.361925
62.925 14.28711
62.930 14.456116
62.935 14.068631
62.940 13.84278
62.945 14.072666
62.950 14.111157
62.955 13.941998
62.960 13.599689
62.965 13.402809
62.970 13.675193
62.975 14.080834
62.980 14.255967
62.985 14.295643
62.990 14.265108
62.995 14.958426
63.000 15.654397
63.005 16.192381
63.010 16.559603
63.015 16.362597
63.020 16.082214
63.025 16.075035
63.030 15.603481
63.035 15.003316
63.040 14.32793
63.045 14.148731
63.050 14.129538
63.055 13.96593
63.060 13.956808
63.065 13.810162
63.070 14.035244
63.075 14.287878
63.080 14.446939
63.085 14.584455
63.090 14.849907
63.095 14.800883
63.100 15.077848
63.105 14.277198
63.110 13.726947
63.115 13.15399
63.120 13.111345
63.125 13.371776
63.130 13.947057
63.135 13.855126
63.140 14.374284
63.145 14.592261
63.150 14.526182
63.155 14.270868
63.160 14.747207
63.165 14.97015
63.170 14.909154
63.175 14.759345
63.180 15.009142
63.185 15.138357
63.190 15.221505
63.195 14.919088
63.200 15.190639
63.205 15.800337
63.210 16.083189
63.215 15.920937
63.220 16.180489
63.225 15.691744
63.230 15.38599
63.235 14.755243
63.240 14.179206
63.245 13.9559
63.250 14.122687
63.255 14.909433
63.260 15.982125
63.265 16.340288
63.270 16.238182
63.275 16.948717
63.280 17.03776
63.285 16.785017
63.290 16.045332
63.295 15.536923
63.300 15.676367
63.305 16.065556
63.310 16.142998
63.315 16.558702
63.320 16.653955
63.325 16.474867
63.330 16.231739
63.335 15.908904
63.340 15.217146
63.345 14.377417
63.350 14.219445
63.355 14.174356
63.360 14.235187
63.365 14.235069
63.370 14.018301
63.375 13.981503
63.380 14.122815
63.385 13.728122
63.390 13.340012
63.395 13.112061
63.400 13.13135
63.405 13.55791
63.410 14.197618
63.415 14.226149
63.420 14.374416
63.425 14.391846
63.430 14.361397
63.435 14.501706
63.440 14.413013
63.445 14.600949
63.450 15.209264
63.455 15.152614
63.460 15.219618
63.465 15.292667
63.470 14.886877
63.475 14.82183
63.480 14.538177
63.485 14.331264
63.490 14.459735
63.495 14.718489
63.500 15.058021
63.505 15.383249
63.510 15.366446
63.515 15.03063
63.520 14.590595
63.525 14.710822
63.530 14.902503
63.535 14.895326
63.540 14.488138
63.545 14.406529
63.550 14.704946
63.555 15.036592
63.560 15.458297
63.565 15.655336
63.570 15.185329
63.575 15.521384
63.580 15.849957
63.585 16.054441
63.590 15.828187
63.595 15.155629
63.600 14.688807
63.605 14.996754
63.610 15.043996
63.615 15.028991
63.620 14.80441
63.625 14.604526
63.630 14.618979
63.635 14.688064
63.640 15.190043
63.645 15.845737
63.650 15.975803
63.655 16.197138
63.660 16.668526
63.665 16.85536
63.670 16.694868
63.675 16.104794
63.680 15.409208
63.685 15.263132
63.690 15.007929
63.695 14.770184
63.700 14.607744
63.705 15.175117
63.710 15.454078
63.715 16.141491
63.720 15.860383
63.725 16.150057
63.730 16.655228
63.735 16.294914
63.740 15.976903
63.745 15.628084
63.750 15.000771
63.755 15.291356
63.760 15.361768
63.765 14.839946
63.770 15.131391
63.775 15.088244
63.780 16.010357
63.785 16.59198
63.790 16.521179
63.795 16.484715
63.800 16.464685
63.805 16.476799
63.810 16.544882
63.815 15.829746
63.820 15.464211
63.825 15.392801
63.830 15.436113
63.835 15.942463
63.840 16.276266
63.845 16.39959
63.850 16.166536
63.855 15.644454
63.860 15.66058
63.865 15.364807
63.870 15.460687
63.875 15.726071
63.880 16.077459
63.885 16.03014
63.890 16.136295
63.895 15.838126
63.900 16.03586
63.905 15.723114
63.910 15.657679
63.915 15.58838
63.920 15.973297
63.925 16.394047
63.930 16.966532
63.935 17.2617
63.940 17.068241
63.945 16.228329
63.950 15.944336
63.955 15.920138
63.960 16.038
63.965 16.311897
63.970 16.302803
63.975 16.75234
63.980 17.37612
63.985 17.863976
63.990 18.573441
63.995 18.890797
64.000 18.587708
64.005 19.138927
64.010 19.447237
64.015 19.27487
64.020 18.856028
64.025 18.351851
64.030 18.803368
64.035 19.044909
64.040 18.993248
64.045 19.471321
64.050 20.771938
64.055 21.14954
64.060 21.831596
64.065 21.666773
64.070 21.031683
64.075 20.861143
64.080 20.506464
64.085 20.14665
64.090 20.078213
64.095 19.846931
64.100 19.840202
64.105 20.016058
64.110 20.067913
64.115 20.617111
64.120 20.77742
64.125 21.489897
64.130 22.025066
64.135 22.238459
64.140 23.05921
64.145 23.376961
64.150 23.093294
64.155 23.192865
64.160 22.769033
64.165 22.648489
64.170 23.570436
64.175 23.943012
64.180 23.92844
64.185 24.177483
64.190 25.124908
64.195 26.243887
64.200 26.536566
64.205 26.330235
64.210 26.040583
64.215 26.159979
64.220 26.374495
64.225 26.553139
64.230 26.701685
64.235 27.464323
64.240 28.492529
64.245 29.646629
64.250 30.127283
64.255 30.886103
64.260 31.063505
64.265 32.462929
64.270 32.745308
64.275 32.655819
64.280 32.785698
64.285 33.459862
64.290 34.259659
64.295 34.204197
64.300 34.033871
64.305 34.927933
64.310 35.235588
64.315 35.768082
64.320 36.651077
64.325 38.181038
64.330 39.028023
64.335 39.283642
64.340 39.301331
64.345 39.919685
64.350 40.040443
64.355 39.908665
64.360 39.994301
64.365 40.842751
64.370 41.200058
64.375 41.294365
64.380 41.708649
64.385 42.141743
64.390 42.545288
64.395 42.280651
64.400 42.901108
64.405 43.242016
64.410 43.039474
64.415 42.539631
64.420 42.254528
64.425 43.031231
64.430 43.488773
64.435 43.473469
64.440 44.096905
64.445 44.980362
64.450 45.437008
64.455 46.189571
64.460 46.032528
64.465 45.384563
64.470 44.123165
64.475 43.127712
64.480 42.403671
64.485 42.17775
64.490 42.032887
64.495 41.87125
64.500 41.856937
64.505 41.277569
64.510 40.812744
64.515 40.711872
64.520 40.486645
64.525 39.44347
64.530 38.179409
64.535 37.191437
64.540 37.133129
64.545 36.372486
64.550 35.795944
64.555 35.723812
64.560 35.174267
64.565 35.249474
64.570 35.343269
64.575 35.114506
64.580 34.322559
64.585 33.438377
64.590 32.802307
64.595 32.647282
64.600 32.586441
64.605 31.891024
64.610 32.062618
64.615 32.638393
64.620 33.182053
64.625 33.547039
64.630 33.217709
64.635 32.07869
64.640 30.645016
64.645 29.594593
64.650 29.078358
64.655 27.945427
64.660 27.096876
64.665 27.523762
64.670 27.710842
64.675 27.848896
64.680 27.055025
64.685 26.331982
64.690 26.534605
64.695 26.596876
64.700 25.940931
64.705 25.847689
64.710 26.332634
64.715 26.717838
64.720 27.073765
64.725 26.048784
64.730 25.688736
64.735 24.700611
64.740 23.309343
64.745 21.835131
64.750 20.963135
64.755 20.005911
64.760 20.126928
64.765 19.495537
64.770 19.572105
64.775 20.0921
64.780 20.79961
64.785 21.000641
64.790 21.018345
64.795 20.939783
64.800 21.320803
64.805 21.794348
64.810 21.575907
64.815 21.604919
64.820 21.544563
64.825 21.843452
64.830 21.406364
64.835 21.456211
64.840 21.353447
64.845 21.325979
64.850 21.011177
64.855 21.038879
64.860 20.719868
64.865 20.348862
64.870 19.945026
64.875 19.561527
64.880 19.283783
64.885 19.369736
64.890 19.822708
64.895 20.747833
64.900 21.235979
64.905 21.710939
64.910 21.724831
64.915 21.656958
64.920 21.652573
64.925 21.65222
64.930 21.025333
64.935 20.782791
64.940 20.76409
64.945 21.114393
64.950 21.722992
64.955 21.663771
64.960 20.953144
64.965 20.923159
64.970 21.17485
64.975 20.627537
64.980 20.863878
64.985 21.526932
64.990 22.141834
64.995 23.090816
65.000 23.142035
65.005 23.309713
65.010 23.243914
65.015 22.601521
65.020 22.434286
65.025 22.245321
65.030 21.6992
65.035 21.782402
65.040 21.767151
65.045 22.028702
65.050 22.030386
65.055 21.692848
65.060 22.268135
65.065 22.429758
65.070 23.073919
65.075 23.601374
65.080 24.304346
65.085 25.10803
65.090 25.725204
65.095 26.030195
65.100 26.74938
65.105 26.957174
65.110 27.020947
65.115 26.473413
65.120 26.31885
65.125 25.922951
65.130 25.871325
65.135 26.357101
65.140 26.59812
65.145 26.418356
65.150 26.776892
65.155 27.784977
65.160 28.710348
65.165 28.975382
65.170 29.15773
65.175 29.095421
65.180 29.79808
65.185 30.017128
65.190 29.693327
65.195 29.823673
65.200 30.137505
65.205 29.941494
65.210 30.093418
65.215 30.342783
65.220 30.177769
65.225 30.326302
65.230 30.259596
65.235 30.195024
65.240 30.1257
65.245 30.591192
65.250 30.757544
65.255 31.132738
65.260 30.94964
65.265 31.195297
65.270 31.512871
65.275 31.578688
65.280 31.379826
65.285 30.935152
65.290 30.919315
65.295 32.055592
65.300 32.582691
65.305 32.710419
65.310 33.076023
65.315 32.988667
65.320 33.699497
65.325 34.369305
65.330 34.453987
65.335 34.0728
65.340 34.138348
65.345 34.808174
65.350 35.495083
65.355 35.396629
65.360 35.657829
65.365 35.231853
65.370 35.851131
65.375 37.200352
65.380 38.270634
65.385 39.088039
65.390 39.643047
65.395 39.209568
65.400 39.551193
65.405 39.174702
65.410 38.433411
65.415 38.285954
65.420 38.392818
65.425 38.915668
65.430 38.818947
65.435 39.162182
65.440 40.754433
65.445 39.964905
65.450 38.880711
65.455 38.161392
65.460 38.295994
65.465 38.070827
65.470 37.406731
65.475 36.242775
65.480 36.762997
65.485 37.196041
65.490 37.043453
65.495 37.017982
65.500 37.734539
65.505 38.331764
65.510 38.38686
65.515 38.535881
65.520 38.103954
65.525 38.445427
65.530 38.468544
65.535 38.556522
65.540 38.780277
65.545 39.216785
65.550 39.272778
65.555 40.181458
65.560 40.52354
65.565 39.897614
65.570 38.934849
65.575 38.347816
65.580 38.530491
65.585 38.456772
65.590 37.801529
65.595 36.539085
65.600 36.585663
65.605 37.094734
65.610 36.434822
65.615 35.489071
65.620 35.509861
65.625 35.192318
65.630 35.103943
65.635 34.684582
65.640 34.68211
65.645 35.00922
65.650 34.073151
65.655 33.447773
65.660 32.765266
65.665 32.481754
65.670 32.971088
65.675 32.934555
65.680 31.645475
65.685 31.068699
65.690 30.33844
65.695 30.62005
65.700 30.777973
65.705 29.479925
65.710 28.780167
65.715 29.092812
65.720 28.88345
65.725 28.363218
65.730 27.800903
65.735 26.948174
65.740 26.913027
65.745 26.300901
65.750 26.271599
65.755 26.16721
65.760 25.992376
65.765 26.41939
65.770 26.776501
65.775 27.044693
65.780 26.905861
65.785 25.839172
65.790 26.198015
65.795 26.335747
65.800 25.292006
65.805 24.882421
65.810 23.955339
65.815 24.097256
65.820 23.801437
65.825 22.877882
65.830 22.686935
65.835 22.78236
65.840 22.730577
65.845 23.049034
65.850 22.756147
65.855 23.23848
65.860 23.620977
65.865 23.380579
65.870 23.068459
65.875 23.204226
65.880 22.655834
65.885 21.660454
65.890 20.556545
65.895 20.293869
65.900 20.013454
65.905 19.700228
65.910 19.240522
65.915 19.094524
65.920 19.124033
65.925 18.587654
65.930 18.155613
65.935 17.657068
65.940 17.908752
65.945 17.202763
65.950 17.508013
65.955 17.941545
65.960 18.691879
65.965 18.893795
65.970 19.247629
65.975 19.121731
65.980 19.963964
65.985 19.638647
65.990 19.673817
65.995 19.178497
66.000 18.995485
66.005 19.02915
66.010 18.806942
66.015 18.876102
66.020 18.86425
66.025 18.367939
66.030 18.708054
66.035 18.824335
66.040 18.480116
66.045 18.241322
66.050 18.035152
66.055 17.946922
66.060 17.892773
66.065 18.028574
66.070 17.481417
66.075 17.541512
66.080 17.436771
66.085 17.714104
66.090 17.913343
66.095 18.198538
66.100 17.46533
66.105 17.605347
66.110 17.899525
66.115 18.132542
66.120 17.389763
66.125 17.168163
66.130 16.99774
66.135 16.735415
66.140 16.56076
66.145 16.461737
66.150 16.43429
66.155 16.238035
66.160 15.96699
66.165 15.717012
66.170 16.061676
66.175 15.879268
66.180 15.576065
66.185 16.151705
66.190 16.666126
66.195 17.658094
66.200 18.274904
66.205 18.494106
66.210 18.200781
66.215 17.69931
66.220 17.026398
66.225 16.738329
66.230 15.891691
66.235 15.630091
66.240 15.637595
66.245 16.019367
66.250 15.950656
66.255 16.143789
66.260 16.196093
66.265 16.30891
66.270 16.169231
66.275 15.798595
66.280 16.317493
66.285 16.565611
66.290 16.568848
66.295 16.620842
66.300 16.79274
66.305 17.509966
66.310 17.726124
66.315 17.809357
66.320 18.132605
66.325 18.381905
66.330 18.692591
66.335 18.377207
66.340 18.30674
66.345 18.610239
66.350 18.361013
66.355 17.854826
66.360 17.333372
66.365 16.944033
66.370 16.89229
66.375 16.633095
66.380 15.977962
66.385 16.073692
66.390 16.167084
66.395 15.937661
66.400 16.150539
66.405 16.077673
66.410 16.188868
66.415 16.222666
66.420 15.942198
66.425 16.41737
66.430 16.642548
66.435 16.637005
66.440 17.027262
66.445 16.950802
66.450 17.178858
66.455 16.934999
66.460 17.255863
66.465 17.398939
66.470 17.903044
66.475 17.881577
66.480 18.559595
66.485 18.468506
66.490 18.606588
66.495 18.560804
66.500 18.542524
66.505 17.758278
66.510 17.538546
66.515 16.46896
66.520 16.379438
66.525 15.94964
66.530 15.303585
66.535 15.327419
66.540 15.928023
66.545 15.960608
66.550 15.984906
66.555 16.529602
66.560 16.875717
66.565 17.230326
66.570 17.367605
66.575 16.569801
66.580 16.655539
66.585 16.89098
66.590 16.55566
66.595 16.893642
66.600 16.601185
66.605 16.26461
66.610 16.58569
66.615 16.160164
66.620 16.357815
66.625 16.328171
66.630 15.917171
66.635 15.487095
66.640 15.513272
66.645 15.323503
66.650 15.537779
66.655 15.710445
66.660 15.843272
66.665 16.179728
66.670 16.540617
66.675 16.338734
66.680 16.884254
66.685 16.824158
66.690 16.902185
66.695 17.168955
66.700 16.681477
66.705 16.590937
66.710 17.113937
66.715 17.014271
66.720 16.8505
66.725 16.660318
66.730 16.375549
66.735 16.663046
66.740 16.706821
66.745 16.47682
66.750 16.116955
66.755 16.526594
66.760 16.396189
66.765 16.461567
66.770 16.281235
66.775 16.161566
66.780 16.181335
66.785 16.090929
66.790 15.809936
66.795 15.446561
66.800 15.733694
66.805 15.679989
66.810 15.30234
66.815 15.165369
66.820 14.705886
66.825 13.899299
66.830 13.913014
66.835 13.557406
66.840 13.647258
66.845 13.972552
66.850 14.535246
66.855 15.106624
66.860 15.385014
66.865 15.427521
66.870 15.432577
66.875 15.59531
66.880 15.725155
66.885 15.354921
66.890 15.43563
66.895 15.404429
66.900 15.427149
66.905 15.573692
66.910 15.616171
66.915 15.621109
66.920 15.879357
66.925 16.3009
66.930 16.797541
66.935 17.012735
66.940 17.265797
66.945 17.663435
66.950 17.648693
66.955 17.529907
66.960 17.414988
66.965 17.384665
66.970 17.381006
66.975 17.538565
66.980 17.664082
66.985 17.685524
66.990 17.657829
66.995 17.15406
67.000 17.297844
67.005 17.878265
67.010 17.580658
67.015 17.107265
67.020 17.119051
67.025 17.572666
67.030 17.495697
67.035 16.943546
67.040 16.397797
67.045 16.334248
67.050 16.288298
67.055 16.013958
67.060 15.368531
67.065 15.716861
67.070 15.821283
67.075 15.730752
67.080 15.735446
67.085 15.458636
67.090 15.497395
67.095 15.773713
67.100 16.12781
67.105 16.207924
67.110 16.48247
67.115 16.475063
67.120 16.416952
67.125 16.126127
67.130 15.773367
67.135 15.855681
67.140 15.736865
67.145 15.277848
67.150 15.221066
67.155 15.858187
67.160 16.205027
67.165 16.615499
67.170 16.251486
67.175 16.824345
67.180 16.853706
67.185 16.443724
67.190 16.130594
67.195 16.116987
67.200 15.847332
67.205 15.51332
67.210 14.999752
67.215 15.617593
67.220 16.02306
67.225 15.929733
67.230 15.522668
67.235 15.373328
67.240 15.30792
67.245 15.230078
67.250 15.194649
67.255 15.210844
67.260 15.801089
67.265 16.216934
67.270 16.119759
67.275 16.510733
67.280 16.086523
67.285 15.617997
67.290 15.33112
67.295 15.351041
67.300 15.596196
67.305 15.940703
67.310 15.639676
67.315 16.08242
67.320 16.852783
67.325 17.846806
67.330 17.853228
67.335 17.849855
67.340 17.774336
67.345 18.20701
67.350 18.49922
67.355 18.151506
67.360 17.260792
67.365 16.654676
67.370 16.417381
67.375 16.308443
67.380 16.142971
67.385 15.729244
67.390 15.942653
67.395 16.140469
67.400 16.251423
67.405 16.22868
67.410 16.45429
67.415 16.499517
67.420 16.506474
67.425 16.240253
67.430 15.832446
67.435 15.923252
67.440 15.834147
67.445 15.553951
67.450 15.44892
67.455 15.508471
67.460 15.349782
67.465 15.62417
67.470 15.875889
67.475 16.247747
67.480 16.270176
67.485 16.632589
67.490 16.850542
67.495 16.883888
67.500 17.14628
67.505 16.836639
67.510 16.528625
67.515 16.600969
67.520 16.636932
67.525 17.056061
67.530 17.13583
67.535 16.954283
67.540 16.800322
67.545 16.800402
67.550 17.17824
67.555 17.291542
67.560 16.965227
67.565 17.123775
67.570 17.122467
67.575 17.157909
67.580 16.850939
67.585 16.923517
67.590 16.46051
67.595 16.050453
67.600 16.656242
67.605 16.574667
67.610 17.094721
67.615 17.264734
67.620 16.819098
67.625 17.11458
67.630 17.218994
67.635 17.300543
67.640 17.417965
67.645 17.12488
67.650 16.988436
67.655 17.373159
67.660 17.587879
67.665 17.22739
67.670 16.852953
67.675 17.304472
67.680 17.592165
67.685 18.006157
67.690 17.526985
67.695 17.112282
67.700 17.728067
67.705 17.770054
67.710 16.591999
67.715 16.032816
67.720 15.853576
67.725 15.4008
67.730 15.324827
67.735 15.387683
67.740 15.429186
67.745 16.337505
67.750 16.497051
67.755 16.112864
67.760 16.531591
67.765 16.284513
67.770 15.845908
67.775 15.633695
67.780 15.541212
67.785 15.293582
67.790 15.97246
67.795 15.319887
67.800 15.655632
67.805 15.917954
67.810 16.091875
67.815 15.868442
67.820 16.558792
67.825 16.507607
67.830 17.164803
67.835 16.998003
67.840 17.273769
67.845 17.159584
67.850 17.698099
67.855 17.116901
67.860 16.966827
67.865 16.598692
67.870 16.489605
67.875 16.196041
67.880 15.602973
67.885 15.422765
67.890 15.646317
67.895 16.381767
67.900 16.945845
67.905 16.664438
67.910 16.848675
67.915 17.418427
67.920 17.346439
67.925 16.79562
67.930 16.385981
67.935 16.0247
67.940 16.493563
67.945 16.489624
67.950 15.873087
67.955 15.883276
67.960 16.527231
67.965 16.409185
67.970 17.10364
67.975 16.638094
67.980 16.994446
67.985 18.044022
67.990 18.012199
67.995 18.179142
68.000 18.402002
68.005 18.006741
68.010 17.938864
68.015 17.65941
68.020 17.730272
68.025 17.985342
68.030 17.908733
68.035 18.070601
68.040 18.271124
68.045 18.591288
68.050 18.787354
68.055 18.570457
68.060 17.881392
68.065 17.697699
68.070 17.502424
68.075 17.862606
68.080 17.862799
68.085 17.775028
68.090 17.613708
68.095 18.162771
68.100 18.18803
68.105 18.297297
68.110 18.104286
68.115 18.297211
68.120 17.886608
68.125 17.833755
68.130 17.991373
68.135 18.307777
68.140 18.168165
68.145 18.860945
68.150 18.867409
68.155 18.881483
68.160 18.886713
68.165 18.307875
68.170 17.940187
68.175 17.516123
68.180 16.564507
68.185 17.015429
68.190 17.812435
68.195 18.443375
68.200 18.76759
68.205 18.469233
68.210 18.790638
68.215 19.173075
68.220 19.29801
68.225 18.792501
68.230 18.020229
68.235 17.883278
68.240 18.340826
68.245 18.26438
68.250 17.667137
68.255 17.292124
68.260 17.481899
68.265 17.978918
68.270 18.528399
68.275 18.65988
68.280 19.132423
68.285 20.489794
68.290 21.104614
68.295 21.423756
68.300 20.899441
68.305 21.45783
68.310 21.830271
68.315 21.566338
68.320 20.967682
68.325 20.797018
68.330 20.996389
68.335 21.569313
68.340 21.396759
68.345 22.359274
68.350 23.505718
68.355 23.614511
68.360 23.70079
68.365 23.883942
68.370 23.890982
68.375 23.944393
68.380 23.080666
68.385 22.062309
68.390 21.759813
68.395 22.139324
68.400 22.595856
68.405 22.671885
68.410 22.924431
68.415 23.277395
68.420 23.992294
68.425 24.942423
68.430 24.553131
68.435 25.344101
68.440 25.514584
68.445 25.721039
68.450 26.865404
68.455 27.28067
68.460 27.102461
68.465 26.878391
68.470 26.783731
68.475 26.977484
68.480 26.652348
68.485 26.595795
68.490 27.121172
68.495 27.668074
68.500 27.822628
68.505 27.969528
68.510 27.482056
68.515 27.293896
68.520 27.024307
68.525 26.377842
68.530 27.083662
68.535 27.326056
68.540 27.46907
68.545 27.902168
68.550 28.477736
68.555 28.65329
68.560 28.990053
68.565 28.067734
68.570 28.383335
68.575 29.060852
68.580 29.187481
68.585 29.356241
68.590 29.395317
68.595 29.310413
68.600 30.311962
68.605 30.225021
68.610 30.164381
68.615 31.309191
68.620 31.786943
68.625 32.095463
68.630 32.944988
68.635 32.889999
68.640 32.81974
68.645 32.61924
68.650 32.149822
68.655 32.918346
68.660 33.629768
68.665 33.058296
68.670 33.012627
68.675 33.135906
68.680 33.711868
68.685 33.841537
68.690 33.693626
68.695 33.8214
68.700 33.346909
68.705 33.51712
68.710 33.87125
68.715 34.052097
68.720 34.057068
68.725 34.161488
68.730 34.812729
68.735 36.185596
68.740 36.336979
68.745 36.467743
68.750 36.287888
68.755 36.459709
68.760 35.440552
68.765 34.614391
68.770 34.834404
68.775 34.1245
68.780 33.541069
68.785 33.100182
68.790 33.010475
68.795 33.418007
68.800 32.975258
68.805 32.162239
68.810 32.504539
68.815 32.198406
68.820 32.204639
68.825 32.232609
68.830 31.767254
68.835 32.101978
68.840 31.84063
68.845 31.680864
68.850 31.695286
68.855 31.427752
68.860 31.063652
68.865 31.977327
68.870 32.255337
68.875 32.251568
68.880 32.004219
68.885 31.961924
68.890 32.40921
68.895 32.480003
68.900 31.728617
68.905 31.545143
68.910 32.112762
68.915 32.128212
68.920 31.42901
68.925 31.543018
68.930 31.190233
68.935 30.952267
68.940 29.832155
68.945 29.388947
68.950 29.802004
68.955 29.427292
68.960 27.964813
68.965 27.219204
68.970 26.954905
68.975 26.709995
68.980 25.678909
68.985 25.008776
68.990 24.890337
68.995 24.720188
69.000 24.461096
69.005 24.021395
69.010 24.016348
69.015 24.625444
69.020 24.603199
69.025 24.883343
69.030 24.391563
69.035 23.997627
69.040 23.614937
69.045 23.540895
69.050 23.037296
69.055 23.025673
69.060 23.41592
69.065 23.951498
69.070 23.567852
69.075 23.920803
69.080 23.890097
69.085 23.635973
69.090 23.161697
69.095 22.95285
69.100 23.154837
69.105 23.035057
69.110 22.365
69.115 21.760357
69.120 21.252745
69.125 20.750162
69.130 20.095068
69.135 19.691406
69.140 20.10261
69.145 20.731735
69.150 20.99527
69.155 21.844662
69.160 21.593231
69.165 21.676865
69.170 21.308601
69.175 20.390852
69.180 19.492937
69.185 19.073044
69.190 18.552179
69.195 18.558647
69.200 18.123346
69.205 18.4067
69.210 18.890644
69.215 19.21748
69.220 19.365549
69.225 19.656555
69.230 19.733583
69.235 19.965265
69.240 19.809092
69.245 19.348963
69.250 18.809399
69.255 19.029503
69.260 18.913713
69.265 19.397545
69.270 19.695513
69.275 19.192158
69.280 18.946503
69.285 19.229458
69.290 19.207022
69.295 18.94659
69.300 18.713442
69.305 18.892332
69.310 19.158274
69.315 19.616825
69.320 19.769495
69.325 19.548326
69.330 19.325899
69.335 18.78878
69.340 17.85737
69.345 17.991217
69.350 17.799501
69.355 17.489267
69.360 17.500839
69.365 17.215559
69.370 17.006155
69.375 17.059889
69.380 16.655632
69.385 16.203922
69.390 16.491186
69.395 16.756184
69.400 17.306055
69.405 17.898668
69.410 18.084375
69.415 17.918451
69.420 18.072752
69.425 17.644077
69.430 17.565821
69.435 17.135639
69.440 16.978504
69.445 17.629398
69.450 18.273605
69.455 18.0718
69.460 17.65871
69.465 18.11731
69.470 17.922932
69.475 18.481745
69.480 18.401985
69.485 18.123215
69.490 18.419125
69.495 18.642931
69.500 18.322702
69.505 18.204563
69.510 17.357265
69.515 17.193293
69.520 17.337215
69.525 16.873701
69.530 16.71821
69.535 17.025101
69.540 17.64641
69.545 18.005413
69.550 18.04607
69.555 18.43191
69.560 18.890841
69.565 18.518143
69.570 18.095657
69.575 17.904732
69.580 17.5238
69.585 17.131182
69.590 16.702953
69.595 16.61064
69.600 16.782618
69.605 16.95418
69.610 16.725992
69.615 16.523119
69.620 16.658331
69.625 15.947764
69.630 15.809401
69.635 16.08987
69.640 15.873445
69.645 16.511503
69.650 16.8277
69.655 16.662857
69.660 16.788879
69.665 17.246614
69.670 16.268366
69.675 15.818395
69.680 15.596144
69.685 15.429646
69.690 15.840875
69.695 16.104918
69.700 16.41082
69.705 17.34593
69.710 17.716057
69.715 17.84626
69.720 17.763292
69.725 17.78002
69.730 17.972254
69.735 17.750858
69.740 18.056479
69.745 18.212715
69.750 17.680817
69.755 17.500652
69.760 17.234274
69.765 17.081104
69.770 16.88353
69.775 16.208429
69.780 15.944456
69.785 16.546143
69.790 17.083199
69.795 17.025913
69.800 16.822214
69.805 16.574993
69.810 16.16147
69.815 16.675142
69.820 16.507862
69.825 16.073483
69.830 16.015316
69.835 15.90911
69.840 15.916288
69.845 15.698239
69.850 15.022897
69.855 14.965388
69.860 14.759418
69.865 15.251663
69.870 15.807654
69.875 16.468645
69.880 16.756737
69.885 17.122303
69.890 17.289316
69.895 17.509811
69.900 17.226412
69.905 16.834959
69.910 16.55019
69.915 16.558189
69.920 16.655519
69.925 16.682775
69.930 17.20623
69.935 16.787712
69.940 16.287897
69.945 15.618061
69.950 15.845686
69.955 16.078014
69.960 15.819654
69.965 15.758887
69.970 15.681246
69.975 16.014545
69.980 17.073254
69.985 16.610971
69.990 16.043079
69.995 16.101461
70.000 16.397865
70.005 16.416426
70.010 16.169401
70.015 15.662169
70.020 15.992982
70.025 16.304348
70.030 16.080961
70.035 16.274828
70.040 16.415932
70.045 16.572847
70.050 16.083582
70.055 15.969327
70.060 15.612635
70.065 15.609
70.070 15.738531
70.075 15.937716
70.080 16.275774
70.085 16.662352
70.090 16.818153
70.095 16.926249
70.100 16.75728
70.105 16.453852
70.110 16.307421
70.115 16.232197
70.120 16.261938
70.125 16.154099
70.130 16.347454
70.135 16.386333
70.140 16.528606
70.145 17.095753
70.150 16.580585
70.155 16.894968
70.160 16.418581
70.165 15.847073
70.170 16.623083
70.175 16.626961
70.180 16.396929
70.185 16.185768
70.190 16.10947
70.195 16.690128
70.200 16.889702
70.205 15.777895
70.210 16.009445
70.215 16.33535
70.220 16.411444
70.225 15.983653
70.230 15.416585
70.235 15.313657
70.240 15.901578
70.245 15.417903
70.250 15.003122
70.255 15.092493
70.260 15.267567
70.265 15.862397
70.270 15.893559
70.275 15.670133
70.280 15.931745
70.285 16.471588
70.290 16.63456
70.295 16.592598
70.300 16.715084
70.305 16.86467
70.310 17.005571
70.315 16.620968
70.320 16.419735
70.325 16.366154
70.330 16.322195
70.335 16.070686
70.340 15.697148
70.345 15.43773
70.350 16.054821
70.355 16.102943
70.360 16.930536
70.365 17.517576
70.370 17.653858
70.375 18.224897
70.380 18.111252
70.385 17.739338
70.390 17.708406
70.395 16.945269
70.400 17.001564
70.405 17.388567
70.410 17.701458
70.415 17.509647
70.420 17.115757
70.425 16.940453
70.430 16.88401
70.435 16.684368
70.440 16.201599
70.445 15.929377
70.450 16.354876
70.455 16.461742
70.460 16.174143
70.465 15.983596
70.470 15.940388
70.475 16.062746
70.480 16.260553
70.485 16.695042
70.490 16.804424
70.495 16.850378
70.500 16.898939
70.505 16.745556
70.510 16.474894
70.515 16.241739
70.520 16.48584
70.525 17.2031
70.530 18.156885
70.535 18.705345
70.540 18.194773
70.545 18.319094
70.550 17.829271
70.555 17.676693
70.560 17.369957
70.565 16.618971
70.570 16.59289
70.575 16.950003
70.580 16.866791
70.585 17.206377
70.590 16.767611
70.595 16.62072
70.600 16.117197
70.605 15.709082
70.610 15.963494
70.615 16.475773
70.620 16.590796
70.625 16.853632
70.630 17.009663
70.635 17.578953
70.640 18.006527
70.645 18.032974
70.650 17.520332
70.655 17.024258
70.660 16.852819
70.665 16.689959
70.670 16.499516
70.675 16.221258
70.680 16.840466
70.685 17.430761
70.690 17.895866
70.695 18.003685
70.700 18.228394
70.705 18.612057
70.710 18.242353
70.715 17.0702
70.720 17.035494
70.725 16.536835
70.730 16.308775
70.735 16.143656
70.740 15.820511
70.745 16.024097
70.750 16.59273
70.755 16.354221
70.760 16.865814
70.765 16.633081
70.770 16.688427
70.775 16.744673
70.780 16.409609
70.785 16.154263
70.790 16.345409
70.795 16.288069
70.800 16.524418
70.805 16.53713
70.810 16.208801
70.815 16.614128
70.820 16.851437
70.825 16.395298
70.830 16.223688
70.835 15.774452
70.840 15.883616
70.845 16.750092
70.850 16.317278
70.855 16.41341
70.860 16.573513
70.865 17.013268
70.870 17.060633
70.875 16.759565
70.880 16.514204
70.885 16.82703
70.890 16.494635
70.895 16.267111
70.900 16.443201
70.905 16.585772
70.910 16.278387
70.915 16.033098
70.920 16.166046
70.925 16.493612
70.930 16.620665
70.935 16.544897
70.940 16.445606
70.945 16.502048
70.950 16.969498
70.955 16.904352
70.960 16.882114
70.965 17.155704
70.970 17.017342
70.975 17.322317
70.980 17.157652
70.985 16.823046
70.990 17.148874
70.995 17.066336
71.000 16.878906
71.005 17.005009
71.010 16.984537
71.015 17.417152
71.020 17.253836
71.025 16.660755
71.030 16.188564
71.035 15.884415
71.040 15.506624
71.045 15.184064
71.050 14.788102
71.055 14.808306
71.060 14.834331
71.065 15.458935
71.070 15.645432
71.075 15.756191
71.080 16.20648
71.085 16.378632
71.090 16.50082
71.095 17.071209
71.100 16.8792
71.105 16.506842
71.110 16.638071
71.115 16.669416
71.120 16.857838
71.125 16.320335
71.130 15.547363
71.135 15.841701
71.140 15.94079
71.145 15.722751
71.150 15.580343
71.155 15.431232
71.160 15.558504
71.165 16.002558
71.170 16.436735
71.175 17.210756
71.180 17.618023
71.185 17.34479
71.190 17.802107
71.195 18.092381
71.200 17.235151
71.205 17.232353
71.210 17.342062
71.215 17.039207
71.220 17.458809
71.225 17.44853
71.230 17.529631
71.235 17.979387
71.240 17.226902
71.245 16.70459
71.250 16.61409
71.255 16.026247
71.260 15.807087
71.265 16.29678
71.270 16.462923
71.275 16.843618
71.280 17.127081
71.285 17.376394
71.290 17.327585
71.295 17.752876
71.300 17.674637
71.305 18.101442
71.310 17.214922
71.315 16.656511
71.320 16.314314
71.325 16.338158
71.330 15.938342
71.335 15.23094
71.340 15.468643
71.345 16.356119
71.350 16.415983
71.355 16.591228
71.360 16.086576
71.365 15.503034
71.370 15.36169
71.375 14.88016
71.380 14.498313
71.385 14.654009
71.390 15.069137
71.395 15.288715
71.400 15.331417
71.405 15.322456
71.410 15.427386
71.415 15.666679
71.420 15.189616
71.425 15.131586
71.430 15.710604
71.435 16.358267
71.440 16.443031
71.445 16.700308
71.450 17.360409
71.455 17.714058
71.460 17.823112
71.465 17.739902
71.470 18.023445
71.475 18.576096
71.480 18.627644
71.485 17.925127
71.490 17.831234
71.495 17.593542
71.500 17.798895
71.505 17.484999
71.510 16.647011
71.515 16.020803
71.520 15.768044
71.525 15.985332
71.530 15.964276
71.535 15.266438
71.540 15.254539
71.545 15.916602
71.550 16.371784
71.555 16.248991
71.560 16.37982
71.565 16.087568
71.570 15.712748
71.575 15.291929
71.580 14.541812
71.585 14.603923
71.590 14.55674
71.595 14.504128
71.600 14.458371
71.605 14.549171
71.610 14.838523
71.615 14.871441
71.620 15.304872
71.625 15.504349
71.630 15.495947
71.635 16.190191
71.640 16.846041
71.645 17.111448
71.650 16.875729
71.655 16.061163
71.660 15.731315
71.665 15.711611
71.670 15.983354
71.675 15.312035
71.680 15.445684
71.685 16.343611
71.690 16.785145
71.695 17.505325
71.700 18.077271
71.705 18.303207
71.710 18.516485
71.715 17.544596
71.720 16.989649
71.725 17.255304
71.730 16.521885
71.735 16.473925
71.740 16.879011
71.745 17.241241
71.750 17.756414
71.755 17.84827
71.760 17.965279
71.765 18.125774
71.770 17.950142
71.775 17.246557
71.780 16.990559
71.785 17.135778
71.790 17.277449
71.795 17.144106
71.800 16.738321
71.805 16.663527
71.810 17.646511
71.815 18.500315
71.820 18.342426
71.825 17.906084
71.830 17.732214
71.835 18.308592
71.840 18.325722
71.845 17.992821
71.850 17.430315
71.855 17.401567
71.860 17.543774
71.865 17.321833
71.870 16.759043
71.875 15.877094
71.880 15.48832
71.885 15.883654
71.890 16.249411
71.895 16.085253
71.900 16.155899
71.905 16.125719
71.910 16.800482
71.915 16.662611
71.920 16.270908
71.925 16.20999
71.930 16.353567
71.935 16.609983
71.940 16.230207
71.945 16.343641
71.950 16.591116
71.955 16.897726
71.960 17.146639
71.965 17.163645
71.970 17.487093
71.975 17.665482
71.980 17.799116
71.985 17.180773
71.990 16.716503
71.995 16.334509
72.000 16.210201
72.005 16.179205
72.010 15.796842
72.015 15.56153
72.020 16.090652
72.025 16.488794
72.030 16.637827
72.035 16.455696
72.040 16.202862
72.045 16.846056
72.050 16.807184
72.055 16.486046
72.060 16.633232
72.065 16.8475
72.070 16.940458
72.075 16.621115
72.080 16.502462
72.085 16.712553
72.090 16.496555
72.095 15.917468
72.100 15.896536
72.105 16.184589
72.110 16.490305
72.115 16.341749
72.120 16.242655
72.125 16.711983
72.130 17.004795
72.135 17.027754
72.140 16.58596
72.145 15.803392
72.150 15.594973
72.155 15.177346
72.160 15.355765
72.165 15.351739
72.170 15.85276
72.175 16.340965
72.180 16.517708
72.185 16.458548
72.190 16.225685
72.195 16.105324
72.200 16.412594
72.205 15.980108
72.210 15.887744
72.215 15.989541
72.220 16.430075
72.225 16.487038
72.230 15.972874
72.235 15.694674
72.240 15.972753
72.245 15.798855
72.250 15.655525
72.255 15.690905
72.260 15.629132
72.265 15.816405
72.270 15.446295
72.275 15.338433
72.280 15.744816
72.285 15.226983
72.290 15.044003
72.295 15.231923
72.300 15.09359
72.305 15.431011
72.310 15.609959
72.315 16.296848
72.320 16.840591
72.325 16.396948
72.330 16.577129
72.335 16.887995
72.340 16.667831
72.345 16.183596
72.350 15.71768
72.355 16.261881
72.360 16.295383
72.365 16.457253
72.370 16.129053
72.375 16.380648
72.380 16.54125
72.385 16.252396
72.390 16.119448
72.395 15.727379
72.400 14.850595
72.405 14.891799
72.410 14.814416
72.415 14.760201
72.420 14.695333
72.425 14.868412
72.430 15.547445
72.435 15.718034
72.440 15.703186
72.445 15.635224
72.450 15.508993
72.455 15.727156
72.460 15.701477
72.465 15.57713
72.470 15.53299
72.475 15.953523
72.480 16.15983
72.485 16.35425
72.490 16.366714
72.495 16.495226
72.500 16.560606
72.505 16.479736
72.510 15.87213
72.515 15.885044
72.520 16.036514
72.525 15.881285
72.530 15.847833
72.535 15.600081
72.540 15.203547
72.545 14.962641
72.550 14.578014
72.555 14.290561
72.560 14.346559
72.565 14.739055
72.570 15.546649
72.575 15.727289
72.580 15.978296
72.585 15.970107
72.590 16.092836
72.595 16.064444
72.600 16.043386
72.605 16.267694
72.610 16.320868
72.615 16.187304
72.620 17.065254
72.625 17.292444
72.630 17.479557
72.635 17.129223
72.640 17.142162
72.645 17.197254
72.650 16.718061
72.655 16.068514
72.660 15.970797
72.665 15.905838
72.670 16.048851
72.675 16.354227
72.680 16.418379
72.685 16.638988
72.690 16.374983
72.695 16.170252
72.700 15.806214
72.705 15.478173
72.710 14.832155
72.715 14.55569
72.720 14.01687
72.725 14.211649
72.730 14.601093
72.735 14.101665
72.740 13.881339
72.745 14.035834
72.750 14.642554
72.755 15.039692
72.760 15.213479
72.765 15.308578
72.770 15.847274
72.775 15.732038
72.780 15.509065
72.785 15.226239
72.790 15.02732
72.795 14.668361
72.800 14.426139
72.805 14.214403
72.810 14.555157
72.815 14.616182
72.820 14.166406
72.825 14.025068
72.830 13.578667
72.835 13.783502
72.840 13.87794
72.845 13.843628
72.850 14.058139
72.855 14.315283
72.860 14.10796
72.865 14.160952
72.870 13.643659
72.875 13.554434
72.880 13.663883
72.885 13.872521
72.890 14.152738
72.895 14.642063
72.900 14.536979
72.905 14.974401
72.910 15.199073
72.915 15.12705
72.920 15.141136
72.925 14.752842
72.930 14.873859
72.935 15.259959
72.940 15.354591
72.945 15.506556
72.950 15.699231
72.955 15.652744
72.960 16.231462
72.965 16.034374
72.970 15.67265
72.975 15.555256
72.980 14.924315
72.985 14.854371
72.990 14.777399
72.995 14.643105
73.000 15.091849
