!@!!GADDS PLOTSO FILE: Chi integration type
!@!!Title/SampleName: map-187
!@!!Comment: ?
!@!!User: Bruker Instrument Administrator
!@!!Site: University of Illinois Chicago
!@!!Frame: map-187_01_000.gfrm
!@!!Wavelengths    1.54184   1.54056   1.54439
!@!!Frame angles: 2Theta: 63.000 Omega: 50.000 Phi: 0.000 Chi: 90.000
!@!!Integration range: 2Theta: 53.000 to 73.000  Gamma: -105.000 to -75.000
!@!!Integration method: bin normalized
!@!N
!@!SS
!@!M
!@!L 0.0 0.0 0.0 0.0
!@!XDegrees
!@!YCounts
53.000 10.48183
53.005 10.589513
53.010 10.263684
53.015 10.491714
53.020 10.819405
53.025 11.32275
53.030 11.564655
53.035 11.784721
53.040 12.107685
53.045 11.496878
53.050 11.013114
53.055 9.996678
53.060 9.706386
53.065 9.725925
53.070 9.880328
53.075 10.149273
53.080 10.43251
53.085 10.700858
53.090 10.562141
53.095 10.412401
53.100 10.616985
53.105 10.440999
53.110 9.981141
53.115 9.848244
53.120 9.581005
53.125 10.063676
53.130 9.794732
53.135 9.30342
53.140 9.847229
53.145 10.101742
53.150 9.913362
53.155 10.220735
53.160 10.511353
53.165 10.819504
53.170 10.947644
53.175 10.53189
53.180 10.412566
53.185 10.423501
53.190 10.492958
53.195 10.359506
53.200 10.303173
53.205 9.903469
53.210 9.732686
53.215 9.830156
53.220 10.157853
53.225 9.909322
53.230 10.1317
53.235 10.312668
53.240 10.432724
53.245 10.520549
53.250 10.47362
53.255 10.181091
53.260 9.995472
53.265 9.571473
53.270 9.721748
53.275 10.481033
53.280 10.506522
53.285 9.984095
53.290 10.049319
53.295 10.19534
53.300 10.527268
53.305 10.190914
53.310 9.419695
53.315 9.757506
53.320 10.013318
53.325 9.764177
53.330 9.789097
53.335 9.897629
53.340 10.146257
53.345 10.590995
53.350 11.227218
53.355 11.410131
53.360 11.355879
53.365 11.391237
53.370 11.037079
53.375 11.293937
53.380 11.416719
53.385 10.885741
53.390 11.02382
53.395 10.9965
53.400 11.005784
53.405 11.453494
53.410 11.333736
53.415 10.699926
53.420 10.984894
53.425 11.220161
53.430 11.09907
53.435 10.65652
53.440 9.949241
53.445 9.766816
53.450 9.814708
53.455 9.426564
53.460 9.694023
53.465 10.005719
53.470 10.032019
53.475 10.114907
53.480 10.449405
53.485 10.746175
53.490 11.228289
53.495 11.389038
53.500 11.451767
53.505 11.332313
53.510 11.282435
53.515 11.003351
53.520 10.920124
53.525 10.239448
53.530 10.114333
53.535 10.428511
53.540 10.725528
53.545 10.52708
53.550 10.234003
53.555 10.139714
53.560 10.345636
53.565 10.40637
53.570 10.276122
53.575 10.391118
53.580 10.796751
53.585 10.745605
53.590 10.777011
53.595 11.032691
53.600 11.024825
53.605 11.274799
53.610 11.123315
53.615 11.269069
53.620 11.189489
53.625 11.045637
53.630 10.704189
53.635 10.569894
53.640 10.582375
53.645 10.590203
53.650 10.64537
53.655 10.837474
53.660 10.586053
53.665 10.455648
53.670 10.801185
53.675 11.135811
53.680 11.42922
53.685 11.584781
53.690 12.186041
53.695 12.648358
53.700 12.749018
53.705 12.329746
53.710 11.769748
53.715 11.543439
53.720 11.229092
53.725 11.568175
53.730 11.326854
53.735 11.139132
53.740 11.011773
53.745 11.395752
53.750 11.585121
53.755 11.382694
53.760 10.79436
53.765 11.133422
53.770 11.480013
53.775 11.81275
53.780 11.549812
53.785 11.906241
53.790 11.592449
53.795 11.424744
53.800 11.302534
53.805 10.922801
53.810 10.806222
53.815 10.919617
53.820 10.531511
53.825 10.948699
53.830 11.107295
53.835 11.843214
53.840 11.995352
53.845 11.736082
53.850 11.577853
53.855 11.595063
53.860 11.195471
53.865 10.846828
53.870 10.308591
53.875 10.574823
53.880 10.397468
53.885 10.121605
53.890 10.650087
53.895 10.952386
53.900 10.835812
53.905 11.189545
53.910 11.457488
53.915 11.691611
53.920 12.190816
53.925 11.941916
53.930 12.23961
53.935 12.128409
53.940 11.549174
53.945 11.593365
53.950 11.682982
53.955 11.059875
53.960 10.961902
53.965 10.926413
53.970 10.792057
53.975 10.585119
53.980 10.47617
53.985 10.839518
53.990 11.685496
53.995 11.902181
54.000 11.930381
54.005 12.028081
54.010 12.070055
54.015 12.101408
54.020 11.768555
54.025 11.285926
54.030 10.869965
54.035 10.722676
54.040 10.911949
54.045 10.817213
54.050 10.728889
54.055 11.11588
54.060 11.024667
54.065 11.19148
54.070 11.126953
54.075 10.918915
54.080 10.817418
54.085 10.458029
54.090 10.062027
54.095 10.376644
54.100 10.361077
54.105 10.394964
54.110 11.024643
54.115 11.512228
54.120 11.910313
54.125 12.096869
54.130 11.568037
54.135 11.466635
54.140 11.589581
54.145 11.700239
54.150 11.583754
54.155 11.473449
54.160 11.375992
54.165 11.75899
54.170 12.479085
54.175 12.183571
54.180 11.695034
54.185 11.714153
54.190 11.900259
54.195 12.081623
54.200 11.613047
54.205 11.435933
54.210 11.750338
54.215 11.82755
54.220 11.775414
54.225 11.85222
54.230 12.261231
54.235 12.786245
54.240 12.883072
54.245 12.163989
54.250 12.207726
54.255 12.545554
54.260 12.498151
54.265 12.240618
54.270 11.905193
54.275 11.837286
54.280 12.42716
54.285 11.964276
54.290 11.59129
54.295 11.348443
54.300 11.369823
54.305 11.687181
54.310 11.216913
54.315 11.42135
54.320 11.810645
54.325 11.508598
54.330 11.408163
54.335 11.105551
54.340 10.758363
54.345 10.699862
54.350 10.729711
54.355 10.919813
54.360 11.023976
54.365 10.895951
54.370 10.897236
54.375 11.414001
54.380 11.482632
54.385 11.413642
54.390 11.530055
54.395 11.602236
54.400 11.271383
54.405 11.109001
54.410 11.544801
54.415 11.628929
54.420 11.052857
54.425 11.016207
54.430 11.575327
54.435 12.020073
54.440 11.739429
54.445 11.047832
54.450 11.159638
54.455 11.16043
54.460 10.900811
54.465 10.587511
54.470 10.362059
54.475 10.448036
54.480 10.418504
54.485 10.3627
54.490 10.537032
54.495 10.476866
54.500 10.883926
54.505 10.846851
54.510 10.529158
54.515 10.533271
54.520 10.455739
54.525 10.051706
54.530 9.802752
54.535 9.620694
54.540 9.879829
54.545 10.174892
54.550 10.198691
54.555 10.222916
54.560 10.421944
54.565 10.844241
54.570 10.702662
54.575 10.746403
54.580 11.217913
54.585 11.219309
54.590 11.51161
54.595 11.639729
54.600 11.216128
54.605 11.143984
54.610 10.879162
54.615 11.166677
54.620 11.254569
54.625 10.904034
54.630 11.014054
54.635 10.717304
54.640 10.860182
54.645 10.626289
54.650 10.031721
54.655 10.101813
54.660 10.099194
54.665 10.367557
54.670 10.625978
54.675 10.453144
54.680 10.841538
54.685 11.261646
54.690 11.379533
54.695 11.117702
54.700 11.097999
54.705 11.496934
54.710 11.502557
54.715 11.311805
54.720 10.913177
54.725 11.314878
54.730 11.390945
54.735 11.424095
54.740 11.107282
54.745 10.908591
54.750 11.10363
54.755 11.225917
54.760 10.83602
54.765 10.960942
54.770 11.35385
54.775 12.148833
54.780 12.297861
54.785 12.249131
54.790 12.569951
54.795 12.6166
54.800 12.270333
54.805 11.667307
54.810 11.385188
54.815 11.612375
54.820 12.026633
54.825 11.929569
54.830 11.944435
54.835 12.36744
54.840 12.98687
54.845 12.740561
54.850 12.866793
54.855 12.552273
54.860 12.761737
54.865 12.917539
54.870 12.452079
54.875 12.41168
54.880 13.040058
54.885 12.674794
54.890 12.711555
54.895 12.600344
54.900 12.173672
54.905 11.93886
54.910 11.61931
54.915 11.128642
54.920 11.330587
54.925 10.987137
54.930 11.263298
54.935 11.79293
54.940 12.335669
54.945 12.533545
54.950 12.431343
54.955 12.292173
54.960 12.444006
54.965 12.483088
54.970 12.283327
54.975 11.579659
54.980 11.725336
54.985 12.336535
54.990 12.469542
54.995 11.972101
55.000 11.875911
55.005 11.763827
55.010 11.914356
55.015 11.600945
55.020 11.365388
55.025 11.501042
55.030 11.722102
55.035 11.928262
55.040 12.538145
55.045 13.124783
55.050 13.169055
55.055 13.213236
55.060 13.295587
55.065 13.214553
55.070 13.303205
55.075 13.565232
55.080 13.653244
55.085 13.437724
55.090 13.358362
55.095 13.648289
55.100 13.545956
55.105 13.431936
55.110 12.635669
55.115 12.512084
55.120 12.660509
55.125 12.633948
55.130 12.428563
55.135 12.288171
55.140 12.168935
55.145 12.009375
55.150 11.532332
55.155 11.338985
55.160 11.485754
55.165 11.352384
55.170 11.31065
55.175 10.820885
55.180 10.760628
55.185 11.262794
55.190 11.38245
55.195 11.188149
55.200 11.424209
55.205 11.874136
55.210 12.654157
55.215 12.789621
55.220 12.425937
55.225 12.456212
55.230 12.426173
55.235 12.41217
55.240 11.875029
55.245 11.932069
55.250 12.086643
55.255 11.89656
55.260 12.039636
55.265 11.897687
55.270 11.592376
55.275 11.911424
55.280 11.416164
55.285 11.03126
55.290 10.432805
55.295 10.31347
55.300 10.223902
55.305 10.199438
55.310 10.475667
55.315 10.908463
55.320 11.194748
55.325 11.680945
55.330 11.676785
55.335 12.005359
55.340 12.359867
55.345 12.533194
55.350 12.927036
55.355 13.000425
55.360 13.011893
55.365 13.037217
55.370 12.799357
55.375 12.551583
55.380 12.227701
55.385 11.685059
55.390 11.585723
55.395 11.875599
55.400 11.449662
55.405 11.26389
55.410 10.905154
55.415 11.022919
55.420 11.135906
55.425 11.222577
55.430 10.64565
55.435 10.396892
55.440 10.461484
55.445 10.767216
55.450 10.708467
55.455 10.607827
55.460 10.527916
55.465 11.635134
55.470 12.083579
55.475 12.188083
55.480 11.764513
55.485 11.689303
55.490 11.884417
55.495 11.378694
55.500 11.251026
55.505 11.554479
55.510 11.860527
55.515 12.031554
55.520 12.252832
55.525 12.315743
55.530 12.751479
55.535 12.307872
55.540 11.615873
55.545 11.279113
55.550 11.407027
55.555 11.345991
55.560 11.196548
55.565 11.277067
55.570 11.435513
55.575 12.067473
55.580 12.557573
55.585 12.791933
55.590 13.03902
55.595 13.132587
55.600 13.214482
55.605 13.207892
55.610 12.977707
55.615 12.636673
55.620 12.307686
55.625 11.824754
55.630 11.546973
55.635 11.200809
55.640 10.728895
55.645 10.887471
55.650 10.850489
55.655 11.323562
55.660 11.405383
55.665 11.510561
55.670 11.363076
55.675 11.525719
55.680 11.164257
55.685 11.091844
55.690 10.787358
55.695 10.748019
55.700 11.385539
55.705 11.668315
55.710 11.552139
55.715 11.445291
55.720 11.551148
55.725 11.896458
55.730 12.186133
55.735 12.043979
55.740 12.553766
55.745 13.28378
55.750 13.270433
55.755 13.201448
55.760 12.84486
55.765 12.989325
55.770 12.855435
55.775 12.469035
55.780 12.051115
55.785 12.636938
55.790 12.857122
55.795 13.314752
55.800 13.377607
55.805 12.991078
55.810 13.019852
55.815 13.385535
55.820 13.010075
55.825 12.966825
55.830 12.948525
55.835 13.449238
55.840 14.401475
55.845 14.576537
55.850 14.400414
55.855 14.551331
55.860 14.818734
55.865 14.621016
55.870 13.96373
55.875 13.836295
55.880 13.770055
55.885 13.757841
55.890 13.955309
55.895 13.762284
55.900 13.516521
55.905 13.703684
55.910 13.403882
55.915 13.470098
55.920 13.329471
55.925 12.808034
55.930 12.828685
55.935 12.60702
55.940 12.364694
55.945 12.429117
55.950 12.412544
55.955 12.278587
55.960 12.1873
55.965 12.518681
55.970 12.536068
55.975 12.190275
55.980 12.471089
55.985 12.394161
55.990 12.817186
55.995 12.552559
56.000 12.074752
56.005 11.954835
56.010 12.11864
56.015 11.69577
56.020 12.281795
56.025 12.322966
56.030 12.43256
56.035 12.719415
56.040 13.018378
56.045 13.202615
56.050 13.21521
56.055 12.501811
56.060 11.999314
56.065 11.898739
56.070 12.041762
56.075 11.679277
56.080 11.734748
56.085 12.248281
56.090 12.777802
56.095 13.520904
56.100 13.556083
56.105 13.603928
56.110 13.567236
56.115 13.223647
56.120 12.775753
56.125 12.535924
56.130 12.18012
56.135 11.772826
56.140 11.848549
56.145 12.231682
56.150 12.722703
56.155 12.501445
56.160 12.041278
56.165 12.344248
56.170 12.473832
56.175 12.473045
56.180 12.250553
56.185 11.906713
56.190 12.038445
56.195 12.442461
56.200 12.566964
56.205 13.07346
56.210 13.240778
56.215 12.769103
56.220 13.151781
56.225 13.515245
56.230 13.719858
56.235 13.991681
56.240 13.860723
56.245 14.075648
56.250 14.247628
56.255 13.59822
56.260 13.133953
56.265 12.749219
56.270 12.860997
56.275 12.955156
56.280 12.567132
56.285 13.11727
56.290 13.745333
56.295 14.450656
56.300 14.185662
56.305 13.690255
56.310 13.523921
56.315 13.907038
56.320 13.369028
56.325 12.910912
56.330 12.296305
56.335 12.501902
56.340 12.602153
56.345 12.582606
56.350 12.299911
56.355 12.412442
56.360 13.113843
56.365 13.349179
56.370 12.790133
56.375 12.67224
56.380 12.024353
56.385 11.614502
56.390 11.670053
56.395 11.455194
56.400 11.552361
56.405 11.873168
56.410 12.013542
56.415 12.341352
56.420 12.46629
56.425 12.300573
56.430 12.712796
56.435 12.344855
56.440 12.228438
56.445 12.598746
56.450 12.909904
56.455 13.300541
56.460 12.696518
56.465 11.876841
56.470 12.190602
56.475 12.50172
56.480 12.520649
56.485 12.870969
56.490 12.785849
56.495 13.425183
56.500 14.181028
56.505 14.423205
56.510 14.587197
56.515 13.794217
56.520 13.662017
56.525 13.818225
56.530 13.601666
56.535 13.760428
56.540 13.215325
56.545 12.613957
56.550 13.052207
56.555 12.715556
56.560 12.962635
56.565 12.728385
56.570 12.65373
56.575 13.010977
56.580 13.137943
56.585 13.544475
56.590 14.124504
56.595 13.913045
56.600 13.578958
56.605 13.977578
56.610 14.481336
56.615 15.157824
56.620 15.045466
56.625 15.365034
56.630 16.341368
56.635 16.510387
56.640 15.709966
56.645 15.868909
56.650 15.779544
56.655 15.465065
56.660 15.007432
56.665 14.346173
56.670 14.637953
56.675 14.809015
56.680 14.298329
56.685 14.394284
56.690 14.584685
56.695 14.521236
56.700 14.932771
56.705 14.808085
56.710 14.953942
56.715 15.285975
56.720 15.54503
56.725 16.003876
56.730 16.330229
56.735 16.539404
56.740 16.173122
56.745 16.125673
56.750 15.934954
56.755 15.390873
56.760 14.615551
56.765 14.50474
56.770 14.099767
56.775 14.319289
56.780 14.062216
56.785 14.083304
56.790 14.296762
56.795 14.737762
56.800 14.606669
56.805 14.251472
56.810 14.226494
56.815 14.044183
56.820 13.766776
56.825 13.563936
56.830 13.284349
56.835 13.511909
56.840 13.763904
56.845 14.189192
56.850 14.68644
56.855 14.679953
56.860 14.478848
56.865 13.83132
56.870 13.860919
56.875 13.757999
56.880 13.182916
56.885 12.589413
56.890 12.683793
56.895 12.875832
56.900 13.276974
56.905 13.066375
56.910 13.268336
56.915 13.257079
56.920 13.252484
56.925 13.265356
56.930 13.300015
56.935 12.924976
56.940 12.751194
56.945 12.810164
56.950 12.804602
56.955 12.712878
56.960 12.652978
56.965 12.754951
56.970 12.619617
56.975 12.572891
56.980 12.663079
56.985 12.803233
56.990 12.932847
56.995 12.799037
57.000 12.858933
57.005 13.393423
57.010 13.310574
57.015 13.606976
57.020 14.248672
57.025 14.803108
57.030 15.056808
57.035 14.988219
57.040 15.25324
57.045 15.589129
57.050 15.345023
57.055 15.027116
57.060 14.662804
57.065 14.214747
57.070 14.137474
57.075 14.159381
57.080 14.699773
57.085 14.600511
57.090 14.273992
57.095 14.506648
57.100 14.817522
57.105 14.674289
57.110 14.252872
57.115 14.484948
57.120 14.643279
57.125 14.472161
57.130 14.592045
57.135 14.55562
57.140 14.680304
57.145 14.266819
57.150 13.617656
57.155 14.241405
57.160 14.217515
57.165 13.96831
57.170 14.039701
57.175 13.86863
57.180 14.10001
57.185 13.421832
57.190 13.08092
57.195 13.047729
57.200 12.629851
57.205 12.712139
57.210 13.230227
57.215 13.952378
57.220 14.59358
57.225 13.969286
57.230 13.892175
57.235 14.536705
57.240 14.198278
57.245 13.959133
57.250 13.159835
57.255 13.253006
57.260 14.089347
57.265 14.515315
57.270 14.827395
57.275 14.772699
57.280 14.519984
57.285 14.905858
57.290 14.87852
57.295 14.839259
57.300 14.760003
57.305 14.496408
57.310 14.808824
57.315 14.771871
57.320 14.418721
57.325 14.084624
57.330 14.1227
57.335 14.614165
57.340 14.983921
57.345 14.797128
57.350 14.780539
57.355 15.107828
57.360 15.397197
57.365 15.466338
57.370 15.284567
57.375 15.381514
57.380 15.815935
57.385 15.550468
57.390 15.024617
57.395 15.328094
57.400 15.407578
57.405 15.149307
57.410 14.331096
57.415 13.859331
57.420 14.199248
57.425 14.62613
57.430 13.886401
57.435 14.111492
57.440 14.524173
57.445 14.666259
57.450 14.630273
57.455 14.708096
57.460 14.480971
57.465 14.773534
57.470 14.127
57.475 13.795177
57.480 14.281328
57.485 14.213118
57.490 13.929307
57.495 13.965304
57.500 13.682371
57.505 13.929461
57.510 13.924195
57.515 13.418523
57.520 13.710596
57.525 13.550872
57.530 13.37894
57.535 13.171778
57.540 13.382551
57.545 14.268457
57.550 14.652987
57.555 15.258051
57.560 15.592866
57.565 15.816211
57.570 16.142418
57.575 16.099266
57.580 15.408455
57.585 15.342174
57.590 15.031178
57.595 14.800335
57.600 14.473819
57.605 14.065813
57.610 13.873837
57.615 14.118005
57.620 14.156894
57.625 14.230225
57.630 14.412601
57.635 14.665026
57.640 14.747499
57.645 14.829556
57.650 15.151241
57.655 15.515223
57.660 15.084776
57.665 14.937874
57.670 15.063719
57.675 14.959255
57.680 14.527651
57.685 13.845732
57.690 13.318495
57.695 13.651558
57.700 13.587259
57.705 13.508785
57.710 14.293049
57.715 14.423543
57.720 14.695887
57.725 14.929862
57.730 14.516738
57.735 14.463475
57.740 14.305406
57.745 13.500247
57.750 13.596723
57.755 13.379457
57.760 13.278568
57.765 13.801166
57.770 13.593291
57.775 13.440295
57.780 13.219223
57.785 13.37606
57.790 13.734055
57.795 13.507467
57.800 12.975929
57.805 12.78857
57.810 13.134856
57.815 13.131587
57.820 13.242279
57.825 13.023335
57.830 13.352081
57.835 14.183528
57.840 14.710689
57.845 14.550797
57.850 14.42484
57.855 13.840835
57.860 13.57286
57.865 12.941401
57.870 12.42208
57.875 12.06753
57.880 12.236776
57.885 12.238052
57.890 12.454606
57.895 12.341033
57.900 12.93093
57.905 13.184723
57.910 13.321222
57.915 13.06758
57.920 13.49194
57.925 13.908842
57.930 14.164767
57.935 13.645449
57.940 13.562747
57.945 13.579957
57.950 13.537899
57.955 13.263534
57.960 13.192956
57.965 13.564243
57.970 13.810034
57.975 14.122451
57.980 14.254656
57.985 14.236372
57.990 14.5163
57.995 14.433112
58.000 14.584291
58.005 14.564815
58.010 14.393192
58.015 14.655643
58.020 14.715424
58.025 14.467515
58.030 14.442348
58.035 14.792409
58.040 15.000491
58.045 14.608269
58.050 14.209148
58.055 14.433128
58.060 14.902211
58.065 14.957334
58.070 13.851068
58.075 13.744067
58.080 14.126694
58.085 13.90608
58.090 13.341395
58.095 12.798311
58.100 13.155695
58.105 13.859846
58.110 14.010686
58.115 14.190925
58.120 14.55296
58.125 14.65754
58.130 14.691901
58.135 14.786278
58.140 15.03735
58.145 14.833462
58.150 14.803384
58.155 14.649261
58.160 14.774855
58.165 14.58033
58.170 14.255161
58.175 14.245347
58.180 14.398992
58.185 14.133562
58.190 14.443351
58.195 14.90081
58.200 15.25522
58.205 15.286844
58.210 14.942565
58.215 14.712007
58.220 14.863603
58.225 15.598457
58.230 15.852791
58.235 15.731506
58.240 15.160641
58.245 15.426893
58.250 15.841248
58.255 16.100866
58.260 15.210289
58.265 15.01886
58.270 15.278072
58.275 16.035595
58.280 15.941024
58.285 15.556275
58.290 15.006555
58.295 14.789362
58.300 14.626717
58.305 14.596874
58.310 14.577982
58.315 14.779642
58.320 14.74663
58.325 14.8257
58.330 14.915983
58.335 15.170386
58.340 15.173553
58.345 15.148973
58.350 14.738575
58.355 14.825563
58.360 14.576467
58.365 14.696935
58.370 15.100525
58.375 14.669886
58.380 14.938165
58.385 15.800407
58.390 15.816769
58.395 16.705572
58.400 16.570669
58.405 16.121611
58.410 16.044533
58.415 15.486317
58.420 15.356981
58.425 15.428043
58.430 14.826276
58.435 14.778601
58.440 14.944764
58.445 15.186433
58.450 15.309913
58.455 15.441835
58.460 15.457149
58.465 15.763581
58.470 15.704631
58.475 15.579281
58.480 15.905705
58.485 15.772476
58.490 15.945697
58.495 16.58522
58.500 16.245382
58.505 16.200911
58.510 15.878992
58.515 15.334352
58.520 15.648511
58.525 15.684505
58.530 15.23981
58.535 15.622785
58.540 15.64437
58.545 16.185551
58.550 16.156725
58.555 15.355173
58.560 15.237065
58.565 15.271083
58.570 15.364326
58.575 15.774064
58.580 15.542249
58.585 15.433743
58.590 16.224869
58.595 16.038136
58.600 16.203236
58.605 16.87141
58.610 16.338331
58.615 16.497234
58.620 16.711014
58.625 16.351004
58.630 16.553427
58.635 16.137871
58.640 16.111958
58.645 16.692745
58.650 16.758554
58.655 16.564993
58.660 16.574577
58.665 16.757734
58.670 16.663483
58.675 15.925404
58.680 15.619329
58.685 15.318397
58.690 15.23422
58.695 15.862246
58.700 15.753052
58.705 15.206808
58.710 14.945844
58.715 14.965691
58.720 15.338727
58.725 15.625986
58.730 14.705337
58.735 15.416864
58.740 16.455198
58.745 17.694387
58.750 18.18696
58.755 18.296772
58.760 18.460051
58.765 18.964766
58.770 18.790129
58.775 18.076632
58.780 17.36096
58.785 16.679276
58.790 16.286011
58.795 16.17918
58.800 15.240063
58.805 14.926133
58.810 15.197831
58.815 15.17952
58.820 15.214975
58.825 15.645851
58.830 15.70021
58.835 16.174129
58.840 16.020838
58.845 16.343029
58.850 16.036011
58.855 16.210382
58.860 15.951661
58.865 15.614102
58.870 15.301718
58.875 15.480199
58.880 15.31502
58.885 15.585214
58.890 15.508099
58.895 15.397283
58.900 15.970549
58.905 16.250286
58.910 16.17333
58.915 16.076548
58.920 15.606538
58.925 15.989985
58.930 16.260281
58.935 15.67829
58.940 14.918648
58.945 14.56793
58.950 14.481548
58.955 15.00508
58.960 14.902308
58.965 14.972872
58.970 15.318853
58.975 16.032272
58.980 16.493866
58.985 16.499849
58.990 16.369961
58.995 15.766097
59.000 15.402379
59.005 15.541162
59.010 15.811541
59.015 15.370745
59.020 14.791511
59.025 15.074079
59.030 15.568034
59.035 15.71145
59.040 15.931347
59.045 15.944875
59.050 16.022034
59.055 16.868774
59.060 17.488237
59.065 17.236904
59.070 16.833748
59.075 15.885514
59.080 15.651362
59.085 15.854366
59.090 15.157328
59.095 14.274455
59.100 14.244819
59.105 14.359544
59.110 15.13175
59.115 14.902129
59.120 14.699893
59.125 14.47221
59.130 14.57784
59.135 15.259109
59.140 15.359738
59.145 15.411144
59.150 15.542586
59.155 15.64238
59.160 16.319328
59.165 16.792839
59.170 16.652363
59.175 16.487244
59.180 16.301395
59.185 16.014435
59.190 16.647007
59.195 16.648485
59.200 16.124634
59.205 16.145042
59.210 16.880091
59.215 17.188671
59.220 17.683756
59.225 16.697145
59.230 16.620369
59.235 16.842325
59.240 16.911629
59.245 17.200815
59.250 16.764198
59.255 16.604074
59.260 16.975157
59.265 16.329714
59.270 16.484074
59.275 16.336563
59.280 16.181059
59.285 16.695192
59.290 16.80158
59.295 17.108097
59.300 17.097208
59.305 16.507502
59.310 16.14912
59.315 16.092234
59.320 16.319904
59.325 16.696712
59.330 16.81164
59.335 16.902645
59.340 17.189039
59.345 17.172319
59.350 16.997644
59.355 16.4638
59.360 16.735495
59.365 17.086325
59.370 16.945286
59.375 16.748182
59.380 17.214737
59.385 16.846083
59.390 17.183489
59.395 16.773767
59.400 16.191729
59.405 16.550398
59.410 16.316612
59.415 15.675472
59.420 15.938659
59.425 15.737232
59.430 16.026821
59.435 16.324385
59.440 16.894638
59.445 17.526119
59.450 17.599977
59.455 17.597391
59.460 17.695389
59.465 18.017391
59.470 18.824732
59.475 18.550114
59.480 18.733061
59.485 19.398829
59.490 19.92432
59.495 19.811523
59.500 19.115326
59.505 17.356953
59.510 16.887341
59.515 16.724417
59.520 16.528786
59.525 16.215681
59.530 16.178629
59.535 16.021193
59.540 17.195126
59.545 17.372898
59.550 17.055332
59.555 16.68148
59.560 16.879099
59.565 17.388441
59.570 17.440865
59.575 17.494202
59.580 17.563501
59.585 17.479948
59.590 17.486013
59.595 17.209757
59.600 17.119026
59.605 17.334606
59.610 17.980061
59.615 18.193604
59.620 18.389135
59.625 18.336836
59.630 18.285769
59.635 18.264904
59.640 18.309484
59.645 17.713226
59.650 17.793865
59.655 18.006098
59.660 18.605591
59.665 18.682919
59.670 18.441662
59.675 17.737123
59.680 17.58363
59.685 17.528515
59.690 17.634005
59.695 17.941944
59.700 18.135736
59.705 18.216681
59.710 18.58699
59.715 18.415802
59.720 18.102762
59.725 18.225666
59.730 17.842676
59.735 17.838091
59.740 18.029896
59.745 18.692158
59.750 19.698174
59.755 20.281996
59.760 20.574942
59.765 20.304491
59.770 20.295666
59.775 20.333719
59.780 20.236313
59.785 19.697699
59.790 19.372211
59.795 18.623186
59.800 18.789543
59.805 18.877111
59.810 18.821314
59.815 18.652096
59.820 18.739216
59.825 18.846466
59.830 19.092133
59.835 18.76829
59.840 18.5811
59.845 18.983551
59.850 18.827515
59.855 18.642532
59.860 18.905308
59.865 18.716059
59.870 18.971066
59.875 18.94725
59.880 18.648417
59.885 18.212486
59.890 18.561951
59.895 19.224188
59.900 19.625731
59.905 19.543922
59.910 18.839125
59.915 18.848219
59.920 19.666164
59.925 19.549467
59.930 18.637407
59.935 18.101513
59.940 18.168085
59.945 19.092335
59.950 18.965382
59.955 18.614882
59.960 18.313389
59.965 18.395443
59.970 18.842751
59.975 18.778315
59.980 18.326078
59.985 18.894524
59.990 18.85067
59.995 18.496433
60.000 18.378542
60.005 17.952652
60.010 17.180622
60.015 16.618193
60.020 16.452463
60.025 16.912872
60.030 17.196712
60.035 16.874025
60.040 17.275177
60.045 18.598749
60.050 19.491373
60.055 18.940765
60.060 18.684488
60.065 19.346617
60.070 19.997509
60.075 20.136087
60.080 19.545834
60.085 19.491793
60.090 19.838829
60.095 20.050293
60.100 19.898329
60.105 20.171474
60.110 19.79373
60.115 19.985195
60.120 20.011663
60.125 20.279739
60.130 19.92872
60.135 19.854065
60.140 19.371841
60.145 19.383991
60.150 19.388636
60.155 18.737534
60.160 17.885462
60.165 17.743185
60.170 17.684595
60.175 17.574026
60.180 17.604475
60.185 17.729177
60.190 18.297224
60.195 18.487936
60.200 18.440113
60.205 18.590197
60.210 18.853205
60.215 18.970474
60.220 18.681339
60.225 18.309879
60.230 18.352097
60.235 18.255514
60.240 18.531366
60.245 18.563343
60.250 18.431278
60.255 18.087408
60.260 17.556503
60.265 17.435472
60.270 17.146318
60.275 16.480045
60.280 16.476749
60.285 16.116018
60.290 16.539478
60.295 16.981461
60.300 16.878252
60.305 16.791748
60.310 16.587841
60.315 16.245993
60.320 16.348141
60.325 15.465702
60.330 15.698349
60.335 16.399813
60.340 16.653639
60.345 16.290689
60.350 16.668442
60.355 17.220457
60.360 17.345144
60.365 17.521471
60.370 17.294323
60.375 17.019939
60.380 17.164404
60.385 17.023056
60.390 16.662247
60.395 16.738705
60.400 16.059965
60.405 15.886331
60.410 16.435282
60.415 16.868757
60.420 16.653444
60.425 17.117016
60.430 17.707394
60.435 17.958506
60.440 18.02269
60.445 17.619999
60.450 16.796442
60.455 16.151541
60.460 15.25063
60.465 14.897938
60.470 14.911984
60.475 14.768642
60.480 14.647088
60.485 14.956179
60.490 15.740432
60.495 16.433908
60.500 16.261444
60.505 15.98536
60.510 16.1751
60.515 16.53282
60.520 17.008875
60.525 16.904812
60.530 16.551201
60.535 16.612638
60.540 16.423992
60.545 16.560072
60.550 16.407349
60.555 16.300322
60.560 16.677275
60.565 16.68574
60.570 17.088869
60.575 17.002438
60.580 17.006908
60.585 17.219666
60.590 17.214937
60.595 17.277246
60.600 16.628277
60.605 16.46147
60.610 16.718637
60.615 16.444479
60.620 16.363777
60.625 16.101084
60.630 15.98232
60.635 16.355913
60.640 15.892016
60.645 15.763361
60.650 15.452184
60.655 15.123425
60.660 14.884697
60.665 14.752128
60.670 14.684543
60.675 15.131999
60.680 14.886328
60.685 14.782289
60.690 14.486
60.695 14.628563
60.700 14.865637
60.705 15.149654
60.710 15.537932
60.715 16.338802
60.720 16.835981
60.725 17.371344
60.730 17.034729
60.735 16.787397
60.740 16.671455
60.745 16.279278
60.750 15.827177
60.755 16.220951
60.760 16.168633
60.765 16.536541
60.770 16.465773
60.775 16.629429
60.780 16.764702
60.785 16.437607
60.790 15.966252
60.795 16.129425
60.800 15.815775
60.805 15.736476
60.810 15.594473
60.815 15.385064
60.820 15.283652
60.825 14.97676
60.830 14.657785
60.835 14.597507
60.840 14.998917
60.845 14.772083
60.850 15.219079
60.855 16.070673
60.860 16.652735
60.865 16.906704
60.870 16.850706
60.875 16.336193
60.880 16.020769
60.885 15.528153
60.890 15.172825
60.895 14.460738
60.900 14.357615
60.905 14.679672
60.910 14.992722
60.915 15.704263
60.920 16.193419
60.925 16.104816
60.930 16.115175
60.935 15.959194
60.940 15.495957
60.945 15.413356
60.950 15.066817
60.955 14.332669
60.960 14.467013
60.965 14.782208
60.970 14.76547
60.975 15.009962
60.980 15.20187
60.985 15.215396
60.990 15.809833
60.995 15.66189
61.000 15.146038
61.005 15.208371
61.010 15.209764
61.015 14.928702
61.020 15.315485
61.025 15.385657
61.030 15.616673
61.035 16.064806
61.040 16.428434
61.045 16.603302
61.050 16.7547
61.055 17.163952
61.060 17.321718
61.065 17.242325
61.070 17.173943
61.075 16.482595
61.080 16.654005
61.085 16.5874
61.090 15.445596
61.095 14.832277
61.100 14.912946
61.105 15.094427
61.110 15.478165
61.115 15.393229
61.120 15.563726
61.125 15.752318
61.130 15.469584
61.135 15.306246
61.140 15.104431
61.145 15.034161
61.150 14.286086
61.155 14.052705
61.160 13.949354
61.165 13.715484
61.170 13.911076
61.175 14.139913
61.180 14.288036
61.185 14.893444
61.190 15.080697
61.195 15.722631
61.200 16.696491
61.205 16.804497
61.210 16.742521
61.215 16.557076
61.220 16.159712
61.225 15.879057
61.230 15.723542
61.235 15.367381
61.240 15.055822
61.245 14.977424
61.250 15.244421
61.255 15.655877
61.260 16.140583
61.265 16.602386
61.270 16.198706
61.275 16.198839
61.280 16.142239
61.285 16.225107
61.290 16.010849
61.295 16.00284
61.300 15.234795
61.305 15.230842
61.310 15.252327
61.315 15.67087
61.320 15.785096
61.325 15.625154
61.330 15.275479
61.335 15.294199
61.340 15.1508
61.345 15.273442
61.350 15.136575
61.355 14.935764
61.360 15.13125
61.365 15.064422
61.370 15.762155
61.375 15.985064
61.380 15.939761
61.385 15.911749
61.390 15.721184
61.395 15.567405
61.400 15.302952
61.405 14.415126
61.410 14.13735
61.415 13.542824
61.420 13.017602
61.425 13.24298
61.430 13.907491
61.435 13.985696
61.440 14.023388
61.445 14.007919
61.450 14.097821
61.455 14.689152
61.460 14.516809
61.465 14.366051
61.470 14.636617
61.475 15.341056
61.480 15.723535
61.485 15.63239
61.490 15.393316
61.495 14.913972
61.500 14.82456
61.505 15.12973
61.510 15.185421
61.515 15.867663
61.520 16.401995
61.525 16.347689
61.530 16.890244
61.535 16.869919
61.540 16.711517
61.545 16.782116
61.550 16.570116
61.555 16.547241
61.560 16.86128
61.565 16.438543
61.570 15.953497
61.575 15.399275
61.580 15.157266
61.585 15.473759
61.590 15.268805
61.595 14.971484
61.600 14.574129
61.605 14.445454
61.610 14.394667
61.615 13.82562
61.620 13.447847
61.625 13.367301
61.630 13.296069
61.635 14.057794
61.640 14.798309
61.645 15.593293
61.650 15.79169
61.655 15.735048
61.660 16.173132
61.665 16.363384
61.670 16.155064
61.675 15.821038
61.680 15.296559
61.685 15.207242
61.690 15.262712
61.695 15.287038
61.700 15.39525
61.705 15.013809
61.710 15.199344
61.715 15.490538
61.720 15.851828
61.725 15.637505
61.730 15.107284
61.735 15.269587
61.740 15.404026
61.745 15.001676
61.750 14.675116
61.755 14.237389
61.760 14.33147
61.765 14.119823
61.770 13.545457
61.775 13.834262
61.780 14.160299
61.785 14.325823
61.790 14.77211
61.795 15.578444
61.800 16.048754
61.805 16.602808
61.810 16.70833
61.815 16.894489
61.820 17.349411
61.825 17.282391
61.830 16.872978
61.835 16.923525
61.840 17.128542
61.845 16.874306
61.850 16.370169
61.855 16.47858
61.860 16.798582
61.865 16.740427
61.870 16.268864
61.875 15.89137
61.880 16.050957
61.885 16.602591
61.890 16.916904
61.895 16.519955
61.900 16.636591
61.905 16.570986
61.910 16.345455
61.915 16.447842
61.920 16.358961
61.925 15.824076
61.930 15.571143
61.935 15.613844
61.940 15.8333
61.945 15.792059
61.950 15.415745
61.955 15.045327
61.960 14.480406
61.965 14.311693
61.970 13.785564
61.975 13.894589
61.980 14.096478
61.985 13.920422
61.990 13.419603
61.995 13.897801
62.000 14.474051
62.005 14.827008
62.010 14.83333
62.015 15.162515
62.020 15.797503
62.025 16.497124
62.030 16.774565
62.035 16.512798
62.040 16.544783
62.045 16.775797
62.050 16.087185
62.055 15.06163
62.060 14.824829
62.065 14.80731
62.070 15.068172
62.075 15.228939
62.080 15.102074
62.085 15.514663
62.090 15.948315
62.095 15.592037
62.100 15.314471
62.105 15.217894
62.110 15.413985
62.115 15.496167
62.120 15.959205
62.125 16.480333
62.130 16.742149
62.135 16.657084
62.140 16.431671
62.145 16.340603
62.150 16.156492
62.155 15.851689
62.160 15.782373
62.165 15.922447
62.170 16.329105
62.175 16.461136
62.180 16.298626
62.185 16.508398
62.190 16.538115
62.195 16.200161
62.200 16.191368
62.205 16.241255
62.210 16.406281
62.215 16.531174
62.220 16.652205
62.225 16.240286
62.230 16.387455
62.235 16.224957
62.240 15.958197
62.245 15.373921
62.250 14.447374
62.255 14.339111
62.260 15.013482
62.265 15.242793
62.270 15.329663
62.275 15.002018
62.280 15.474028
62.285 15.870523
62.290 15.807744
62.295 15.575354
62.300 15.454998
62.305 15.865129
62.310 16.036427
62.315 15.89857
62.320 16.247026
62.325 16.086542
62.330 15.943721
62.335 15.767647
62.340 15.027674
62.345 14.831277
62.350 15.050385
62.355 14.817759
62.360 14.713646
62.365 14.889911
62.370 15.217916
62.375 15.382883
62.380 15.427393
62.385 15.317427
62.390 15.359326
62.395 15.152546
62.400 15.343582
62.405 15.259089
62.410 15.386098
62.415 15.354777
62.420 15.874254
62.425 16.21608
62.430 16.096966
62.435 15.993525
62.440 16.145496
62.445 16.609648
62.450 17.204075
62.455 16.633165
62.460 16.515957
62.465 16.745657
62.470 16.539776
62.475 16.811386
62.480 16.667953
62.485 16.411169
62.490 16.485186
62.495 17.097565
62.500 17.33744
62.505 16.998766
62.510 16.687159
62.515 16.147938
62.520 15.808262
62.525 15.674698
62.530 14.872007
62.535 14.540406
62.540 14.963569
62.545 15.047808
62.550 15.551658
62.555 15.924162
62.560 16.283041
62.565 16.827295
62.570 16.914375
62.575 16.777031
62.580 16.440371
62.585 16.324478
62.590 16.493523
62.595 16.431356
62.600 16.68306
62.605 17.061186
62.610 16.782274
62.615 16.849295
62.620 16.421717
62.625 16.104116
62.630 15.578915
62.635 15.013763
62.640 14.087906
62.645 14.391981
62.650 14.613986
62.655 14.845495
62.660 14.982518
62.665 15.104842
62.670 15.381708
62.675 16.27116
62.680 16.905411
62.685 17.025682
62.690 17.448088
62.695 17.655563
62.700 17.683739
62.705 17.651711
62.710 17.735653
62.715 17.724901
62.720 18.297155
62.725 17.865662
62.730 17.934483
62.735 18.103968
62.740 18.408312
62.745 18.125141
62.750 17.787048
62.755 17.853098
62.760 17.874289
62.765 17.648737
62.770 17.197947
62.775 16.715384
62.780 16.168024
62.785 16.039001
62.790 15.872236
62.795 15.729559
62.800 15.799348
62.805 16.380518
62.810 16.436651
62.815 16.811226
62.820 16.483126
62.825 16.200832
62.830 16.243593
62.835 17.07564
62.840 17.217262
62.845 17.281866
62.850 17.341894
62.855 17.558704
62.860 17.814569
62.865 17.861118
62.870 16.428658
62.875 15.540112
62.880 15.70763
62.885 15.611806
62.890 15.595076
62.895 15.190487
62.900 15.678917
62.905 16.330959
62.910 16.272057
62.915 15.853006
62.920 15.848887
62.925 15.767126
62.930 16.248034
62.935 15.744589
62.940 15.226365
62.945 15.771047
62.950 15.789631
62.955 15.511165
62.960 15.319729
62.965 15.245707
62.970 16.036245
62.975 16.694969
62.980 16.986364
62.985 17.203526
62.990 17.922815
62.995 18.082193
63.000 17.949936
63.005 17.206787
63.010 16.87838
63.015 16.536848
63.020 16.327353
63.025 16.279629
63.030 16.574453
63.035 17.021576
63.040 17.38331
63.045 17.46443
63.050 17.648998
63.055 17.4184
63.060 17.129534
63.065 16.892433
63.070 16.551138
63.075 16.053339
63.080 15.762916
63.085 15.333322
63.090 15.734415
63.095 15.670554
63.100 15.686952
63.105 15.548263
63.110 16.237564
63.115 16.750795
63.120 16.91172
63.125 16.672779
63.130 16.475979
63.135 16.088083
63.140 16.153536
63.145 15.422315
63.150 15.13799
63.155 15.291529
63.160 15.319348
63.165 16.008448
63.170 15.935482
63.175 15.482493
63.180 15.69999
63.185 15.6148
63.190 15.764855
63.195 15.721457
63.200 14.554661
63.205 14.325162
63.210 14.986514
63.215 14.940182
63.220 15.490162
63.225 15.686634
63.230 15.441475
63.235 15.81126
63.240 16.160576
63.245 15.537322
63.250 15.35681
63.255 14.913719
63.260 14.578654
63.265 14.57497
63.270 14.688222
63.275 14.710542
63.280 15.171135
63.285 15.274796
63.290 15.396846
63.295 15.673854
63.300 15.868471
63.305 15.85915
63.310 15.83928
63.315 15.790248
63.320 15.809941
63.325 15.692954
63.330 15.907949
63.335 16.383863
63.340 16.435936
63.345 16.724451
63.350 16.5669
63.355 16.742229
63.360 16.690981
63.365 16.210552
63.370 16.073517
63.375 16.901722
63.380 17.171598
63.385 17.830021
63.390 17.911663
63.395 18.327242
63.400 18.527401
63.405 18.39781
63.410 17.209131
63.415 16.57592
63.420 16.432697
63.425 16.109615
63.430 15.865535
63.435 15.507077
63.440 14.984928
63.445 14.935143
63.450 14.74729
63.455 14.354248
63.460 14.573976
63.465 14.568932
63.470 14.84801
63.475 15.243481
63.480 15.458209
63.485 15.708816
63.490 16.15996
63.495 15.969869
63.500 16.024382
63.505 16.35161
63.510 16.587124
63.515 16.392578
63.520 16.845299
63.525 16.480925
63.530 15.79083
63.535 15.702912
63.540 15.574869
63.545 15.581414
63.550 16.109098
63.555 16.102175
63.560 15.710575
63.565 16.43708
63.570 17.036388
63.575 17.173571
63.580 17.571707
63.585 17.234556
63.590 17.407612
63.595 17.919098
63.600 17.540924
63.605 16.953146
63.610 16.891779
63.615 16.40535
63.620 16.675701
63.625 16.675257
63.630 17.296555
63.635 17.552582
63.640 17.763178
63.645 18.229832
63.650 18.336718
63.655 18.208136
63.660 17.734436
63.665 17.788139
63.670 18.431782
63.675 17.600447
63.680 17.159372
63.685 16.971628
63.690 16.499317
63.695 16.526958
63.700 15.835677
63.705 14.856363
63.710 14.750889
63.715 14.524269
63.720 14.818261
63.725 15.24242
63.730 15.254976
63.735 15.131341
63.740 15.418029
63.745 15.080792
63.750 15.123759
63.755 14.868207
63.760 14.624548
63.765 14.421721
63.770 14.715483
63.775 15.056289
63.780 16.056229
63.785 16.323442
63.790 16.68235
63.795 16.512836
63.800 16.577303
63.805 16.036306
63.810 15.41861
63.815 15.172333
63.820 15.001257
63.825 14.756482
63.830 15.10108
63.835 15.177587
63.840 15.622602
63.845 16.625994
63.850 16.48737
63.855 16.875687
63.860 17.21137
63.865 17.521917
63.870 17.742702
63.875 17.987951
63.880 17.42635
63.885 17.765398
63.890 17.470518
63.895 17.167822
63.900 16.673315
63.905 16.334826
63.910 16.302916
63.915 16.480377
63.920 16.527245
63.925 16.200815
63.930 15.988338
63.935 16.327526
63.940 16.567007
63.945 16.514456
63.950 16.727793
63.955 16.745335
63.960 17.125902
63.965 17.472027
63.970 17.509699
63.975 17.766088
63.980 18.404892
63.985 18.549208
63.990 18.750654
63.995 19.033379
64.000 19.158163
64.005 19.260445
64.010 19.549469
64.015 19.506315
64.020 19.680494
64.025 19.154161
64.030 18.82152
64.035 18.651873
64.040 18.344704
64.045 18.375916
64.050 17.926519
64.055 17.439308
64.060 17.101381
64.065 16.96524
64.070 17.011814
64.075 17.6222
64.080 17.442997
64.085 17.495066
64.090 17.380966
64.095 17.751402
64.100 17.389034
64.105 16.78919
64.110 16.372299
64.115 15.720524
64.120 15.711578
64.125 15.681266
64.130 15.731689
64.135 16.547863
64.140 17.138763
64.145 17.324476
64.150 17.456867
64.155 17.44702
64.160 17.473068
64.165 17.004398
64.170 17.041368
64.175 16.531471
64.180 16.779976
64.185 16.790932
64.190 16.704506
64.195 16.939127
64.200 17.231636
64.205 17.20882
64.210 17.351765
64.215 17.16707
64.220 17.808138
64.225 18.244892
64.230 18.399157
64.235 18.523211
64.240 18.147507
64.245 18.331928
64.250 18.134382
64.255 17.811575
64.260 17.511232
64.265 17.661222
64.270 18.051504
64.275 18.230587
64.280 17.899609
64.285 17.756474
64.290 17.804548
64.295 17.706848
64.300 17.636683
64.305 17.731676
64.310 18.236013
64.315 18.680069
64.320 18.572886
64.325 18.987171
64.330 18.999945
64.335 18.563967
64.340 18.011259
64.345 17.286697
64.350 17.013407
64.355 17.676994
64.360 17.653255
64.365 17.456396
64.370 17.535671
64.375 17.898727
64.380 18.496868
64.385 18.560326
64.390 18.177662
64.395 17.835882
64.400 18.500763
64.405 18.726183
64.410 18.854681
64.415 19.211172
64.420 19.350796
64.425 20.072996
64.430 19.948997
64.435 19.664255
64.440 19.500784
64.445 19.311354
64.450 18.975948
64.455 19.008646
64.460 18.826237
64.465 19.197582
64.470 18.94836
64.475 19.004925
64.480 18.786041
64.485 19.01512
64.490 18.853943
64.495 18.501322
64.500 19.078629
64.505 19.412308
64.510 20.014158
64.515 20.94759
64.520 20.693956
64.525 20.566698
64.530 20.779152
64.535 20.859167
64.540 20.992043
64.545 20.104248
64.550 19.395981
64.555 19.315418
64.560 19.632942
64.565 19.723789
64.570 19.076105
64.575 18.792795
64.580 18.753122
64.585 18.50807
64.590 18.397493
64.595 17.775671
64.600 17.737196
64.605 17.94912
64.610 18.015421
64.615 18.327019
64.620 18.433029
64.625 18.423061
64.630 19.009726
64.635 19.277397
64.640 19.697756
64.645 19.97049
64.650 20.407984
64.655 20.347712
64.660 20.428059
64.665 20.715891
64.670 19.895355
64.675 19.915989
64.680 19.581224
64.685 19.447706
64.690 19.436636
64.695 19.594147
64.700 19.373226
64.705 18.973085
64.710 18.620173
64.715 18.251234
64.720 18.077614
64.725 18.25971
64.730 18.010998
64.735 17.572531
64.740 17.793463
64.745 17.665461
64.750 18.260433
64.755 18.04928
64.760 18.202929
64.765 18.016863
64.770 18.556034
64.775 18.886299
64.780 19.286888
64.785 20.081402
64.790 21.102871
64.795 21.721479
64.800 22.223616
64.805 22.380823
64.810 22.706064
64.815 22.415749
64.820 21.473331
64.825 21.11017
64.830 20.770014
64.835 21.13578
64.840 21.328428
64.845 21.578838
64.850 21.489838
64.855 20.776836
64.860 20.833145
64.865 21.100853
64.870 20.470764
64.875 20.293751
64.880 20.665787
64.885 20.714567
64.890 21.681595
64.895 21.535913
64.900 21.17119
64.905 21.555777
64.910 21.55662
64.915 21.398621
64.920 21.68165
64.925 21.701366
64.930 22.174849
64.935 22.265167
64.940 22.291082
64.945 22.394463
64.950 22.342833
64.955 22.60936
64.960 22.741068
64.965 22.307142
64.970 22.519119
64.975 22.772854
64.980 22.499542
64.985 23.518488
64.990 24.176895
64.995 24.402168
65.000 25.020128
65.005 25.347221
65.010 25.207867
65.015 25.12104
65.020 25.105766
65.025 24.878412
65.030 25.005878
65.035 25.178135
65.040 24.835245
65.045 24.56905
65.050 24.313766
65.055 23.999304
65.060 24.42576
65.065 24.024939
65.070 23.5735
65.075 23.783405
65.080 24.517649
65.085 25.342978
65.090 25.330475
65.095 25.080959
65.100 25.849943
65.105 26.137556
65.110 26.601324
65.115 26.208101
65.120 26.286388
65.125 26.227938
65.130 25.909784
65.135 25.531475
65.140 25.285139
65.145 25.519634
65.150 25.531084
65.155 24.956245
65.160 25.085575
65.165 24.829594
65.170 24.986654
65.175 25.13065
65.180 24.495188
65.185 24.21216
65.190 24.127878
65.195 23.658403
65.200 23.994871
65.205 23.921124
65.210 23.745703
65.215 24.030539
65.220 24.65638
65.225 24.304167
65.230 24.093624
65.235 23.635538
65.240 23.693205
65.245 23.415133
65.250 22.929779
65.255 22.495205
65.260 22.445669
65.265 22.245266
65.270 22.138781
65.275 22.025972
65.280 22.223724
65.285 22.425253
65.290 22.734486
65.295 22.469891
65.300 22.710846
65.305 22.819782
65.310 22.777212
65.315 22.084448
65.320 22.249866
65.325 22.101812
65.330 22.081333
65.335 21.752171
65.340 21.578402
65.345 21.989643
65.350 22.34934
65.355 22.022722
65.360 21.800692
65.365 22.293165
65.370 21.342602
65.375 20.880552
65.380 21.24877
65.385 21.324348
65.390 21.532785
65.395 21.798223
65.400 21.165211
65.405 21.806051
65.410 22.138578
65.415 21.321262
65.420 21.281342
65.425 21.525738
65.430 22.019114
65.435 23.062283
65.440 23.016693
65.445 22.28248
65.450 22.119226
65.455 21.808466
65.460 21.504196
65.465 21.233686
65.470 20.971069
65.475 21.521059
65.480 22.110044
65.485 22.225576
65.490 23.113789
65.495 23.535507
65.500 23.485275
65.505 23.507826
65.510 23.055338
65.515 23.138668
65.520 23.116291
65.525 22.69058
65.530 22.670158
65.535 22.541334
65.540 22.999023
65.545 23.127665
65.550 23.257675
65.555 23.592577
65.560 24.096558
65.565 24.410137
65.570 24.155262
65.575 23.475803
65.580 23.651253
65.585 23.617271
65.590 23.346508
65.595 22.751223
65.600 22.530352
65.605 23.266994
65.610 24.023407
65.615 23.534695
65.620 23.852705
65.625 23.866463
65.630 23.896284
65.635 23.610678
65.640 23.843018
65.645 24.46439
65.650 25.515879
65.655 25.144794
65.660 24.921282
65.665 25.245272
65.670 25.464401
65.675 25.072027
65.680 25.271681
65.685 25.030994
65.690 24.883976
65.695 24.890203
65.700 24.636549
65.705 24.984842
65.710 24.844725
65.715 23.994276
65.720 24.793196
65.725 25.252592
65.730 25.976393
65.735 26.31143
65.740 26.72422
65.745 27.157553
65.750 28.240189
65.755 27.791708
65.760 28.119429
65.765 28.2391
65.770 28.436829
65.775 27.966551
65.780 27.63063
65.785 27.343252
65.790 27.396427
65.795 26.927732
65.800 26.627451
65.805 26.261402
65.810 26.469685
65.815 26.039185
65.820 25.324419
65.825 25.75733
65.830 26.404953
65.835 26.468653
65.840 27.306221
65.845 27.332468
65.850 27.474119
65.855 28.013792
65.860 28.576803
65.865 28.656183
65.870 28.623785
65.875 28.167372
65.880 28.52306
65.885 28.650478
65.890 28.994062
65.895 28.75857
65.900 28.959805
65.905 29.163555
65.910 29.07164
65.915 29.162947
65.920 29.334002
65.925 28.769518
65.930 28.403166
65.935 27.937901
65.940 27.625217
65.945 27.840601
65.950 27.954958
65.955 28.308363
65.960 28.215134
65.965 28.343765
65.970 28.456951
65.975 29.016218
65.980 29.32939
65.985 30.060371
65.990 30.316973
65.995 30.860552
66.000 30.707193
66.005 30.77533
66.010 30.468336
66.015 29.963083
66.020 29.405525
66.025 29.233904
66.030 29.657393
66.035 29.908491
66.040 30.015316
66.045 30.011271
66.050 30.576824
66.055 30.556036
66.060 30.180033
66.065 29.630857
66.070 29.549345
66.075 29.14908
66.080 29.278885
66.085 29.362909
66.090 29.646839
66.095 30.155109
66.100 30.374609
66.105 30.570318
66.110 31.097361
66.115 31.064011
66.120 31.131741
66.125 30.730011
66.130 30.876654
66.135 30.906713
66.140 31.830843
66.145 31.737728
66.150 31.648788
66.155 30.735895
66.160 30.672571
66.165 30.75667
66.170 30.736368
66.175 29.503386
66.180 28.755962
66.185 28.092808
66.190 28.643555
66.195 28.495363
66.200 27.636824
66.205 27.541037
66.210 27.811562
66.215 28.184427
66.220 28.136482
66.225 27.570469
66.230 27.869802
66.235 28.552353
66.240 28.844786
66.245 29.107721
66.250 29.703875
66.255 30.174967
66.260 30.226583
66.265 30.188828
66.270 29.568199
66.275 29.250935
66.280 28.954556
66.285 28.083406
66.290 27.379133
66.295 27.335741
66.300 27.485662
66.305 27.67391
66.310 27.503637
66.315 27.640257
66.320 28.165554
66.325 28.72311
66.330 28.494175
66.335 28.496819
66.340 28.176161
66.345 28.145113
66.350 27.762585
66.355 27.999567
66.360 28.673832
66.365 28.761026
66.370 28.655535
66.375 28.999933
66.380 29.638525
66.385 29.348011
66.390 28.211016
66.395 27.009493
66.400 26.523464
66.405 26.405914
66.410 25.860672
66.415 25.172913
66.420 25.382467
66.425 25.461935
66.430 25.89448
66.435 26.008562
66.440 25.110435
66.445 24.780458
66.450 24.494516
66.455 24.341072
66.460 24.22517
66.465 24.054066
66.470 24.023853
66.475 24.160078
66.480 24.550222
66.485 24.730362
66.490 24.495422
66.495 24.346523
66.500 24.331888
66.505 24.469673
66.510 24.264366
66.515 23.860327
66.520 23.717295
66.525 23.809834
66.530 24.018499
66.535 23.611818
66.540 22.923315
66.545 22.21693
66.550 21.277792
66.555 21.564215
66.560 21.346289
66.565 20.919859
66.570 20.931107
66.575 21.160015
66.580 21.557789
66.585 21.743244
66.590 22.04817
66.595 22.619059
66.600 22.931765
66.605 23.200851
66.610 23.443026
66.615 24.003735
66.620 24.040455
66.625 23.180811
66.630 22.60417
66.635 22.390888
66.640 21.993317
66.645 21.813459
66.650 21.800295
66.655 22.303091
66.660 22.249044
66.665 21.928919
66.670 21.669502
66.675 21.551287
66.680 21.347212
66.685 21.143677
66.690 21.209867
66.695 20.897591
66.700 21.175583
66.705 21.813271
66.710 21.937
66.715 21.770367
66.720 21.261539
66.725 20.685234
66.730 20.575918
66.735 19.842361
66.740 19.234629
66.745 19.091824
66.750 18.896343
66.755 18.572708
66.760 18.424292
66.765 18.564053
66.770 18.535276
66.775 18.273312
66.780 18.373743
66.785 18.327341
66.790 18.201614
66.795 18.549664
66.800 18.876871
66.805 18.988722
66.810 19.399822
66.815 19.117575
66.820 18.702875
66.825 19.153233
66.830 18.934866
66.835 19.032984
66.840 18.977613
66.845 18.601427
66.850 18.849367
66.855 19.422983
66.860 19.620596
66.865 19.213621
66.870 19.251989
66.875 19.05633
66.880 18.963284
66.885 18.823627
66.890 18.345287
66.895 18.409649
66.900 18.419872
66.905 17.941868
66.910 17.728325
66.915 18.061867
66.920 17.842768
66.925 17.526308
66.930 16.698877
66.935 16.428104
66.940 16.56846
66.945 16.623066
66.950 16.282145
66.955 16.380407
66.960 16.128935
66.965 16.208828
66.970 16.673172
66.975 16.461702
66.980 16.525608
66.985 17.055969
66.990 17.304468
66.995 18.311581
67.000 18.361599
67.005 18.36866
67.010 18.518444
67.015 18.737459
67.020 18.324547
67.025 18.073427
67.030 17.897659
67.035 17.889297
67.040 18.545116
67.045 18.578508
67.050 18.062199
67.055 18.011801
67.060 18.693502
67.065 18.804747
67.070 18.627562
67.075 17.972681
67.080 17.863529
67.085 18.82765
67.090 19.106333
67.095 18.919977
67.100 18.770044
67.105 18.226685
67.110 18.221521
67.115 18.541159
67.120 18.95528
67.125 18.608616
67.130 18.658485
67.135 18.771196
67.140 19.211958
67.145 19.458729
67.150 19.481907
67.155 19.063831
67.160 19.479578
67.165 19.384249
67.170 19.090097
67.175 18.529104
67.180 18.041399
67.185 17.850754
67.190 17.784599
67.195 17.235867
67.200 16.984993
67.205 17.347919
67.210 18.645092
67.215 19.462299
67.220 19.054819
67.225 18.666821
67.230 18.578981
67.235 18.67697
67.240 18.439043
67.245 17.711393
67.250 17.221918
67.255 17.096254
67.260 17.31913
67.265 18.124504
67.270 18.428751
67.275 19.172516
67.280 19.020502
67.285 18.986631
67.290 18.951473
67.295 18.725248
67.300 18.038544
67.305 17.848763
67.310 17.231226
67.315 17.387108
67.320 17.61731
67.325 17.743763
67.330 18.031931
67.335 18.711376
67.340 18.125326
67.345 17.757189
67.350 18.060925
67.355 18.144115
67.360 18.107416
67.365 17.472452
67.370 16.718039
67.375 16.914984
67.380 17.137417
67.385 16.480715
67.390 16.525312
67.395 16.934011
67.400 17.546034
67.405 18.064789
67.410 18.545273
67.415 18.9242
67.420 19.619383
67.425 18.993118
67.430 18.810892
67.435 18.532368
67.440 18.197321
67.445 17.97971
67.450 17.854666
67.455 17.657776
67.460 18.66856
67.465 19.068485
67.470 19.225372
67.475 19.110939
67.480 19.01424
67.485 18.701897
67.490 18.395611
67.495 17.876926
67.500 17.831638
67.505 17.655077
67.510 17.659073
67.515 17.638876
67.520 17.428898
67.525 17.366688
67.530 17.485832
67.535 17.264616
67.540 17.751482
67.545 17.637173
67.550 17.427519
67.555 17.464552
67.560 18.023342
67.565 17.598351
67.570 17.680832
67.575 17.271139
67.580 17.540754
67.585 18.007095
67.590 18.362226
67.595 18.300106
67.600 18.636326
67.605 18.48213
67.610 18.702919
67.615 18.758039
67.620 18.469648
67.625 18.243446
67.630 18.049185
67.635 17.809042
67.640 17.661785
67.645 17.58202
67.650 17.659649
67.655 17.725605
67.660 18.323904
67.665 18.689713
67.670 18.454107
67.675 18.464724
67.680 18.406521
67.685 18.429247
67.690 18.976063
67.695 18.28875
67.700 17.622355
67.705 17.957066
67.710 18.309454
67.715 18.698381
67.720 19.112604
67.725 18.818542
67.730 19.272627
67.735 19.741272
67.740 19.255108
67.745 19.648161
67.750 19.499376
67.755 18.981512
67.760 18.989882
67.765 18.87648
67.770 19.669228
67.775 19.799225
67.780 19.335224
67.785 19.367315
67.790 19.16806
67.795 18.595823
67.800 18.205769
67.805 17.712896
67.810 17.699823
67.815 17.69593
67.820 17.593142
67.825 17.120632
67.830 17.518774
67.835 17.456415
67.840 17.064274
67.845 16.845942
67.850 16.921108
67.855 16.792248
67.860 17.29591
67.865 17.25572
67.870 17.184465
67.875 17.615301
67.880 17.782244
67.885 18.061256
67.890 18.224447
67.895 18.153502
67.900 18.708748
67.905 18.95108
67.910 18.891851
67.915 18.804514
67.920 18.473133
67.925 18.526361
67.930 19.028376
67.935 19.132271
67.940 19.746197
67.945 19.525642
67.950 19.342094
67.955 19.14719
67.960 19.091204
67.965 18.163725
67.970 18.186041
67.975 18.174675
67.980 17.878683
67.985 17.500963
67.990 17.181234
67.995 17.523226
68.000 17.520197
68.005 16.30438
68.010 15.704577
68.015 15.911108
68.020 16.464867
68.025 16.927048
68.030 16.980757
68.035 16.878027
68.040 17.60947
68.045 17.632378
68.050 18.405291
68.055 18.968899
68.060 19.233047
68.065 18.95993
68.070 19.053989
68.075 19.284779
68.080 19.840317
68.085 18.993919
68.090 18.282721
68.095 18.102146
68.100 18.804361
68.105 19.014767
68.110 18.640118
68.115 18.942608
68.120 19.491392
68.125 20.015944
68.130 20.293732
68.135 20.285473
68.140 20.346167
68.145 20.377726
68.150 19.693787
68.155 20.010685
68.160 19.917025
68.165 19.448895
68.170 18.987316
68.175 19.230579
68.180 19.709372
68.185 20.305735
68.190 20.292063
68.195 20.193674
68.200 20.340256
68.205 20.158382
68.210 19.501921
68.215 18.686836
68.220 17.641556
68.225 17.04648
68.230 17.051916
68.235 16.583099
68.240 16.941137
68.245 17.63875
68.250 18.072115
68.255 18.528446
68.260 18.651516
68.265 18.793827
68.270 18.607924
68.275 18.256329
68.280 17.500784
68.285 16.846268
68.290 16.452438
68.295 16.24683
68.300 16.266094
68.305 16.767975
68.310 16.576204
68.315 16.410723
68.320 16.949419
68.325 17.061697
68.330 17.247023
68.335 17.28401
68.340 17.018333
68.345 17.525276
68.350 17.799257
68.355 17.931274
68.360 17.809681
68.365 17.514687
68.370 17.275181
68.375 17.009459
68.380 16.180204
68.385 15.936125
68.390 15.840405
68.395 16.006798
68.400 16.200445
68.405 16.416054
68.410 16.43572
68.415 16.762846
68.420 16.841639
68.425 16.956644
68.430 16.698664
68.435 16.787273
68.440 16.768839
68.445 16.840981
68.450 17.369507
68.455 17.476566
68.460 17.408957
68.465 17.69969
68.470 17.499493
68.475 17.597832
68.480 18.159906
68.485 18.248024
68.490 19.382101
68.495 20.102859
68.500 20.111347
68.505 19.972872
68.510 19.71384
68.515 19.53606
68.520 19.342762
68.525 18.143167
68.530 17.468168
68.535 17.80554
68.540 18.31815
68.545 18.41564
68.550 18.455505
68.555 18.216085
68.560 17.858568
68.565 17.393957
68.570 16.890608
68.575 16.877256
68.580 16.82395
68.585 16.79196
68.590 17.073744
68.595 18.046001
68.600 18.618675
68.605 18.569693
68.610 19.021568
68.615 19.218935
68.620 19.307829
68.625 19.378279
68.630 19.133205
68.635 19.1457
68.640 19.303362
68.645 18.515863
68.650 18.314222
68.655 18.106718
68.660 17.749348
68.665 17.293581
68.670 17.11652
68.675 17.384039
68.680 17.114017
68.685 17.020279
68.690 17.247786
68.695 17.612679
68.700 18.087849
68.705 18.684355
68.710 18.85482
68.715 19.370319
68.720 19.588287
68.725 19.501354
68.730 20.158031
68.735 20.219553
68.740 19.810097
68.745 19.554626
68.750 19.219524
68.755 18.873907
68.760 18.32485
68.765 18.029778
68.770 18.454279
68.775 18.038382
68.780 18.154985
68.785 18.126089
68.790 18.331486
68.795 18.878437
68.800 18.530941
68.805 18.325457
68.810 18.791494
68.815 19.053064
68.820 19.794519
68.825 19.808376
68.830 19.141809
68.835 19.370342
68.840 19.04999
68.845 19.079203
68.850 19.194149
68.855 19.459684
68.860 19.826649
68.865 20.091825
68.870 19.851881
68.875 19.902071
68.880 20.151695
68.885 19.914154
68.890 19.584866
68.895 19.680414
68.900 19.407717
68.905 19.60833
68.910 19.23999
68.915 18.76055
68.920 19.012308
68.925 18.713757
68.930 18.297651
68.935 18.420664
68.940 17.976339
68.945 18.44858
68.950 18.616312
68.955 18.140322
68.960 18.051329
68.965 18.588362
68.970 19.033865
68.975 19.88563
68.980 19.998482
68.985 20.231142
68.990 20.884365
68.995 21.106699
69.000 21.242434
69.005 21.654537
69.010 21.816633
69.015 21.428007
69.020 21.045792
69.025 20.359131
69.030 20.213161
69.035 19.717995
69.040 18.931477
69.045 19.227535
69.050 20.093489
69.055 20.787771
69.060 21.19528
69.065 21.858938
69.070 22.530888
69.075 22.881435
69.080 22.102943
69.085 21.245571
69.090 21.462006
69.095 22.040512
69.100 22.371977
69.105 22.442266
69.110 22.202538
69.115 22.423342
69.120 22.777058
69.125 22.246429
69.130 21.786524
69.135 20.871527
69.140 20.728148
69.145 20.722162
69.150 21.256069
69.155 20.9561
69.160 20.700796
69.165 20.531269
69.170 21.224958
69.175 21.969408
69.180 22.547716
69.185 22.517815
69.190 22.9573
69.195 23.055696
69.200 22.983133
69.205 22.647064
69.210 22.200176
69.215 22.160837
69.220 22.205557
69.225 21.567453
69.230 21.827415
69.235 21.875591
69.240 21.817612
69.245 21.474228
69.250 21.799892
69.255 22.34951
69.260 22.78315
69.265 22.959414
69.270 22.830397
69.275 22.836845
69.280 22.856249
69.285 22.646181
69.290 22.562201
69.295 22.515425
69.300 22.881952
69.305 23.084661
69.310 23.307289
69.315 23.283764
69.320 22.886927
69.325 22.56111
69.330 22.094439
69.335 21.82806
69.340 21.960571
69.345 21.717134
69.350 22.390911
69.355 23.082735
69.360 23.438309
69.365 23.451385
69.370 23.431938
69.375 23.867149
69.380 23.93535
69.385 23.869469
69.390 23.960272
69.395 24.227175
69.400 25.003061
69.405 25.342176
69.410 25.446028
69.415 25.632233
69.420 25.112597
69.425 25.19153
69.430 25.529713
69.435 25.947039
69.440 25.50806
69.445 25.269585
69.450 24.806015
69.455 24.562963
69.460 24.374714
69.465 23.790867
69.470 23.207344
69.475 23.974716
69.480 24.253376
69.485 24.730671
69.490 24.950737
69.495 25.1523
69.500 25.774788
69.505 26.094166
69.510 25.981884
69.515 25.912094
69.520 26.395548
69.525 26.071007
69.530 26.293186
69.535 25.604828
69.540 25.744867
69.545 25.190891
69.550 25.711044
69.555 25.095566
69.560 25.519247
69.565 25.387453
69.570 25.695318
69.575 25.434336
69.580 25.338768
69.585 25.426325
69.590 25.060211
69.595 25.173731
69.600 24.739519
69.605 24.799845
69.610 25.085299
69.615 25.403214
69.620 25.946566
69.625 26.318541
69.630 25.961576
69.635 26.238733
69.640 26.127388
69.645 25.956827
69.650 25.807665
69.655 25.899822
69.660 25.760252
69.665 25.971661
69.670 25.396294
69.675 25.86833
69.680 25.957415
69.685 25.931829
69.690 26.026379
69.695 26.11274
69.700 25.65991
69.705 25.401869
69.710 24.876707
69.715 25.22176
69.720 24.748585
69.725 24.338758
69.730 24.837008
69.735 24.786085
69.740 24.881788
69.745 24.905407
69.750 25.229195
69.755 25.397543
69.760 25.3808
69.765 24.986301
69.770 24.845125
69.775 24.821663
69.780 24.432119
69.785 23.7708
69.790 23.549479
69.795 22.688442
69.800 22.636147
69.805 22.645346
69.810 22.627827
69.815 23.004543
69.820 22.344437
69.825 22.152506
69.830 21.779543
69.835 21.498842
69.840 21.386728
69.845 21.200449
69.850 21.203697
69.855 20.865314
69.860 20.375242
69.865 20.423418
69.870 20.48357
69.875 20.404308
69.880 20.265753
69.885 20.165792
69.890 20.747501
69.895 20.689892
69.900 21.131039
69.905 21.911234
69.910 21.873663
69.915 21.079748
69.920 21.159338
69.925 21.207323
69.930 21.350105
69.935 21.593199
69.940 20.867334
69.945 21.39362
69.950 21.659229
69.955 21.222824
69.960 21.613068
69.965 21.655983
69.970 20.877354
69.975 21.045586
69.980 20.396029
69.985 20.560095
69.990 20.224005
69.995 19.284037
70.000 18.776703
70.005 18.796789
70.010 18.29283
70.015 18.523321
70.020 18.491196
70.025 18.886112
70.030 19.28591
70.035 19.553972
70.040 19.84053
70.045 19.903679
70.050 19.983175
70.055 19.775143
70.060 19.449316
70.065 18.88616
70.070 18.27758
70.075 18.480579
70.080 19.017231
70.085 18.858196
70.090 18.709856
70.095 19.253969
70.100 19.630144
70.105 19.846626
70.110 19.604427
70.115 18.745338
70.120 18.822075
70.125 18.70677
70.130 18.62318
70.135 18.587612
70.140 18.029989
70.145 17.9216
70.150 18.583479
70.155 18.312988
70.160 17.808636
70.165 17.551542
70.170 17.719452
70.175 18.300785
70.180 17.839159
70.185 17.624943
70.190 17.918499
70.195 18.131804
70.200 18.115063
70.205 18.523979
70.210 18.1644
70.215 18.465427
70.220 18.103506
70.225 18.200499
70.230 18.290234
70.235 18.752264
70.240 18.725105
70.245 19.029861
70.250 19.442022
70.255 19.748882
70.260 19.171282
70.265 19.349483
70.270 18.59416
70.275 17.904697
70.280 17.926994
70.285 17.477627
70.290 17.316957
70.295 17.645475
70.300 17.164284
70.305 17.765491
70.310 17.765966
70.315 17.366301
70.320 17.178509
70.325 17.665216
70.330 17.539063
70.335 17.811329
70.340 17.257164
70.345 16.665602
70.350 16.785204
70.355 16.964186
70.360 16.681387
70.365 16.786057
70.370 16.267918
70.375 16.817245
70.380 17.666519
70.385 17.897121
70.390 18.07395
70.395 17.963955
70.400 18.086966
70.405 18.335548
70.410 17.914518
70.415 17.660856
70.420 17.683521
70.425 17.456656
70.430 17.398781
70.435 17.600313
70.440 17.723263
70.445 17.797165
70.450 17.407207
70.455 17.293949
70.460 17.422569
70.465 17.982344
70.470 18.34738
70.475 18.653961
70.480 18.634836
70.485 18.989298
70.490 19.322659
70.495 19.578766
70.500 18.994062
70.505 18.635433
70.510 18.106976
70.515 18.163418
70.520 17.835012
70.525 17.476574
70.530 17.524471
70.535 17.426214
70.540 17.474276
70.545 17.749201
70.550 18.178469
70.555 18.497213
70.560 18.437761
70.565 18.246054
70.570 18.520866
70.575 18.130308
70.580 17.926594
70.585 17.145868
70.590 17.0758
70.595 16.847242
70.600 16.630787
70.605 16.846209
70.610 17.302626
70.615 18.068184
70.620 18.526672
70.625 18.309113
70.630 18.437574
70.635 18.330055
70.640 17.808695
70.645 17.323587
70.650 17.157318
70.655 17.192387
70.660 17.915543
70.665 17.782595
70.670 17.433855
70.675 17.672609
70.680 17.534245
70.685 17.02117
70.690 16.740929
70.695 15.92387
70.700 16.175793
70.705 16.484833
70.710 16.802622
70.715 16.749548
70.720 16.866489
70.725 17.23597
70.730 17.985001
70.735 17.605482
70.740 17.077572
70.745 16.52429
70.750 16.533161
70.755 16.633518
70.760 16.451221
70.765 16.402624
70.770 16.569571
70.775 16.867445
70.780 17.047857
70.785 16.615007
70.790 16.496744
70.795 16.58964
70.800 17.225338
70.805 17.386761
70.810 17.623743
70.815 18.163462
70.820 19.017666
70.825 19.230413
70.830 19.226435
70.835 18.930004
70.840 19.170261
70.845 19.568705
70.850 19.543978
70.855 19.253838
70.860 18.658148
70.865 18.338791
70.870 18.088257
70.875 17.742908
70.880 17.501532
70.885 17.808521
70.890 17.933538
70.895 18.250359
70.900 18.206562
70.905 17.792463
70.910 17.253595
70.915 16.797361
70.920 15.897226
70.925 15.390845
70.930 15.230891
70.935 15.377574
70.940 15.585113
70.945 16.209171
70.950 16.490465
70.955 16.73892
70.960 17.217894
70.965 17.116186
70.970 16.984291
70.975 17.118364
70.980 16.20252
70.985 16.069702
70.990 16.415916
70.995 16.352594
71.000 16.512815
71.005 16.205992
71.010 16.137451
71.015 16.739044
71.020 16.968048
71.025 16.615837
71.030 16.522907
71.035 16.523144
71.040 16.857517
71.045 17.111237
71.050 17.569475
71.055 17.822971
71.060 17.982737
71.065 17.945021
71.070 18.215723
71.075 18.034487
71.080 17.50271
71.085 17.068476
71.090 16.776855
71.095 16.500252
71.100 16.424454
71.105 16.260523
71.110 15.950078
71.115 15.790282
71.120 15.709755
71.125 15.044919
71.130 14.955544
71.135 14.878775
71.140 15.173758
71.145 15.597967
71.150 15.954434
71.155 16.007786
71.160 16.590635
71.165 16.619444
71.170 16.157848
71.175 15.584503
71.180 15.162903
71.185 15.11945
71.190 15.082002
71.195 14.746364
71.200 14.952174
71.205 15.442332
71.210 15.656251
71.215 15.095021
71.220 14.602992
71.225 13.986817
71.230 14.283669
71.235 14.642866
71.240 14.672027
71.245 14.989936
71.250 15.192323
71.255 15.516475
71.260 16.428692
71.265 17.173449
71.270 16.97504
71.275 16.782209
71.280 16.490677
71.285 16.466742
71.290 16.427486
71.295 16.044151
71.300 15.126781
71.305 14.672526
71.310 14.791
71.315 15.027127
71.320 15.525643
71.325 16.20303
71.330 16.399559
71.335 16.788851
71.340 17.411259
71.345 17.587559
71.350 17.58003
71.355 17.322803
71.360 16.785494
71.365 15.86856
71.370 15.392679
71.375 14.656649
71.380 14.756201
71.385 14.933557
71.390 14.568218
71.395 14.552033
71.400 14.960177
71.405 15.243885
71.410 15.618736
71.415 15.860667
71.420 16.090019
71.425 16.381432
71.430 16.727045
71.435 16.574512
71.440 16.626545
71.445 16.672285
71.450 17.119411
71.455 17.006491
71.460 16.85693
71.465 16.493452
71.470 16.392103
71.475 16.511852
71.480 16.125887
71.485 15.70509
71.490 15.778292
71.495 15.630857
71.500 16.326677
71.505 16.13093
71.510 15.788149
71.515 16.189516
71.520 15.949177
71.525 15.883829
71.530 16.142439
71.535 15.925184
71.540 16.644346
71.545 16.95232
71.550 17.136703
71.555 17.378529
71.560 18.023462
71.565 18.524153
71.570 19.58584
71.575 18.996241
71.580 18.53981
71.585 18.229443
71.590 17.913174
71.595 17.900787
71.600 17.422682
71.605 16.232185
71.610 16.314764
71.615 16.285309
71.620 15.982038
71.625 16.048191
71.630 16.600355
71.635 16.511759
71.640 16.876064
71.645 16.788086
71.650 16.818462
71.655 17.195217
71.660 17.111357
71.665 15.890307
71.670 15.95117
71.675 15.207978
71.680 14.929852
71.685 15.194099
71.690 14.883583
71.695 14.567313
71.700 14.788187
71.705 15.254792
71.710 16.366621
71.715 16.504324
71.720 16.779133
71.725 17.358322
71.730 17.311127
71.735 17.486551
71.740 17.725952
71.745 17.82725
71.750 17.82699
71.755 17.022236
71.760 17.058796
71.765 17.091787
71.770 16.740274
71.775 15.925295
71.780 16.111435
71.785 16.223825
71.790 16.038437
71.795 15.883293
71.800 15.759336
71.805 15.624199
71.810 15.586643
71.815 15.19139
71.820 15.154146
71.825 15.259413
71.830 14.803581
71.835 14.761424
71.840 15.453673
71.845 15.802454
71.850 16.123648
71.855 16.087421
71.860 16.223011
71.865 16.670774
71.870 16.755136
71.875 16.431293
71.880 15.418203
71.885 15.782679
71.890 15.763916
71.895 15.571635
71.900 15.310559
71.905 15.735834
71.910 16.1166
71.915 16.38184
71.920 16.310684
71.925 16.406145
71.930 16.549133
71.935 16.617775
71.940 16.192963
71.945 15.62968
71.950 14.929846
71.955 14.555991
71.960 14.325376
71.965 14.46312
71.970 14.434072
71.975 14.524978
71.980 15.492286
71.985 16.292347
71.990 16.211296
71.995 15.949116
72.000 15.628427
72.005 15.874098
72.010 16.235987
72.015 16.569046
72.020 16.684444
72.025 16.623363
72.030 16.86937
72.035 16.900229
72.040 16.875244
72.045 16.069712
72.050 15.436066
72.055 15.935658
72.060 16.329967
72.065 16.562765
72.070 16.482002
72.075 16.099689
72.080 16.493866
72.085 16.521233
72.090 16.328352
72.095 16.040998
72.100 15.767907
72.105 15.748432
72.110 15.768024
72.115 16.11034
72.120 15.82877
72.125 15.718684
72.130 16.385412
72.135 16.914911
72.140 16.927271
72.145 16.339149
72.150 15.874144
72.155 16.251926
72.160 16.305286
72.165 15.576781
72.170 15.557443
72.175 15.848736
72.180 16.055458
72.185 15.822822
72.190 15.668804
72.195 15.374644
72.200 15.425373
72.205 15.429994
72.210 15.538072
72.215 15.89991
72.220 16.380415
72.225 16.555693
72.230 16.449036
72.235 16.328856
72.240 15.76027
72.245 15.98985
72.250 16.212912
72.255 16.106541
72.260 16.440512
72.265 17.055424
72.270 17.542101
72.275 17.742228
72.280 17.609404
72.285 16.812122
72.290 16.08288
72.295 15.609061
72.300 14.957019
72.305 14.223397
72.310 13.987332
72.315 14.137714
72.320 14.666075
72.325 14.707791
72.330 14.840906
72.335 15.102913
72.340 15.934787
72.345 15.844686
72.350 15.925797
72.355 16.547188
72.360 17.388208
72.365 17.455608
72.370 17.367559
72.375 17.002045
72.380 17.55731
72.385 17.042727
72.390 16.237759
72.395 15.697239
72.400 15.609989
72.405 15.633862
72.410 15.638402
72.415 15.282393
72.420 15.360107
72.425 15.424146
72.430 15.518873
72.435 15.196398
72.440 15.011345
72.445 14.616381
72.450 14.730631
72.455 14.9513
72.460 15.053635
72.465 15.162782
72.470 15.579613
72.475 15.748199
72.480 15.87339
72.485 16.091801
72.490 16.327654
72.495 16.304384
72.500 16.204485
72.505 15.944732
72.510 15.760159
72.515 15.552271
72.520 15.403532
72.525 15.496457
72.530 15.622692
72.535 15.860374
72.540 16.14389
72.545 16.073473
72.550 15.963548
72.555 16.323866
72.560 16.404068
72.565 16.279402
72.570 16.495441
72.575 16.667898
72.580 17.028515
72.585 17.055719
72.590 16.73052
72.595 16.37715
72.600 16.405918
72.605 15.802662
72.610 15.825388
72.615 15.282651
72.620 15.262552
72.625 15.114044
72.630 15.089972
72.635 15.293383
72.640 15.813879
72.645 15.769475
72.650 15.979356
72.655 16.150223
72.660 16.57943
72.665 16.666389
72.670 16.1752
72.675 16.503651
72.680 16.997669
72.685 16.880085
72.690 16.167986
72.695 16.134947
72.700 15.846821
72.705 15.365087
72.710 14.839965
72.715 14.281404
72.720 14.400767
72.725 14.291592
72.730 13.920089
72.735 14.124602
72.740 14.287466
72.745 14.507874
72.750 14.690305
72.755 15.109387
72.760 16.047676
72.765 16.234312
72.770 16.466082
72.775 16.602089
72.780 16.548666
72.785 16.23781
72.790 16.019247
72.795 15.754623
72.800 15.727405
72.805 15.436846
72.810 15.184363
72.815 14.874568
72.820 15.231013
72.825 14.925893
72.830 14.494953
72.835 14.056664
72.840 14.121491
72.845 14.386656
72.850 14.926222
72.855 14.603039
72.860 14.736447
72.865 14.83663
72.870 15.794727
72.875 16.60132
72.880 16.476721
72.885 15.678387
72.890 15.466794
72.895 15.140159
72.900 15.277429
72.905 14.612541
72.910 14.084454
72.915 14.403429
72.920 15.215502
72.925 15.267608
72.930 15.090806
72.935 14.720245
72.940 14.758774
72.945 14.609073
72.950 14.693069
72.955 14.417816
72.960 13.87787
72.965 14.113498
72.970 14.307852
72.975 14.466941
72.980 14.464214
72.985 14.383307
72.990 14.732616
72.995 14.841958
73.000 14.720996
