!@!!GADDS PLOTSO FILE: Chi integration type
!@!!Title/SampleName: map-111
!@!!Comment: ?
!@!!User: Bruker Instrument Administrator
!@!!Site: University of Illinois Chicago
!@!!Frame: map-111_01_000.gfrm
!@!!Wavelengths    1.54184   1.54056   1.54439
!@!!Frame angles: 2Theta: 63.000 Omega: 50.000 Phi: 0.000 Chi: 90.000
!@!!Integration range: 2Theta: 53.000 to 73.000  Gamma: -105.000 to -75.000
!@!!Integration method: bin normalized
!@!N
!@!SS
!@!M
!@!L 0.0 0.0 0.0 0.0
!@!XDegrees
!@!YCounts
53.000 8.919485
53.005 8.382226
53.010 8.086291
53.015 7.683189
53.020 7.503525
53.025 7.460146
53.030 7.194242
53.035 7.048082
53.040 7.649609
53.045 8.219756
53.050 8.187058
53.055 8.027102
53.060 8.157973
53.065 8.095896
53.070 7.766361
53.075 7.455254
53.080 7.124016
53.085 7.162105
53.090 7.166113
53.095 7.135039
53.100 7.535437
53.105 8.013346
53.110 8.278886
53.115 8.555349
53.120 8.926616
53.125 8.790781
53.130 8.510347
53.135 8.214536
53.140 7.975405
53.145 8.025382
53.150 7.784819
53.155 7.571688
53.160 7.88452
53.165 8.214854
53.170 7.90717
53.175 7.777003
53.180 7.51217
53.185 7.442597
53.190 7.984423
53.195 8.052436
53.200 8.131629
53.205 8.362708
53.210 8.22254
53.215 8.335526
53.220 8.29955
53.225 7.904996
53.230 7.746859
53.235 7.221089
53.240 7.163852
53.245 7.619857
53.250 7.649688
53.255 7.633584
53.260 8.175435
53.265 8.854405
53.270 9.324668
53.275 9.30844
53.280 9.122507
53.285 8.987335
53.290 9.355355
53.295 8.889196
53.300 8.336795
53.305 8.304551
53.310 8.424339
53.315 8.603092
53.320 8.42703
53.325 7.71428
53.330 7.206355
53.335 7.573366
53.340 7.589311
53.345 7.296157
53.350 7.43513
53.355 7.854865
53.360 8.112154
53.365 8.224758
53.370 8.635911
53.375 8.705915
53.380 8.894154
53.385 8.725131
53.390 8.438548
53.395 8.569049
53.400 8.584532
53.405 8.224916
53.410 8.495895
53.415 8.548642
53.420 8.352958
53.425 8.474857
53.430 8.478437
53.435 8.562807
53.440 8.643819
53.445 8.539243
53.450 8.734794
53.455 8.78375
53.460 9.098251
53.465 9.320683
53.470 9.001565
53.475 8.690195
53.480 8.547967
53.485 8.407984
53.490 8.18371
53.495 7.941209
53.500 7.999111
53.505 8.265002
53.510 8.274107
53.515 8.628904
53.520 8.863452
53.525 8.969873
53.530 9.203934
53.535 8.998505
53.540 9.09522
53.545 8.778695
53.550 8.377592
53.555 8.322805
53.560 8.537359
53.565 8.360412
53.570 8.40883
53.575 8.511186
53.580 9.038104
53.585 8.885966
53.590 8.867867
53.595 8.504701
53.600 8.607973
53.605 8.923902
53.610 8.825671
53.615 8.574539
53.620 8.828923
53.625 8.943048
53.630 8.797108
53.635 8.852188
53.640 8.615801
53.645 8.690886
53.650 9.104114
53.655 9.555653
53.660 10.194789
53.665 10.083385
53.670 9.817419
53.675 9.586124
53.680 9.592484
53.685 9.552235
53.690 9.05806
53.695 8.495843
53.700 8.755359
53.705 9.001929
53.710 9.136349
53.715 9.206718
53.720 9.017145
53.725 9.10737
53.730 9.408004
53.735 9.10666
53.740 9.001892
53.745 9.253845
53.750 9.241494
53.755 9.196241
53.760 9.194429
53.765 9.239988
53.770 9.37968
53.775 9.724641
53.780 9.285017
53.785 9.097001
53.790 9.418337
53.795 9.238769
53.800 8.99852
53.805 8.852678
53.810 8.567412
53.815 9.152296
53.820 9.326578
53.825 8.4837
53.830 8.279708
53.835 8.668478
53.840 8.880347
53.845 8.869223
53.850 8.608702
53.855 8.987213
53.860 9.796733
53.865 9.994944
53.870 9.810393
53.875 9.382845
53.880 9.162631
53.885 9.163693
53.890 9.234483
53.895 9.675089
53.900 9.78634
53.905 10.375503
53.910 11.055157
53.915 11.130978
53.920 11.069268
53.925 10.225472
53.930 9.743602
53.935 9.292977
53.940 9.01771
53.945 8.931849
53.950 9.012033
53.955 8.734857
53.960 8.683946
53.965 9.011514
53.970 9.502899
53.975 9.652013
53.980 9.650809
53.985 9.16189
53.990 9.421855
53.995 9.391649
54.000 8.820531
54.005 8.432375
54.010 8.153789
54.015 7.797746
54.020 7.749525
54.025 7.925505
54.030 8.261368
54.035 8.265397
54.040 8.348527
54.045 8.064351
54.050 8.816147
54.055 8.86902
54.060 8.784616
54.065 8.783277
54.070 8.496124
54.075 8.683842
54.080 8.89418
54.085 8.689628
54.090 8.656311
54.095 8.494691
54.100 8.645327
54.105 9.504355
54.110 9.554002
54.115 9.457645
54.120 9.251409
54.125 9.741349
54.130 9.733438
54.135 9.507522
54.140 9.120857
54.145 8.899269
54.150 8.994646
54.155 9.07248
54.160 8.900397
54.165 9.099874
54.170 9.29065
54.175 9.579897
54.180 9.648412
54.185 9.894339
54.190 9.879483
54.195 9.965896
54.200 10.196183
54.205 10.07497
54.210 10.098903
54.215 10.264538
54.220 10.272753
54.225 10.177117
54.230 9.932976
54.235 9.448028
54.240 9.044921
54.245 9.233027
54.250 9.133183
54.255 9.302333
54.260 9.286298
54.265 9.281577
54.270 9.80461
54.275 9.676866
54.280 9.558382
54.285 9.699407
54.290 9.655385
54.295 9.939281
54.300 10.644569
54.305 11.103416
54.310 11.20841
54.315 11.039386
54.320 10.86152
54.325 10.745072
54.330 10.595919
54.335 10.142626
54.340 9.92531
54.345 9.528062
54.350 9.180699
54.355 8.965838
54.360 8.884888
54.365 8.659095
54.370 8.284983
54.375 8.186543
54.380 8.49327
54.385 8.73652
54.390 8.973384
54.395 9.190394
54.400 9.262548
54.405 9.040133
54.410 9.125399
54.415 9.34026
54.420 9.38801
54.425 9.474561
54.430 9.434547
54.435 9.49002
54.440 10.033538
54.445 9.736972
54.450 9.470005
54.455 9.295004
54.460 9.234381
54.465 9.483097
54.470 9.365778
54.475 8.664937
54.480 8.85693
54.485 9.480239
54.490 9.400573
54.495 9.348609
54.500 8.965687
54.505 8.946846
54.510 9.423664
54.515 9.276608
54.520 9.416041
54.525 9.753272
54.530 9.678464
54.535 10.199966
54.540 10.338413
54.545 9.80468
54.550 9.51068
54.555 9.027126
54.560 8.888819
54.565 8.859071
54.570 8.6361
54.575 8.56059
54.580 8.563489
54.585 8.714371
54.590 8.924618
54.595 9.028126
54.600 9.017311
54.605 8.914322
54.610 9.080434
54.615 9.139898
54.620 9.153167
54.625 8.923818
54.630 8.791563
54.635 8.9201
54.640 9.258794
54.645 9.411567
54.650 9.445865
54.655 9.78022
54.660 9.749447
54.665 9.86962
54.670 9.819606
54.675 9.121617
54.680 8.673768
54.685 8.20305
54.690 7.689713
54.695 7.822512
54.700 7.936041
54.705 7.866858
54.710 8.198362
54.715 8.728209
54.720 9.234233
54.725 9.402665
54.730 9.253232
54.735 9.30899
54.740 9.865163
54.745 9.872032
54.750 9.68222
54.755 9.670462
54.760 10.139726
54.765 10.662064
54.770 10.799628
54.775 10.720195
54.780 10.792664
54.785 10.79331
54.790 10.672623
54.795 10.860269
54.800 10.563622
54.805 10.185263
54.810 10.516494
54.815 10.200312
54.820 10.627228
54.825 10.733117
54.830 10.348446
54.835 10.351282
54.840 10.615973
54.845 10.466331
54.850 10.736304
54.855 10.694733
54.860 10.94422
54.865 10.830629
54.870 10.674349
54.875 10.733368
54.880 10.704355
54.885 10.542172
54.890 10.141508
54.895 10.278513
54.900 10.65694
54.905 10.35724
54.910 9.968678
54.915 10.053743
54.920 10.468885
54.925 10.297528
54.930 9.422677
54.935 9.036083
54.940 9.210598
54.945 9.618747
54.950 9.647858
54.955 9.262739
54.960 9.234059
54.965 9.490706
54.970 9.886802
54.975 10.197811
54.980 9.896102
54.985 9.342428
54.990 9.679248
54.995 10.219652
55.000 10.451119
55.005 10.293597
55.010 10.090776
55.015 10.194567
55.020 10.815825
55.025 10.730646
55.030 10.495127
55.035 10.245673
55.040 10.119588
55.045 9.979989
55.050 9.822328
55.055 9.532092
55.060 9.440889
55.065 9.250556
55.070 9.135894
55.075 9.232613
55.080 9.442759
55.085 9.694588
55.090 9.66538
55.095 9.501312
55.100 9.357632
55.105 10.106339
55.110 10.247787
55.115 10.426332
55.120 10.630039
55.125 11.084068
55.130 11.734245
55.135 11.862822
55.140 11.43364
55.145 11.595092
55.150 11.971726
55.155 12.013345
55.160 11.683435
55.165 10.93556
55.170 10.970243
55.175 10.32492
55.180 9.80607
55.185 9.136725
55.190 8.543929
55.195 8.65718
55.200 8.390892
55.205 8.409527
55.210 8.9096
55.215 9.327327
55.220 9.655463
55.225 9.70856
55.230 9.687304
55.235 10.262246
55.240 10.554038
55.245 10.586226
55.250 10.506342
55.255 10.190267
55.260 10.056404
55.265 10.293301
55.270 9.941773
55.275 9.55825
55.280 9.521004
55.285 9.475097
55.290 9.84521
55.295 9.997928
55.300 10.04803
55.305 9.704696
55.310 9.747592
55.315 9.840444
55.320 10.102565
55.325 10.071771
55.330 10.413263
55.335 10.493929
55.340 11.194848
55.345 11.184152
55.350 10.786582
55.355 10.697186
55.360 10.565167
55.365 10.396856
55.370 10.194837
55.375 9.674382
55.380 9.990637
55.385 10.378587
55.390 10.477162
55.395 10.663436
55.400 10.588655
55.405 10.663856
55.410 10.673191
55.415 10.396349
55.420 10.14874
55.425 10.173831
55.430 9.886606
55.435 10.171082
55.440 10.495208
55.445 10.526972
55.450 10.621222
55.455 10.363106
55.460 10.01872
55.465 10.536765
55.470 10.215156
55.475 9.917465
55.480 9.917348
55.485 10.057945
55.490 10.599542
55.495 10.893397
55.500 10.695636
55.505 11.085674
55.510 10.739868
55.515 10.413343
55.520 10.094916
55.525 9.778962
55.530 9.452601
55.535 9.195475
55.540 9.203825
55.545 9.668837
55.550 9.869164
55.555 10.154619
55.560 9.890375
55.565 9.634592
55.570 9.451754
55.575 9.360335
55.580 9.847665
55.585 10.184853
55.590 9.969292
55.595 10.037475
55.600 10.336514
55.605 10.533922
55.610 10.46674
55.615 10.400084
55.620 10.802619
55.625 11.207427
55.630 11.267832
55.635 11.395968
55.640 11.051583
55.645 10.222709
55.650 9.290591
55.655 8.69366
55.660 8.998374
55.665 9.176373
55.670 9.275279
55.675 9.747136
55.680 10.287252
55.685 10.577565
55.690 10.547986
55.695 10.330663
55.700 10.637927
55.705 10.505492
55.710 10.354361
55.715 10.593389
55.720 11.304953
55.725 11.101503
55.730 11.011713
55.735 10.672114
55.740 10.987339
55.745 11.007221
55.750 11.084441
55.755 10.562878
55.760 10.597631
55.765 10.482897
55.770 9.812436
55.775 9.867179
55.780 10.304903
55.785 10.304681
55.790 10.355913
55.795 10.246862
55.800 10.609487
55.805 11.433523
55.810 11.10749
55.815 10.450309
55.820 10.077677
55.825 10.232873
55.830 10.380073
55.835 10.724601
55.840 10.542538
55.845 10.616338
55.850 10.670321
55.855 10.894808
55.860 10.754513
55.865 10.47611
55.870 10.011763
55.875 9.705598
55.880 9.562282
55.885 9.744167
55.890 10.010348
55.895 10.223592
55.900 10.589656
55.905 11.072282
55.910 11.672236
55.915 11.840672
55.920 11.818155
55.925 11.679829
55.930 11.85281
55.935 11.736239
55.940 11.085899
55.945 11.319654
55.950 12.069434
55.955 12.012779
55.960 11.88443
55.965 12.010982
55.970 12.648629
55.975 12.660455
55.980 12.539945
55.985 12.579623
55.990 12.436332
55.995 12.578913
56.000 12.318447
56.005 12.140167
56.010 12.326689
56.015 11.874462
56.020 11.28758
56.025 11.279388
56.030 11.393492
56.035 11.14035
56.040 10.90975
56.045 10.539917
56.050 10.620314
56.055 10.734905
56.060 10.713485
56.065 10.440079
56.070 10.567578
56.075 10.966276
56.080 11.086237
56.085 10.861332
56.090 10.883585
56.095 10.499715
56.100 10.620502
56.105 10.507099
56.110 10.351754
56.115 10.450459
56.120 10.250764
56.125 10.37342
56.130 10.469662
56.135 10.27933
56.140 9.78511
56.145 9.603852
56.150 9.827938
56.155 10.487309
56.160 11.125562
56.165 11.703852
56.170 12.349783
56.175 12.917108
56.180 13.419303
56.185 13.522577
56.190 13.395843
56.195 12.930412
56.200 12.826064
56.205 12.899047
56.210 12.626788
56.215 12.436779
56.220 11.991577
56.225 11.697458
56.230 11.675261
56.235 11.648787
56.240 11.648031
56.245 11.88326
56.250 11.761349
56.255 11.349524
56.260 11.455977
56.265 11.219852
56.270 10.796
56.275 10.405861
56.280 10.023315
56.285 9.946495
56.290 10.277395
56.295 10.21699
56.300 10.257453
56.305 10.622156
56.310 10.839014
56.315 11.189103
56.320 11.532072
56.325 11.816378
56.330 12.28871
56.335 12.345781
56.340 12.26667
56.345 12.106437
56.350 11.644405
56.355 12.102818
56.360 11.809626
56.365 11.401722
56.370 11.17092
56.375 11.202979
56.380 11.183855
56.385 11.177842
56.390 10.673758
56.395 10.678825
56.400 10.720669
56.405 10.494902
56.410 10.371928
56.415 10.613676
56.420 10.533075
56.425 10.716031
56.430 10.663218
56.435 10.560413
56.440 11.26947
56.445 11.254338
56.450 11.016379
56.455 10.820267
56.460 10.791576
56.465 10.864212
56.470 10.954965
56.475 10.529222
56.480 10.573208
56.485 10.624708
56.490 11.046298
56.495 11.385664
56.500 11.172817
56.505 11.347955
56.510 11.727417
56.515 12.103885
56.520 12.53643
56.525 12.501179
56.530 11.994155
56.535 11.872274
56.540 11.948659
56.545 12.070318
56.550 12.183636
56.555 12.447806
56.560 12.617082
56.565 13.239195
56.570 13.832082
56.575 14.119957
56.580 14.061318
56.585 13.564939
56.590 13.07231
56.595 12.742153
56.600 12.226351
56.605 11.304019
56.610 10.421042
56.615 10.115328
56.620 10.56321
56.625 10.81774
56.630 11.016582
56.635 11.509124
56.640 12.079486
56.645 11.890644
56.650 11.564797
56.655 11.247239
56.660 10.96209
56.665 10.706866
56.670 10.588305
56.675 10.699825
56.680 10.872363
56.685 10.846772
56.690 10.892044
56.695 10.793422
56.700 10.514212
56.705 10.531545
56.710 10.565216
56.715 11.105716
56.720 11.497151
56.725 11.813887
56.730 12.815578
56.735 13.343304
56.740 13.17532
56.745 13.485335
56.750 13.324613
56.755 13.129094
56.760 13.159808
56.765 12.685583
56.770 12.132921
56.775 12.337998
56.780 11.953166
56.785 11.730374
56.790 11.675482
56.795 11.509792
56.800 11.785625
56.805 12.043886
56.810 11.522736
56.815 11.330868
56.820 11.479966
56.825 11.325312
56.830 11.183158
56.835 11.237259
56.840 11.36429
56.845 11.350393
56.850 11.497497
56.855 11.388408
56.860 11.391948
56.865 11.980628
56.870 11.984062
56.875 11.864733
56.880 12.244103
56.885 12.29364
56.890 12.424864
56.895 12.479137
56.900 11.851265
56.905 11.526409
56.910 11.317499
56.915 11.180362
56.920 11.183176
56.925 11.277177
56.930 11.320285
56.935 11.568194
56.940 12.09101
56.945 12.565716
56.950 12.676228
56.955 12.703331
56.960 12.488184
56.965 12.27606
56.970 11.911605
56.975 11.937576
56.980 11.684503
56.985 11.178445
56.990 11.28063
56.995 11.605742
57.000 11.64087
57.005 11.084064
57.010 10.731422
57.015 11.414157
57.020 11.664188
57.025 11.664337
57.030 11.361865
57.035 11.450968
57.040 12.327408
57.045 12.486482
57.050 12.1106
57.055 12.498734
57.060 12.336069
57.065 12.36517
57.070 12.319242
57.075 11.93415
57.080 12.220334
57.085 11.971389
57.090 11.635331
57.095 12.082891
57.100 12.057971
57.105 12.543468
57.110 13.200771
57.115 13.127804
57.120 13.15973
57.125 12.656927
57.130 12.487681
57.135 12.139703
57.140 11.350274
57.145 10.991846
57.150 11.167719
57.155 11.431483
57.160 11.788003
57.165 11.529197
57.170 11.865101
57.175 12.120627
57.180 11.607109
57.185 11.101329
57.190 11.714243
57.195 12.258794
57.200 13.068834
57.205 13.301376
57.210 13.834168
57.215 14.571016
57.220 14.46134
57.225 13.63287
57.230 13.289033
57.235 13.382159
57.240 13.535
57.245 13.107931
57.250 12.757986
57.255 14.022817
57.260 14.719763
57.265 14.490046
57.270 14.272342
57.275 14.148162
57.280 14.267776
57.285 14.510886
57.290 13.575322
57.295 13.319115
57.300 13.691308
57.305 13.701447
57.310 13.418531
57.315 13.706133
57.320 13.701925
57.325 13.647789
57.330 13.847795
57.335 13.712351
57.340 13.797461
57.345 14.027801
57.350 13.53665
57.355 13.358261
57.360 13.379668
57.365 13.511882
57.370 13.090466
57.375 12.587539
57.380 12.616796
57.385 12.703317
57.390 12.722652
57.395 12.489167
57.400 12.251671
57.405 12.433946
57.410 12.499929
57.415 12.191267
57.420 11.834704
57.425 11.479278
57.430 11.161477
57.435 11.100495
57.440 11.545156
57.445 11.784657
57.450 12.186308
57.455 12.496291
57.460 13.044387
57.465 13.707309
57.470 13.513772
57.475 13.105454
57.480 13.106896
57.485 12.842564
57.490 13.304471
57.495 13.110731
57.500 12.557186
57.505 12.472075
57.510 13.044316
57.515 13.032762
57.520 12.898138
57.525 12.216967
57.530 12.129382
57.535 12.210917
57.540 12.019866
57.545 11.965889
57.550 12.242481
57.555 11.914751
57.560 12.162772
57.565 12.339455
57.570 12.684294
57.575 12.499619
57.580 11.952125
57.585 11.572248
57.590 12.058147
57.595 12.117697
57.600 12.213962
57.605 12.197047
57.610 12.684597
57.615 12.806531
57.620 12.994484
57.625 12.73431
57.630 12.775867
57.635 12.379582
57.640 12.397581
57.645 12.198283
57.650 12.409213
57.655 12.434726
57.660 12.390393
57.665 12.2162
57.670 12.19639
57.675 11.970325
57.680 11.986737
57.685 11.623796
57.690 11.743061
57.695 11.983935
57.700 11.848041
57.705 11.997412
57.710 12.260564
57.715 12.367891
57.720 13.006111
57.725 13.427753
57.730 13.871979
57.735 14.114926
57.740 14.510656
57.745 14.408628
57.750 14.215548
57.755 13.782848
57.760 13.324505
57.765 12.908518
57.770 12.656365
57.775 12.332096
57.780 12.393153
57.785 12.527864
57.790 12.244189
57.795 11.94389
57.800 11.539685
57.805 11.910248
57.810 11.755859
57.815 11.61394
57.820 11.659293
57.825 12.09177
57.830 12.566424
57.835 13.033191
57.840 13.167798
57.845 13.631963
57.850 13.787588
57.855 13.971866
57.860 14.217821
57.865 14.451782
57.870 14.828101
57.875 14.234015
57.880 13.690401
57.885 13.657292
57.890 13.237789
57.895 12.763661
57.900 12.61492
57.905 12.477228
57.910 12.824921
57.915 13.166627
57.920 12.964564
57.925 12.612904
57.930 12.661907
57.935 12.427042
57.940 12.47815
57.945 12.301255
57.950 12.307742
57.955 12.290865
57.960 12.854982
57.965 13.044775
57.970 13.409693
57.975 13.457739
57.980 13.046396
57.985 12.653584
57.990 12.650841
57.995 12.631612
58.000 12.36145
58.005 11.854625
58.010 11.713683
58.015 12.142659
58.020 12.367896
58.025 12.775479
58.030 13.177554
58.035 13.429129
58.040 13.94396
58.045 14.185339
58.050 14.290845
58.055 14.477082
58.060 14.205824
58.065 13.890132
58.070 13.91961
58.075 13.919938
58.080 13.64395
58.085 13.56531
58.090 13.611213
58.095 13.356909
58.100 13.094148
58.105 13.079602
58.110 12.96112
58.115 13.016304
58.120 12.930517
58.125 12.701573
58.130 13.062325
58.135 13.724822
58.140 13.918887
58.145 13.606511
58.150 13.515808
58.155 14.053826
58.160 13.592127
58.165 12.833807
58.170 12.28631
58.175 11.896505
58.180 12.148743
58.185 12.428867
58.190 11.829755
58.195 11.864241
58.200 12.005464
58.205 12.198962
58.210 12.716548
58.215 13.178309
58.220 13.196406
58.225 13.979378
58.230 14.534579
58.235 14.734226
58.240 14.723212
58.245 14.496346
58.250 13.928968
58.255 13.566792
58.260 12.887234
58.265 12.764755
58.270 12.62113
58.275 12.41424
58.280 12.434773
58.285 12.741348
58.290 12.98347
58.295 13.536095
58.300 13.928034
58.305 14.352508
58.310 14.602802
58.315 14.799419
58.320 14.752678
58.325 14.785792
58.330 15.247673
58.335 15.312352
58.340 14.71363
58.345 14.222957
58.350 13.641039
58.355 14.002037
58.360 13.527461
58.365 13.060668
58.370 12.840556
58.375 13.410764
58.380 13.23727
58.385 13.351225
58.390 13.023833
58.395 13.43
58.400 13.738787
58.405 13.397431
58.410 13.293013
58.415 13.707511
58.420 13.468607
58.425 14.031117
58.430 13.77713
58.435 13.553749
58.440 13.984005
58.445 14.025759
58.450 14.444584
58.455 14.56448
58.460 14.385142
58.465 14.55767
58.470 14.418664
58.475 14.107655
58.480 14.343603
58.485 14.138856
58.490 14.177129
58.495 14.57558
58.500 14.554093
58.505 14.815911
58.510 14.863187
58.515 14.634297
58.520 14.781201
58.525 15.047574
58.530 14.770373
58.535 14.610247
58.540 14.711625
58.545 14.881713
58.550 14.750916
58.555 14.531468
58.560 14.350008
58.565 14.130982
58.570 14.142433
58.575 14.081786
58.580 14.45918
58.585 14.127342
58.590 14.577032
58.595 15.066297
58.600 15.473379
58.605 16.039038
58.610 15.88814
58.615 15.240584
58.620 15.001175
58.625 14.782214
58.630 14.546977
58.635 14.358024
58.640 13.996198
58.645 13.97256
58.650 14.229637
58.655 14.7963
58.660 14.898999
58.665 14.725609
58.670 14.944282
58.675 14.983694
58.680 14.853158
58.685 14.741047
58.690 14.382792
58.695 14.491489
58.700 14.262818
58.705 13.890445
58.710 14.186321
58.715 14.805602
58.720 15.179228
58.725 15.413939
58.730 15.199092
58.735 15.460554
58.740 15.601025
58.745 15.419422
58.750 15.203874
58.755 15.099036
58.760 15.582846
58.765 15.987114
58.770 15.515699
58.775 15.253559
58.780 15.177052
58.785 15.379221
58.790 15.114347
58.795 14.170755
58.800 13.115215
58.805 13.187793
58.810 13.102085
58.815 12.679062
58.820 12.343695
58.825 12.603625
58.830 12.751784
58.835 13.361309
58.840 13.702061
58.845 13.913636
58.850 14.459254
58.855 14.806384
58.860 14.713051
58.865 14.579848
58.870 14.732187
58.875 14.683207
58.880 14.210709
58.885 14.17895
58.890 14.441095
58.895 14.625445
58.900 15.671846
58.905 15.924716
58.910 15.895487
58.915 16.103006
58.920 15.660038
58.925 15.342057
58.930 15.087145
58.935 14.463835
58.940 14.079822
58.945 14.165219
58.950 14.295068
58.955 14.276284
58.960 14.015771
58.965 14.125581
58.970 13.693609
58.975 13.586292
58.980 13.684055
58.985 13.809122
58.990 13.938087
58.995 14.064476
59.000 13.978786
59.005 14.225277
59.010 14.46524
59.015 14.345475
59.020 14.147178
59.025 13.929335
59.030 13.698839
59.035 14.120691
59.040 14.317502
59.045 14.397439
59.050 14.433915
59.055 14.887482
59.060 15.144614
59.065 15.43033
59.070 15.536234
59.075 15.826951
59.080 16.422342
59.085 16.7722
59.090 16.760427
59.095 16.89967
59.100 16.789063
59.105 16.372345
59.110 15.460712
59.115 15.458695
59.120 15.182052
59.125 14.786465
59.130 14.979675
59.135 14.967482
59.140 14.70849
59.145 15.205907
59.150 14.105903
59.155 14.518456
59.160 14.468987
59.165 14.387668
59.170 14.727541
59.175 15.265363
59.180 15.503866
59.185 16.066963
59.190 16.041842
59.195 16.292963
59.200 16.288561
59.205 15.996428
59.210 15.694367
59.215 15.418649
59.220 15.131364
59.225 15.552571
59.230 15.572909
59.235 14.950738
59.240 14.588269
59.245 14.63332
59.250 14.610673
59.255 14.754357
59.260 14.039964
59.265 13.993156
59.270 14.459217
59.275 14.927598
59.280 14.941692
59.285 14.864248
59.290 14.955446
59.295 15.21524
59.300 15.483627
59.305 15.869913
59.310 16.00581
59.315 16.38752
59.320 16.437229
59.325 16.220079
59.330 16.391706
59.335 16.919445
59.340 16.818903
59.345 17.081841
59.350 16.931574
59.355 17.170448
59.360 17.181223
59.365 16.866566
59.370 16.118448
59.375 16.46946
59.380 15.939114
59.385 15.903803
59.390 16.78401
59.395 16.728514
59.400 16.58062
59.405 16.49511
59.410 15.632607
59.415 15.583131
59.420 15.439914
59.425 14.856097
59.430 15.349541
59.435 15.177364
59.440 15.423269
59.445 15.662291
59.450 15.308472
59.455 15.580163
59.460 15.69887
59.465 15.963396
59.470 16.315001
59.475 16.401567
59.480 16.460234
59.485 17.302408
59.490 17.593031
59.495 16.786898
59.500 16.651869
59.505 16.864721
59.510 17.03013
59.515 17.871387
59.520 17.164581
59.525 16.550219
59.530 16.400343
59.535 15.986485
59.540 16.111656
59.545 16.099501
59.550 16.072233
59.555 16.52795
59.560 16.674715
59.565 17.233797
59.570 17.598845
59.575 17.652811
59.580 17.426661
59.585 17.243807
59.590 16.743389
59.595 16.464811
59.600 16.37867
59.605 15.889019
59.610 15.389473
59.615 15.546534
59.620 15.353295
59.625 15.84317
59.630 16.231133
59.635 16.063551
59.640 16.454441
59.645 16.314163
59.650 16.297169
59.655 16.087631
59.660 15.993348
59.665 16.165897
59.670 16.519142
59.675 16.453783
59.680 16.628304
59.685 16.691216
59.690 17.62635
59.695 17.708359
59.700 16.969439
59.705 16.92234
59.710 17.175549
59.715 17.495022
59.720 17.749586
59.725 17.386196
59.730 17.998953
59.735 19.151377
59.740 19.194393
59.745 19.158041
59.750 19.649054
59.755 20.194901
59.760 19.771093
59.765 19.152111
59.770 19.355
59.775 19.865427
59.780 19.527197
59.785 18.76783
59.790 18.872765
59.795 19.328844
59.800 19.724012
59.805 18.947218
59.810 18.963781
59.815 19.679729
59.820 19.558443
59.825 18.644218
59.830 18.554083
59.835 18.557461
59.840 18.789743
59.845 18.432144
59.850 17.818523
59.855 18.057337
59.860 18.322704
59.865 18.545626
59.870 18.384329
59.875 18.707722
59.880 18.998159
59.885 19.134521
59.890 19.43107
59.895 19.065163
59.900 18.288998
59.905 18.049736
59.910 17.987461
59.915 17.638945
59.920 17.338144
59.925 17.338795
59.930 17.84514
59.935 18.375164
59.940 18.498079
59.945 18.044548
59.950 18.448223
59.955 19.015158
59.960 18.970341
59.965 18.870899
59.970 18.725601
59.975 18.352596
59.980 19.006535
59.985 19.398832
59.990 19.563271
59.995 19.490194
60.000 19.395967
60.005 19.865643
60.010 19.80294
60.015 19.683384
60.020 19.373312
60.025 19.30644
60.030 19.277369
60.035 19.407936
60.040 19.534628
60.045 19.828899
60.050 19.421906
60.055 19.413303
60.060 19.182102
60.065 18.779547
60.070 18.331024
60.075 18.335138
60.080 18.379448
60.085 18.566835
60.090 18.710133
60.095 18.815552
60.100 19.190954
60.105 19.206242
60.110 19.024113
60.115 19.392981
60.120 19.499231
60.125 19.22859
60.130 18.756529
60.135 19.005867
60.140 19.668411
60.145 19.590925
60.150 18.961382
60.155 18.27442
60.160 18.034018
60.165 18.799232
60.170 18.942226
60.175 18.292904
60.180 17.892208
60.185 17.648613
60.190 17.693401
60.195 17.797915
60.200 18.031656
60.205 18.265644
60.210 19.027943
60.215 19.797461
60.220 19.605444
60.225 19.42897
60.230 19.12376
60.235 17.874525
60.240 17.413599
60.245 17.162573
60.250 16.694036
60.255 17.037031
60.260 17.28274
60.265 17.401522
60.270 17.599531
60.275 17.42815
60.280 17.234554
60.285 17.352654
60.290 17.530443
60.295 17.345425
60.300 17.548182
60.305 17.703449
60.310 17.700941
60.315 18.186613
60.320 18.264038
60.325 18.285809
60.330 18.493683
60.335 18.367025
60.340 17.93602
60.345 17.386736
60.350 17.152786
60.355 17.110403
60.360 17.556824
60.365 17.418404
60.370 17.012524
60.375 17.150118
60.380 17.229317
60.385 17.109184
60.390 16.759516
60.395 16.489792
60.400 16.179897
60.405 16.462831
60.410 16.429106
60.415 15.883532
60.420 15.912884
60.425 16.313242
60.430 16.140182
60.435 16.241354
60.440 16.272833
60.445 16.1399
60.450 16.589039
60.455 16.8629
60.460 16.660284
60.465 16.573942
60.470 16.475174
60.475 16.181837
60.480 16.486288
60.485 16.546896
60.490 16.011019
60.495 16.186081
60.500 16.055696
60.505 16.288771
60.510 16.840546
60.515 16.495846
60.520 16.101847
60.525 15.969321
60.530 15.903135
60.535 16.604198
60.540 17.01527
60.545 17.118902
60.550 17.594625
60.555 18.072981
60.560 18.521276
60.565 18.686003
60.570 18.426933
60.575 17.837088
60.580 17.53363
60.585 17.375704
60.590 17.281609
60.595 16.785679
60.600 16.114397
60.605 15.718628
60.610 15.86757
60.615 15.542215
60.620 15.281085
60.625 14.894655
60.630 14.842931
60.635 15.019655
60.640 15.249368
60.645 15.696075
60.650 16.126207
60.655 16.097708
60.660 16.218872
60.665 16.141218
60.670 16.557854
60.675 16.582804
60.680 16.542377
60.685 16.386204
60.690 16.576315
60.695 17.108839
60.700 16.962364
60.705 16.961134
60.710 17.083202
60.715 16.747776
60.720 16.860998
60.725 16.560276
60.730 16.53915
60.735 16.741941
60.740 16.172981
60.745 15.336244
60.750 14.851702
60.755 14.75129
60.760 14.98137
60.765 14.648151
60.770 15.034559
60.775 15.302498
60.780 15.393248
60.785 15.865646
60.790 15.414729
60.795 15.570058
60.800 15.415685
60.805 15.259593
60.810 15.482448
60.815 16.189964
60.820 16.80735
60.825 17.29446
60.830 16.8244
60.835 16.650726
60.840 16.189421
60.845 15.549435
60.850 14.686934
60.855 13.725654
60.860 13.438489
60.865 13.532055
60.870 13.693132
60.875 13.943824
60.880 14.088644
60.885 14.257058
60.890 14.084908
60.895 14.441665
60.900 14.655233
60.905 14.394934
60.910 14.137701
60.915 14.337589
60.920 14.774121
60.925 15.0022
60.930 14.52167
60.935 14.424174
60.940 14.860475
60.945 14.787572
60.950 14.506135
60.955 14.357378
60.960 14.400876
60.965 14.450072
60.970 14.442664
60.975 14.644515
60.980 15.201302
60.985 15.151198
60.990 15.163854
60.995 14.923033
61.000 15.007025
61.005 14.902431
61.010 14.532599
61.015 13.950336
61.020 14.175397
61.025 13.8162
61.030 14.159582
61.035 14.34871
61.040 15.058088
61.045 15.456308
61.050 15.662077
61.055 15.480291
61.060 15.405359
61.065 15.52441
61.070 15.337478
61.075 14.618827
61.080 14.777313
61.085 15.159565
61.090 15.427382
61.095 15.950997
61.100 15.934269
61.105 15.667767
61.110 15.384745
61.115 15.262432
61.120 15.055888
61.125 14.897263
61.130 14.910754
61.135 14.623611
61.140 14.894995
61.145 15.19173
61.150 14.823102
61.155 14.432695
61.160 14.715098
61.165 14.452872
61.170 15.050043
61.175 15.238312
61.180 14.754399
61.185 14.777037
61.190 15.217999
61.195 15.599374
61.200 15.868121
61.205 15.540139
61.210 15.633219
61.215 15.97081
61.220 15.993041
61.225 16.038321
61.230 15.894474
61.235 15.488932
61.240 15.547682
61.245 15.364155
61.250 15.234974
61.255 15.189837
61.260 15.004849
61.265 14.457203
61.270 14.200924
61.275 13.895833
61.280 14.385188
61.285 14.898879
61.290 15.055377
61.295 14.782544
61.300 14.883043
61.305 15.349201
61.310 15.79139
61.315 15.323276
61.320 14.77982
61.325 14.749361
61.330 14.967477
61.335 15.014596
61.340 14.862652
61.345 14.514533
61.350 14.536052
61.355 15.031754
61.360 15.229795
61.365 15.051597
61.370 15.074254
61.375 15.044272
61.380 14.230383
61.385 14.208998
61.390 13.607202
61.395 13.292371
61.400 13.698004
61.405 14.086362
61.410 14.369723
61.415 14.90649
61.420 14.736822
61.425 15.103468
61.430 15.025932
61.435 14.368464
61.440 13.775536
61.445 14.068488
61.450 14.756815
61.455 15.633585
61.460 15.932269
61.465 16.37336
61.470 16.790377
61.475 17.103884
61.480 16.789202
61.485 16.389505
61.490 15.691367
61.495 15.266699
61.500 15.523812
61.505 15.532967
61.510 15.290812
61.515 15.262798
61.520 15.086769
61.525 15.684376
61.530 15.673125
61.535 15.486691
61.540 15.565424
61.545 15.204415
61.550 15.4885
61.555 15.641555
61.560 15.009449
61.565 14.765162
61.570 14.490028
61.575 14.320379
61.580 14.343561
61.585 13.583756
61.590 13.00093
61.595 12.771396
61.600 12.932394
61.605 13.111387
61.610 13.549765
61.615 14.509752
61.620 15.897546
61.625 16.73057
61.630 17.172215
61.635 17.108822
61.640 16.782053
61.645 16.559116
61.650 15.965803
61.655 15.325882
61.660 14.877268
61.665 14.686954
61.670 14.983797
61.675 15.568707
61.680 15.17084
61.685 14.914175
61.690 14.470209
61.695 14.371378
61.700 14.495516
61.705 14.225452
61.710 13.732901
61.715 13.561954
61.720 13.130672
61.725 13.399687
61.730 13.648397
61.735 13.459288
61.740 13.253824
61.745 13.372611
61.750 13.425538
61.755 13.490328
61.760 13.475555
61.765 13.138562
61.770 13.594256
61.775 13.95183
61.780 14.063657
61.785 14.510535
61.790 14.93404
61.795 14.604625
61.800 15.243706
61.805 14.817506
61.810 14.285471
61.815 14.28695
61.820 14.26895
61.825 14.418337
61.830 14.559891
61.835 14.404948
61.840 14.508295
61.845 14.685887
61.850 14.447866
61.855 14.349298
61.860 14.688849
61.865 14.688879
61.870 14.322531
61.875 14.789916
61.880 15.425443
61.885 15.778678
61.890 16.124504
61.895 15.863943
61.900 16.141951
61.905 16.223024
61.910 15.977423
61.915 15.650086
61.920 15.917817
61.925 15.847429
61.930 15.616118
61.935 15.507981
61.940 15.626033
61.945 15.003928
61.950 15.014181
61.955 14.131088
61.960 13.537659
61.965 13.817596
61.970 13.652274
61.975 14.011819
61.980 14.601166
61.985 14.982081
61.990 15.803906
61.995 15.937026
62.000 15.872484
62.005 16.101923
62.010 15.863873
62.015 15.53024
62.020 15.283025
62.025 15.19908
62.030 15.276251
62.035 14.961008
62.040 14.649069
62.045 14.487041
62.050 14.502203
62.055 14.684031
62.060 14.82557
62.065 14.347306
62.070 13.90228
62.075 14.09132
62.080 14.517467
62.085 14.542804
62.090 14.374545
62.095 14.55324
62.100 15.608055
62.105 16.37764
62.110 16.623255
62.115 16.224733
62.120 16.020773
62.125 15.576603
62.130 15.254872
62.135 15.281146
62.140 15.104775
62.145 14.594411
62.150 15.022412
62.155 15.573048
62.160 16.182154
62.165 16.259861
62.170 15.76708
62.175 15.919895
62.180 15.704813
62.185 15.43686
62.190 15.429299
62.195 15.54784
62.200 15.732788
62.205 16.51712
62.210 16.474531
62.215 16.785704
62.220 16.206413
62.225 15.892676
62.230 15.471189
62.235 15.280028
62.240 14.285871
62.245 14.354735
62.250 14.815251
62.255 15.487982
62.260 15.721777
62.265 15.963197
62.270 16.721199
62.275 17.092283
62.280 17.193933
62.285 16.689838
62.290 16.478531
62.295 16.347385
62.300 16.130562
62.305 15.570198
62.310 15.450275
62.315 15.078609
62.320 15.078383
62.325 15.252266
62.330 15.230433
62.335 15.518358
62.340 15.323628
62.345 15.435638
62.350 15.195361
62.355 15.087071
62.360 15.572048
62.365 15.517961
62.370 14.992558
62.375 15.117661
62.380 15.260676
62.385 15.46387
62.390 15.62539
62.395 15.452211
62.400 15.612797
62.405 15.450516
62.410 15.474588
62.415 15.805499
62.420 16.499214
62.425 16.547737
62.430 15.962244
62.435 16.13868
62.440 16.304001
62.445 15.808433
62.450 15.753771
62.455 16.159735
62.460 16.440033
62.465 16.526253
62.470 16.380716
62.475 16.863937
62.480 17.054903
62.485 17.259447
62.490 16.916233
62.495 16.303692
62.500 16.253441
62.505 16.05555
62.510 15.699061
62.515 15.405309
62.520 14.556291
62.525 14.461911
62.530 14.570745
62.535 15.1155
62.540 15.37977
62.545 15.180568
62.550 15.392113
62.555 15.781237
62.560 15.560292
62.565 15.324504
62.570 14.884715
62.575 15.104213
62.580 15.596826
62.585 15.895596
62.590 15.574362
62.595 15.417588
62.600 15.710298
62.605 15.650944
62.610 15.228093
62.615 14.966594
62.620 14.39538
62.625 14.314731
62.630 14.545001
62.635 14.366685
62.640 14.687421
62.645 15.113818
62.650 15.039323
62.655 15.478757
62.660 15.513142
62.665 15.617774
62.670 15.741957
62.675 16.001123
62.680 16.212158
62.685 16.271908
62.690 16.303707
62.695 15.937142
62.700 15.613216
62.705 15.494076
62.710 15.145102
62.715 15.228117
62.720 15.218287
62.725 15.580785
62.730 15.767546
62.735 15.881197
62.740 15.921627
62.745 15.575644
62.750 15.50154
62.755 15.406234
62.760 15.344604
62.765 15.999225
62.770 16.083271
62.775 16.060482
62.780 16.141327
62.785 15.982116
62.790 16.491053
62.795 15.908657
62.800 15.722902
62.805 16.213331
62.810 16.854811
62.815 17.054674
62.820 17.518652
62.825 17.876232
62.830 18.49444
62.835 18.235041
62.840 18.405558
62.845 18.129856
62.850 18.24983
62.855 17.98633
62.860 17.107475
62.865 16.843882
62.870 17.299765
62.875 16.731955
62.880 16.153067
62.885 15.771934
62.890 15.216512
62.895 14.979629
62.900 14.976802
62.905 14.400615
62.910 14.317041
62.915 14.400942
62.920 14.485513
62.925 14.896747
62.930 15.192853
62.935 15.111041
62.940 15.347551
62.945 15.447429
62.950 15.358712
62.955 15.474316
62.960 15.677223
62.965 15.653103
62.970 16.070204
62.975 16.006865
62.980 15.993389
62.985 16.077469
62.990 16.125734
62.995 15.996787
63.000 16.193087
63.005 15.800482
63.010 15.585338
63.015 15.456361
63.020 15.59529
63.025 15.706141
63.030 15.592358
63.035 15.34187
63.040 15.281997
63.045 15.821255
63.050 15.976239
63.055 15.919331
63.060 15.914721
63.065 16.046991
63.070 15.948706
63.075 16.248045
63.080 16.225014
63.085 16.311563
63.090 16.510292
63.095 16.399817
63.100 16.56436
63.105 16.757849
63.110 16.327639
63.115 15.970239
63.120 15.826286
63.125 15.711115
63.130 15.599126
63.135 15.304041
63.140 15.564695
63.145 15.53921
63.150 15.490405
63.155 15.09342
63.160 14.960795
63.165 15.154788
63.170 15.420978
63.175 15.345377
63.180 15.542849
63.185 15.881664
63.190 16.212891
63.195 16.051682
63.200 15.627792
63.205 15.338638
63.210 15.263269
63.215 14.71381
63.220 14.783873
63.225 14.958565
63.230 15.489028
63.235 15.872142
63.240 15.577855
63.245 15.827656
63.250 16.462639
63.255 16.470379
63.260 16.65033
63.265 16.321074
63.270 16.166176
63.275 16.513655
63.280 16.44265
63.285 16.530296
63.290 16.127644
63.295 15.953371
63.300 15.530271
63.305 15.502579
63.310 15.788383
63.315 15.801393
63.320 15.256264
63.325 15.221258
63.330 15.25444
63.335 16.133564
63.340 15.833301
63.345 15.411199
63.350 15.285871
63.355 15.969959
63.360 15.9207
63.365 15.556482
63.370 15.261596
63.375 15.764632
63.380 15.880274
63.385 16.39926
63.390 16.297504
63.395 16.531281
63.400 17.049366
63.405 17.340189
63.410 17.315172
63.415 17.10047
63.420 16.290726
63.425 16.173023
63.430 16.443302
63.435 15.74276
63.440 14.982887
63.445 15.430006
63.450 15.947948
63.455 16.42388
63.460 16.782536
63.465 16.881058
63.470 17.569818
63.475 17.930824
63.480 17.308702
63.485 17.19161
63.490 17.073483
63.495 17.303066
63.500 16.87821
63.505 16.639252
63.510 17.131073
63.515 17.308039
63.520 17.264603
63.525 17.367704
63.530 17.314373
63.535 17.857323
63.540 18.03393
63.545 17.71213
63.550 17.876093
63.555 17.954744
63.560 17.967461
63.565 17.852518
63.570 17.418344
63.575 16.984312
63.580 16.568804
63.585 16.69232
63.590 17.072721
63.595 17.43611
63.600 16.968218
63.605 16.97677
63.610 16.950207
63.615 16.745312
63.620 16.286148
63.625 15.458249
63.630 15.17427
63.635 15.545488
63.640 15.922568
63.645 16.731623
63.650 16.810291
63.655 17.085701
63.660 17.457109
63.665 17.216009
63.670 16.983093
63.675 16.767126
63.680 16.157522
63.685 16.150393
63.690 16.033934
63.695 16.095289
63.700 16.086243
63.705 15.677331
63.710 15.167241
63.715 14.833098
63.720 14.730106
63.725 14.454636
63.730 14.364944
63.735 14.627852
63.740 14.580083
63.745 14.70432
63.750 15.324279
63.755 15.971085
63.760 15.564893
63.765 15.060686
63.770 15.571036
63.775 16.331377
63.780 16.5828
63.785 16.600222
63.790 16.305874
63.795 17.227036
63.800 17.930155
63.805 17.192156
63.810 16.541348
63.815 16.592861
63.820 16.691795
63.825 16.89785
63.830 16.430252
63.835 16.276268
63.840 16.758184
63.845 17.182859
63.850 17.28793
63.855 17.188593
63.860 17.109447
63.865 17.01811
63.870 17.183893
63.875 16.919212
63.880 17.057455
63.885 17.118771
63.890 16.992643
63.895 17.304623
63.900 17.8249
63.905 17.860794
63.910 17.932871
63.915 17.583269
63.920 16.932032
63.925 16.362938
63.930 16.195629
63.935 15.50234
63.940 14.922359
63.945 14.603663
63.950 14.74579
63.955 15.136364
63.960 15.906479
63.965 15.900978
63.970 15.896725
63.975 15.957173
63.980 15.860575
63.985 16.101984
63.990 16.142639
63.995 15.796709
64.000 15.784792
64.005 15.791145
64.010 16.39888
64.015 17.337532
64.020 17.881554
64.025 18.112133
64.030 17.913025
64.035 18.093662
64.040 18.18293
64.045 18.06226
64.050 18.134197
64.055 17.723036
64.060 17.57749
64.065 17.972935
64.070 17.91473
64.075 18.35969
64.080 17.876108
64.085 17.530563
64.090 17.743507
64.095 17.865355
64.100 17.791424
64.105 17.799414
64.110 17.601196
64.115 17.715855
64.120 17.746965
64.125 17.596718
64.130 17.728165
64.135 18.198082
64.140 18.310183
64.145 18.369364
64.150 18.207243
64.155 17.932487
64.160 17.813492
64.165 17.57111
64.170 17.502575
64.175 17.341274
64.180 17.546114
64.185 17.452391
64.190 17.441334
64.195 18.079227
64.200 17.989
64.205 17.599689
64.210 17.593479
64.215 17.658659
64.220 17.318382
64.225 16.748791
64.230 16.514883
64.235 15.837298
64.240 15.939843
64.245 16.195103
64.250 16.190121
64.255 16.600517
64.260 16.520548
64.265 16.699821
64.270 17.168411
64.275 16.821362
64.280 16.953394
64.285 17.222578
64.290 17.150728
64.295 17.317516
64.300 17.376627
64.305 17.93067
64.310 18.568832
64.315 18.64809
64.320 18.742964
64.325 19.02556
64.330 19.136419
64.335 18.937634
64.340 18.867935
64.345 18.724081
64.350 18.071318
64.355 17.522667
64.360 17.497684
64.365 17.604992
64.370 17.709507
64.375 17.954021
64.380 17.782215
64.385 17.657652
64.390 18.007954
64.395 18.449522
64.400 18.612968
64.405 18.121012
64.410 17.911329
64.415 17.897053
64.420 18.400791
64.425 18.407642
64.430 17.869925
64.435 17.286257
64.440 18.004259
64.445 17.507374
64.450 17.290373
64.455 16.652473
64.460 16.342672
64.465 16.858397
64.470 17.095079
64.475 16.490683
64.480 16.507677
64.485 16.946581
64.490 17.435753
64.495 17.124599
64.500 16.640038
64.505 16.82872
64.510 16.744787
64.515 17.147726
64.520 16.993057
64.525 16.87056
64.530 16.9046
64.535 16.748585
64.540 16.899399
64.545 17.53355
64.550 17.171751
64.555 17.451525
64.560 17.392214
64.565 18.040577
64.570 18.336889
64.575 18.145277
64.580 17.391397
64.585 17.319616
64.590 17.062346
64.595 17.19795
64.600 17.168776
64.605 17.328539
64.610 17.523659
64.615 18.145237
64.620 18.228512
64.625 17.790373
64.630 17.762318
64.635 17.352884
64.640 17.037075
64.645 17.004202
64.650 16.765285
64.655 16.836338
64.660 16.814665
64.665 16.456938
64.670 16.530819
64.675 16.800293
64.680 16.652321
64.685 16.729132
64.690 16.535177
64.695 17.092539
64.700 17.443127
64.705 17.882153
64.710 18.230339
64.715 18.887741
64.720 19.634241
64.725 20.240484
64.730 20.205297
64.735 20.268257
64.740 20.410219
64.745 20.013548
64.750 19.919865
64.755 19.341026
64.760 19.350725
64.765 19.329708
64.770 19.458546
64.775 19.954985
64.780 20.112827
64.785 19.841616
64.790 20.127295
64.795 19.596548
64.800 19.769053
64.805 20.282368
64.810 19.917669
64.815 19.919498
64.820 19.766537
64.825 19.900242
64.830 20.582447
64.835 21.177689
64.840 20.604963
64.845 20.407955
64.850 20.617329
64.855 21.141808
64.860 20.94043
64.865 20.466702
64.870 20.074812
64.875 20.099594
64.880 20.050655
64.885 19.861708
64.890 19.530434
64.895 19.799679
64.900 19.923351
64.905 20.017218
64.910 20.576908
64.915 21.162773
64.920 21.725443
64.925 21.639784
64.930 20.964167
64.935 20.95179
64.940 20.863483
64.945 20.713255
64.950 20.525478
64.955 20.579245
64.960 21.104031
64.965 22.294264
64.970 22.49836
64.975 22.507565
64.980 22.363504
64.985 22.81918
64.990 23.28973
64.995 23.076103
65.000 22.796448
65.005 23.404228
65.010 23.91503
65.015 24.169203
65.020 24.452452
65.025 24.093761
65.030 23.966921
65.035 23.987532
65.040 24.392717
65.045 24.251982
65.050 24.54114
65.055 24.526287
65.060 25.159428
65.065 25.285633
65.070 25.172541
65.075 25.073771
65.080 25.11935
65.085 24.500782
65.090 24.222466
65.095 23.939571
65.100 24.301996
65.105 24.299276
65.110 23.809771
65.115 23.689327
65.120 23.616432
65.125 23.676805
65.130 23.696859
65.135 23.461235
65.140 23.738522
65.145 23.48564
65.150 23.400307
65.155 23.638012
65.160 23.771654
65.165 24.163324
65.170 23.504627
65.175 23.21282
65.180 23.665804
65.185 23.655489
65.190 23.763277
65.195 23.223667
65.200 22.580242
65.205 23.002048
65.210 22.983204
65.215 22.638857
65.220 23.168356
65.225 23.067476
65.230 23.255089
65.235 23.991335
65.240 24.059643
65.245 24.009361
65.250 23.905392
65.255 23.349745
65.260 23.559084
65.265 22.931206
65.270 22.194445
65.275 22.419729
65.280 22.820511
65.285 22.768627
65.290 23.150999
65.295 23.125877
65.300 23.77051
65.305 23.665701
65.310 23.578283
65.315 22.717066
65.320 22.510414
65.325 22.376175
65.330 21.944702
65.335 21.774166
65.340 21.884094
65.345 21.443026
65.350 21.824017
65.355 22.208836
65.360 22.30489
65.365 22.347359
65.370 22.024624
65.375 22.925751
65.380 23.131269
65.385 23.090288
65.390 23.029398
65.395 22.536711
65.400 22.906376
65.405 23.605627
65.410 22.502575
65.415 22.517408
65.420 22.746832
65.425 23.2146
65.430 23.334908
65.435 22.414442
65.440 22.312399
65.445 22.546022
65.450 22.796825
65.455 22.680891
65.460 22.089569
65.465 21.908091
65.470 21.872448
65.475 21.809032
65.480 21.771929
65.485 21.724884
65.490 21.432217
65.495 21.208406
65.500 21.48517
65.505 21.546961
65.510 21.400848
65.515 20.981291
65.520 20.718664
65.525 21.277309
65.530 22.36269
65.535 22.539082
65.540 22.844954
65.545 23.50555
65.550 24.87018
65.555 25.565018
65.560 24.971525
65.565 24.630817
65.570 25.160353
65.575 25.429018
65.580 25.547285
65.585 25.634991
65.590 25.841633
65.595 26.306179
65.600 26.710224
65.605 26.673725
65.610 26.762945
65.615 26.703249
65.620 26.344858
65.625 25.887194
65.630 25.528601
65.635 25.000437
65.640 24.960075
65.645 25.436068
65.650 24.727673
65.655 24.5487
65.660 25.202744
65.665 26.412943
65.670 26.312202
65.675 26.724203
65.680 27.183065
65.685 28.126978
65.690 28.602058
65.695 28.961933
65.700 28.784775
65.705 29.351059
65.710 29.390383
65.715 29.050428
65.720 29.621975
65.725 29.240898
65.730 29.395418
65.735 29.672358
65.740 30.075584
65.745 30.394224
65.750 30.112434
65.755 30.211025
65.760 30.905041
65.765 31.055489
65.770 31.459669
65.775 31.239979
65.780 31.491386
65.785 31.611385
65.790 30.856594
65.795 30.175549
65.800 29.64241
65.805 28.988277
65.810 28.795605
65.815 28.549967
65.820 28.606909
65.825 29.396252
65.830 29.408712
65.835 29.445627
65.840 30.160061
65.845 30.004089
65.850 29.806818
65.855 29.678274
65.860 29.331726
65.865 29.609402
65.870 29.923189
65.875 30.008165
65.880 30.328215
65.885 30.765284
65.890 31.217634
65.895 31.49663
65.900 31.751225
65.905 31.921638
65.910 31.747622
65.915 31.839207
65.920 31.926107
65.925 32.362297
65.930 31.365688
65.935 31.091892
65.940 31.044996
65.945 31.47753
65.950 31.828325
65.955 31.461842
65.960 31.621674
65.965 32.072559
65.970 32.439671
65.975 32.35281
65.980 31.787777
65.985 31.703892
65.990 31.69602
65.995 31.98385
66.000 32.6283
66.005 33.005398
66.010 33.375256
66.015 32.606281
66.020 32.526089
66.025 32.714035
66.030 32.681938
66.035 32.343578
66.040 32.009182
66.045 31.657013
66.050 32.50396
66.055 32.63002
66.060 32.84626
66.065 33.177937
66.070 33.943954
66.075 33.925472
66.080 33.797077
66.085 34.177391
66.090 34.183456
66.095 33.924969
66.100 33.99268
66.105 33.500816
66.110 34.170055
66.115 34.472157
66.120 34.104668
66.125 33.488781
66.130 33.25951
66.135 32.922405
66.140 32.85677
66.145 32.82196
66.150 32.715527
66.155 32.005955
66.160 32.536617
66.165 32.852585
66.170 33.119339
66.175 32.334068
66.180 31.855955
66.185 31.979279
66.190 32.160515
66.195 31.582369
66.200 32.007751
66.205 31.632483
66.210 31.201828
66.215 30.563982
66.220 30.984432
66.225 31.533482
66.230 32.161118
66.235 31.297142
66.240 31.24564
66.245 31.487339
66.250 31.723579
66.255 31.073326
66.260 30.977348
66.265 30.431091
66.270 30.114786
66.275 30.010216
66.280 30.346085
66.285 30.612289
66.290 30.47234
66.295 29.421766
66.300 29.386257
66.305 30.005625
66.310 30.252495
66.315 30.59844
66.320 31.005148
66.325 31.190317
66.330 31.39926
66.335 30.740295
66.340 30.777906
66.345 29.976011
66.350 29.18889
66.355 28.173492
66.360 28.63271
66.365 29.261709
66.370 29.524883
66.375 28.097338
66.380 28.204329
66.385 28.167046
66.390 28.12866
66.395 27.494282
66.400 27.229414
66.405 27.987286
66.410 29.145817
66.415 29.652794
66.420 29.316824
66.425 29.144592
66.430 29.290939
66.435 29.16502
66.440 27.920662
66.445 26.902489
66.450 26.801056
66.455 26.850676
66.460 26.743574
66.465 26.421656
66.470 26.316919
66.475 25.87376
66.480 25.405342
66.485 25.236578
66.490 25.156561
66.495 24.464678
66.500 24.44017
66.505 24.806057
66.510 25.337378
66.515 25.211758
66.520 24.367832
66.525 24.172123
66.530 24.518917
66.535 24.413357
66.540 23.982
66.545 23.514885
66.550 24.105745
66.555 24.181879
66.560 23.968901
66.565 23.709986
66.570 23.526421
66.575 23.605215
66.580 23.054546
66.585 22.421934
66.590 22.63023
66.595 22.730154
66.600 22.501011
66.605 22.240591
66.610 22.1945
66.615 23.388466
66.620 23.669752
66.625 23.988085
66.630 24.415983
66.635 24.021318
66.640 23.411613
66.645 23.210552
66.650 22.522755
66.655 21.687283
66.660 20.664505
66.665 19.894291
66.670 20.066824
66.675 20.542789
66.680 20.654659
66.685 20.164383
66.690 20.297773
66.695 20.122841
66.700 20.693592
66.705 21.860943
66.710 22.111345
66.715 21.993723
66.720 21.775198
66.725 21.606728
66.730 21.432869
66.735 20.847815
66.740 19.832256
66.745 19.537521
66.750 20.13512
66.755 20.237024
66.760 20.528994
66.765 21.358582
66.770 21.627146
66.775 21.600876
66.780 21.809101
66.785 21.653614
66.790 22.059425
66.795 22.12845
66.800 21.671188
66.805 21.655024
66.810 22.112467
66.815 21.62715
66.820 21.644821
66.825 21.295839
66.830 20.793371
66.835 20.278219
66.840 19.701832
66.845 18.765064
66.850 18.585541
66.855 18.311031
66.860 18.751099
66.865 19.524118
66.870 19.596497
66.875 19.542892
66.880 19.467253
66.885 18.767673
66.890 18.703135
66.895 18.344732
66.900 17.9319
66.905 18.404242
66.910 18.325617
66.915 18.805111
66.920 19.503122
66.925 19.282383
66.930 19.43758
66.935 20.124308
66.940 20.479834
66.945 21.008211
66.950 21.453207
66.955 21.133698
66.960 21.486006
66.965 21.863157
66.970 21.290257
66.975 21.271439
66.980 20.672829
66.985 20.372742
66.990 20.426609
66.995 20.307981
67.000 19.310905
67.005 18.728662
67.010 18.135956
67.015 18.103495
67.020 18.129589
67.025 18.545469
67.030 18.026611
67.035 18.130857
67.040 18.193924
67.045 18.447287
67.050 18.840132
67.055 19.218861
67.060 18.956079
67.065 19.175901
67.070 19.22529
67.075 19.529415
67.080 19.837706
67.085 19.765879
67.090 19.452314
67.095 19.686201
67.100 19.573586
67.105 19.743885
67.110 19.56864
67.115 19.135019
67.120 19.392759
67.125 19.285057
67.130 19.020092
67.135 18.745834
67.140 18.494175
67.145 18.638975
67.150 18.811779
67.155 18.494354
67.160 18.668026
67.165 19.097597
67.170 19.818399
67.175 19.760391
67.180 19.777121
67.185 20.090364
67.190 20.452854
67.195 19.998695
67.200 19.367569
67.205 18.848499
67.210 18.766947
67.215 18.675905
67.220 18.65921
67.225 18.346464
67.230 18.298927
67.235 18.703285
67.240 18.706484
67.245 18.509155
67.250 18.66366
67.255 18.245211
67.260 18.247883
67.265 18.245253
67.270 18.057077
67.275 17.947397
67.280 18.391159
67.285 18.116447
67.290 18.681627
67.295 19.339647
67.300 19.833521
67.305 20.338568
67.310 20.556602
67.315 20.116625
67.320 20.173153
67.325 19.594713
67.330 18.71657
67.335 17.905273
67.340 17.054369
67.345 16.957203
67.350 16.748171
67.355 16.406967
67.360 16.687435
67.365 17.179483
67.370 17.641846
67.375 17.914661
67.380 18.331635
67.385 18.861523
67.390 19.247501
67.395 19.121902
67.400 18.549713
67.405 18.612003
67.410 18.622095
67.415 18.356524
67.420 18.531794
67.425 18.293982
67.430 18.080038
67.435 18.319723
67.440 18.141188
67.445 18.195145
67.450 18.377174
67.455 18.022619
67.460 17.960228
67.465 18.217772
67.470 18.038725
67.475 18.172266
67.480 18.798075
67.485 18.807644
67.490 18.460709
67.495 17.957489
67.500 18.272501
67.505 18.598749
67.510 18.715015
67.515 17.902279
67.520 18.092539
67.525 18.727158
67.530 19.284782
67.535 19.267149
67.540 19.216551
67.545 19.421297
67.550 19.125534
67.555 19.213636
67.560 19.040556
67.565 18.675564
67.570 18.519062
67.575 18.201632
67.580 17.899719
67.585 18.125738
67.590 18.08341
67.595 18.289183
67.600 17.993984
67.605 18.037144
67.610 18.288506
67.615 18.704899
67.620 19.347469
67.625 19.219158
67.630 19.30073
67.635 19.269192
67.640 18.967775
67.645 18.816982
67.650 18.808695
67.655 18.455177
67.660 18.309248
67.665 18.202356
67.670 18.490213
67.675 18.586941
67.680 18.662645
67.685 18.272934
67.690 17.809048
67.695 17.434425
67.700 17.716471
67.705 17.509859
67.710 17.440655
67.715 16.909294
67.720 16.708307
67.725 17.218321
67.730 18.451982
67.735 18.31076
67.740 18.242941
67.745 18.111914
67.750 18.482716
67.755 18.411371
67.760 18.410725
67.765 17.560827
67.770 17.599838
67.775 18.292784
67.780 18.735224
67.785 19.015295
67.790 19.233051
67.795 19.458265
67.800 19.674601
67.805 19.601402
67.810 19.784258
67.815 19.828455
67.820 19.861769
67.825 20.329781
67.830 20.331656
67.835 20.173458
67.840 19.731274
67.845 19.605635
67.850 19.979105
67.855 19.965773
67.860 19.246826
67.865 19.053898
67.870 18.690844
67.875 18.787518
67.880 18.793388
67.885 18.325253
67.890 18.141066
67.895 17.988279
67.900 17.94701
67.905 18.411049
67.910 18.249226
67.915 17.396507
67.920 17.532417
67.925 17.936031
67.930 18.544399
67.935 18.541025
67.940 18.855247
67.945 19.033453
67.950 19.072287
67.955 18.729942
67.960 18.547689
67.965 18.514917
67.970 18.912445
67.975 18.596865
67.980 18.497778
67.985 19.015333
67.990 18.926945
67.995 18.373255
68.000 17.584711
68.005 17.259306
68.010 17.694059
68.015 17.612072
68.020 17.461178
68.025 18.054905
68.030 18.559145
68.035 19.014956
68.040 19.533005
68.045 19.835718
68.050 20.312811
68.055 20.266403
68.060 20.170317
68.065 19.849123
68.070 19.553234
68.075 18.740402
68.080 18.75214
68.085 19.109802
68.090 19.101343
68.095 18.728106
68.100 18.773006
68.105 18.532633
68.110 18.993986
68.115 18.813015
68.120 18.461735
68.125 18.113184
68.130 18.153223
68.135 18.066315
68.140 18.0592
68.145 17.754038
68.150 17.721563
68.155 17.349998
68.160 16.873163
68.165 16.727785
68.170 16.769445
68.175 17.085365
68.180 16.93845
68.185 16.366961
68.190 16.563143
68.195 17.300014
68.200 17.567465
68.205 17.776766
68.210 17.643179
68.215 17.99987
68.220 18.809372
68.225 18.910164
68.230 18.528875
68.235 18.348173
68.240 18.661684
68.245 19.358156
68.250 19.033396
68.255 18.980122
68.260 19.342047
68.265 19.68885
68.270 19.926601
68.275 19.824389
68.280 19.728577
68.285 19.513754
68.290 19.118591
68.295 18.810577
68.300 18.894394
68.305 19.234497
68.310 18.783646
68.315 18.5816
68.320 19.210121
68.325 19.488661
68.330 19.724989
68.335 19.562162
68.340 18.633005
68.345 18.719234
68.350 18.597338
68.355 18.266268
68.360 17.896368
68.365 17.875605
68.370 18.34128
68.375 18.50259
68.380 18.446585
68.385 18.80901
68.390 19.378647
68.395 19.693451
68.400 19.274319
68.405 19.214088
68.410 19.533379
68.415 19.783283
68.420 19.442257
68.425 18.922293
68.430 18.858757
68.435 18.64526
68.440 18.231239
68.445 18.003763
68.450 17.375505
68.455 16.718365
68.460 16.789949
68.465 16.735325
68.470 17.420374
68.475 17.935102
68.480 18.34284
68.485 18.251781
68.490 18.739307
68.495 18.948397
68.500 18.685083
68.505 18.253696
68.510 17.927382
68.515 17.540607
68.520 18.087519
68.525 18.23284
68.530 18.281588
68.535 18.593918
68.540 19.075684
68.545 18.988962
68.550 19.251608
68.555 18.887178
68.560 18.62903
68.565 19.060925
68.570 19.371641
68.575 19.360926
68.580 19.838905
68.585 20.003119
68.590 19.584047
68.595 19.754244
68.600 19.449028
68.605 19.076862
68.610 19.044703
68.615 19.358843
68.620 19.671547
68.625 19.647022
68.630 19.11957
68.635 19.081089
68.640 18.833405
68.645 18.562054
68.650 18.091455
68.655 17.971659
68.660 18.26017
68.665 18.857613
68.670 19.061569
68.675 19.168451
68.680 18.9711
68.685 19.335703
68.690 19.429575
68.695 19.453609
68.700 19.115004
68.705 19.260782
68.710 19.799393
68.715 19.907848
68.720 19.807369
68.725 20.475159
68.730 20.687979
68.735 21.028887
68.740 20.468533
68.745 20.112282
68.750 19.966045
68.755 19.499891
68.760 19.018694
68.765 18.920437
68.770 18.821716
68.775 19.153465
68.780 19.523117
68.785 19.881166
68.790 20.375727
68.795 20.072626
68.800 19.942354
68.805 19.574459
68.810 19.524666
68.815 19.547104
68.820 19.765015
68.825 19.162832
68.830 19.226639
68.835 19.326448
68.840 19.127911
68.845 19.244785
68.850 19.033968
68.855 19.131771
68.860 19.348425
68.865 19.46332
68.870 19.926851
68.875 19.975487
68.880 19.217527
68.885 18.818678
68.890 19.219669
68.895 19.603836
68.900 19.539
68.905 19.350111
68.910 19.744417
68.915 20.065432
68.920 19.854895
68.925 19.012016
68.930 18.870508
68.935 18.883678
68.940 18.781731
68.945 19.166435
68.950 19.544657
68.955 19.731062
68.960 19.561701
68.965 19.213984
68.970 19.050577
68.975 18.822027
68.980 17.799295
68.985 17.310595
68.990 18.245567
68.995 19.419086
69.000 19.988146
69.005 20.803493
69.010 21.655313
69.015 22.412741
69.020 22.326656
69.025 22.021576
69.030 21.549095
69.035 21.621201
69.040 21.414022
69.045 21.411715
69.050 21.709787
69.055 21.662405
69.060 21.839632
69.065 22.02224
69.070 21.939363
69.075 21.772648
69.080 21.651379
69.085 21.783016
69.090 22.386557
69.095 22.220448
69.100 21.891783
69.105 22.115009
69.110 22.381922
69.115 22.359751
69.120 22.231939
69.125 21.894297
69.130 22.127274
69.135 22.58972
69.140 22.959921
69.145 23.11581
69.150 23.382538
69.155 23.174948
69.160 23.177807
69.165 23.527054
69.170 23.143831
69.175 23.357489
69.180 23.924023
69.185 24.173241
69.190 24.438995
69.195 24.593632
69.200 24.539639
69.205 24.798006
69.210 24.397507
69.215 24.375872
69.220 24.644686
69.225 24.98975
69.230 24.141127
69.235 23.185411
69.240 23.403336
69.245 23.401762
69.250 23.040997
69.255 23.018312
69.260 23.253647
69.265 23.777496
69.270 24.153708
69.275 23.714993
69.280 23.147432
69.285 23.700315
69.290 23.929186
69.295 23.788347
69.300 24.49177
69.305 25.372953
69.310 25.572826
69.315 25.471079
69.320 25.891691
69.325 26.02174
69.330 26.224186
69.335 25.876659
69.340 25.48568
69.345 25.827444
69.350 25.974602
69.355 25.15789
69.360 24.812687
69.365 24.645679
69.370 25.476456
69.375 25.553938
69.380 26.412134
69.385 26.609995
69.390 26.526957
69.395 26.226662
69.400 26.320343
69.405 25.946665
69.410 26.178911
69.415 25.523581
69.420 25.381031
69.425 25.658508
69.430 26.724274
69.435 25.968233
69.440 26.038408
69.445 26.756071
69.450 27.846857
69.455 28.396755
69.460 27.761024
69.465 27.329275
69.470 27.770247
69.475 27.377598
69.480 27.010216
69.485 26.674965
69.490 27.022545
69.495 27.806894
69.500 27.912537
69.505 27.944614
69.510 27.696531
69.515 27.307325
69.520 27.192303
69.525 26.577431
69.530 26.287867
69.535 25.958996
69.540 26.36799
69.545 26.753998
69.550 27.234089
69.555 28.198263
69.560 28.677776
69.565 28.698256
69.570 29.086863
69.575 28.790781
69.580 28.65951
69.585 28.224541
69.590 27.291088
69.595 27.312153
69.600 27.147274
69.605 26.730471
69.610 26.63759
69.615 26.526192
69.620 26.776461
69.625 26.309597
69.630 26.061689
69.635 26.922592
69.640 27.897532
69.645 28.052214
69.650 27.737478
69.655 27.152859
69.660 27.111151
69.665 26.520365
69.670 25.63784
69.675 25.142157
69.680 25.135801
69.685 25.061075
69.690 25.903852
69.695 26.611498
69.700 26.797995
69.705 27.285866
69.710 27.238602
69.715 27.393997
69.720 26.834061
69.725 25.75948
69.730 25.364138
69.735 25.927149
69.740 26.126831
69.745 26.184135
69.750 26.085426
69.755 26.669876
69.760 26.967663
69.765 26.675674
69.770 25.873001
69.775 25.048285
69.780 24.506031
69.785 24.503208
69.790 24.123777
69.795 24.19783
69.800 23.944559
69.805 23.73785
69.810 23.58345
69.815 23.458719
69.820 23.206093
69.825 23.897085
69.830 23.843904
69.835 23.998884
69.840 23.710846
69.845 23.746527
69.850 23.481209
69.855 23.161215
69.860 21.495682
69.865 20.960697
69.870 20.772247
69.875 21.022474
69.880 20.646713
69.885 20.920069
69.890 21.277313
69.895 21.285389
69.900 21.142788
69.905 21.362532
69.910 21.621923
69.915 21.265718
69.920 21.06115
69.925 21.070259
69.930 21.069151
69.935 20.766302
69.940 19.870998
69.945 19.676634
69.950 19.933928
69.955 20.032749
69.960 19.600969
69.965 19.964621
69.970 20.240185
69.975 20.310747
69.980 20.454113
69.985 19.999994
69.990 19.621391
69.995 19.884172
70.000 20.257036
70.005 20.108332
70.010 20.112215
70.015 19.820589
70.020 20.060251
70.025 20.303364
70.030 20.248426
70.035 20.096464
70.040 19.944351
70.045 19.482079
70.050 19.228016
70.055 18.811527
70.060 18.937954
70.065 18.373838
70.070 18.083961
70.075 18.543924
70.080 19.560261
70.085 20.231674
70.090 20.168669
70.095 19.47917
70.100 19.483143
70.105 19.520472
70.110 18.840603
70.115 18.108995
70.120 17.723009
70.125 17.98597
70.130 18.557489
70.135 18.612741
70.140 18.820541
70.145 19.289904
70.150 19.619427
70.155 20.665016
70.160 19.916821
70.165 19.631523
70.170 19.706821
70.175 19.745497
70.180 19.615122
70.185 18.971426
70.190 19.454916
70.195 20.00132
70.200 20.093723
70.205 20.018034
70.210 19.301212
70.215 19.283646
70.220 18.872944
70.225 18.277405
70.230 18.54307
70.235 18.51516
70.240 19.153093
70.245 19.767265
70.250 19.92424
70.255 20.103525
70.260 19.980976
70.265 19.95933
70.270 19.95229
70.275 19.536335
70.280 19.488134
70.285 19.937567
70.290 19.992422
70.295 20.112873
70.300 19.744856
70.305 20.133757
70.310 19.718727
70.315 19.908661
70.320 19.298256
70.325 19.324169
70.330 18.9541
70.335 19.339108
70.340 18.942957
70.345 19.16662
70.350 18.423256
70.355 18.363123
70.360 18.276125
70.365 18.606203
70.370 18.497334
70.375 18.677372
70.380 18.00556
70.385 18.14978
70.390 18.342299
70.395 17.882563
70.400 17.291264
70.405 17.119787
70.410 17.383177
70.415 18.193096
70.420 18.647091
70.425 18.265896
70.430 18.677382
70.435 18.891954
70.440 18.662098
70.445 17.822203
70.450 17.543661
70.455 17.664286
70.460 17.70442
70.465 17.414927
70.470 17.514019
70.475 17.737211
70.480 18.455084
70.485 18.968185
70.490 19.177774
70.495 19.187927
70.500 19.373453
70.505 19.209198
70.510 19.097973
70.515 18.631468
70.520 18.298525
70.525 18.557013
70.530 18.958
70.535 19.021551
70.540 19.65354
70.545 19.412786
70.550 19.163376
70.555 18.963299
70.560 18.681196
70.565 18.762325
70.570 19.057465
70.575 18.838587
70.580 19.645775
70.585 19.656044
70.590 18.90694
70.595 18.416101
70.600 18.110607
70.605 17.435194
70.610 17.445658
70.615 17.324282
70.620 17.99267
70.625 19.029909
70.630 19.598591
70.635 20.08017
70.640 20.457521
70.645 20.498751
70.650 19.841951
70.655 19.117786
70.660 18.563822
70.665 18.168802
70.670 17.720352
70.675 17.684595
70.680 17.547831
70.685 17.99299
70.690 18.575926
70.695 18.537416
70.700 17.662235
70.705 17.2586
70.710 16.531376
70.715 15.849562
70.720 15.515306
70.725 15.052348
70.730 14.664351
70.735 14.779097
70.740 15.533113
70.745 16.223013
70.750 16.998663
70.755 16.829344
70.760 17.057062
70.765 18.258827
70.770 18.157364
70.775 17.884035
70.780 18.071646
70.785 18.189453
70.790 18.472055
70.795 17.991018
70.800 17.372766
70.805 17.389843
70.810 17.421125
70.815 16.873547
70.820 16.589691
70.825 16.676003
70.830 16.597506
70.835 16.820213
70.840 16.450659
70.845 16.625809
70.850 17.617445
70.855 18.162355
70.860 18.24605
70.865 18.884611
70.870 19.123575
70.875 19.319643
70.880 18.853785
70.885 18.300903
70.890 17.499622
70.895 17.607147
70.900 17.513681
70.905 17.49968
70.910 17.124557
70.915 17.066528
70.920 16.876905
70.925 17.266657
70.930 17.196531
70.935 17.092163
70.940 17.144485
70.945 17.325891
70.950 16.976389
70.955 17.404102
70.960 17.571705
70.965 17.376989
70.970 17.300848
70.975 17.513079
70.980 17.68885
70.985 18.237291
70.990 17.85635
70.995 17.278816
71.000 17.287113
71.005 17.958153
71.010 18.045107
71.015 18.177086
71.020 18.15539
71.025 18.217974
71.030 18.76676
71.035 18.983553
71.040 18.441801
71.045 17.982594
71.050 17.483738
71.055 17.732367
71.060 18.372154
71.065 18.172487
71.070 17.982342
71.075 18.325123
71.080 18.909836
71.085 18.969734
71.090 18.30422
71.095 18.372835
71.100 18.32892
71.105 18.202427
71.110 17.932594
71.115 18.033707
71.120 17.999525
71.125 17.520014
71.130 16.96347
71.135 16.784765
71.140 16.568621
71.145 16.349068
71.150 16.144842
71.155 16.472088
71.160 16.483389
71.165 17.006611
71.170 17.297054
71.175 17.635021
71.180 17.401911
71.185 17.125637
71.190 16.966322
71.195 17.147438
71.200 17.269012
71.205 16.902239
71.210 16.666801
71.215 16.916683
71.220 17.556736
71.225 17.552679
71.230 17.268084
71.235 16.966043
71.240 17.519617
71.245 17.331665
71.250 17.138483
71.255 16.750839
71.260 16.73612
71.265 17.261763
71.270 17.054092
71.275 16.421852
71.280 16.048939
71.285 16.058609
71.290 15.698832
71.295 15.514349
71.300 15.403023
71.305 15.466317
71.310 16.183878
71.315 16.440798
71.320 16.608122
71.325 16.994865
71.330 17.376095
71.335 17.280674
71.340 17.690668
71.345 18.086815
71.350 18.155134
71.355 17.76194
71.360 17.323441
71.365 17.094248
71.370 17.226692
71.375 16.892267
71.380 16.844498
71.385 17.286964
71.390 17.225798
71.395 17.311869
71.400 16.870386
71.405 16.729755
71.410 16.831108
71.415 16.2019
71.420 15.61944
71.425 15.887094
71.430 16.12624
71.435 16.536575
71.440 16.424726
71.445 16.386848
71.450 17.1842
71.455 17.735865
71.460 17.65451
71.465 17.955803
71.470 18.052567
71.475 18.34948
71.480 18.212713
71.485 17.819647
71.490 17.983383
71.495 18.648756
71.500 18.560413
71.505 18.426544
71.510 17.859495
71.515 17.778677
71.520 17.740938
71.525 17.158298
71.530 16.652454
71.535 16.955999
71.540 16.752792
71.545 16.989189
71.550 17.020761
71.555 17.01079
71.560 17.033394
71.565 16.457514
71.570 15.748301
71.575 15.75175
71.580 15.891587
71.585 15.526207
71.590 15.473882
71.595 15.91816
71.600 16.459185
71.605 17.019995
71.610 17.16725
71.615 16.833891
71.620 16.92642
71.625 16.879282
71.630 16.772581
71.635 17.010046
71.640 16.386284
71.645 15.782295
71.650 16.0317
71.655 15.752248
71.660 15.7447
71.665 15.912402
71.670 15.862835
71.675 16.031954
71.680 16.695744
71.685 17.330692
71.690 17.670607
71.695 17.780762
71.700 17.462109
71.705 17.341446
71.710 17.537647
71.715 17.416628
71.720 17.361103
71.725 17.2264
71.730 16.979206
71.735 16.957479
71.740 16.993452
71.745 16.818762
71.750 16.499456
71.755 16.641598
71.760 16.920912
71.765 17.351177
71.770 17.125074
71.775 17.032883
71.780 16.638399
71.785 16.837866
71.790 16.542521
71.795 16.19454
71.800 16.057762
71.805 16.482801
71.810 16.796162
71.815 17.253126
71.820 17.349089
71.825 18.042803
71.830 17.906813
71.835 17.636082
71.840 17.620785
71.845 17.562313
71.850 17.197748
71.855 16.986525
71.860 16.309534
71.865 15.833233
71.870 15.451389
71.875 15.238503
71.880 15.293391
71.885 15.167956
71.890 15.295434
71.895 15.608909
71.900 16.266848
71.905 16.670589
71.910 17.461975
71.915 17.863983
71.920 17.575754
71.925 17.283104
71.930 17.351669
71.935 17.523428
71.940 17.335566
71.945 16.328592
71.950 16.051651
71.955 16.350018
71.960 16.489784
71.965 16.116564
71.970 16.549637
71.975 16.454262
71.980 17.006927
71.985 17.251633
71.990 17.279724
71.995 17.614164
72.000 17.64744
72.005 17.16077
72.010 17.168427
72.015 16.488806
72.020 16.953259
72.025 16.333254
72.030 15.715365
72.035 16.001163
72.040 16.049498
72.045 15.993323
72.050 15.525205
72.055 15.081367
72.060 15.631706
72.065 15.543445
72.070 15.35934
72.075 15.459703
72.080 15.627758
72.085 15.881066
72.090 15.79511
72.095 16.039896
72.100 16.551119
72.105 17.125727
72.110 17.142605
72.115 17.485903
72.120 17.644438
72.125 17.360735
72.130 16.878735
72.135 16.465967
72.140 16.089243
72.145 15.701444
72.150 15.658401
72.155 15.724486
72.160 16.17503
72.165 16.076069
72.170 16.273695
72.175 16.628912
72.180 17.418772
72.185 17.710302
72.190 17.820908
72.195 18.146748
72.200 18.713879
72.205 18.583624
72.210 18.689604
72.215 18.466814
72.220 18.503668
72.225 18.302746
72.230 17.999247
72.235 17.91783
72.240 17.537495
72.245 17.30607
72.250 17.145609
72.255 16.599955
72.260 16.810612
72.265 16.697651
72.270 16.49151
72.275 17.129198
72.280 16.819725
72.285 16.793259
72.290 17.145752
72.295 17.617275
72.300 17.838589
72.305 18.053003
72.310 18.4401
72.315 19.103643
72.320 18.465065
72.325 17.882839
72.330 17.994417
72.335 17.761564
72.340 17.18437
72.345 16.659775
72.350 16.56625
72.355 17.805658
72.360 17.59075
72.365 16.415129
72.370 16.400953
72.375 16.041525
72.380 16.252764
72.385 15.844265
72.390 15.046901
72.395 14.67783
72.400 14.99504
72.405 15.075218
72.410 15.453357
72.415 15.392894
72.420 16.158953
72.425 17.266571
72.430 17.543541
72.435 17.588299
72.440 17.679544
72.445 17.582306
72.450 17.536215
72.455 16.170191
72.460 15.54708
72.465 15.792524
72.470 16.030779
72.475 15.695739
72.480 15.829628
72.485 15.222411
72.490 15.643322
72.495 15.823307
72.500 16.280455
72.505 16.331896
72.510 16.168457
72.515 15.918211
72.520 16.501642
72.525 16.195742
72.530 16.127474
72.535 15.980476
72.540 15.612313
72.545 15.909635
72.550 15.742293
72.555 16.17469
72.560 16.492477
72.565 15.86202
72.570 15.775676
72.575 16.263313
72.580 16.609898
72.585 17.083687
72.590 17.159515
72.595 17.27762
72.600 17.498854
72.605 17.365417
72.610 17.509638
72.615 17.043203
72.620 16.314369
72.625 16.527857
72.630 16.577625
72.635 16.626556
72.640 16.644012
72.645 16.197676
72.650 16.406534
72.655 16.538977
72.660 16.478054
72.665 16.321894
72.670 16.743473
72.675 16.911562
72.680 16.922121
72.685 16.870726
72.690 16.863512
72.695 17.291294
72.700 17.338894
72.705 16.651569
72.710 16.707987
72.715 16.394991
72.720 16.44593
72.725 15.932524
72.730 15.724215
72.735 15.881835
72.740 16.637537
72.745 16.647415
72.750 16.929066
72.755 17.330032
72.760 17.588894
72.765 17.367229
72.770 16.811186
72.775 16.246532
72.780 16.323326
72.785 16.279999
72.790 15.881612
72.795 15.816972
72.800 15.864936
72.805 15.645822
72.810 15.256139
72.815 14.989277
72.820 14.515197
72.825 14.711102
72.830 14.778299
72.835 15.118124
72.840 15.575441
72.845 15.483026
72.850 15.824516
72.855 15.976259
72.860 15.761279
72.865 16.591885
72.870 16.597992
72.875 16.421164
72.880 16.514484
72.885 16.241638
72.890 16.524542
72.895 16.656096
72.900 15.791289
72.905 15.600442
72.910 15.672165
72.915 15.800383
72.920 15.430753
72.925 15.035955
72.930 14.938544
72.935 15.334044
72.940 15.464899
72.945 15.336323
72.950 15.503591
72.955 16.094944
72.960 15.988379
72.965 15.574087
72.970 15.725997
72.975 15.572234
72.980 15.447793
72.985 15.402045
72.990 15.431279
72.995 15.805743
73.000 15.743876
