!@!!GADDS PLOTSO FILE: Chi integration type
!@!!Title/SampleName: map-8c
!@!!Comment: ?
!@!!User: Bruker Instrument Administrator
!@!!Site: University of Illinois Chicago
!@!!Frame: map-8c_01_000.gfrm
!@!!Wavelengths    1.54184   1.54056   1.54439
!@!!Frame angles: 2Theta: 63.000 Omega: 50.000 Phi: 0.000 Chi: 90.000
!@!!Integration range: 2Theta: 53.000 to 73.000  Gamma: -105.000 to -75.000
!@!!Integration method: bin normalized
!@!N
!@!SS
!@!M
!@!L 0.0 0.0 0.0 0.0
!@!XDegrees
!@!YCounts
53.000 7.015625
53.005 7.135274
53.010 7.15604
53.015 7.34195
53.020 7.590328
53.025 8.184447
53.030 8.633652
53.035 8.932276
53.040 8.970098
53.045 8.937705
53.050 8.667248
53.055 8.041135
53.060 8.126642
53.065 8.15982
53.070 8.292944
53.075 8.077009
53.080 7.98159
53.085 8.468164
53.090 9.002252
53.095 8.686846
53.100 8.810143
53.105 8.940479
53.110 9.20516
53.115 9.265121
53.120 8.884138
53.125 8.566957
53.130 8.549049
53.135 8.10173
53.140 8.019877
53.145 7.883338
53.150 7.782283
53.155 7.917153
53.160 8.192334
53.165 7.994685
53.170 7.743372
53.175 7.536181
53.180 7.816722
53.185 7.937411
53.190 8.264212
53.195 8.320714
53.200 8.2648
53.205 8.454034
53.210 8.647696
53.215 8.463255
53.220 8.327289
53.225 7.913778
53.230 7.946746
53.235 7.782031
53.240 7.40294
53.245 7.102807
53.250 6.988213
53.255 7.232664
53.260 7.009019
53.265 7.555049
53.270 7.835119
53.275 8.033219
53.280 8.414935
53.285 8.610217
53.290 8.495376
53.295 8.60815
53.300 8.33459
53.305 8.315698
53.310 8.225983
53.315 8.148712
53.320 8.417003
53.325 8.485506
53.330 8.07806
53.335 8.10027
53.340 8.364285
53.345 8.760767
53.350 8.691879
53.355 8.137068
53.360 8.49587
53.365 9.022254
53.370 8.860631
53.375 8.664013
53.380 8.551634
53.385 8.9646
53.390 9.265958
53.395 9.463428
53.400 9.429006
53.405 9.865963
53.410 9.585445
53.415 9.193477
53.420 8.841938
53.425 8.495135
53.430 8.487303
53.435 8.45029
53.440 8.489277
53.445 8.531635
53.450 8.804137
53.455 8.687722
53.460 8.576857
53.465 8.011939
53.470 7.895928
53.475 7.592922
53.480 7.47455
53.485 7.3876
53.490 7.948926
53.495 7.949964
53.500 8.219977
53.505 8.636456
53.510 8.696934
53.515 8.9842
53.520 8.99863
53.525 8.205015
53.530 8.190689
53.535 8.054192
53.540 7.892128
53.545 8.358044
53.550 8.529812
53.555 8.696208
53.560 9.188314
53.565 9.463372
53.570 9.328041
53.575 9.156606
53.580 8.913872
53.585 9.108939
53.590 9.24001
53.595 9.002685
53.600 8.839385
53.605 8.783144
53.610 8.751089
53.615 8.535298
53.620 8.434847
53.625 8.641694
53.630 9.187019
53.635 9.449343
53.640 9.648656
53.645 9.878743
53.650 9.76943
53.655 9.70527
53.660 9.285285
53.665 8.933513
53.670 9.159156
53.675 9.001032
53.680 9.073673
53.685 9.242766
53.690 9.081898
53.695 9.162045
53.700 9.388824
53.705 9.623009
53.710 10.205401
53.715 10.038342
53.720 10.170199
53.725 10.079145
53.730 9.900695
53.735 9.623801
53.740 9.431159
53.745 9.012937
53.750 9.071886
53.755 9.360521
53.760 9.702785
53.765 9.614614
53.770 9.263075
53.775 8.861933
53.780 9.25789
53.785 9.201403
53.790 8.876262
53.795 8.697169
53.800 8.877151
53.805 9.346357
53.810 9.325602
53.815 9.033764
53.820 8.785145
53.825 8.579636
53.830 8.421508
53.835 8.002603
53.840 7.907753
53.845 8.105998
53.850 8.403297
53.855 8.505809
53.860 9.137993
53.865 9.766397
53.870 10.037332
53.875 9.788212
53.880 9.166644
53.885 9.146416
53.890 9.050491
53.895 8.762083
53.900 8.19023
53.905 8.124879
53.910 8.629275
53.915 8.748531
53.920 8.484284
53.925 8.798561
53.930 9.300497
53.935 9.551639
53.940 9.789073
53.945 9.856258
53.950 10.207866
53.955 10.520792
53.960 9.743449
53.965 9.498865
53.970 9.257318
53.975 9.000051
53.980 9.045344
53.985 8.921161
53.990 9.229187
53.995 9.312278
54.000 8.991433
54.005 9.030889
54.010 9.098324
54.015 9.051714
54.020 8.746989
54.025 8.514165
54.030 9.064508
54.035 9.209057
54.040 9.257874
54.045 9.20962
54.050 8.929997
54.055 8.738901
54.060 8.434454
54.065 8.474871
54.070 8.628678
54.075 8.461608
54.080 8.416065
54.085 8.400405
54.090 8.731813
54.095 8.877121
54.100 8.85971
54.105 9.175467
54.110 9.453303
54.115 9.881888
54.120 10.158251
54.125 9.938685
54.130 9.951653
54.135 9.786332
54.140 9.394508
54.145 9.403436
54.150 9.278687
54.155 9.252949
54.160 9.527505
54.165 9.451951
54.170 9.011433
54.175 8.916547
54.180 8.606173
54.185 8.328781
54.190 8.294446
54.195 8.289696
54.200 8.439327
54.205 9.244332
54.210 9.479651
54.215 9.705901
54.220 10.094797
54.225 10.548661
54.230 10.894978
54.235 11.227045
54.240 10.823681
54.245 10.570851
54.250 10.41415
54.255 10.739017
54.260 10.440915
54.265 10.08403
54.270 9.928464
54.275 10.282063
54.280 10.552642
54.285 10.571181
54.290 10.646445
54.295 10.602458
54.300 10.371904
54.305 10.287652
54.310 10.062877
54.315 10.433076
54.320 9.855515
54.325 9.240743
54.330 9.186667
54.335 9.642108
54.340 9.584304
54.345 9.662271
54.350 9.888539
54.355 10.105008
54.360 10.431296
54.365 10.583905
54.370 10.476475
54.375 10.906064
54.380 10.950882
54.385 10.605714
54.390 10.816955
54.395 10.435958
54.400 9.975179
54.405 9.488789
54.410 8.837913
54.415 8.903518
54.420 8.599132
54.425 8.344486
54.430 8.551763
54.435 8.522149
54.440 8.58003
54.445 8.521219
54.450 8.619391
54.455 9.28211
54.460 9.699387
54.465 9.648525
54.470 10.273807
54.475 10.300696
54.480 10.189943
54.485 9.615406
54.490 9.19679
54.495 8.893136
54.500 8.942503
54.505 8.745232
54.510 8.622983
54.515 8.860471
54.520 8.850402
54.525 8.725034
54.530 8.629737
54.535 8.57443
54.540 8.197738
54.545 7.949876
54.550 7.910641
54.555 8.468338
54.560 8.475986
54.565 8.234883
54.570 8.140151
54.575 8.772777
54.580 9.186954
54.585 9.571096
54.590 9.289445
54.595 9.144734
54.600 9.840775
54.605 9.790874
54.610 9.976969
54.615 9.915381
54.620 9.18006
54.625 9.163206
54.630 9.263599
54.635 9.164247
54.640 9.688239
54.645 9.271929
54.650 9.260504
54.655 9.804516
54.660 10.119706
54.665 10.044156
54.670 9.367568
54.675 8.985065
54.680 9.496799
54.685 9.531632
54.690 9.329841
54.695 9.084738
54.700 8.870562
54.705 9.042286
54.710 8.921233
54.715 8.549019
54.720 8.569572
54.725 8.429158
54.730 8.687151
54.735 8.909336
54.740 9.055882
54.745 8.867243
54.750 9.185227
54.755 9.53265
54.760 9.636272
54.765 9.917246
54.770 10.108548
54.775 9.961918
54.780 9.793738
54.785 9.210468
54.790 9.086052
54.795 8.951736
54.800 8.587581
54.805 8.300176
54.810 8.728544
54.815 9.798963
54.820 10.310404
54.825 10.298833
54.830 10.553148
54.835 10.699644
54.840 11.032471
54.845 10.772821
54.850 10.017928
54.855 9.723521
54.860 9.855651
54.865 10.156566
54.870 10.07096
54.875 9.791911
54.880 9.996398
54.885 9.874544
54.890 9.832006
54.895 9.820706
54.900 9.4754
54.905 9.422927
54.910 9.310369
54.915 9.250531
54.920 9.606873
54.925 9.316863
54.930 9.095806
54.935 9.465824
54.940 9.612582
54.945 9.818414
54.950 9.691174
54.955 9.846687
54.960 10.089486
54.965 9.929618
54.970 9.846414
54.975 9.774441
54.980 9.972129
54.985 10.598683
54.990 10.671282
54.995 10.664248
55.000 10.893002
55.005 10.891724
55.010 11.454364
55.015 11.084279
55.020 10.863645
55.025 10.576365
55.030 10.457786
55.035 10.458288
55.040 10.223733
55.045 9.905936
55.050 9.876397
55.055 9.728166
55.060 9.735511
55.065 9.893488
55.070 9.737219
55.075 9.936825
55.080 10.170653
55.085 10.444183
55.090 10.819643
55.095 10.882165
55.100 11.083726
55.105 11.66205
55.110 11.625139
55.115 11.640243
55.120 11.456979
55.125 11.316072
55.130 11.206363
55.135 10.966099
55.140 10.77454
55.145 10.541873
55.150 10.368114
55.155 10.218801
55.160 10.12211
55.165 10.160979
55.170 9.770148
55.175 10.011274
55.180 10.128395
55.185 10.517531
55.190 11.13998
55.195 11.273873
55.200 11.159928
55.205 11.126913
55.210 11.169246
55.215 11.240596
55.220 11.021265
55.225 10.823168
55.230 11.328972
55.235 11.598315
55.240 11.810779
55.245 11.614326
55.250 11.759396
55.255 11.032791
55.260 10.993012
55.265 10.771825
55.270 10.322239
55.275 9.808176
55.280 9.80674
55.285 9.890029
55.290 10.156043
55.295 10.104842
55.300 9.947795
55.305 10.153418
55.310 10.403625
55.315 10.879864
55.320 11.318837
55.325 11.987941
55.330 11.949493
55.335 12.113304
55.340 12.011803
55.345 11.856071
55.350 11.364792
55.355 10.873442
55.360 10.626143
55.365 10.789091
55.370 10.547181
55.375 10.686121
55.380 10.79799
55.385 10.913275
55.390 10.779204
55.395 10.91565
55.400 11.151516
55.405 11.208049
55.410 11.011801
55.415 10.669507
55.420 10.284148
55.425 9.951882
55.430 9.848603
55.435 9.786774
55.440 10.117581
55.445 10.458322
55.450 10.739497
55.455 11.503156
55.460 12.176001
55.465 11.903244
55.470 12.230394
55.475 12.427981
55.480 12.229327
55.485 11.662708
55.490 10.88132
55.495 10.597486
55.500 10.335145
55.505 9.640989
55.510 9.704799
55.515 9.810349
55.520 10.111144
55.525 10.042555
55.530 10.011406
55.535 10.296029
55.540 10.659418
55.545 10.60312
55.550 10.650582
55.555 10.694808
55.560 10.769331
55.565 10.782397
55.570 10.735706
55.575 11.062307
55.580 11.697046
55.585 12.054332
55.590 12.140075
55.595 12.233118
55.600 12.747481
55.605 12.460944
55.610 11.961884
55.615 11.057563
55.620 11.099348
55.625 11.181799
55.630 11.352882
55.635 10.911708
55.640 11.140631
55.645 11.027416
55.650 10.990603
55.655 10.704577
55.660 10.492374
55.665 9.682639
55.670 9.884986
55.675 9.813593
55.680 9.712605
55.685 9.626923
55.690 9.556026
55.695 9.90824
55.700 10.725882
55.705 10.868325
55.710 10.553326
55.715 10.642613
55.720 10.900446
55.725 10.908176
55.730 10.584961
55.735 9.723204
55.740 9.602542
55.745 9.642538
55.750 9.822562
55.755 9.766938
55.760 9.896762
55.765 9.968359
55.770 10.257571
55.775 10.753571
55.780 11.026411
55.785 10.90196
55.790 10.607464
55.795 10.351703
55.800 10.837309
55.805 10.771339
55.810 10.5425
55.815 10.952518
55.820 11.441925
55.825 11.736571
55.830 11.598763
55.835 11.528167
55.840 11.680876
55.845 11.561938
55.850 11.109697
55.855 11.023166
55.860 11.333364
55.865 11.62503
55.870 11.288181
55.875 11.420501
55.880 11.259493
55.885 11.298497
55.890 11.005604
55.895 10.683163
55.900 10.485027
55.905 10.20974
55.910 10.217562
55.915 10.545334
55.920 11.030585
55.925 11.460485
55.930 11.513526
55.935 11.599967
55.940 12.00938
55.945 12.162186
55.950 12.303978
55.955 12.536035
55.960 12.886982
55.965 13.022283
55.970 13.076179
55.975 12.665559
55.980 12.510391
55.985 11.939255
55.990 11.233342
55.995 11.092205
56.000 11.444838
56.005 11.656887
56.010 12.169761
56.015 12.50625
56.020 12.086196
56.025 12.171672
56.030 11.90382
56.035 11.336829
56.040 11.501724
56.045 11.093663
56.050 10.921512
56.055 11.260525
56.060 11.074741
56.065 11.53281
56.070 11.352355
56.075 11.309464
56.080 11.908056
56.085 12.245561
56.090 12.899398
56.095 13.166737
56.100 13.138642
56.105 13.436091
56.110 13.558755
56.115 13.299316
56.120 13.319077
56.125 13.125944
56.130 12.463005
56.135 12.248473
56.140 12.517005
56.145 11.473194
56.150 10.964378
56.155 10.480782
56.160 10.396572
56.165 10.653825
56.170 10.969329
56.175 10.79376
56.180 11.230779
56.185 10.969316
56.190 11.098344
56.195 11.152085
56.200 11.298602
56.205 10.922915
56.210 10.997626
56.215 11.225159
56.220 11.190665
56.225 11.127625
56.230 10.963431
56.235 10.960281
56.240 11.04808
56.245 11.456141
56.250 11.97249
56.255 11.925423
56.260 11.993048
56.265 12.032602
56.270 11.860364
56.275 11.404885
56.280 10.806657
56.285 10.57254
56.290 11.097116
56.295 11.085436
56.300 11.367297
56.305 11.815584
56.310 12.214497
56.315 12.349512
56.320 12.273005
56.325 11.595825
56.330 11.338696
56.335 11.412072
56.340 11.191865
56.345 11.563299
56.350 11.578242
56.355 11.95808
56.360 12.425822
56.365 12.439983
56.370 11.816176
56.375 11.513419
56.380 11.030806
56.385 11.327738
56.390 11.143956
56.395 10.888836
56.400 10.783726
56.405 11.483981
56.410 11.983242
56.415 12.007789
56.420 12.122704
56.425 11.914867
56.430 11.861053
56.435 12.033402
56.440 11.565756
56.445 11.108561
56.450 11.333446
56.455 10.603567
56.460 10.577062
56.465 10.967578
56.470 10.960928
56.475 11.21037
56.480 11.369425
56.485 11.231962
56.490 12.106345
56.495 12.416158
56.500 12.592089
56.505 12.648087
56.510 12.358391
56.515 11.874624
56.520 11.338968
56.525 10.735165
56.530 10.886372
56.535 11.004269
56.540 11.094318
56.545 11.593136
56.550 12.28939
56.555 12.732484
56.560 12.977264
56.565 12.656925
56.570 12.397508
56.575 12.654836
56.580 12.50671
56.585 12.346192
56.590 12.421049
56.595 12.877143
56.600 13.079188
56.605 12.627926
56.610 11.959496
56.615 11.32414
56.620 11.106874
56.625 11.064787
56.630 10.849628
56.635 10.55098
56.640 10.85151
56.645 11.316441
56.650 12.325457
56.655 12.511383
56.660 12.105348
56.665 11.814497
56.670 11.868445
56.675 11.895217
56.680 12.251206
56.685 12.878386
56.690 12.815616
56.695 12.878366
56.700 12.66629
56.705 12.409299
56.710 12.209308
56.715 11.078275
56.720 10.312467
56.725 10.864601
56.730 11.235928
56.735 12.244282
56.740 12.579223
56.745 12.966692
56.750 13.555329
56.755 13.072555
56.760 12.648979
56.765 12.614792
56.770 12.463151
56.775 13.031113
56.780 13.381397
56.785 13.252581
56.790 13.248453
56.795 12.920374
56.800 13.016478
56.805 12.810438
56.810 11.937922
56.815 11.711842
56.820 12.015573
56.825 12.692695
56.830 12.697324
56.835 12.28064
56.840 12.320036
56.845 12.168543
56.850 12.142302
56.855 12.385103
56.860 12.00172
56.865 12.06747
56.870 11.619325
56.875 11.307501
56.880 11.827759
56.885 11.445012
56.890 11.397533
56.895 11.716481
56.900 11.697123
56.905 12.437395
56.910 12.816944
56.915 12.801982
56.920 12.987037
56.925 12.635996
56.930 12.414371
56.935 12.45715
56.940 12.199718
56.945 11.861436
56.950 11.769398
56.955 11.942755
56.960 12.520924
56.965 12.661057
56.970 12.624104
56.975 12.585017
56.980 12.718443
56.985 12.810492
56.990 12.84701
56.995 12.348456
57.000 11.862382
57.005 12.466022
57.010 12.948748
57.015 12.590254
57.020 12.399252
57.025 12.114251
57.030 12.140441
57.035 12.308962
57.040 11.741807
57.045 11.345401
57.050 11.841615
57.055 12.426332
57.060 12.946367
57.065 13.416759
57.070 13.697535
57.075 13.342001
57.080 12.867713
57.085 12.227938
57.090 11.689122
57.095 11.229966
57.100 10.72193
57.105 10.568044
57.110 11.675041
57.115 12.048095
57.120 11.90929
57.125 11.526621
57.130 11.64221
57.135 12.126923
57.140 12.065851
57.145 11.484262
57.150 12.242296
57.155 12.507658
57.160 12.696249
57.165 13.076746
57.170 13.012179
57.175 12.848347
57.180 12.706217
57.185 12.41166
57.190 12.591831
57.195 12.268401
57.200 12.122574
57.205 12.272355
57.210 13.278634
57.215 13.686483
57.220 13.475272
57.225 13.734965
57.230 13.906242
57.235 13.767531
57.240 13.302252
57.245 12.482857
57.250 12.43325
57.255 12.861289
57.260 12.619987
57.265 12.193635
57.270 12.293194
57.275 12.712582
57.280 12.700869
57.285 12.946737
57.290 12.841657
57.295 12.838313
57.300 13.087967
57.305 13.46354
57.310 13.407736
57.315 13.781698
57.320 14.047997
57.325 13.840281
57.330 14.084653
57.335 14.188353
57.340 13.270635
57.345 12.936278
57.350 12.260479
57.355 11.817906
57.360 12.714374
57.365 12.76925
57.370 12.913798
57.375 13.188005
57.380 13.5741
57.385 13.838124
57.390 13.706372
57.395 13.376477
57.400 13.658953
57.405 13.355786
57.410 13.318754
57.415 13.188654
57.420 13.309228
57.425 13.231034
57.430 13.02647
57.435 12.848735
57.440 13.620306
57.445 14.239099
57.450 14.062495
57.455 14.245325
57.460 14.084891
57.465 13.840384
57.470 13.518264
57.475 13.293149
57.480 12.929364
57.485 12.968225
57.490 12.889865
57.495 12.714938
57.500 12.688408
57.505 13.078806
57.510 12.71243
57.515 12.668205
57.520 12.91068
57.525 12.761374
57.530 13.437838
57.535 13.897513
57.540 13.432511
57.545 13.989348
57.550 14.365769
57.555 14.609189
57.560 14.814569
57.565 14.241619
57.570 14.138835
57.575 14.419962
57.580 14.413431
57.585 14.323942
57.590 14.177547
57.595 14.273804
57.600 14.28805
57.605 14.001798
57.610 13.49707
57.615 13.648726
57.620 13.96122
57.625 13.401058
57.630 13.351125
57.635 13.669613
57.640 13.878726
57.645 13.892748
57.650 13.681834
57.655 13.673485
57.660 13.996171
57.665 14.03981
57.670 13.464286
57.675 13.581101
57.680 13.710949
57.685 13.433619
57.690 13.424783
57.695 13.420748
57.700 13.73169
57.705 13.885933
57.710 13.843312
57.715 14.269699
57.720 14.286163
57.725 13.979553
57.730 13.860946
57.735 13.67041
57.740 13.995799
57.745 13.91299
57.750 13.72247
57.755 13.658109
57.760 14.103033
57.765 14.244529
57.770 14.318446
57.775 14.236897
57.780 13.953395
57.785 13.787789
57.790 13.71134
57.795 13.342048
57.800 12.953431
57.805 12.520199
57.810 12.918524
57.815 13.368505
57.820 14.042201
57.825 14.425146
57.830 14.541993
57.835 14.531375
57.840 15.050987
57.845 14.901936
57.850 14.927036
57.855 14.498899
57.860 14.51001
57.865 14.951281
57.870 15.535853
57.875 15.44353
57.880 15.667805
57.885 15.397144
57.890 15.29955
57.895 15.059223
57.900 15.009057
57.905 15.124586
57.910 14.984784
57.915 14.696972
57.920 14.581749
57.925 14.721986
57.930 14.761515
57.935 15.043414
57.940 14.676194
57.945 14.306423
57.950 14.236557
57.955 14.077694
57.960 13.979161
57.965 13.757902
57.970 14.11153
57.975 14.361222
57.980 14.973965
57.985 15.440077
57.990 15.488664
57.995 16.015743
58.000 16.720806
58.005 15.782415
58.010 15.937439
58.015 15.858801
58.020 15.655526
58.025 15.587043
58.030 15.442211
58.035 15.350215
58.040 15.557685
58.045 15.02033
58.050 15.160698
58.055 15.376142
58.060 15.248128
58.065 15.092456
58.070 15.047054
58.075 15.026922
58.080 14.818185
58.085 14.577597
58.090 15.011758
58.095 15.185449
58.100 14.425797
58.105 14.342617
58.110 14.715726
58.115 15.215785
58.120 15.868608
58.125 15.332483
58.130 15.481038
58.135 15.727983
58.140 15.842287
58.145 15.710401
58.150 15.425279
58.155 14.934433
58.160 14.65145
58.165 14.503125
58.170 15.098129
58.175 15.628473
58.180 15.514628
58.185 15.17058
58.190 15.016065
58.195 15.102399
58.200 15.080606
58.205 14.632229
58.210 14.353061
58.215 15.176393
58.220 15.666977
58.225 16.344536
58.230 17.144974
58.235 17.730867
58.240 17.849981
58.245 17.971706
58.250 17.586216
58.255 17.932165
58.260 17.7665
58.265 17.347656
58.270 17.263021
58.275 17.233093
58.280 17.245867
58.285 16.986132
58.290 16.994385
58.295 16.943861
58.300 17.32811
58.305 17.487597
58.310 17.216959
58.315 17.226341
58.320 17.988676
58.325 18.174335
58.330 17.997368
58.335 18.089941
58.340 18.296774
58.345 18.849087
58.350 19.009899
58.355 19.168941
58.360 19.019419
58.365 19.394958
58.370 19.56671
58.375 20.050768
58.380 19.878162
58.385 20.069818
58.390 20.493803
58.395 20.365395
58.400 20.374226
58.405 20.574305
58.410 20.542643
58.415 20.529444
58.420 21.206734
58.425 20.773378
58.430 21.193964
58.435 21.551201
58.440 21.245533
58.445 21.187386
58.450 21.328041
58.455 21.660076
58.460 22.55817
58.465 23.188265
58.470 23.104397
58.475 23.36927
58.480 23.813469
58.485 24.259203
58.490 24.317026
58.495 25.097898
58.500 24.754557
58.505 25.22238
58.510 25.795225
58.515 26.072725
58.520 26.359848
58.525 26.087767
58.530 25.96192
58.535 27.36516
58.540 27.618303
58.545 27.299845
58.550 27.364222
58.555 28.608675
58.560 28.897243
58.565 29.123194
58.570 29.532551
58.575 30.724173
58.580 31.155987
58.585 31.065275
58.590 30.608112
58.595 31.975151
58.600 32.064571
58.605 31.72114
58.610 31.509211
58.615 31.884258
58.620 32.528381
58.625 32.523129
58.630 32.859196
58.635 32.680981
58.640 32.395447
58.645 31.923515
58.650 32.022968
58.655 32.187374
58.660 32.254112
58.665 30.854324
58.670 31.065208
58.675 31.02562
58.680 31.315121
58.685 31.737898
58.690 31.856762
58.695 32.395512
58.700 32.910076
58.705 33.093746
58.710 33.547745
58.715 33.359592
58.720 32.853558
58.725 32.09993
58.730 31.191145
58.735 30.606647
58.740 30.211664
58.745 30.114128
58.750 30.010443
58.755 29.190317
58.760 29.188839
58.765 28.821236
58.770 28.816891
58.775 28.848179
58.780 28.510889
58.785 28.076889
58.790 27.793594
58.795 27.587603
58.800 27.162827
58.805 26.757092
58.810 26.52804
58.815 25.95225
58.820 25.7033
58.825 26.153187
58.830 26.115829
58.835 26.007412
58.840 25.770908
58.845 25.172174
58.850 25.276169
58.855 24.834042
58.860 24.208845
58.865 23.434525
58.870 23.277832
58.875 22.988396
58.880 23.154924
58.885 23.042645
58.890 22.196222
58.895 21.678589
58.900 21.892475
58.905 21.037125
58.910 20.86554
58.915 20.337656
58.920 19.686705
58.925 20.375509
58.930 21.384111
58.935 21.458107
58.940 22.157164
58.945 21.535378
58.950 21.091955
58.955 21.423977
58.960 21.177998
58.965 20.277201
58.970 19.459024
58.975 18.487862
58.980 18.600502
58.985 18.835001
58.990 18.658741
58.995 18.144119
59.000 18.2801
59.005 18.679712
59.010 19.020914
59.015 18.5201
59.020 17.910299
59.025 17.950779
59.030 18.119282
59.035 17.848345
59.040 18.460117
59.045 18.459488
59.050 17.981194
59.055 17.398756
59.060 17.340748
59.065 17.549675
59.070 17.599648
59.075 16.407927
59.080 15.986166
59.085 16.713974
59.090 16.378286
59.095 15.92431
59.100 15.625384
59.105 15.436152
59.110 15.408334
59.115 15.104116
59.120 14.882223
59.125 15.079289
59.130 14.624067
59.135 14.186273
59.140 14.063284
59.145 14.075266
59.150 13.978234
59.155 13.938182
59.160 14.2394
59.165 14.830701
59.170 15.209509
59.175 15.089051
59.180 15.514753
59.185 15.953942
59.190 15.946445
59.195 15.791047
59.200 15.334827
59.205 14.939498
59.210 14.748207
59.215 14.28872
59.220 13.800117
59.225 13.745646
59.230 13.651516
59.235 13.586292
59.240 14.073173
59.245 14.083603
59.250 13.682488
59.255 13.420918
59.260 13.320208
59.265 13.600227
59.270 13.665398
59.275 13.35581
59.280 13.335507
59.285 13.890049
59.290 14.652122
59.295 14.664363
59.300 14.622861
59.305 14.643168
59.310 14.394804
59.315 14.393333
59.320 14.373356
59.325 14.808791
59.330 15.343018
59.335 15.475572
59.340 15.660107
59.345 15.528379
59.350 15.523505
59.355 15.661551
59.360 15.172838
59.365 14.660644
59.370 14.582288
59.375 14.568946
59.380 14.787867
59.385 15.135234
59.390 15.355311
59.395 14.99656
59.400 15.151371
59.405 15.297396
59.410 14.899656
59.415 14.953453
59.420 14.289573
59.425 13.901064
59.430 14.002391
59.435 13.858309
59.440 13.51837
59.445 13.673918
59.450 13.63587
59.455 14.009922
59.460 14.029794
59.465 14.132316
59.470 13.779982
59.475 13.898256
59.480 13.799726
59.485 13.889017
59.490 13.674831
59.495 13.836575
59.500 13.942766
59.505 14.265846
59.510 14.527804
59.515 14.741574
59.520 14.472592
59.525 14.35117
59.530 14.081745
59.535 13.887715
59.540 13.670855
59.545 13.544106
59.550 13.21335
59.555 13.475029
59.560 13.841581
59.565 13.83531
59.570 13.975398
59.575 14.147
59.580 14.579189
59.585 14.95785
59.590 15.495962
59.595 15.40362
59.600 14.948423
59.605 15.243896
59.610 14.64259
59.615 14.4189
59.620 14.281355
59.625 14.283957
59.630 14.836295
59.635 15.243265
59.640 15.043259
59.645 15.664862
59.650 15.459597
59.655 15.607631
59.660 15.275581
59.665 15.358196
59.670 15.618452
59.675 15.721233
59.680 15.993138
59.685 15.870144
59.690 15.539572
59.695 15.252263
59.700 14.873926
59.705 14.346929
59.710 14.299711
59.715 13.999918
59.720 14.402409
59.725 14.999856
59.730 15.028301
59.735 14.905553
59.740 15.98716
59.745 16.183912
59.750 16.656101
59.755 16.457464
59.760 15.852779
59.765 15.598197
59.770 15.60972
59.775 15.128548
59.780 14.810058
59.785 14.737532
59.790 14.766429
59.795 15.025414
59.800 15.412936
59.805 15.626276
59.810 15.243927
59.815 15.579985
59.820 15.231338
59.825 15.226736
59.830 15.131548
59.835 14.739015
59.840 14.133314
59.845 13.948648
59.850 13.379786
59.855 13.443091
59.860 13.25977
59.865 13.328459
59.870 13.55773
59.875 14.361032
59.880 14.647614
59.885 14.215732
59.890 14.50878
59.895 14.547004
59.900 14.181228
59.905 14.169072
59.910 13.988894
59.915 13.948092
59.920 14.239154
59.925 13.820738
59.930 13.736831
59.935 13.996826
59.940 13.377831
59.945 13.251369
59.950 12.916618
59.955 13.395678
59.960 14.217251
59.965 14.803421
59.970 15.208325
59.975 15.705705
59.980 15.759603
59.985 16.621298
59.990 16.937485
59.995 16.83095
60.000 16.373844
60.005 16.813957
60.010 17.16004
60.015 17.315514
60.020 16.86083
60.025 16.122375
60.030 15.835471
60.035 15.956699
60.040 15.570744
60.045 15.893583
60.050 16.170847
60.055 15.711208
60.060 15.605386
60.065 15.134219
60.070 14.890571
60.075 14.684123
60.080 14.236503
60.085 13.642825
60.090 13.882095
60.095 14.551903
60.100 15.222816
60.105 15.514785
60.110 15.48025
60.115 15.155365
60.120 15.486124
60.125 16.241722
60.130 15.922488
60.135 15.599789
60.140 15.249056
60.145 15.499681
60.150 15.478264
60.155 15.22448
60.160 14.550015
60.165 14.457034
60.170 14.396636
60.175 14.389963
60.180 13.950493
60.185 14.210633
60.190 14.352343
60.195 13.928378
60.200 13.744813
60.205 13.61358
60.210 13.546213
60.215 13.715946
60.220 13.578953
60.225 13.240796
60.230 14.041237
60.235 14.404675
60.240 14.382658
60.245 14.276872
60.250 14.363969
60.255 14.528334
60.260 14.296554
60.265 13.929101
60.270 13.779787
60.275 14.246787
60.280 14.762094
60.285 14.961021
60.290 14.713914
60.295 14.731773
60.300 15.288237
60.305 15.644579
60.310 15.56662
60.315 15.506064
60.320 15.508845
60.325 15.953281
60.330 15.629652
60.335 15.477323
60.340 15.633198
60.345 15.363688
60.350 15.272247
60.355 15.148652
60.360 15.419444
60.365 15.748755
60.370 15.466509
60.375 15.394299
60.380 15.817105
60.385 15.678294
60.390 15.667937
60.395 15.669819
60.400 15.745328
60.405 15.825398
60.410 15.826612
60.415 15.99493
60.420 15.621383
60.425 15.325281
60.430 15.863478
60.435 16.016727
60.440 15.874846
60.445 15.271616
60.450 15.011963
60.455 15.937903
60.460 16.392521
60.465 15.892902
60.470 15.506583
60.475 15.583321
60.480 15.519757
60.485 15.158913
60.490 14.32966
60.495 14.345125
60.500 14.473478
60.505 14.861014
60.510 14.747309
60.515 15.042252
60.520 14.524123
60.525 14.546643
60.530 14.027638
60.535 14.208079
60.540 14.071982
60.545 14.056164
60.550 13.991899
60.555 14.621835
60.560 14.636058
60.565 14.551359
60.570 14.096557
60.575 14.020352
60.580 14.081465
60.585 14.282308
60.590 14.286613
60.595 14.309375
60.600 14.572336
60.605 14.613225
60.610 14.788018
60.615 15.294643
60.620 15.609409
60.625 15.941575
60.630 16.068792
60.635 15.750138
60.640 15.271302
60.645 14.811735
60.650 14.395289
60.655 14.026541
60.660 13.486404
60.665 13.291949
60.670 13.794769
60.675 14.20609
60.680 14.692033
60.685 14.705366
60.690 14.901643
60.695 15.723245
60.700 15.761478
60.705 15.222393
60.710 14.75139
60.715 14.825309
60.720 15.161392
60.725 14.905977
60.730 14.23868
60.735 14.323122
60.740 14.950159
60.745 14.93651
60.750 14.225387
60.755 14.231804
60.760 13.91088
60.765 14.383176
60.770 14.75357
60.775 14.50901
60.780 14.901988
60.785 15.103052
60.790 15.048996
60.795 15.828986
60.800 15.686544
60.805 15.326716
60.810 15.83337
60.815 15.903464
60.820 16.08312
60.825 15.959841
60.830 15.58861
60.835 15.66862
60.840 15.700459
60.845 15.629503
60.850 15.34216
60.855 15.15594
60.860 14.87935
60.865 15.102751
60.870 15.47506
60.875 15.555069
60.880 15.367147
60.885 16.600773
60.890 17.214525
60.895 17.273556
60.900 17.432268
60.905 17.228189
60.910 17.449915
60.915 17.45018
60.920 16.688631
60.925 16.208986
60.930 16.122644
60.935 15.446126
60.940 14.779875
60.945 14.044083
60.950 13.676379
60.955 13.471184
60.960 13.223516
60.965 13.413404
60.970 13.77809
60.975 14.462326
60.980 14.438571
60.985 14.578918
60.990 14.319477
60.995 14.576128
61.000 14.830789
61.005 14.719929
61.010 14.480815
61.015 14.894031
61.020 15.110353
61.025 15.472159
61.030 15.131571
61.035 14.402307
61.040 14.29988
61.045 14.227812
61.050 14.185727
61.055 14.040357
61.060 14.082456
61.065 14.258059
61.070 14.78023
61.075 14.787997
61.080 15.126496
61.085 15.16901
61.090 14.990092
61.095 14.932989
61.100 14.58074
61.105 14.334269
61.110 14.19753
61.115 14.351653
61.120 14.117292
61.125 13.951206
61.130 14.407473
61.135 15.674427
61.140 16.11701
61.145 16.224216
61.150 15.741896
61.155 16.232534
61.160 16.40929
61.165 15.72121
61.170 15.13247
61.175 14.798395
61.180 14.567323
61.185 14.61961
61.190 14.313293
61.195 14.609422
61.200 15.001317
61.205 15.4206
61.210 15.220627
61.215 15.441257
61.220 15.343363
61.225 15.180941
61.230 15.060734
61.235 14.637131
61.240 13.881035
61.245 14.391046
61.250 14.687323
61.255 14.736621
61.260 14.79722
61.265 14.397007
61.270 14.704109
61.275 14.996568
61.280 15.202356
61.285 15.085345
61.290 15.428085
61.295 15.541789
61.300 15.053402
61.305 14.597569
61.310 14.7791
61.315 14.586341
61.320 15.10538
61.325 15.030371
61.330 15.186888
61.335 15.359851
61.340 15.914783
61.345 16.011316
61.350 15.783102
61.355 15.757914
61.360 15.61927
61.365 15.845645
61.370 16.598974
61.375 16.36474
61.380 15.581261
61.385 15.595737
61.390 14.936109
61.395 14.31582
61.400 14.065358
61.405 13.557834
61.410 13.981713
61.415 14.510379
61.420 14.479993
61.425 14.620219
61.430 15.228322
61.435 15.052934
61.440 15.170171
61.445 14.936999
61.450 14.922919
61.455 14.853517
61.460 14.785297
61.465 15.000324
61.470 15.084299
61.475 15.050645
61.480 15.178483
61.485 15.393142
61.490 16.476809
61.495 17.309097
61.500 17.149317
61.505 17.877495
61.510 17.756514
61.515 17.390137
61.520 16.545544
61.525 15.525298
61.530 14.939796
61.535 14.873495
61.540 14.551036
61.545 15.303053
61.550 15.713202
61.555 16.395803
61.560 16.696522
61.565 16.641426
61.570 16.971884
61.575 17.295988
61.580 17.161278
61.585 17.192772
61.590 16.985968
61.595 16.632019
61.600 17.232668
61.605 17.095394
61.610 16.554117
61.615 15.822535
61.620 15.655875
61.625 15.53185
61.630 15.263393
61.635 14.628178
61.640 14.957589
61.645 15.034291
61.650 15.02047
61.655 15.052712
61.660 15.226906
61.665 15.599742
61.670 16.029692
61.675 15.394079
61.680 15.120671
61.685 15.140836
61.690 15.071971
61.695 15.221224
61.700 15.118105
61.705 15.128221
61.710 15.600636
61.715 15.608563
61.720 15.773678
61.725 16.29175
61.730 16.394318
61.735 16.228996
61.740 15.787718
61.745 15.748964
61.750 15.532612
61.755 16.111954
61.760 15.915008
61.765 15.764672
61.770 16.285032
61.775 16.718861
61.780 16.718609
61.785 17.026649
61.790 16.354393
61.795 15.96399
61.800 15.483222
61.805 15.400401
61.810 15.53806
61.815 15.646759
61.820 15.76198
61.825 15.875767
61.830 15.875608
61.835 16.071335
61.840 15.778867
61.845 15.465429
61.850 15.32213
61.855 15.156204
61.860 15.43604
61.865 16.165842
61.870 16.340919
61.875 16.501318
61.880 16.624882
61.885 17.328962
61.890 17.392923
61.895 17.231918
61.900 16.884874
61.905 16.883156
61.910 17.006037
61.915 16.527504
61.920 15.737128
61.925 15.247452
61.930 15.006617
61.935 15.199987
61.940 15.318609
61.945 15.303006
61.950 15.668233
61.955 15.953132
61.960 16.065918
61.965 16.131142
61.970 16.068956
61.975 16.146984
61.980 15.661645
61.985 14.978086
61.990 14.984828
61.995 15.667219
62.000 16.036125
62.005 15.67882
62.010 15.71381
62.015 15.838967
62.020 16.13224
62.025 16.05559
62.030 15.695614
62.035 15.681778
62.040 15.782851
62.045 15.404825
62.050 15.807715
62.055 15.433286
62.060 14.975811
62.065 14.880293
62.070 14.883389
62.075 14.899388
62.080 15.188231
62.085 14.969808
62.090 15.2185
62.095 15.535342
62.100 15.479537
62.105 15.522835
62.110 15.242044
62.115 14.602365
62.120 14.592082
62.125 14.79004
62.130 14.592342
62.135 14.545223
62.140 14.387116
62.145 14.593628
62.150 14.619331
62.155 14.812439
62.160 14.849668
62.165 15.38764
62.170 16.081997
62.175 16.358824
62.180 16.494808
62.185 16.830015
62.190 16.501431
62.195 16.307999
62.200 15.914227
62.205 14.757423
62.210 14.410729
62.215 14.416335
62.220 14.423863
62.225 14.85526
62.230 14.64303
62.235 14.736884
62.240 15.251574
62.245 14.786563
62.250 14.587538
62.255 14.650962
62.260 14.233871
62.265 14.767989
62.270 14.306525
62.275 13.907718
62.280 14.282132
62.285 14.426527
62.290 15.036199
62.295 15.750069
62.300 15.853352
62.305 15.799704
62.310 16.417217
62.315 16.439627
62.320 16.147942
62.325 15.747794
62.330 15.453762
62.335 15.433399
62.340 15.759917
62.345 15.265642
62.350 15.387689
62.355 15.489223
62.360 15.111449
62.365 15.212106
62.370 15.100458
62.375 14.757513
62.380 14.654403
62.385 14.393453
62.390 14.646692
62.395 15.290492
62.400 15.183119
62.405 15.291375
62.410 16.006746
62.415 16.557308
62.420 16.944054
62.425 16.910954
62.430 16.321674
62.435 16.783434
62.440 16.854403
62.445 16.438511
62.450 16.316172
62.455 15.934225
62.460 16.185369
62.465 16.432051
62.470 16.273575
62.475 16.719063
62.480 17.196913
62.485 17.774443
62.490 17.970863
62.495 18.001459
62.500 17.791456
62.505 17.580767
62.510 17.220737
62.515 17.455067
62.520 16.753864
62.525 16.362484
62.530 16.286615
62.535 16.495363
62.540 16.453955
62.545 16.524647
62.550 15.800739
62.555 15.991771
62.560 16.001902
62.565 15.908992
62.570 16.141151
62.575 15.730234
62.580 15.231396
62.585 15.503056
62.590 15.302047
62.595 15.342839
62.600 15.266336
62.605 15.320473
62.610 15.652594
62.615 15.373011
62.620 15.197818
62.625 15.401396
62.630 15.783944
62.635 15.59104
62.640 15.375134
62.645 15.700397
62.650 16.397034
62.655 16.589535
62.660 16.488817
62.665 15.751494
62.670 15.420124
62.675 15.551509
62.680 15.582675
62.685 15.493651
62.690 15.899143
62.695 16.142395
62.700 16.668243
62.705 17.045954
62.710 16.942081
62.715 17.06571
62.720 17.520355
62.725 16.786665
62.730 16.989811
62.735 17.259192
62.740 17.569494
62.745 17.775846
62.750 17.590403
62.755 17.176746
62.760 17.893883
62.765 18.189837
62.770 17.778555
62.775 17.38154
62.780 17.464993
62.785 17.274006
62.790 16.73806
62.795 15.898152
62.800 15.439631
62.805 15.37873
62.810 14.969336
62.815 14.620935
62.820 14.814494
62.825 15.34168
62.830 16.200792
62.835 16.369448
62.840 15.789946
62.845 15.776153
62.850 16.059597
62.855 16.172766
62.860 15.88704
62.865 15.058845
62.870 15.198964
62.875 15.349689
62.880 15.510764
62.885 15.335377
62.890 15.232692
62.895 15.21799
62.900 15.890702
62.905 16.166439
62.910 16.62236
62.915 16.745556
62.920 16.551332
62.925 16.285591
62.930 16.030542
62.935 15.327724
62.940 15.588115
62.945 15.902922
62.950 15.701676
62.955 15.695544
62.960 15.713343
62.965 15.935843
62.970 16.243841
62.975 15.757174
62.980 15.833638
62.985 15.875101
62.990 16.515368
62.995 16.820196
63.000 17.160881
63.005 17.263298
63.010 16.953423
63.015 16.720234
63.020 16.339741
63.025 15.471988
63.030 15.307851
63.035 15.198323
63.040 15.11632
63.045 15.247334
63.050 15.428438
63.055 16.005211
63.060 16.875397
63.065 17.290346
63.070 17.084452
63.075 16.804747
63.080 16.777281
63.085 16.939674
63.090 16.522268
63.095 15.898348
63.100 15.535933
63.105 15.399377
63.110 15.603349
63.115 15.615976
63.120 15.629162
63.125 15.895739
63.130 16.14542
63.135 16.141695
63.140 16.434231
63.145 16.362968
63.150 16.479973
63.155 16.374708
63.160 16.502689
63.165 16.766966
63.170 16.655693
63.175 16.820002
63.180 16.832684
63.185 16.695045
63.190 16.631226
63.195 16.463152
63.200 16.343353
63.205 16.636787
63.210 16.532894
63.215 16.430578
63.220 16.227663
63.225 16.347181
63.230 16.000294
63.235 16.073719
63.240 15.844172
63.245 15.586808
63.250 15.653608
63.255 15.750646
63.260 15.733244
63.265 15.743415
63.270 15.644197
63.275 15.680314
63.280 16.169491
63.285 16.726004
63.290 16.762417
63.295 17.146795
63.300 17.645939
63.305 17.880333
63.310 18.234055
63.315 18.369804
63.320 17.675785
63.325 17.965397
63.330 18.012249
63.335 17.705488
63.340 17.280128
63.345 16.749249
63.350 16.815279
63.355 17.404476
63.360 17.218071
63.365 16.595512
63.370 16.473574
63.375 16.93314
63.380 17.6817
63.385 17.604311
63.390 17.285151
63.395 17.003876
63.400 17.590557
63.405 17.635454
63.410 17.132826
63.415 16.647703
63.420 16.969625
63.425 17.561399
63.430 17.694201
63.435 17.095739
63.440 17.088573
63.445 17.268248
63.450 16.894718
63.455 16.163088
63.460 15.334864
63.465 15.27863
63.470 15.856603
63.475 16.605938
63.480 17.079462
63.485 17.60726
63.490 17.67621
63.495 17.83919
63.500 18.160881
63.505 18.084518
63.510 17.810087
63.515 17.123455
63.520 16.796852
63.525 17.493071
63.530 17.686348
63.535 17.450005
63.540 17.393213
63.545 17.461576
63.550 18.100552
63.555 18.990534
63.560 18.659698
63.565 18.571642
63.570 18.314171
63.575 18.461748
63.580 18.27195
63.585 17.825693
63.590 17.220287
63.595 17.283216
63.600 17.47398
63.605 18.072311
63.610 17.933908
63.615 18.290426
63.620 18.696627
63.625 18.71151
63.630 18.576231
63.635 18.784813
63.640 18.58102
63.645 18.525801
63.650 18.692122
63.655 18.421862
63.660 18.590199
63.665 18.801758
63.670 18.840015
63.675 18.626017
63.680 18.102957
63.685 17.875965
63.690 18.167368
63.695 17.97537
63.700 17.484667
63.705 17.450562
63.710 17.651926
63.715 18.355965
63.720 18.297079
63.725 18.113302
63.730 18.268297
63.735 18.354504
63.740 17.962118
63.745 17.899706
63.750 17.855307
63.755 17.469271
63.760 17.630493
63.765 17.063562
63.770 17.090929
63.775 17.390522
63.780 17.798172
63.785 18.08806
63.790 18.122393
63.795 17.758472
63.800 18.005154
63.805 17.618076
63.810 16.68784
63.815 16.120028
63.820 15.985788
63.825 16.280733
63.830 16.032478
63.835 16.678482
63.840 17.647184
63.845 18.435631
63.850 18.128651
63.855 18.082577
63.860 18.282787
63.865 19.117212
63.870 18.414665
63.875 18.196775
63.880 18.647058
63.885 18.831102
63.890 18.83181
63.895 18.907074
63.900 18.955275
63.905 19.117405
63.910 18.964779
63.915 18.922369
63.920 19.146242
63.925 19.280788
63.930 19.054726
63.935 19.000404
63.940 19.116455
63.945 19.571585
63.950 19.946646
63.955 20.120991
63.960 19.671198
63.965 19.653046
63.970 19.230534
63.975 19.743504
63.980 20.876812
63.985 20.963921
63.990 20.942509
63.995 22.140684
64.000 22.930382
64.005 23.548727
64.010 24.049957
64.015 23.809248
64.020 24.189772
64.025 25.03532
64.030 24.749897
64.035 24.709166
64.040 25.159266
64.045 25.193661
64.050 25.090282
64.055 24.660835
64.060 24.39172
64.065 25.27906
64.070 25.945156
64.075 26.586111
64.080 26.964533
64.085 27.464464
64.090 28.528776
64.095 29.190361
64.100 28.740587
64.105 28.688597
64.110 28.397415
64.115 28.323309
64.120 28.384869
64.125 28.021982
64.130 28.080004
64.135 28.46586
64.140 28.327572
64.145 27.779581
64.150 27.866671
64.155 28.120163
64.160 28.268688
64.165 28.218973
64.170 28.519308
64.175 29.079344
64.180 29.805393
64.185 30.317617
64.190 30.709738
64.195 30.732731
64.200 31.46855
64.205 31.992073
64.210 31.896362
64.215 31.76008
64.220 32.116188
64.225 32.79311
64.230 34.079399
64.235 34.199718
64.240 35.131344
64.245 36.558857
64.250 38.152737
64.255 39.44746
64.260 40.387268
64.265 40.791996
64.270 40.85247
64.275 40.067142
64.280 39.435246
64.285 38.717831
64.290 38.829124
64.295 39.115799
64.300 39.330879
64.305 39.692165
64.310 40.119244
64.315 40.668568
64.320 40.965652
64.325 40.779984
64.330 40.776665
64.335 40.774586
64.340 41.211437
64.345 41.112637
64.350 41.234394
64.355 41.971725
64.360 42.850288
64.365 43.198803
64.370 43.376202
64.375 44.277901
64.380 45.216713
64.385 45.135475
64.390 45.085434
64.395 44.053463
64.400 43.888195
64.405 43.80827
64.410 42.902012
64.415 42.574249
64.420 42.470467
64.425 41.818928
64.430 41.389393
64.435 41.590679
64.440 41.627457
64.445 41.810837
64.450 41.22823
64.455 41.105881
64.460 41.013824
64.465 40.620998
64.470 40.107861
64.475 39.268517
64.480 38.690262
64.485 39.56649
64.490 39.233517
64.495 39.48756
64.500 39.583687
64.505 39.040146
64.510 39.551399
64.515 39.566708
64.520 38.821667
64.525 38.375549
64.530 37.810444
64.535 37.396008
64.540 37.076656
64.545 36.61198
64.550 36.010101
64.555 35.486229
64.560 35.197636
64.565 34.916756
64.570 35.009369
64.575 34.43618
64.580 33.510521
64.585 33.30444
64.590 32.198231
64.595 32.041508
64.600 31.600773
64.605 30.815878
64.610 30.48234
64.615 30.57233
64.620 30.174145
64.625 31.00684
64.630 31.115765
64.635 31.169603
64.640 31.050129
64.645 30.563646
64.650 29.97427
64.655 29.791149
64.660 29.707258
64.665 28.951874
64.670 28.789906
64.675 28.96184
64.680 29.065088
64.685 28.384708
64.690 27.509972
64.695 26.385727
64.700 25.951889
64.705 24.951979
64.710 23.392467
64.715 23.169682
64.720 23.335102
64.725 23.208059
64.730 23.304661
64.735 23.202568
64.740 23.362892
64.745 23.280256
64.750 23.325922
64.755 23.751213
64.760 23.648581
64.765 23.732275
64.770 23.228399
64.775 22.531639
64.780 22.113472
64.785 21.502552
64.790 21.283459
64.795 21.207945
64.800 21.286373
64.805 21.899416
64.810 22.367373
64.815 22.187006
64.820 21.835892
64.825 20.989578
64.830 20.909107
64.835 20.980158
64.840 20.482521
64.845 20.137074
64.850 20.544956
64.855 21.033758
64.860 21.351002
64.865 21.05175
64.870 20.072226
64.875 19.81711
64.880 19.676142
64.885 19.848558
64.890 20.20808
64.895 19.99
64.900 20.365541
64.905 21.197599
64.910 21.95216
64.915 22.077463
64.920 21.430037
64.925 20.759779
64.930 20.919127
64.935 21.148003
64.940 20.849279
64.945 20.732277
64.950 21.55393
64.955 22.300932
64.960 22.895308
64.965 23.576065
64.970 23.933779
64.975 24.208252
64.980 23.892382
64.985 23.334692
64.990 23.721521
64.995 23.57275
65.000 23.774815
65.005 23.144726
65.010 23.656075
65.015 23.683735
65.020 23.923571
65.025 24.061598
65.030 25.011698
65.035 24.702444
65.040 24.803009
65.045 24.638231
65.050 24.843975
65.055 24.771315
65.060 24.046534
65.065 23.239559
65.070 23.205832
65.075 23.553801
65.080 23.98337
65.085 23.931765
65.090 24.363527
65.095 24.652805
65.100 24.167234
65.105 24.624418
65.110 24.649168
65.115 24.857262
65.120 25.251503
65.125 25.553326
65.130 26.794962
65.135 28.089172
65.140 28.462696
65.145 28.586622
65.150 28.79014
65.155 28.942921
65.160 29.3892
65.165 29.27943
65.170 29.301767
65.175 29.416273
65.180 29.20499
65.185 29.102058
65.190 28.655453
65.195 27.887793
65.200 27.564825
65.205 27.043797
65.210 27.052916
65.215 27.501442
65.220 27.722109
65.225 28.384274
65.230 29.632113
65.235 30.39469
65.240 30.844856
65.245 32.055897
65.250 32.396866
65.255 32.869984
65.260 33.444809
65.265 33.466129
65.270 33.529255
65.275 33.548374
65.280 32.613735
65.285 32.173298
65.290 31.841385
65.295 31.419985
65.300 30.539652
65.305 30.774065
65.310 31.284369
65.315 31.867386
65.320 32.703671
65.325 32.44117
65.330 32.751019
65.335 33.297279
65.340 33.170757
65.345 32.970512
65.350 32.316814
65.355 31.659487
65.360 31.986784
65.365 32.256927
65.370 32.554592
65.375 33.068119
65.380 32.941498
65.385 32.877167
65.390 33.654541
65.395 34.062202
65.400 34.115101
65.405 34.781345
65.410 34.859203
65.415 35.194336
65.420 36.236107
65.425 35.82489
65.430 35.561298
65.435 35.592865
65.440 35.877071
65.445 36.2981
65.450 37.175896
65.455 37.064743
65.460 37.48288
65.465 36.758663
65.470 36.886368
65.475 35.900856
65.480 35.856171
65.485 36.041306
65.490 35.761665
65.495 36.159122
65.500 37.248779
65.505 37.549194
65.510 38.910854
65.515 38.94836
65.520 38.252621
65.525 38.838387
65.530 38.914261
65.535 38.739502
65.540 38.151142
65.545 38.091873
65.550 37.687954
65.555 37.716785
65.560 37.524719
65.565 37.195686
65.570 36.45396
65.575 36.38044
65.580 36.314083
65.585 36.600166
65.590 36.118656
65.595 36.128159
65.600 36.466618
65.605 37.768196
65.610 38.166924
65.615 37.58886
65.620 37.714485
65.625 38.840969
65.630 38.733158
65.635 38.897705
65.640 38.744892
65.645 39.135532
65.650 39.402958
65.655 38.61409
65.660 38.611263
65.665 38.673828
65.670 38.619057
65.675 38.389442
65.680 37.970947
65.685 38.177269
65.690 38.874912
65.695 38.960766
65.700 39.062847
65.705 38.686588
65.710 38.640404
65.715 37.848713
65.720 38.417141
65.725 38.203396
65.730 37.311131
65.735 37.512291
65.740 37.143909
65.745 37.702705
65.750 37.871071
65.755 36.957436
65.760 37.068447
65.765 37.022575
65.770 36.9986
65.775 37.596104
65.780 36.576931
65.785 36.742962
65.790 36.052094
65.795 36.659302
65.800 36.871891
65.805 36.239075
65.810 35.130138
65.815 35.953217
65.820 36.657761
65.825 37.483723
65.830 36.368607
65.835 35.699768
65.840 35.094254
65.845 35.609344
65.850 34.862228
65.855 34.378502
65.860 33.326603
65.865 32.84692
65.870 32.644028
65.875 32.317757
65.880 31.815706
65.885 31.344852
65.890 30.428055
65.895 30.196203
65.900 30.271255
65.905 29.923983
65.910 30.531076
65.915 29.893129
65.920 29.271994
65.925 29.04821
65.930 28.611917
65.935 29.080784
65.940 29.779333
65.945 29.171881
65.950 28.870947
65.955 29.606361
65.960 29.687489
65.965 29.706047
65.970 28.752626
65.975 28.052166
65.980 28.241241
65.985 28.262411
65.990 27.337147
65.995 26.757383
66.000 26.911974
66.005 26.910086
66.010 26.590757
66.015 26.309072
66.020 26.080584
66.025 25.814009
66.030 25.373953
66.035 24.549591
66.040 23.692038
66.045 23.802761
66.050 23.193768
66.055 22.909067
66.060 22.722614
66.065 22.367191
66.070 22.250053
66.075 22.749969
66.080 22.703485
66.085 22.620232
66.090 22.71958
66.095 23.248669
66.100 23.313818
66.105 23.773037
66.110 24.130136
66.115 24.060307
66.120 24.21109
66.125 24.21706
66.130 23.400681
66.135 22.7101
66.140 22.375845
66.145 21.785378
66.150 21.738213
66.155 21.363096
66.160 21.028738
66.165 21.41338
66.170 21.259375
66.175 20.695728
66.180 20.465591
66.185 20.340162
66.190 21.127478
66.195 20.640274
66.200 20.46541
66.205 20.504322
66.210 19.923399
66.215 19.93018
66.220 19.881657
66.225 18.975227
66.230 18.960424
66.235 18.326611
66.240 17.877054
66.245 18.645315
66.250 19.149727
66.255 18.781195
66.260 18.867586
66.265 19.283415
66.270 19.782307
66.275 20.084747
66.280 19.547752
66.285 18.921858
66.290 18.686939
66.295 18.305689
66.300 17.624615
66.305 17.340759
66.310 17.071239
66.315 16.792164
66.320 17.28126
66.325 18.067881
66.330 17.820868
66.335 17.773207
66.340 17.855326
66.345 18.720663
66.350 18.371098
66.355 17.415302
66.360 16.847118
66.365 17.393459
66.370 17.289732
66.375 17.09532
66.380 16.270603
66.385 16.433121
66.390 17.028929
66.395 17.010544
66.400 16.559633
66.405 16.94063
66.410 17.474651
66.415 17.74896
66.420 17.738228
66.425 18.140007
66.430 18.634508
66.435 18.869371
66.440 18.817099
66.445 18.544449
66.450 18.07667
66.455 17.627333
66.460 16.873245
66.465 17.333887
66.470 17.588886
66.475 17.361042
66.480 18.418615
66.485 19.832554
66.490 20.931358
66.495 20.889923
66.500 19.739468
66.505 19.413403
66.510 19.298887
66.515 18.553299
66.520 17.917341
66.525 17.467993
66.530 17.385862
66.535 18.079868
66.540 18.022455
66.545 17.904842
66.550 17.519173
66.555 17.328777
66.560 17.157583
66.565 17.480883
66.570 17.229826
66.575 17.657887
66.580 17.278564
66.585 16.90947
66.590 16.844038
66.595 17.542538
66.600 17.311867
66.605 17.532379
66.610 17.365944
66.615 17.657337
66.620 17.946682
66.625 18.391592
66.630 18.401995
66.635 18.611469
66.640 18.306898
66.645 18.02844
66.650 17.750376
66.655 17.965269
66.660 18.15958
66.665 17.742262
66.670 17.610712
66.675 17.797621
66.680 18.121635
66.685 18.120382
66.690 17.924231
66.695 17.782089
66.700 17.508886
66.705 17.340881
66.710 17.469027
66.715 17.603001
66.720 17.817289
66.725 17.604506
66.730 17.384169
66.735 17.359478
66.740 17.797489
66.745 17.659706
66.750 17.360641
66.755 17.445705
66.760 18.233206
66.765 18.644533
66.770 19.072332
66.775 18.505732
66.780 18.275831
66.785 18.590166
66.790 18.807877
66.795 18.589952
66.800 18.290733
66.805 18.081194
66.810 18.474091
66.815 18.736025
66.820 18.53854
66.825 17.933458
66.830 17.59544
66.835 17.322914
66.840 17.200912
66.845 17.204258
66.850 16.915802
66.855 16.673445
66.860 16.752237
66.865 16.58647
66.870 16.135494
66.875 15.798931
66.880 15.828547
66.885 15.974344
66.890 15.948226
66.895 16.182566
66.900 16.496096
66.905 17.76272
66.910 18.204517
66.915 18.058167
66.920 17.714956
66.925 17.84654
66.930 18.853975
66.935 18.421473
66.940 18.25946
66.945 18.36883
66.950 18.594311
66.955 19.301243
66.960 19.095686
66.965 18.361448
66.970 18.595533
66.975 17.556561
66.980 17.330219
66.985 17.897028
66.990 18.239054
66.995 18.084963
67.000 18.051708
67.005 18.524303
67.010 19.091015
67.015 19.117964
67.020 18.495462
67.025 18.162529
67.030 18.603615
67.035 18.372475
67.040 17.694275
67.045 17.376036
67.050 17.408167
67.055 17.248934
67.060 17.488743
67.065 17.943327
67.070 17.970766
67.075 18.268234
67.080 18.58799
67.085 18.741238
67.090 18.591463
67.095 18.033691
67.100 17.878918
67.105 17.980158
67.110 17.734421
67.115 18.006861
67.120 18.18935
67.125 18.536814
67.130 19.37149
67.135 19.266497
67.140 19.157162
67.145 19.563013
67.150 19.26214
67.155 19.285038
67.160 19.132109
67.165 18.496664
67.170 18.623775
67.175 18.40209
67.180 17.847935
67.185 17.945946
67.190 18.210346
67.195 18.163904
67.200 17.843943
67.205 17.501118
67.210 18.017565
67.215 18.578325
67.220 18.242552
67.225 17.615726
67.230 18.077692
67.235 18.081137
67.240 18.426476
67.245 17.94516
67.250 17.637335
67.255 17.808569
67.260 18.5732
67.265 18.268959
67.270 18.238352
67.275 18.236742
67.280 18.33086
67.285 18.618317
67.290 18.616686
67.295 17.68285
67.300 17.749052
67.305 18.202684
67.310 18.201036
67.315 18.538322
67.320 18.746405
67.325 19.329077
67.330 19.203999
67.335 19.167021
67.340 18.474897
67.345 18.429489
67.350 17.940952
67.355 17.474188
67.360 16.794065
67.365 16.968565
67.370 16.995386
67.375 17.554811
67.380 18.508284
67.385 19.37957
67.390 18.943367
67.395 20.060207
67.400 20.4897
67.405 20.64156
67.410 20.340118
67.415 18.907465
67.420 18.61079
67.425 19.413677
67.430 18.928946
67.435 18.780422
67.440 18.396704
67.445 18.45097
67.450 18.799328
67.455 18.820974
67.460 18.039162
67.465 17.453192
67.470 17.468388
67.475 17.859282
67.480 17.937359
67.485 18.038725
67.490 18.196066
67.495 18.579477
67.500 19.528307
67.505 19.252848
67.510 19.478357
67.515 19.360882
67.520 19.425232
67.525 19.106194
67.530 18.770386
67.535 18.390827
67.540 18.819845
67.545 18.859001
67.550 19.165169
67.555 19.313673
67.560 19.579811
67.565 19.422728
67.570 19.789619
67.575 19.741255
67.580 19.3241
67.585 18.746088
67.590 18.439827
67.595 18.765245
67.600 19.23048
67.605 18.569286
67.610 18.335045
67.615 18.351286
67.620 18.653311
67.625 18.817844
67.630 18.958265
67.635 18.693027
67.640 18.415762
67.645 18.081299
67.650 18.159075
67.655 17.918152
67.660 17.310617
67.665 16.820084
67.670 16.82749
67.675 16.978466
67.680 17.17082
67.685 17.0592
67.690 17.043739
67.695 17.591679
67.700 17.596952
67.705 17.831102
67.710 18.424049
67.715 18.775911
67.720 18.919605
67.725 19.655186
67.730 19.611338
67.735 19.551371
67.740 19.619514
67.745 19.200924
67.750 18.511766
67.755 18.574043
67.760 17.60191
67.765 17.573339
67.770 17.337002
67.775 17.19438
67.780 17.39971
67.785 17.379745
67.790 17.269629
67.795 16.944126
67.800 17.22765
67.805 17.507851
67.810 17.550877
67.815 17.461889
67.820 17.640936
67.825 17.428835
67.830 17.578423
67.835 17.495718
67.840 17.088074
67.845 16.651686
67.850 16.805717
67.855 17.078943
67.860 17.176197
67.865 17.083414
67.870 16.707592
67.875 17.205231
67.880 17.379414
67.885 17.515036
67.890 17.224457
67.895 18.225342
67.900 19.271408
67.905 19.655052
67.910 19.363245
67.915 19.518978
67.920 18.742495
67.925 18.554319
67.930 18.056597
67.935 17.313131
67.940 17.418629
67.945 17.498314
67.950 17.969292
67.955 18.487875
67.960 18.836428
67.965 18.55514
67.970 18.530607
67.975 18.013227
67.980 18.007471
67.985 17.803095
67.990 17.882713
67.995 17.286753
68.000 17.194582
68.005 17.335707
68.010 17.920034
68.015 18.042355
68.020 18.228754
68.025 18.412001
68.030 18.468597
68.035 18.62788
68.040 19.019388
68.045 19.161938
68.050 19.236019
68.055 19.463362
68.060 19.747843
68.065 20.097424
68.070 20.472691
68.075 19.998913
68.080 19.402088
68.085 19.593397
68.090 19.083406
68.095 18.576115
68.100 18.752111
68.105 18.544775
68.110 18.65613
68.115 19.043709
68.120 18.470135
68.125 18.884815
68.130 19.239008
68.135 19.265205
68.140 19.398493
68.145 19.543211
68.150 19.79311
68.155 19.843004
68.160 19.90995
68.165 20.331945
68.170 20.113449
68.175 20.230597
68.180 20.269108
68.185 20.181238
68.190 20.118969
68.195 19.731771
68.200 19.571804
68.205 19.652437
68.210 19.914227
68.215 20.672735
68.220 20.91382
68.225 20.785263
68.230 20.895926
68.235 20.578125
68.240 20.449104
68.245 19.715601
68.250 19.44157
68.255 19.324415
68.260 20.158281
68.265 20.933769
68.270 21.665312
68.275 21.815264
68.280 22.08086
68.285 21.539177
68.290 22.121731
68.295 21.798494
68.300 20.945957
68.305 20.491575
68.310 20.340605
68.315 20.751352
68.320 20.909157
68.325 20.52957
68.330 20.517456
68.335 21.296776
68.340 21.985571
68.345 22.253637
68.350 21.779638
68.355 22.157701
68.360 22.409285
68.365 21.90151
68.370 21.851377
68.375 21.669456
68.380 22.681208
68.385 23.584631
68.390 23.72768
68.395 24.112429
68.400 24.796686
68.405 25.086823
68.410 25.289476
68.415 25.51285
68.420 25.825628
68.425 25.92588
68.430 25.522856
68.435 26.527229
68.440 26.137568
68.445 26.170906
68.450 26.002996
68.455 26.193399
68.460 26.456919
68.465 26.96376
68.470 26.736681
68.475 26.919941
68.480 26.397497
68.485 25.997847
68.490 25.949203
68.495 26.651026
68.500 26.658276
68.505 26.546202
68.510 27.111322
68.515 27.504284
68.520 28.46781
68.525 28.140516
68.530 28.567038
68.535 28.820063
68.540 28.588993
68.545 28.83601
68.550 29.535299
68.555 30.584152
68.560 32.013435
68.565 31.555811
68.570 31.987371
68.575 32.58625
68.580 32.591591
68.585 32.211514
68.590 30.641077
68.595 29.510855
68.600 29.319166
68.605 29.435278
68.610 29.348703
68.615 29.220358
68.620 29.546444
68.625 29.965303
68.630 30.942583
68.635 31.832575
68.640 31.822433
68.645 31.235491
68.650 31.879055
68.655 32.965805
68.660 32.689472
68.665 31.948351
68.670 31.45652
68.675 31.664644
68.680 31.708632
68.685 30.997173
68.690 30.539131
68.695 31.311117
68.700 31.628777
68.705 31.727802
68.710 32.355
68.715 33.580059
68.720 34.42511
68.725 35.380047
68.730 35.993595
68.735 36.781441
68.740 36.477692
68.745 35.719666
68.750 35.233025
68.755 34.735062
68.760 34.7883
68.765 34.764999
68.770 34.696289
68.775 36.042557
68.780 36.838634
68.785 36.382313
68.790 36.277622
68.795 35.45134
68.800 35.030602
68.805 35.201237
68.810 34.611744
68.815 35.146873
68.820 35.786991
68.825 36.039333
68.830 35.668251
68.835 36.388348
68.840 36.189953
68.845 36.174095
68.850 36.083385
68.855 36.126549
68.860 36.073311
68.865 36.445507
68.870 35.263603
68.875 35.497482
68.880 35.371159
68.885 34.935612
68.890 34.924709
68.895 34.992676
68.900 34.9767
68.905 35.657372
68.910 34.878559
68.915 34.565945
68.920 34.295765
68.925 34.351753
68.930 34.719849
68.935 34.710316
68.940 35.01479
68.945 35.336498
68.950 34.437233
68.955 34.352657
68.960 34.101707
68.965 33.902317
68.970 33.696072
68.975 33.921772
68.980 34.171749
68.985 34.909443
68.990 34.733379
68.995 34.492462
69.000 34.645889
69.005 34.160908
69.010 33.662056
69.015 32.860107
69.020 32.339149
69.025 32.467861
69.030 32.309341
69.035 31.560686
69.040 30.836073
69.045 30.29678
69.050 30.528872
69.055 30.439739
69.060 30.225506
69.065 30.011618
69.070 29.692579
69.075 29.538418
69.080 29.42746
69.085 29.719608
69.090 29.888721
69.095 29.93145
69.100 30.056461
69.105 30.439735
69.110 30.477755
69.115 29.839161
69.120 29.183771
69.125 28.97333
69.130 28.860573
69.135 28.642365
69.140 28.574085
69.145 28.329235
69.150 28.102957
69.155 27.954582
69.160 27.223083
69.165 26.635693
69.170 26.601887
69.175 26.727976
69.180 26.563902
69.185 26.976694
69.190 26.352818
69.195 25.902262
69.200 25.470764
69.205 25.131207
69.210 24.821466
69.215 24.762022
69.220 25.069887
69.225 26.023849
69.230 26.043266
69.235 25.518927
69.240 25.007246
69.245 24.497475
69.250 23.562956
69.255 22.747629
69.260 22.348291
69.265 23.201281
69.270 23.612232
69.275 23.372019
69.280 22.975798
69.285 23.220173
69.290 23.102322
69.295 22.553061
69.300 21.901569
69.305 21.500261
69.310 21.508413
69.315 21.330906
69.320 21.515144
69.325 21.297461
69.330 21.070009
69.335 21.031237
69.340 21.059156
69.345 21.275377
69.350 21.508629
69.355 21.114805
69.360 20.895693
69.365 20.244003
69.370 19.861916
69.375 19.625832
69.380 18.591358
69.385 18.107965
69.390 18.216412
69.395 18.441881
69.400 19.049313
69.405 18.531086
69.410 18.132401
69.415 18.547674
69.420 18.883806
69.425 19.38829
69.430 19.14341
69.435 19.522987
69.440 20.571484
69.445 21.0385
69.450 20.916475
69.455 20.248348
69.460 20.516739
69.465 20.44025
69.470 20.12672
69.475 19.329641
69.480 19.025259
69.485 18.916222
69.490 18.985071
69.495 18.783091
69.500 18.863644
69.505 19.119368
69.510 19.696039
69.515 19.710495
69.520 19.733768
69.525 20.016424
69.530 19.472403
69.535 19.167215
69.540 18.977032
69.545 18.662512
69.550 18.838379
69.555 18.367573
69.560 17.509624
69.565 17.766685
69.570 17.82865
69.575 17.85088
69.580 17.724649
69.585 16.875376
69.590 16.944771
69.595 17.625792
69.600 17.19141
69.605 16.974178
69.610 16.996777
69.615 17.123936
69.620 17.573578
69.625 17.976225
69.630 17.794731
69.635 18.235476
69.640 18.004669
69.645 17.94854
69.650 18.2388
69.655 18.733381
69.660 18.707005
69.665 18.726704
69.670 19.188786
69.675 20.021566
69.680 19.964701
69.685 19.885021
69.690 19.547709
69.695 19.341652
69.700 19.155107
69.705 18.833893
69.710 18.099203
69.715 18.336571
69.720 18.319441
69.725 17.439871
69.730 17.067413
69.735 16.792709
69.740 16.996977
69.745 17.787794
69.750 17.477959
69.755 17.57888
69.760 17.894899
69.765 18.435047
69.770 18.779692
69.775 18.669004
69.780 18.261948
69.785 18.579876
69.790 18.851448
69.795 19.180307
69.800 19.007587
69.805 18.899609
69.810 18.83156
69.815 19.200905
69.820 19.093449
69.825 18.791822
69.830 18.866966
69.835 18.826912
69.840 18.251751
69.845 17.596052
69.850 17.088072
69.855 16.685757
69.860 16.265562
69.865 16.409681
69.870 16.686932
69.875 17.157204
69.880 17.41197
69.885 17.226669
69.890 17.36632
69.895 17.21957
69.900 16.847788
69.905 16.668444
69.910 16.711361
69.915 16.459829
69.920 16.508736
69.925 17.052605
69.930 17.461683
69.935 17.446859
69.940 17.244436
69.945 17.120815
69.950 17.198626
69.955 17.575783
69.960 17.787954
69.965 18.159983
69.970 18.094236
69.975 18.102095
69.980 18.256697
69.985 18.641956
69.990 18.462708
69.995 17.820908
70.000 17.856821
70.005 18.387644
70.010 18.244923
70.015 17.949768
70.020 17.322542
70.025 16.948046
70.030 17.235495
70.035 16.821983
70.040 16.484463
70.045 16.942404
70.050 17.364956
70.055 17.805162
70.060 17.942022
70.065 17.542147
70.070 17.46697
70.075 17.322796
70.080 16.819698
70.085 16.359526
70.090 16.587746
70.095 16.75683
70.100 17.071896
70.105 17.44586
70.110 17.551744
70.115 18.009453
70.120 18.270388
70.125 18.056328
70.130 17.895342
70.135 18.329401
70.140 17.799572
70.145 17.855513
70.150 18.195541
70.155 18.198681
70.160 18.032694
70.165 17.916222
70.170 17.770958
70.175 18.529499
70.180 18.480776
70.185 18.224852
70.190 18.451006
70.195 18.585272
70.200 18.367216
70.205 18.193371
70.210 18.346088
70.215 18.173172
70.220 17.763784
70.225 17.604452
70.230 17.692907
70.235 18.351173
70.240 18.093288
70.245 17.548916
70.250 17.403933
70.255 17.562338
70.260 17.857883
70.265 17.704695
70.270 17.646975
70.275 17.452095
70.280 17.545118
70.285 18.045685
70.290 18.145252
70.295 18.13872
70.300 18.224024
70.305 18.377438
70.310 19.154736
70.315 18.945654
70.320 18.63629
70.325 18.838915
70.330 18.759628
70.335 18.394005
70.340 17.793186
70.345 17.348904
70.350 17.637163
70.355 17.249039
70.360 16.719791
70.365 16.625093
70.370 16.89513
70.375 17.105867
70.380 17.444979
70.385 17.776655
70.390 18.136448
70.395 18.637482
70.400 18.995998
70.405 19.710232
70.410 19.664148
70.415 19.554449
70.420 19.835232
70.425 20.010178
70.430 19.550909
70.435 19.104078
70.440 18.751818
70.445 18.755156
70.450 18.944014
70.455 18.886305
70.460 18.724386
70.465 19.143307
70.470 19.515448
70.475 19.51145
70.480 19.33112
70.485 19.371733
70.490 19.715237
70.495 19.805103
70.500 19.379341
70.505 18.958157
70.510 18.920797
70.515 18.602587
70.520 17.98468
70.525 16.971592
70.530 16.830097
70.535 16.342646
70.540 16.002037
70.545 16.004442
70.550 16.146126
70.555 16.563103
70.560 17.479528
70.565 17.887627
70.570 18.232456
70.575 18.615881
70.580 19.109221
70.585 19.697666
70.590 19.340218
70.595 18.614859
70.600 17.916542
70.605 17.847948
70.610 18.237528
70.615 17.633123
70.620 17.712934
70.625 17.757015
70.630 17.829615
70.635 18.304276
70.640 18.827274
70.645 18.623604
70.650 18.493597
70.655 18.054493
70.660 18.230495
70.665 18.332621
70.670 17.79237
70.675 17.611185
70.680 18.275339
70.685 18.834738
70.690 19.042894
70.695 18.825865
70.700 18.609934
70.705 18.144558
70.710 17.546045
70.715 16.977436
70.720 16.868223
70.725 16.939592
70.730 17.211441
70.735 18.427681
70.740 19.222755
70.745 18.997013
70.750 19.067904
70.755 18.883484
70.760 18.948206
70.765 18.590767
70.770 18.067915
70.775 18.194624
70.780 18.20647
70.785 17.753145
70.790 17.863928
70.795 17.835314
70.800 17.926353
70.805 17.641226
70.810 17.24522
70.815 17.045868
70.820 17.223888
70.825 16.606678
70.830 16.318596
70.835 16.249784
70.840 16.320036
70.845 16.796844
70.850 16.788694
70.855 16.583307
70.860 16.693275
70.865 16.784578
70.870 16.84745
70.875 17.437294
70.880 17.290838
70.885 17.428936
70.890 17.905739
70.895 18.150469
70.900 18.34201
70.905 18.475559
70.910 18.038795
70.915 17.773315
70.920 17.380207
70.925 17.10013
70.930 16.71772
70.935 16.740095
70.940 16.442968
70.945 16.551706
70.950 16.656815
70.955 16.532942
70.960 16.836918
70.965 17.148621
70.970 17.531858
70.975 18.073357
70.980 18.445133
70.985 18.892342
70.990 19.135588
70.995 18.942698
71.000 18.954681
71.005 18.768427
71.010 18.714281
71.015 18.406277
71.020 18.400269
71.025 18.550606
71.030 17.954748
71.035 18.168589
71.040 18.316681
71.045 18.245655
71.050 18.105539
71.055 17.417049
71.060 17.212381
71.065 17.424902
71.070 17.078125
71.075 16.759579
71.080 16.304115
71.085 16.831816
71.090 17.619343
71.095 17.943853
71.100 17.555275
71.105 17.3281
71.110 17.323009
71.115 17.044058
71.120 16.820444
71.125 16.578493
71.130 16.660503
71.135 16.700769
71.140 16.598156
71.145 16.318838
71.150 16.240616
71.155 15.862195
71.160 16.089441
71.165 16.038034
71.170 16.118095
71.175 15.975994
71.180 16.125753
71.185 16.27544
71.190 16.552427
71.195 16.504768
71.200 16.685266
71.205 16.874195
71.210 17.168249
71.215 17.687658
71.220 17.367893
71.225 17.204338
71.230 17.581404
71.235 17.471115
71.240 17.047131
71.245 17.410074
71.250 18.270658
71.255 18.954935
71.260 19.053633
71.265 18.84734
71.270 19.495865
71.275 19.935675
71.280 18.939112
71.285 18.431156
71.290 17.771025
71.295 17.66268
71.300 17.041822
71.305 16.390779
71.310 16.221617
71.315 16.178198
71.320 15.963445
71.325 16.656761
71.330 17.728146
71.335 18.593102
71.340 18.529543
71.345 18.113697
71.350 18.577763
71.355 19.152092
71.360 18.687849
71.365 17.523037
71.370 17.039848
71.375 17.358183
71.380 17.830492
71.385 17.269669
71.390 17.229895
71.395 17.0797
71.400 17.034809
71.405 17.287418
71.410 17.088118
71.415 17.215515
71.420 17.050472
71.425 16.706713
71.430 16.629814
71.435 17.012148
71.440 17.178446
71.445 17.851238
71.450 17.76128
71.455 17.918114
71.460 17.873352
71.465 18.052099
71.470 17.939577
71.475 17.208401
71.480 16.430658
71.485 16.524195
71.490 16.930878
71.495 16.946537
71.500 16.705494
71.505 16.307545
71.510 16.846006
71.515 17.10961
71.520 16.668362
71.525 16.211851
71.530 16.253033
71.535 16.957048
71.540 17.117834
71.545 17.13204
71.550 17.734877
71.555 18.278622
71.560 18.375938
71.565 18.489645
71.570 18.328514
71.575 18.647047
71.580 18.721565
71.585 18.874155
71.590 18.717342
71.595 19.09701
71.600 18.676579
71.605 18.268051
71.610 18.404606
71.615 18.329626
71.620 17.945391
71.625 17.467316
71.630 17.373398
71.635 17.370342
71.640 17.253679
71.645 17.123667
71.650 16.97637
71.655 17.015532
71.660 17.198881
71.665 17.353563
71.670 17.681604
71.675 18.15653
71.680 18.042421
71.685 17.932081
71.690 18.086405
71.695 18.083244
71.700 17.358915
71.705 17.194664
71.710 16.907438
71.715 16.935493
71.720 17.361168
71.725 17.437038
71.730 17.601238
71.735 18.048073
71.740 17.927252
71.745 18.388962
71.750 18.703581
71.755 18.490509
71.760 18.804495
71.765 19.076462
71.770 18.946108
71.775 19.087114
71.780 18.681448
71.785 18.331547
71.790 18.6712
71.795 18.104303
71.800 17.924208
71.805 17.901625
71.810 17.885458
71.815 17.986332
71.820 18.098072
71.825 17.656351
71.830 17.678013
71.835 17.968225
71.840 17.915991
71.845 17.87747
71.850 17.616169
71.855 17.798826
71.860 18.214403
71.865 18.273115
71.870 18.428131
71.875 18.686945
71.880 18.706581
71.885 19.115965
71.890 18.557295
71.895 18.454632
71.900 19.138216
71.905 19.293133
71.910 19.389837
71.915 19.323715
71.920 18.920099
71.925 18.833931
71.930 18.541737
71.935 17.836975
71.940 17.266289
71.945 16.36194
71.950 16.48238
71.955 16.89764
71.960 16.842638
71.965 16.605679
71.970 16.683853
71.975 16.810009
71.980 17.007181
71.985 16.638971
71.990 16.900225
71.995 17.429514
72.000 17.954826
72.005 17.746056
72.010 17.605446
72.015 18.006618
72.020 18.249594
72.025 17.982042
72.030 17.458511
72.035 16.988329
72.040 17.205875
72.045 17.692625
72.050 17.130009
72.055 17.171791
72.060 17.849009
72.065 18.129839
72.070 18.145357
72.075 18.003319
72.080 17.844406
72.085 17.839985
72.090 17.500875
72.095 16.883919
72.100 17.120876
72.105 17.630993
72.110 17.721029
72.115 18.35684
72.120 18.58968
72.125 18.569801
72.130 18.259323
72.135 17.708355
72.140 16.968266
72.145 16.386738
72.150 16.117601
72.155 16.10659
72.160 15.850153
72.165 15.828316
72.170 16.418829
72.175 16.67099
72.180 17.01185
72.185 16.691595
72.190 16.972031
72.195 17.629953
72.200 18.851091
72.205 18.602821
72.210 18.590715
72.215 18.64085
72.220 18.502645
72.225 18.198534
72.230 17.481283
72.235 17.03138
72.240 17.530237
72.245 17.782972
72.250 18.157084
72.255 18.603926
72.260 18.508894
72.265 17.811537
72.270 17.02746
72.275 17.267397
72.280 17.097458
72.285 16.942495
72.290 16.392101
72.295 16.805023
72.300 17.411041
72.305 17.949606
72.310 17.93335
72.315 17.763229
72.320 17.346687
72.325 17.695366
72.330 17.945127
72.335 18.130159
72.340 17.953979
72.345 17.500937
72.350 18.047638
72.355 18.13073
72.360 18.082567
72.365 17.724062
72.370 17.39488
72.375 17.139248
72.380 17.480692
72.385 17.207834
72.390 17.522146
72.395 17.390646
72.400 17.157995
72.405 17.164427
72.410 17.746275
72.415 16.902603
72.420 16.422173
72.425 15.489522
72.430 15.248271
72.435 15.79716
72.440 15.307068
72.445 14.861701
72.450 15.592047
72.455 15.848532
72.460 16.220379
72.465 17.001204
72.470 17.721571
72.475 18.307983
72.480 18.262629
72.485 18.501318
72.490 18.830235
72.495 18.498133
72.500 17.535944
72.505 16.843021
72.510 16.691126
72.515 16.305693
72.520 15.298923
72.525 15.837399
72.530 16.60383
72.535 16.667498
72.540 16.336931
72.545 16.090069
72.550 16.872877
72.555 17.7596
72.560 17.204794
72.565 16.633595
72.570 16.573479
72.575 16.427078
72.580 16.847387
72.585 17.004694
72.590 17.214867
72.595 17.161686
72.600 17.79842
72.605 18.675705
72.610 18.938671
72.615 18.597246
72.620 18.210552
72.625 18.152025
72.630 17.674149
72.635 17.313141
72.640 16.501476
72.645 16.869616
72.650 17.009132
72.655 16.428082
72.660 16.683083
72.665 17.027281
72.670 16.941923
72.675 16.984871
72.680 16.51737
72.685 16.525784
72.690 16.578978
72.695 16.424156
72.700 16.471231
72.705 16.696085
72.710 16.978817
72.715 17.085136
72.720 16.933723
72.725 16.645813
72.730 16.477985
72.735 15.740108
72.740 15.343174
72.745 14.655934
72.750 14.733101
72.755 14.983489
72.760 15.191174
72.765 15.55922
72.770 15.705665
72.775 15.863868
72.780 16.274008
72.785 15.87686
72.790 15.487136
72.795 14.974314
72.800 15.118119
72.805 15.757287
72.810 15.47861
72.815 15.871394
72.820 15.794386
72.825 16.280811
72.830 16.460794
72.835 16.887335
72.840 17.127607
72.845 17.238047
72.850 17.318779
72.855 17.594631
72.860 17.601196
72.865 17.935133
72.870 17.780006
72.875 17.665161
72.880 17.728718
72.885 17.480925
72.890 17.110769
72.895 16.967039
72.900 16.283016
72.905 15.42813
72.910 15.12258
72.915 15.161653
72.920 14.849522
72.925 15.578325
72.930 16.117962
72.935 16.672516
72.940 16.869932
72.945 16.657919
72.950 16.265034
72.955 16.207609
72.960 15.963283
72.965 15.281945
72.970 15.467758
72.975 15.336052
72.980 15.71793
72.985 16.223745
72.990 16.182781
72.995 15.805854
73.000 15.783671
