!@!!GADDS PLOTSO FILE: Chi integration type
!@!!Title/SampleName: map-119
!@!!Comment: ?
!@!!User: Bruker Instrument Administrator
!@!!Site: University of Illinois Chicago
!@!!Frame: map-119_01_000.gfrm
!@!!Wavelengths    1.54184   1.54056   1.54439
!@!!Frame angles: 2Theta: 63.000 Omega: 50.000 Phi: 0.000 Chi: 90.000
!@!!Integration range: 2Theta: 53.000 to 73.000  Gamma: -105.000 to -75.000
!@!!Integration method: bin normalized
!@!N
!@!SS
!@!M
!@!L 0.0 0.0 0.0 0.0
!@!XDegrees
!@!YCounts
53.000 7.35458
53.005 7.460729
53.010 7.216366
53.015 7.255105
53.020 7.456962
53.025 7.84692
53.030 8.184262
53.035 7.894206
53.040 7.70019
53.045 7.953131
53.050 8.183973
53.055 7.930009
53.060 7.601706
53.065 7.643172
53.070 7.745254
53.075 7.579329
53.080 7.3505
53.085 7.231914
53.090 7.540515
53.095 7.423633
53.100 7.373192
53.105 7.744673
53.110 8.092621
53.115 7.811354
53.120 7.603083
53.125 7.433736
53.130 7.776783
53.135 7.901783
53.140 7.575184
53.145 7.617945
53.150 8.140448
53.155 7.852575
53.160 7.546312
53.165 7.027596
53.170 6.731725
53.175 6.82125
53.180 6.660595
53.185 6.386176
53.190 6.952782
53.195 7.25817
53.200 7.539
53.205 7.629439
53.210 7.619437
53.215 7.501688
53.220 7.655615
53.225 7.472131
53.230 7.605753
53.235 7.358998
53.240 7.272534
53.245 7.276423
53.250 7.290078
53.255 7.31754
53.260 7.701487
53.265 7.868745
53.270 8.069568
53.275 7.81249
53.280 7.424217
53.285 7.464736
53.290 7.20125
53.295 6.474188
53.300 6.645518
53.305 6.733974
53.310 7.044539
53.315 7.383039
53.320 7.575552
53.325 7.847545
53.330 7.911863
53.335 7.80723
53.340 7.850088
53.345 7.979533
53.350 7.907506
53.355 7.486364
53.360 7.576915
53.365 7.471643
53.370 7.458383
53.375 7.739221
53.380 8.049273
53.385 8.840579
53.390 9.56661
53.395 9.122381
53.400 9.229086
53.405 9.174488
53.410 8.982253
53.415 8.872217
53.420 8.383252
53.425 8.54381
53.430 8.598744
53.435 8.526608
53.440 8.574045
53.445 8.571054
53.450 8.443926
53.455 7.857723
53.460 7.715008
53.465 7.934416
53.470 8.078158
53.475 7.947681
53.480 7.637091
53.485 7.470574
53.490 7.994665
53.495 7.823015
53.500 7.864059
53.505 7.794502
53.510 7.884899
53.515 8.175946
53.520 8.357899
53.525 7.897607
53.530 8.265963
53.535 8.510856
53.540 8.59437
53.545 8.844844
53.550 8.724608
53.555 8.780653
53.560 8.976549
53.565 8.479393
53.570 8.043382
53.575 7.677735
53.580 7.876852
53.585 8.123951
53.590 8.211905
53.595 8.226495
53.600 8.463217
53.605 8.885909
53.610 9.250771
53.615 9.143323
53.620 8.958824
53.625 9.17575
53.630 9.555931
53.635 9.541288
53.640 9.499464
53.645 9.085065
53.650 8.771044
53.655 8.941841
53.660 8.732869
53.665 8.525637
53.670 8.124691
53.675 8.104694
53.680 8.240248
53.685 8.299872
53.690 8.037509
53.695 8.006841
53.700 8.29078
53.705 8.752949
53.710 8.812947
53.715 9.76649
53.720 9.802599
53.725 9.485632
53.730 9.558914
53.735 9.28607
53.740 8.843923
53.745 8.259284
53.750 7.444337
53.755 7.655809
53.760 7.954444
53.765 8.082712
53.770 8.160683
53.775 8.417964
53.780 8.745277
53.785 8.851087
53.790 8.595446
53.795 8.247801
53.800 8.262649
53.805 8.530931
53.810 8.506102
53.815 8.178438
53.820 8.286825
53.825 8.335887
53.830 8.68593
53.835 8.392183
53.840 8.234049
53.845 8.148803
53.850 8.24045
53.855 8.238859
53.860 8.416734
53.865 8.424731
53.870 8.761343
53.875 8.860674
53.880 8.866143
53.885 9.138141
53.890 9.342552
53.895 9.287049
53.900 8.92383
53.905 8.690693
53.910 8.670013
53.915 8.400463
53.920 8.316598
53.925 8.037299
53.930 7.765795
53.935 8.154511
53.940 8.629771
53.945 9.14572
53.950 9.462596
53.955 9.583724
53.960 9.786349
53.965 10.023788
53.970 9.710503
53.975 9.201918
53.980 8.905534
53.985 8.556185
53.990 8.48631
53.995 8.856253
54.000 8.862201
54.005 8.776946
54.010 8.898588
54.015 8.598031
54.020 8.587152
54.025 8.543337
54.030 8.406837
54.035 8.639992
54.040 9.016218
54.045 9.361546
54.050 9.6831
54.055 9.66482
54.060 9.026639
54.065 8.528597
54.070 8.242313
54.075 8.112439
54.080 8.426024
54.085 8.313109
54.090 8.500713
54.095 8.522209
54.100 8.407453
54.105 8.344285
54.110 8.189067
54.115 8.14689
54.120 7.936687
54.125 7.916961
54.130 7.884738
54.135 8.506371
54.140 8.767306
54.145 8.26761
54.150 8.240196
54.155 8.296764
54.160 8.647638
54.165 8.504195
54.170 8.198983
54.175 8.080098
54.180 8.383417
54.185 8.412875
54.190 8.562547
54.195 8.550693
54.200 8.919696
54.205 8.743555
54.210 8.897801
54.215 8.641304
54.220 8.85634
54.225 9.077399
54.230 9.114832
54.235 9.615271
54.240 9.424764
54.245 9.409886
54.250 9.635192
54.255 9.5242
54.260 9.380126
54.265 9.024219
54.270 8.853133
54.275 8.916948
54.280 9.071475
54.285 8.933992
54.290 8.488219
54.295 8.335059
54.300 8.358631
54.305 8.425844
54.310 8.328957
54.315 8.070273
54.320 8.400045
54.325 8.892703
54.330 9.168122
54.335 9.236839
54.340 9.027537
54.345 9.413606
54.350 9.767701
54.355 9.736938
54.360 9.641283
54.365 9.488858
54.370 9.527095
54.375 9.65273
54.380 9.84183
54.385 9.627296
54.390 9.405727
54.395 9.568644
54.400 9.446029
54.405 9.183121
54.410 9.002953
54.415 8.867811
54.420 8.849063
54.425 8.75378
54.430 8.413536
54.435 8.560394
54.440 8.803657
54.445 8.735614
54.450 8.261724
54.455 8.142494
54.460 8.325879
54.465 8.522481
54.470 8.203649
54.475 8.095339
54.480 8.139877
54.485 8.454491
54.490 8.550149
54.495 8.456615
54.500 8.427382
54.505 8.332982
54.510 8.023733
54.515 8.018155
54.520 8.044527
54.525 8.110066
54.530 8.226208
54.535 8.294173
54.540 8.728143
54.545 9.11573
54.550 9.254945
54.555 9.226182
54.560 9.553403
54.565 9.554102
54.570 9.487518
54.575 8.852212
54.580 8.167713
54.585 7.66085
54.590 7.391163
54.595 7.171556
54.600 7.337141
54.605 7.503794
54.610 7.994471
54.615 8.437241
54.620 8.954019
54.625 8.894097
54.630 8.807889
54.635 8.845757
54.640 8.813059
54.645 8.83242
54.650 8.578424
54.655 8.029018
54.660 7.862237
54.665 7.992374
54.670 7.635046
54.675 7.852684
54.680 7.643579
54.685 7.883207
54.690 8.472786
54.695 8.322608
54.700 8.156095
54.705 8.096998
54.710 7.635865
54.715 7.910016
54.720 7.617865
54.725 7.707214
54.730 8.256199
54.735 8.490713
54.740 8.816133
54.745 9.282701
54.750 9.502244
54.755 10.274355
54.760 10.062616
54.765 9.574186
54.770 9.80899
54.775 10.139939
54.780 10.008076
54.785 9.751143
54.790 9.671738
54.795 10.097694
54.800 10.405105
54.805 9.95669
54.810 9.454434
54.815 9.590638
54.820 9.289586
54.825 8.82123
54.830 8.548661
54.835 8.368673
54.840 8.237983
54.845 8.301621
54.850 9.043728
54.855 9.448992
54.860 9.118681
54.865 8.751489
54.870 8.688191
54.875 8.982474
54.880 9.076664
54.885 8.184755
54.890 8.203016
54.895 8.803176
54.900 9.017532
54.905 8.843455
54.910 8.627011
54.915 9.008541
54.920 9.061533
54.925 9.498678
54.930 10.145258
54.935 10.34619
54.940 10.783061
54.945 11.175382
54.950 11.24899
54.955 11.47112
54.960 11.172575
54.965 10.926789
54.970 10.993855
54.975 10.519737
54.980 10.290219
54.985 10.220014
54.990 9.758222
54.995 9.089607
55.000 8.427777
55.005 8.208022
55.010 8.321772
55.015 8.16417
55.020 8.076359
55.025 8.10896
55.030 8.542354
55.035 9.060453
55.040 9.041451
55.045 8.875729
55.050 9.013169
55.055 9.001049
55.060 8.924955
55.065 8.676349
55.070 8.844048
55.075 9.155866
55.080 9.476898
55.085 9.47796
55.090 9.712688
55.095 9.63699
55.100 9.594536
55.105 9.521079
55.110 9.339319
55.115 8.900755
55.120 8.658673
55.125 8.713783
55.130 8.903315
55.135 9.131543
55.140 9.281066
55.145 9.4788
55.150 9.960176
55.155 10.210621
55.160 10.396038
55.165 10.139193
55.170 9.641638
55.175 9.267838
55.180 9.125491
55.185 9.092314
55.190 8.417317
55.195 8.408229
55.200 8.274062
55.205 8.535239
55.210 9.100123
55.215 9.159279
55.220 9.081893
55.225 9.149971
55.230 8.999318
55.235 9.376822
55.240 9.318805
55.245 8.766796
55.250 8.486892
55.255 8.216764
55.260 8.44647
55.265 8.661445
55.270 8.648336
55.275 8.408305
55.280 8.766883
55.285 9.187821
55.290 9.202213
55.295 8.945127
55.300 8.821522
55.305 8.465437
55.310 8.308584
55.315 7.873225
55.320 7.717631
55.325 8.695065
55.330 8.935153
55.335 8.764591
55.340 8.868282
55.345 8.983294
55.350 8.972482
55.355 8.666343
55.360 7.897445
55.365 7.952332
55.370 8.093575
55.375 8.289075
55.380 8.630112
55.385 8.81668
55.390 9.117638
55.395 8.869357
55.400 8.864989
55.405 9.223421
55.410 8.885457
55.415 8.433412
55.420 8.492517
55.425 9.015359
55.430 9.384911
55.435 9.29477
55.440 8.919484
55.445 9.181977
55.450 9.789031
55.455 9.752127
55.460 8.62282
55.465 8.235371
55.470 8.271827
55.475 8.739489
55.480 8.809605
55.485 8.287865
55.490 8.43022
55.495 9.713596
55.500 9.999181
55.505 9.985511
55.510 9.583868
55.515 9.760803
55.520 9.720877
55.525 9.577477
55.530 9.112185
55.535 9.148659
55.540 9.072643
55.545 8.849871
55.550 8.830545
55.555 8.807995
55.560 8.485112
55.565 8.362882
55.570 8.124077
55.575 8.34556
55.580 8.922883
55.585 8.767237
55.590 9.131083
55.595 9.336579
55.600 9.745472
55.605 10.046953
55.610 10.233632
55.615 10.285912
55.620 10.157783
55.625 9.95021
55.630 9.452718
55.635 9.161922
55.640 8.85534
55.645 8.166577
55.650 7.850423
55.655 7.938568
55.660 7.967383
55.665 8.009434
55.670 7.850922
55.675 7.935163
55.680 8.044254
55.685 8.191849
55.690 8.622909
55.695 9.026768
55.700 9.335074
55.705 9.389855
55.710 9.397364
55.715 9.353883
55.720 8.903475
55.725 8.523324
55.730 8.736941
55.735 8.632065
55.740 8.597972
55.745 8.467647
55.750 8.742896
55.755 8.925775
55.760 8.920071
55.765 8.711217
55.770 8.621325
55.775 8.53452
55.780 8.586
55.785 8.84445
55.790 9.055313
55.795 8.860536
55.800 8.864241
55.805 9.129897
55.810 9.347922
55.815 9.271726
55.820 9.051755
55.825 9.056643
55.830 9.325562
55.835 9.151999
55.840 9.223803
55.845 9.158353
55.850 9.233631
55.855 9.137003
55.860 8.987752
55.865 9.116401
55.870 8.98771
55.875 8.980426
55.880 9.097942
55.885 9.054218
55.890 9.126642
55.895 9.168243
55.900 9.260438
55.905 9.340952
55.910 9.092868
55.915 8.794963
55.920 8.843871
55.925 8.71505
55.930 8.436856
55.935 8.210552
55.940 8.325905
55.945 8.752362
55.950 8.847758
55.955 8.82497
55.960 9.065195
55.965 9.293221
55.970 9.340235
55.975 8.853499
55.980 8.317106
55.985 8.588077
55.990 8.784867
55.995 8.868914
56.000 9.338447
56.005 9.567061
56.010 9.503402
56.015 9.625297
56.020 9.907657
56.025 10.081544
56.030 9.836939
56.035 9.355694
56.040 9.108306
56.045 9.132798
56.050 9.373328
56.055 9.822263
56.060 9.689775
56.065 9.541864
56.070 9.702671
56.075 10.377728
56.080 10.817402
56.085 10.605756
56.090 9.666169
56.095 9.741549
56.100 9.614819
56.105 9.485966
56.110 9.395716
56.115 8.985766
56.120 8.399575
56.125 8.168728
56.130 7.735455
56.135 7.703835
56.140 7.806586
56.145 8.095798
56.150 8.473475
56.155 8.965551
56.160 9.095081
56.165 9.397876
56.170 9.320324
56.175 8.85984
56.180 8.405316
56.185 8.434916
56.190 8.613637
56.195 8.784127
56.200 8.975459
56.205 9.388343
56.210 9.828063
56.215 10.219423
56.220 10.082525
56.225 10.342784
56.230 10.388968
56.235 10.181567
56.240 9.921547
56.245 10.109137
56.250 10.356474
56.255 10.365683
56.260 10.023293
56.265 9.904037
56.270 10.193858
56.275 9.859324
56.280 9.443247
56.285 9.239819
56.290 9.579249
56.295 9.958276
56.300 10.054029
56.305 10.335257
56.310 10.736122
56.315 10.919109
56.320 10.7967
56.325 10.127249
56.330 9.652991
56.335 9.69048
56.340 9.257966
56.345 9.082898
56.350 9.044799
56.355 9.451839
56.360 9.986585
56.365 9.842631
56.370 9.567353
56.375 9.524295
56.380 9.422449
56.385 9.32517
56.390 9.352283
56.395 9.595185
56.400 10.113075
56.405 10.356474
56.410 10.548413
56.415 10.358794
56.420 10.262107
56.425 9.929216
56.430 9.856
56.435 9.613415
56.440 9.516191
56.445 9.594604
56.450 9.738325
56.455 9.349769
56.460 9.238618
56.465 9.632007
56.470 9.891278
56.475 10.093372
56.480 10.13292
56.485 10.317121
56.490 10.798036
56.495 10.835032
56.500 10.143112
56.505 9.488405
56.510 9.63289
56.515 9.348029
56.520 9.65488
56.525 10.24297
56.530 10.346617
56.535 10.617203
56.540 10.891984
56.545 10.642474
56.550 11.062336
56.555 10.925758
56.560 10.323301
56.565 10.586418
56.570 10.866662
56.575 10.960844
56.580 10.903275
56.585 10.867937
56.590 10.776047
56.595 11.042799
56.600 10.951588
56.605 10.645068
56.610 10.04422
56.615 9.981261
56.620 9.611354
56.625 9.453822
56.630 9.590337
56.635 9.488065
56.640 9.899163
56.645 10.445867
56.650 10.689877
56.655 10.944616
56.660 11.349964
56.665 10.794776
56.670 10.44224
56.675 10.440034
56.680 10.38381
56.685 10.306183
56.690 10.13798
56.695 9.48909
56.700 9.735708
56.705 10.01789
56.710 9.83079
56.715 9.684937
56.720 9.739897
56.725 9.415304
56.730 9.440925
56.735 9.471019
56.740 9.51615
56.745 9.738121
56.750 9.904186
56.755 9.909873
56.760 10.264375
56.765 10.732544
56.770 10.83899
56.775 10.880897
56.780 10.78803
56.785 10.646836
56.790 10.339883
56.795 9.742021
56.800 9.238333
56.805 9.06938
56.810 8.575145
56.815 8.534933
56.820 8.542359
56.825 8.534465
56.830 8.348734
56.835 8.551872
56.840 8.336719
56.845 8.283769
56.850 8.034761
56.855 7.852302
56.860 8.192478
56.865 8.685422
56.870 8.282747
56.875 8.148414
56.880 8.393147
56.885 8.581064
56.890 9.015544
56.895 8.975677
56.900 8.658252
56.905 8.754074
56.910 9.026798
56.915 8.858259
56.920 9.121587
56.925 9.140632
56.930 9.044603
56.935 8.967034
56.940 9.528898
56.945 9.623622
56.950 9.823915
56.955 9.50015
56.960 9.334201
56.965 9.505354
56.970 9.321816
56.975 9.194228
56.980 8.90111
56.985 8.852332
56.990 8.886167
56.995 8.690077
57.000 8.786358
57.005 9.495906
57.010 9.411844
57.015 9.609143
57.020 9.439743
57.025 9.217838
57.030 9.19194
57.035 9.206717
57.040 8.740292
57.045 8.68721
57.050 8.493442
57.055 8.072806
57.060 8.060379
57.065 8.018199
57.070 7.852596
57.075 8.448936
57.080 8.457128
57.085 8.880444
57.090 9.195462
57.095 9.363579
57.100 9.422565
57.105 9.509946
57.110 9.137666
57.115 9.489692
57.120 9.644858
57.125 9.739635
57.130 9.931915
57.135 10.258343
57.140 10.051264
57.145 10.107235
57.150 10.06164
57.155 9.961657
57.160 9.757242
57.165 9.909026
57.170 9.9229
57.175 9.849682
57.180 9.742913
57.185 9.879346
57.190 9.779372
57.195 10.186089
57.200 9.869496
57.205 9.501098
57.210 9.64188
57.215 9.225022
57.220 9.050221
57.225 9.000857
57.230 8.637814
57.235 8.619045
57.240 8.415571
57.245 8.550226
57.250 8.975486
57.255 8.685502
57.260 8.805723
57.265 9.077582
57.270 8.962159
57.275 9.228018
57.280 9.416287
57.285 9.365617
57.290 9.402979
57.295 9.186917
57.300 9.176483
57.305 9.544389
57.310 9.47342
57.315 8.923038
57.320 8.685106
57.325 8.782508
57.330 8.929346
57.335 8.786955
57.340 8.435472
57.345 8.309503
57.350 8.40383
57.355 8.452453
57.360 8.53108
57.365 8.671477
57.370 9.022933
57.375 9.145458
57.380 9.349829
57.385 9.626508
57.390 9.866144
57.395 9.782713
57.400 9.447583
57.405 9.606721
57.410 10.099823
57.415 10.012178
57.420 10.01081
57.425 9.837796
57.430 9.74027
57.435 9.583939
57.440 9.227454
57.445 9.082299
57.450 8.903448
57.455 9.035518
57.460 9.303235
57.465 9.796653
57.470 9.613386
57.475 9.711183
57.480 9.799529
57.485 9.522348
57.490 8.975249
57.495 8.460268
57.500 8.173689
57.505 8.293086
57.510 8.070315
57.515 7.625223
57.520 7.749673
57.525 8.020225
57.530 8.179662
57.535 8.190819
57.540 8.361557
57.545 8.974752
57.550 9.784675
57.555 10.105393
57.560 10.127817
57.565 10.055071
57.570 10.288813
57.575 10.081
57.580 9.490583
57.585 8.784575
57.590 8.434138
57.595 8.134361
57.600 8.581313
57.605 8.774074
57.610 8.842336
57.615 8.85183
57.620 9.245568
57.625 9.467227
57.630 9.581789
57.635 8.747238
57.640 8.840285
57.645 8.915024
57.650 9.033839
57.655 9.160985
57.660 9.074325
57.665 8.886177
57.670 8.867438
57.675 8.537602
57.680 8.451993
57.685 8.113457
57.690 7.799905
57.695 8.138774
57.700 8.669824
57.705 8.99287
57.710 8.97204
57.715 9.172028
57.720 9.674544
57.725 9.733211
57.730 9.309638
57.735 9.124623
57.740 8.710352
57.745 8.396264
57.750 8.322591
57.755 8.055208
57.760 8.217585
57.765 8.384892
57.770 8.392607
57.775 8.893306
57.780 9.03937
57.785 8.829786
57.790 8.636418
57.795 8.294421
57.800 8.077581
57.805 7.847662
57.810 7.626467
57.815 7.88866
57.820 7.784512
57.825 7.914853
57.830 8.821763
57.835 9.138152
57.840 9.436149
57.845 9.645967
57.850 9.62047
57.855 9.793315
57.860 9.775297
57.865 9.330865
57.870 9.301997
57.875 9.219986
57.880 8.882841
57.885 8.705446
57.890 8.809673
57.895 8.96101
57.900 8.969771
57.905 8.848924
57.910 8.913444
57.915 8.999619
57.920 9.146488
57.925 9.064092
57.930 8.773211
57.935 8.915064
57.940 8.929412
57.945 8.965224
57.950 9.258213
57.955 9.586618
57.960 9.784019
57.965 9.925545
57.970 9.815744
57.975 10.034932
57.980 9.692182
57.985 9.735182
57.990 9.657289
57.995 9.717314
58.000 9.767535
58.005 9.756248
58.010 9.75681
58.015 10.108088
58.020 10.022155
58.025 9.784329
58.030 9.781357
58.035 10.023627
58.040 10.357653
58.045 10.372431
58.050 10.468576
58.055 10.619733
58.060 10.844807
58.065 10.627903
58.070 9.948983
58.075 9.598929
58.080 9.793531
58.085 9.671123
58.090 9.363699
58.095 9.034065
58.100 9.486294
58.105 10.06354
58.110 10.471459
58.115 10.021162
58.120 10.000793
58.125 10.116095
58.130 10.300381
58.135 9.828261
58.140 9.592434
58.145 9.632224
58.150 9.814107
58.155 9.584209
58.160 9.068813
58.165 8.906096
58.170 9.109514
58.175 9.075188
58.180 8.593689
58.185 8.300165
58.190 8.260563
58.195 8.798487
58.200 9.196305
58.205 9.322808
58.210 9.598139
58.215 9.318212
58.220 9.410654
58.225 9.839409
58.230 9.726897
58.235 9.366328
58.240 9.415444
58.245 9.517956
58.250 10.607792
58.255 10.836267
58.260 10.544778
58.265 10.569039
58.270 10.359586
58.275 9.965741
58.280 9.457788
58.285 8.664916
58.290 8.922598
58.295 9.134993
58.300 8.972737
58.305 9.145278
58.310 9.326403
58.315 9.467193
58.320 9.736856
58.325 9.440645
58.330 8.908586
58.335 8.768222
58.340 8.775798
58.345 8.795921
58.350 9.038278
58.355 9.863177
58.360 10.23105
58.365 10.425888
58.370 10.813479
58.375 10.89047
58.380 11.109108
58.385 10.928023
58.390 10.184677
58.395 10.162436
58.400 10.159758
58.405 10.392657
58.410 10.416227
58.415 10.117059
58.420 10.540585
58.425 10.703728
58.430 10.889177
58.435 11.502765
58.440 11.20983
58.445 11.234859
58.450 11.43162
58.455 11.334159
58.460 11.206103
58.465 10.865271
58.470 10.177922
58.475 10.132746
58.480 10.262335
58.485 10.028522
58.490 9.232743
58.495 9.028369
58.500 9.828227
58.505 10.317004
58.510 10.315963
58.515 10.358663
58.520 10.543399
58.525 11.254246
58.530 11.48728
58.535 11.161325
58.540 10.895646
58.545 11.043043
58.550 11.016069
58.555 11.461987
58.560 11.647629
58.565 11.78277
58.570 11.828929
58.575 12.09746
58.580 11.83436
58.585 11.734202
58.590 11.089984
58.595 10.764858
58.600 10.754547
58.605 10.130107
58.610 9.841991
58.615 10.133415
58.620 10.604517
58.625 10.977112
58.630 11.032075
58.635 10.399133
58.640 10.472367
58.645 10.483857
58.650 10.434566
58.655 9.703895
58.660 9.389782
58.665 9.684223
58.670 10.471175
58.675 10.419817
58.680 10.373029
58.685 10.288531
58.690 10.604109
58.695 10.360012
58.700 9.958021
58.705 10.032981
58.710 9.984526
58.715 10.121572
58.720 10.367423
58.725 10.450695
58.730 10.617998
58.735 10.77089
58.740 9.988074
58.745 10.030524
58.750 9.785876
58.755 9.727775
58.760 10.038842
58.765 10.326645
58.770 9.877294
58.775 10.370457
58.780 10.49692
58.785 10.334226
58.790 9.851316
58.795 9.266947
58.800 8.994934
58.805 9.203165
58.810 9.149577
58.815 8.736877
58.820 8.540816
58.825 8.368614
58.830 8.014982
58.835 7.838379
58.840 8.237504
58.845 8.302155
58.850 8.517695
58.855 9.012114
58.860 9.354955
58.865 9.366631
58.870 9.70118
58.875 9.297738
58.880 9.630958
58.885 9.650382
58.890 9.632624
58.895 9.673658
58.900 10.162651
58.905 10.270481
58.910 10.394998
58.915 10.062716
58.920 9.917683
58.925 9.684754
58.930 9.728213
58.935 10.038699
58.940 9.760017
58.945 9.474037
58.950 9.455425
58.955 9.713454
58.960 9.490579
58.965 9.295261
58.970 8.989906
58.975 8.854673
58.980 8.946741
58.985 8.94736
58.990 8.675061
58.995 9.089097
59.000 8.927242
59.005 8.830524
59.010 9.080443
59.015 9.622403
59.020 9.868042
59.025 10.075106
59.030 9.920615
59.035 9.886645
59.040 10.191036
59.045 10.240929
59.050 9.882499
59.055 10.202979
59.060 10.19363
59.065 9.833032
59.070 9.688635
59.075 9.387001
59.080 9.717994
59.085 9.357993
59.090 8.941484
59.095 9.017054
59.100 9.643667
59.105 10.146149
59.110 9.947745
59.115 9.48453
59.120 9.852792
59.125 10.10511
59.130 10.506485
59.135 10.502789
59.140 10.523701
59.145 10.81858
59.150 10.324131
59.155 9.654536
59.160 8.979079
59.165 8.74688
59.170 8.587214
59.175 8.130973
59.180 8.028152
59.185 8.090598
59.190 8.555288
59.195 9.131208
59.200 9.094889
59.205 9.257335
59.210 9.536301
59.215 9.438919
59.220 9.917827
59.225 9.651733
59.230 9.326559
59.235 9.255459
59.240 9.238153
59.245 9.21973
59.250 8.97818
59.255 8.671137
59.260 8.726514
59.265 8.853689
59.270 8.867444
59.275 8.802083
59.280 8.698377
59.285 9.114888
59.290 9.511428
59.295 9.410358
59.300 9.505283
59.305 9.475961
59.310 9.469625
59.315 9.348343
59.320 9.205608
59.325 8.928891
59.330 9.558431
59.335 9.605476
59.340 9.04587
59.345 9.06798
59.350 9.161099
59.355 9.043748
59.360 8.996774
59.365 8.263127
59.370 7.911609
59.375 8.142486
59.380 7.959756
59.385 8.125668
59.390 8.987327
59.395 9.376557
59.400 9.430046
59.405 9.613496
59.410 9.982828
59.415 10.415318
59.420 10.205098
59.425 9.317016
59.430 9.350064
59.435 9.157007
59.440 9.231064
59.445 8.963517
59.450 8.555449
59.455 8.355034
59.460 8.831307
59.465 8.533848
59.470 8.792961
59.475 8.856815
59.480 8.962133
59.485 9.560353
59.490 9.809968
59.495 9.550531
59.500 10.325585
59.505 10.325253
59.510 9.854233
59.515 9.740567
59.520 9.637053
59.525 9.610749
59.530 9.292857
59.535 8.734164
59.540 8.880771
59.545 9.316343
59.550 9.132383
59.555 8.861712
59.560 8.729144
59.565 8.997478
59.570 8.914334
59.575 8.708605
59.580 8.744131
59.585 8.966657
59.590 9.184438
59.595 9.113219
59.600 8.634557
59.605 8.919012
59.610 8.97102
59.615 9.265086
59.620 9.149903
59.625 8.799683
59.630 8.95163
59.635 9.158487
59.640 8.761426
59.645 8.362944
59.650 7.952048
59.655 7.955346
59.660 8.252149
59.665 7.954695
59.670 7.59114
59.675 8.022331
59.680 8.466041
59.685 8.669635
59.690 8.840527
59.695 8.939877
59.700 9.825301
59.705 10.641405
59.710 10.521697
59.715 10.800076
59.720 10.865224
59.725 10.676613
59.730 10.684963
59.735 10.323537
59.740 10.17887
59.745 9.815013
59.750 9.771237
59.755 10.052407
59.760 10.551685
59.765 10.295606
59.770 10.122513
59.775 10.865306
59.780 11.728622
59.785 11.523104
59.790 11.016873
59.795 11.09938
59.800 11.382451
59.805 11.069577
59.810 10.484715
59.815 9.989073
59.820 9.656937
59.825 9.375011
59.830 8.849099
59.835 8.702736
59.840 9.025455
59.845 8.954898
59.850 8.604228
59.855 8.748822
59.860 9.270044
59.865 9.680425
59.870 9.905421
59.875 10.048958
59.880 10.411849
59.885 11.06794
59.890 11.270289
59.895 11.127255
59.900 10.834719
59.905 10.531427
59.910 10.136073
59.915 9.621011
59.920 9.097067
59.925 8.828287
59.930 9.094506
59.935 9.298866
59.940 9.049747
59.945 9.179584
59.950 9.078773
59.955 8.957911
59.960 8.977488
59.965 8.389556
59.970 7.915853
59.975 7.948776
59.980 7.559509
59.985 7.790716
59.990 8.23031
59.995 8.174997
60.000 8.552217
60.005 8.930499
60.010 9.046327
60.015 9.35831
60.020 9.580888
60.025 9.729573
60.030 9.528141
60.035 9.240838
60.040 9.207414
60.045 9.443484
60.050 9.556952
60.055 9.448706
60.060 9.442947
60.065 9.607082
60.070 9.810005
60.075 9.726005
60.080 9.481983
60.085 9.356319
60.090 9.324775
60.095 9.30449
60.100 9.297291
60.105 9.29086
60.110 9.139535
60.115 9.341552
60.120 9.292533
60.125 9.604867
60.130 9.498426
60.135 10.043055
60.140 9.894175
60.145 10.076395
60.150 9.97284
60.155 10.100651
60.160 9.758743
60.165 9.964449
60.170 9.787306
60.175 9.971012
60.180 9.608171
60.185 9.534689
60.190 8.79353
60.195 8.38888
60.200 8.339617
60.205 8.125991
60.210 8.072296
60.215 8.542688
60.220 8.267707
60.225 8.832862
60.230 9.12953
60.235 9.091381
60.240 9.077145
60.245 9.13096
60.250 9.034362
60.255 9.514967
60.260 9.359509
60.265 9.420558
60.270 9.201057
60.275 9.353112
60.280 9.452389
60.285 9.677498
60.290 9.35776
60.295 9.259317
60.300 8.984228
60.305 8.933135
60.310 9.031174
60.315 8.983379
60.320 8.861984
60.325 9.074328
60.330 8.946752
60.335 8.902066
60.340 9.043078
60.345 9.048248
60.350 8.897324
60.355 8.576717
60.360 8.548854
60.365 9.194246
60.370 9.560964
60.375 9.640182
60.380 9.517203
60.385 9.648247
60.390 9.737613
60.395 9.665382
60.400 9.248062
60.405 9.162714
60.410 9.136336
60.415 9.009328
60.420 8.875907
60.425 9.082948
60.430 9.096658
60.435 9.050921
60.440 8.528661
60.445 8.360687
60.450 8.343305
60.455 8.506784
60.460 8.361528
60.465 8.321767
60.470 8.650777
60.475 9.487872
60.480 9.124591
60.485 9.387578
60.490 9.380773
60.495 9.291074
60.500 9.123859
60.505 9.039322
60.510 9.063545
60.515 9.239187
60.520 8.870351
60.525 8.932115
60.530 9.074114
60.535 9.092241
60.540 9.04603
60.545 8.652566
60.550 8.608521
60.555 8.553133
60.560 8.450816
60.565 8.388227
60.570 8.701336
60.575 9.255877
60.580 9.556705
60.585 9.711487
60.590 9.784639
60.595 10.070928
60.600 10.308645
60.605 9.951739
60.610 9.41449
60.615 9.445052
60.620 9.458068
60.625 9.199759
60.630 9.023005
60.635 9.381679
60.640 9.447694
60.645 9.485172
60.650 9.584394
60.655 10.096195
60.660 10.448523
60.665 10.547504
60.670 10.057179
60.675 10.054052
60.680 10.005103
60.685 9.752915
60.690 9.39278
60.695 9.495245
60.700 9.389233
60.705 9.35383
60.710 9.488743
60.715 9.540629
60.720 9.410252
60.725 8.995779
60.730 8.451578
60.735 8.375658
60.740 8.524461
60.745 8.329978
60.750 8.39719
60.755 8.761259
60.760 9.320695
60.765 10.155643
60.770 10.696238
60.775 10.9613
60.780 10.772534
60.785 10.329729
60.790 10.029033
60.795 9.634432
60.800 9.086154
60.805 8.441207
60.810 8.047153
60.815 8.26928
60.820 8.533733
60.825 8.649808
60.830 9.09034
60.835 9.077947
60.840 9.121841
60.845 9.101664
60.850 9.238585
60.855 9.527367
60.860 9.378538
60.865 9.034721
60.870 9.176434
60.875 9.703522
60.880 9.409649
60.885 9.623085
60.890 9.449164
60.895 9.415966
60.900 9.496546
60.905 9.735952
60.910 9.412875
60.915 9.374075
60.920 8.739011
60.925 8.677683
60.930 8.54552
60.935 8.40132
60.940 8.353955
60.945 8.71864
60.950 9.111124
60.955 9.567054
60.960 9.594654
60.965 9.795252
60.970 9.994642
60.975 9.707593
60.980 9.508038
60.985 9.247102
60.990 9.303554
60.995 9.49634
61.000 9.610045
61.005 9.64505
61.010 9.391657
61.015 9.637866
61.020 10.256829
61.025 10.037962
61.030 9.887938
61.035 9.719131
61.040 9.538647
61.045 9.552129
61.050 9.276516
61.055 8.618002
61.060 8.698908
61.065 8.583538
61.070 8.575812
61.075 8.491098
61.080 8.29353
61.085 8.461996
61.090 8.828096
61.095 9.029583
61.100 8.779784
61.105 9.013884
61.110 9.212242
61.115 9.185516
61.120 8.93611
61.125 8.317125
61.130 8.246867
61.135 8.345658
61.140 8.502421
61.145 8.634642
61.150 8.56556
61.155 8.776531
61.160 9.057109
61.165 8.847002
61.170 9.02089
61.175 9.248313
61.180 9.034065
61.185 8.802777
61.190 8.713619
61.195 8.746117
61.200 9.049442
61.205 8.794431
61.210 8.778367
61.215 8.940357
61.220 9.427115
61.225 9.889816
61.230 9.984513
61.235 9.906665
61.240 10.142271
61.245 10.266323
61.250 10.506248
61.255 10.507739
61.260 10.246062
61.265 10.202884
61.270 9.76914
61.275 9.63784
61.280 9.656581
61.285 10.209926
61.290 10.23771
61.295 10.068651
61.300 10.173153
61.305 10.860909
61.310 10.599534
61.315 10.149973
61.320 9.68061
61.325 9.53899
61.330 9.804522
61.335 9.81191
61.340 9.812852
61.345 9.838382
61.350 9.796491
61.355 9.755641
61.360 9.762261
61.365 9.10713
61.370 8.905897
61.375 8.978684
61.380 8.980188
61.385 8.831848
61.390 8.840759
61.395 9.042243
61.400 9.408878
61.405 9.065784
61.410 8.450813
61.415 8.406159
61.420 9.042232
61.425 9.201674
61.430 9.090389
61.435 9.559848
61.440 9.945848
61.445 10.129891
61.450 10.351903
61.455 9.918658
61.460 9.392559
61.465 9.399196
61.470 8.74999
61.475 8.556215
61.480 8.364984
61.485 8.275821
61.490 8.202603
61.495 8.307775
61.500 8.233125
61.505 8.644334
61.510 8.674714
61.515 9.060653
61.520 9.007237
61.525 9.146209
61.530 9.39059
61.535 9.734258
61.540 9.792776
61.545 10.314797
61.550 10.228189
61.555 10.363811
61.560 10.577492
61.565 10.637822
61.570 10.755827
61.575 10.795251
61.580 10.332763
61.585 10.684028
61.590 10.679694
61.595 10.275206
61.600 10.215796
61.605 10.554931
61.610 11.188587
61.615 10.941276
61.620 10.43449
61.625 10.591818
61.630 10.891862
61.635 10.455706
61.640 9.453084
61.645 9.141527
61.650 9.508563
61.655 9.498818
61.660 8.987925
61.665 8.853272
61.670 9.296843
61.675 9.549455
61.680 9.100983
61.685 8.893602
61.690 8.838539
61.695 9.191055
61.700 9.356971
61.705 9.153512
61.710 9.509749
61.715 9.958397
61.720 9.976412
61.725 9.831473
61.730 9.636921
61.735 9.665586
61.740 9.870224
61.745 9.568194
61.750 9.148038
61.755 9.286811
61.760 9.937193
61.765 9.836617
61.770 9.744452
61.775 9.077457
61.780 8.810888
61.785 8.950502
61.790 9.272206
61.795 9.342609
61.800 9.463711
61.805 9.209318
61.810 9.208805
61.815 9.14854
61.820 8.849288
61.825 8.525391
61.830 8.299666
61.835 8.249161
61.840 8.823339
61.845 8.748411
61.850 8.977468
61.855 9.32752
61.860 9.140424
61.865 8.859603
61.870 9.042305
61.875 9.389548
61.880 10.197502
61.885 10.587628
61.890 10.981119
61.895 11.056631
61.900 11.58304
61.905 11.600494
61.910 10.955134
61.915 10.732991
61.920 10.529271
61.925 10.442507
61.930 10.298479
61.935 9.937148
61.940 9.8349
61.945 10.141117
61.950 9.964812
61.955 10.110521
61.960 10.016011
61.965 9.903896
61.970 9.848577
61.975 10.050413
61.980 10.249036
61.985 10.179036
61.990 9.688476
61.995 9.092293
62.000 9.087538
62.005 9.139736
62.010 8.723478
62.015 8.474817
62.020 8.437366
62.025 8.041376
62.030 8.283936
62.035 8.154898
62.040 7.962214
62.045 8.160336
62.050 8.272449
62.055 8.696843
62.060 9.520522
62.065 10.109162
62.070 10.809679
62.075 11.391175
62.080 11.526708
62.085 11.74673
62.090 11.368856
62.095 11.316322
62.100 11.350876
62.105 11.165835
62.110 10.871871
62.115 10.867611
62.120 10.667776
62.125 10.75528
62.130 10.78768
62.135 10.466733
62.140 10.101794
62.145 10.113978
62.150 9.869549
62.155 9.546167
62.160 9.637374
62.165 9.196565
62.170 9.259632
62.175 9.39636
62.180 9.03453
62.185 9.230028
62.190 9.439525
62.195 9.17133
62.200 9.405534
62.205 9.334651
62.210 9.776713
62.215 10.345173
62.220 10.311029
62.225 10.474747
62.230 10.756112
62.235 10.744163
62.240 10.830226
62.245 10.293577
62.250 9.912566
62.255 9.521099
62.260 9.569472
62.265 9.583796
62.270 9.681845
62.275 9.672895
62.280 9.672559
62.285 10.024954
62.290 10.405438
62.295 10.171963
62.300 9.994941
62.305 9.437476
62.310 9.230202
62.315 9.342216
62.320 9.316946
62.325 9.355509
62.330 9.206172
62.335 8.959104
62.340 9.504764
62.345 9.595038
62.350 9.327153
62.355 8.802479
62.360 8.729801
62.365 9.1203
62.370 9.87397
62.375 10.291103
62.380 10.509992
62.385 10.640186
62.390 10.788836
62.395 10.98553
62.400 10.931234
62.405 10.881387
62.410 10.324924
62.415 10.573553
62.420 10.482231
62.425 10.609434
62.430 10.57625
62.435 10.837694
62.440 10.410643
62.445 10.260178
62.450 9.856475
62.455 10.294769
62.460 10.546623
62.465 10.79742
62.470 10.466002
62.475 10.665688
62.480 10.819434
62.485 11.016499
62.490 10.883815
62.495 10.857596
62.500 10.629386
62.505 10.89732
62.510 10.676498
62.515 10.2278
62.520 10.318436
62.525 10.345487
62.530 10.316449
62.535 10.391968
62.540 10.392535
62.545 10.54214
62.550 10.861343
62.555 10.562018
62.560 10.266219
62.565 9.813268
62.570 9.178491
62.575 8.881103
62.580 9.163028
62.585 9.050664
62.590 9.25055
62.595 9.507053
62.600 9.918461
62.605 10.417174
62.610 10.166611
62.615 9.400376
62.620 9.249512
62.625 9.115707
62.630 9.24524
62.635 9.24649
62.640 9.299581
62.645 9.590858
62.650 10.208148
62.655 10.880721
62.660 11.18556
62.665 10.894062
62.670 10.60108
62.675 10.688639
62.680 10.831532
62.685 10.669487
62.690 10.757596
62.695 10.672324
62.700 10.653117
62.705 10.44929
62.710 10.553281
62.715 10.683984
62.720 10.613379
62.725 10.074769
62.730 10.094183
62.735 10.400906
62.740 10.71911
62.745 10.344708
62.750 10.242095
62.755 10.559105
62.760 10.78376
62.765 10.695137
62.770 10.616697
62.775 10.466692
62.780 10.249824
62.785 10.34151
62.790 10.440554
62.795 10.402312
62.800 10.670314
62.805 10.953382
62.810 10.904697
62.815 11.309095
62.820 11.386036
62.825 11.147458
62.830 11.468793
62.835 11.07269
62.840 10.965598
62.845 11.315596
62.850 11.11224
62.855 11.071033
62.860 11.04759
62.865 11.463559
62.870 11.435855
62.875 11.014776
62.880 10.886061
62.885 10.956296
62.890 10.961802
62.895 10.657315
62.900 10.01511
62.905 11.070348
62.910 11.543001
62.915 11.289288
62.920 11.1235
62.925 11.050409
62.930 10.767754
62.935 10.400352
62.940 9.416039
62.945 9.555323
62.950 9.947214
62.955 9.792723
62.960 9.377902
62.965 9.483277
62.970 9.733368
62.975 9.680541
62.980 9.22526
62.985 8.584461
62.990 8.819063
62.995 9.207346
63.000 9.641202
63.005 9.714715
63.010 9.946494
63.015 10.630863
63.020 11.117079
63.025 11.077899
63.030 11.077714
63.035 10.632253
63.040 10.726269
63.045 10.636213
63.050 10.349361
63.055 10.376348
63.060 10.347681
63.065 10.172745
63.070 10.258319
63.075 9.728777
63.080 9.728101
63.085 9.743754
63.090 9.613473
63.095 9.50666
63.100 9.575987
63.105 9.317926
63.110 9.639171
63.115 9.786408
63.120 9.585005
63.125 9.50279
63.130 9.933413
63.135 10.05303
63.140 10.088202
63.145 9.618032
63.150 9.389338
63.155 9.498371
63.160 9.408999
63.165 9.146892
63.170 9.093827
63.175 9.665917
63.180 10.138033
63.185 10.112273
63.190 10.396406
63.195 10.613227
63.200 10.34437
63.205 10.170591
63.210 9.953034
63.215 9.910829
63.220 9.713082
63.225 9.551746
63.230 9.444634
63.235 9.598248
63.240 9.837436
63.245 9.783768
63.250 10.247626
63.255 10.896922
63.260 10.833725
63.265 10.979058
63.270 10.814115
63.275 10.765882
63.280 10.482385
63.285 9.705549
63.290 9.224111
63.295 9.41618
63.300 9.740491
63.305 10.061521
63.310 9.975795
63.315 10.05929
63.320 10.15185
63.325 10.008986
63.330 9.952849
63.335 9.541235
63.340 9.503224
63.345 9.471842
63.350 9.582888
63.355 10.303225
63.360 10.584579
63.365 10.419592
63.370 10.570263
63.375 10.631382
63.380 10.939734
63.385 11.225465
63.390 10.608177
63.395 10.693832
63.400 10.807384
63.405 10.613859
63.410 10.426807
63.415 10.280587
63.420 9.808127
63.425 9.461061
63.430 9.389647
63.435 9.763809
63.440 9.840592
63.445 9.922783
63.450 10.143374
63.455 10.197948
63.460 10.620681
63.465 10.77689
63.470 10.962248
63.475 11.262154
63.480 11.25318
63.485 10.917207
63.490 11.455251
63.495 11.539592
63.500 11.170409
63.505 11.240664
63.510 11.085855
63.515 10.899302
63.520 10.720869
63.525 9.721909
63.530 9.250831
63.535 9.34849
63.540 8.886353
63.545 8.774358
63.550 8.588847
63.555 8.733397
63.560 9.39231
63.565 9.644677
63.570 9.657178
63.575 9.189191
63.580 9.175668
63.585 9.159013
63.590 8.850385
63.595 8.86724
63.600 8.833015
63.605 9.039431
63.610 9.829007
63.615 9.8897
63.620 10.334044
63.625 10.930039
63.630 11.236839
63.635 11.367745
63.640 11.011778
63.645 10.357254
63.650 10.172089
63.655 10.054018
63.660 10.024557
63.665 10.00733
63.670 10.397931
63.675 10.775915
63.680 11.252347
63.685 11.594725
63.690 11.749464
63.695 11.366178
63.700 11.271101
63.705 10.707992
63.710 10.293803
63.715 10.073497
63.720 9.765355
63.725 9.678374
63.730 9.672421
63.735 9.639071
63.740 9.744848
63.745 9.725935
63.750 9.881121
63.755 10.40427
63.760 10.186709
63.765 10.018175
63.770 9.823925
63.775 10.105871
63.780 10.26408
63.785 10.17547
63.790 10.063948
63.795 10.341262
63.800 10.690776
63.805 10.742515
63.810 10.893697
63.815 10.940157
63.820 10.768549
63.825 10.687129
63.830 10.503453
63.835 10.365652
63.840 10.326235
63.845 9.99946
63.850 10.189448
63.855 10.15591
63.860 10.299765
63.865 10.514878
63.870 10.353051
63.875 10.164667
63.880 10.22894
63.885 10.247655
63.890 10.513154
63.895 10.390334
63.900 10.414413
63.905 10.918862
63.910 11.301095
63.915 11.110258
63.920 10.983882
63.925 11.165752
63.930 11.091382
63.935 10.832594
63.940 10.436875
63.945 10.562756
63.950 10.577366
63.955 10.845055
63.960 11.004427
63.965 10.872851
63.970 10.714417
63.975 11.066828
63.980 11.257304
63.985 11.146377
63.990 10.799674
63.995 10.84845
64.000 11.627262
64.005 11.864993
64.010 11.99909
64.015 12.084079
64.020 12.333037
64.025 12.641275
64.030 12.624748
64.035 12.555819
64.040 12.987621
64.045 12.550697
64.050 12.539399
64.055 12.987742
64.060 12.802741
64.065 12.620086
64.070 12.479245
64.075 12.102436
64.080 11.954377
64.085 11.860959
64.090 11.273245
64.095 11.270678
64.100 11.585989
64.105 12.012277
64.110 12.48985
64.115 12.827125
64.120 12.799099
64.125 12.828601
64.130 13.230469
64.135 12.751369
64.140 12.402481
64.145 11.936049
64.150 11.528471
64.155 11.531352
64.160 11.962807
64.165 11.540773
64.170 11.597615
64.175 11.722576
64.180 11.982785
64.185 12.339702
64.190 12.145524
64.195 12.037904
64.200 11.866764
64.205 11.940998
64.210 11.935616
64.215 12.428508
64.220 12.507628
64.225 12.454942
64.230 12.160377
64.235 12.184599
64.240 12.192367
64.245 12.025683
64.250 11.658691
64.255 11.538934
64.260 11.548477
64.265 11.679975
64.270 12.21365
64.275 11.901862
64.280 11.726634
64.285 11.674511
64.290 11.87832
64.295 11.816114
64.300 11.869612
64.305 11.525603
64.310 11.670627
64.315 11.883704
64.320 12.468344
64.325 12.641158
64.330 12.668404
64.335 12.599929
64.340 12.667199
64.345 12.628383
64.350 12.376558
64.355 11.698998
64.360 11.535128
64.365 11.584108
64.370 11.148786
64.375 10.717133
64.380 10.783192
64.385 11.052838
64.390 11.234021
64.395 11.830757
64.400 12.170257
64.405 12.751384
64.410 13.130888
64.415 13.432014
64.420 13.404835
64.425 13.078383
64.430 12.482056
64.435 12.343674
64.440 11.914367
64.445 11.67174
64.450 11.62178
64.455 11.69301
64.460 11.885348
64.465 11.690797
64.470 11.56071
64.475 12.253772
64.480 12.342415
64.485 11.873026
64.490 11.554988
64.495 11.275685
64.500 11.985345
64.505 12.126904
64.510 11.792597
64.515 11.929943
64.520 12.187366
64.525 12.635571
64.530 12.704586
64.535 11.669415
64.540 11.595709
64.545 11.949096
64.550 11.506376
64.555 11.296574
64.560 10.779506
64.565 10.783381
64.570 10.89258
64.575 10.711115
64.580 10.280581
64.585 10.43684
64.590 10.299339
64.595 10.570088
64.600 10.98635
64.605 11.076768
64.610 11.160083
64.615 11.087465
64.620 10.978624
64.625 11.290987
64.630 11.271441
64.635 11.135412
64.640 11.317267
64.645 11.160448
64.650 11.141626
64.655 11.358587
64.660 11.133597
64.665 11.507957
64.670 11.973601
64.675 11.688008
64.680 11.790485
64.685 12.226428
64.690 12.234102
64.695 12.450848
64.700 11.990751
64.705 10.884738
64.710 10.675191
64.715 10.875969
64.720 10.63398
64.725 10.753607
64.730 10.111948
64.735 9.684052
64.740 9.858225
64.745 10.045259
64.750 9.69796
64.755 9.749018
64.760 9.81398
64.765 10.306379
64.770 11.046587
64.775 11.76893
64.780 12.22497
64.785 12.436463
64.790 12.170963
64.795 11.858509
64.800 12.134415
64.805 12.427435
64.810 11.670178
64.815 11.574169
64.820 11.85157
64.825 12.238887
64.830 12.449308
64.835 12.17459
64.840 11.622063
64.845 12.143638
64.850 12.45536
64.855 12.41974
64.860 12.542141
64.865 12.580426
64.870 12.496181
64.875 12.914981
64.880 12.987507
64.885 12.961262
64.890 13.41157
64.895 13.542407
64.900 13.736015
64.905 13.735576
64.910 13.614944
64.915 13.516946
64.920 13.231262
64.925 12.999452
64.930 13.129983
64.935 13.592766
64.940 14.51811
64.945 14.598748
64.950 14.405752
64.955 14.818
64.960 15.041772
64.965 15.39894
64.970 15.050873
64.975 14.239739
64.980 14.636867
64.985 15.094012
64.990 14.755494
64.995 14.957977
65.000 14.527651
65.005 14.702043
65.010 14.767845
65.015 14.963191
65.020 15.044135
65.025 15.3757
65.030 14.783155
65.035 14.784936
65.040 14.969335
65.045 15.150432
65.050 14.987955
65.055 14.628284
65.060 14.45772
65.065 14.532743
65.070 14.714409
65.075 14.413131
65.080 13.867885
65.085 13.535648
65.090 13.594609
65.095 13.800511
65.100 14.088905
65.105 14.078398
65.110 14.234313
65.115 14.419905
65.120 14.733518
65.125 14.841214
65.130 15.070573
65.135 14.847457
65.140 14.766006
65.145 14.720953
65.150 14.932846
65.155 14.956004
65.160 15.211631
65.165 14.817888
65.170 14.88167
65.175 15.236496
65.180 15.146835
65.185 15.450282
65.190 14.797606
65.195 14.752109
65.200 14.574971
65.205 14.010502
65.210 13.878685
65.215 13.825194
65.220 13.696758
65.225 13.945635
65.230 13.316529
65.235 13.480354
65.240 13.613193
65.245 13.560686
65.250 13.697902
65.255 13.302485
65.260 13.15673
65.265 13.504303
65.270 13.424593
65.275 13.154084
65.280 12.778464
65.285 12.341552
65.290 12.383859
65.295 12.386744
65.300 11.933375
65.305 12.004769
65.310 12.268356
65.315 12.950318
65.320 12.904376
65.325 12.414351
65.330 12.265752
65.335 12.433194
65.340 12.279539
65.345 11.972445
65.350 11.31332
65.355 11.374763
65.360 11.173812
65.365 10.893566
65.370 10.609687
65.375 10.506512
65.380 10.054373
65.385 9.959489
65.390 10.167929
65.395 10.398634
65.400 10.49846
65.405 10.479274
65.410 10.959399
65.415 10.882514
65.420 11.095213
65.425 11.15266
65.430 11.437996
65.435 11.617027
65.440 11.673532
65.445 11.340006
65.450 11.662931
65.455 11.568365
65.460 11.787873
65.465 11.544367
65.470 11.64874
65.475 11.258692
65.480 11.081916
65.485 11.046484
65.490 11.032114
65.495 10.694276
65.500 10.849252
65.505 10.515573
65.510 11.089199
65.515 11.134384
65.520 10.572639
65.525 10.440412
65.530 10.310551
65.535 10.1674
65.540 10.305573
65.545 10.60761
65.550 10.390462
65.555 10.508309
65.560 10.430312
65.565 10.283861
65.570 10.5388
65.575 11.037602
65.580 10.63373
65.585 10.947153
65.590 11.03642
65.595 11.282691
65.600 11.338992
65.605 11.274004
65.610 10.73014
65.615 10.678082
65.620 10.97201
65.625 11.216774
65.630 10.962125
65.635 10.94278
65.640 11.10212
65.645 11.198301
65.650 10.904055
65.655 10.355331
65.660 10.317677
65.665 10.387146
65.670 10.406274
65.675 10.203967
65.680 10.460733
65.685 10.980393
65.690 11.278165
65.695 11.544851
65.700 11.882358
65.705 11.895494
65.710 12.001099
65.715 11.820621
65.720 11.571589
65.725 11.669451
65.730 11.489613
65.735 11.64667
65.740 12.179205
65.745 12.115977
65.750 12.034395
65.755 12.351645
65.760 12.272738
65.765 11.880503
65.770 11.564411
65.775 11.205195
65.780 11.215859
65.785 10.922474
65.790 10.355309
65.795 10.458784
65.800 10.801057
65.805 10.824087
65.810 10.575486
65.815 10.039133
65.820 10.057187
65.825 10.190206
65.830 10.65194
65.835 10.84406
65.840 10.449409
65.845 10.390478
65.850 10.962398
65.855 11.793428
65.860 12.238288
65.865 12.046853
65.870 12.019458
65.875 12.757461
65.880 13.497373
65.885 13.50717
65.890 13.448607
65.895 12.852657
65.900 12.876824
65.905 13.024819
65.910 12.804899
65.915 12.318108
65.920 12.419803
65.925 12.374878
65.930 12.660368
65.935 12.722331
65.940 12.493937
65.945 12.396316
65.950 12.637685
65.955 12.918112
65.960 13.072832
65.965 12.957184
65.970 12.761929
65.975 13.123693
65.980 13.543948
65.985 13.300543
65.990 13.013034
65.995 13.344049
66.000 13.863556
66.005 14.123713
66.010 13.864231
66.015 13.732813
66.020 13.738218
66.025 13.68175
66.030 13.26774
66.035 13.357815
66.040 13.055694
66.045 12.979285
66.050 12.849933
66.055 12.366839
66.060 12.060486
66.065 12.299928
66.070 12.020552
66.075 12.501705
66.080 12.685176
66.085 12.818639
66.090 13.550645
66.095 13.808661
66.100 13.651416
66.105 13.552794
66.110 13.21771
66.115 12.751435
66.120 12.584673
66.125 11.940312
66.130 11.686431
66.135 11.432412
66.140 11.144819
66.145 11.049759
66.150 11.274392
66.155 11.678818
66.160 12.019319
66.165 11.795807
66.170 11.885905
66.175 12.10992
66.180 12.028282
66.185 11.858063
66.190 11.426832
66.195 11.601825
66.200 11.531072
66.205 11.215977
66.210 11.044667
66.215 11.049229
66.220 11.177482
66.225 11.511043
66.230 11.611686
66.235 12.053843
66.240 12.241268
66.245 12.230572
66.250 11.968973
66.255 11.490462
66.260 10.878234
66.265 10.859619
66.270 10.928161
66.275 11.074565
66.280 11.202757
66.285 11.250648
66.290 11.343811
66.295 11.54874
66.300 11.537108
66.305 11.581901
66.310 11.220629
66.315 11.212167
66.320 10.950468
66.325 11.136565
66.330 11.49936
66.335 10.892802
66.340 10.500587
66.345 10.253492
66.350 9.950852
66.355 10.300244
66.360 10.063931
66.365 9.676575
66.370 10.017167
66.375 9.967391
66.380 10.213121
66.385 10.36806
66.390 10.00157
66.395 9.688755
66.400 9.765494
66.405 9.448359
66.410 9.301314
66.415 9.212501
66.420 9.34711
66.425 9.560357
66.430 9.708165
66.435 9.667624
66.440 9.423555
66.445 9.343127
66.450 9.438198
66.455 9.590136
66.460 10.102675
66.465 10.103605
66.470 10.086379
66.475 10.338399
66.480 10.673424
66.485 10.519479
66.490 10.158276
66.495 10.234968
66.500 10.200975
66.505 10.1626
66.510 10.235327
66.515 9.918651
66.520 9.89347
66.525 10.173008
66.530 9.900933
66.535 10.314132
66.540 10.314117
66.545 10.094406
66.550 10.253102
66.555 10.028998
66.560 9.8058
66.565 9.680637
66.570 9.582148
66.575 10.015961
66.580 9.879663
66.585 9.858802
66.590 10.168709
66.595 10.105931
66.600 9.916801
66.605 9.791094
66.610 9.88402
66.615 10.132939
66.620 10.117414
66.625 10.36396
66.630 10.374843
66.635 10.518174
66.640 10.426608
66.645 10.20088
66.650 10.081623
66.655 10.366862
66.660 10.236933
66.665 10.307842
66.670 10.486146
66.675 10.295712
66.680 10.071296
66.685 10.119443
66.690 10.183739
66.695 10.237103
66.700 10.228939
66.705 9.968917
66.710 10.034567
66.715 10.07872
66.720 10.152361
66.725 9.724439
66.730 9.53263
66.735 9.153411
66.740 9.281223
66.745 9.549114
66.750 9.494083
66.755 9.382732
66.760 9.840129
66.765 9.886741
66.770 9.994101
66.775 9.719356
66.780 10.120167
66.785 10.091557
66.790 10.017677
66.795 10.290817
66.800 10.259361
66.805 10.312062
66.810 10.134106
66.815 9.339153
66.820 9.298492
66.825 9.11124
66.830 8.577667
66.835 8.732141
66.840 8.634151
66.845 9.019309
66.850 9.282595
66.855 9.102586
66.860 8.715573
66.865 8.654757
66.870 8.325786
66.875 8.476156
66.880 8.274406
66.885 8.692098
66.890 9.045125
66.895 9.258368
66.900 9.264634
66.905 9.608953
66.910 9.674191
66.915 9.824154
66.920 9.510742
66.925 9.363097
66.930 9.615145
66.935 9.789426
66.940 10.102264
66.945 10.005395
66.950 9.777137
66.955 10.122383
66.960 10.304553
66.965 9.91174
66.970 9.439546
66.975 9.033715
66.980 9.331497
66.985 9.460713
66.990 9.270777
66.995 9.267222
67.000 9.478958
67.005 9.781985
67.010 9.41434
67.015 9.175846
67.020 9.132218
67.025 9.282667
67.030 9.495793
67.035 9.639327
67.040 9.305494
67.045 9.698967
67.050 10.185946
67.055 9.866519
67.060 9.506382
67.065 9.070276
67.070 8.745244
67.075 9.230159
67.080 9.176048
67.085 8.753459
67.090 9.140161
67.095 9.096395
67.100 9.023376
67.105 9.463861
67.110 9.415564
67.115 9.375431
67.120 9.48119
67.125 9.267185
67.130 9.698848
67.135 9.946798
67.140 9.706732
67.145 9.766263
67.150 9.42522
67.155 9.514271
67.160 9.489923
67.165 8.979442
67.170 9.221543
67.175 9.217134
67.180 9.379908
67.185 9.66035
67.190 9.667364
67.195 9.814991
67.200 10.157829
67.205 9.820844
67.210 9.856776
67.215 9.851485
67.220 9.857627
67.225 9.810736
67.230 9.9901
67.235 10.518279
67.240 10.770123
67.245 10.759546
67.250 10.969905
67.255 10.583445
67.260 10.294452
67.265 10.364809
67.270 10.010551
67.275 10.011384
67.280 9.60929
67.285 9.356858
67.290 9.606124
67.295 9.503707
67.300 9.353334
67.305 9.219359
67.310 9.040477
67.315 9.139201
67.320 9.41011
67.325 9.266855
67.330 9.571973
67.335 9.694345
67.340 10.119802
67.345 10.322443
67.350 10.232768
67.355 10.149421
67.360 10.503043
67.365 10.256278
67.370 9.792216
67.375 9.795275
67.380 10.146493
67.385 10.523622
67.390 10.589805
67.395 10.261712
67.400 10.390208
67.405 10.230903
67.410 9.937971
67.415 9.463671
67.420 9.61922
67.425 9.630594
67.430 9.650138
67.435 9.705046
67.440 10.01431
67.445 10.215784
67.450 10.258866
67.455 9.732536
67.460 9.796251
67.465 9.743109
67.470 9.593594
67.475 9.744556
67.480 9.449457
67.485 9.093247
67.490 9.339964
67.495 9.596176
67.500 9.272554
67.505 9.123191
67.510 8.661369
67.515 8.790104
67.520 9.128395
67.525 8.774577
67.530 8.607447
67.535 9.127387
67.540 9.370882
67.545 9.6761
67.550 9.546504
67.555 9.892814
67.560 10.211632
67.565 10.413652
67.570 10.369316
67.575 10.330405
67.580 10.340242
67.585 10.749491
67.590 10.844814
67.595 10.491158
67.600 10.298862
67.605 10.297888
67.610 10.037228
67.615 10.246757
67.620 10.070305
67.625 9.833392
67.630 9.878612
67.635 9.743994
67.640 9.899141
67.645 9.96486
67.650 9.585443
67.655 9.422071
67.660 9.248493
67.665 9.315298
67.670 9.314675
67.675 9.278681
67.680 9.536345
67.685 9.749681
67.690 9.847324
67.695 9.731003
67.700 10.028957
67.705 10.591037
67.710 10.351836
67.715 10.239155
67.720 10.464147
67.725 10.577816
67.730 10.720089
67.735 10.242453
67.740 9.698574
67.745 9.98395
67.750 10.054345
67.755 9.909314
67.760 9.85673
67.765 10.103034
67.770 10.460024
67.775 10.720461
67.780 10.832398
67.785 10.333614
67.790 10.174223
67.795 10.362843
67.800 10.175826
67.805 9.886167
67.810 9.830918
67.815 10.467794
67.820 11.282325
67.825 11.253837
67.830 11.019015
67.835 11.254849
67.840 11.649372
67.845 11.538781
67.850 10.786018
67.855 10.172943
67.860 10.391087
67.865 10.575205
67.870 10.366266
67.875 9.862585
67.880 9.679429
67.885 9.95479
67.890 10.649708
67.895 10.596969
67.900 10.901898
67.905 11.197478
67.910 11.642754
67.915 11.58374
67.920 11.342926
67.925 11.200197
67.930 10.994487
67.935 10.904953
67.940 11.187514
67.945 11.715283
67.950 12.031055
67.955 11.72443
67.960 11.614664
67.965 11.762764
67.970 11.891487
67.975 11.679763
67.980 11.354887
67.985 11.560822
67.990 11.545651
67.995 11.400939
68.000 11.031917
68.005 10.52091
68.010 10.350842
68.015 10.243998
68.020 10.184303
68.025 10.25628
68.030 10.267845
68.035 10.546195
68.040 10.572054
68.045 10.621974
68.050 10.551048
68.055 10.436615
68.060 10.383407
68.065 10.572793
68.070 10.751175
68.075 10.977696
68.080 10.724756
68.085 10.565815
68.090 10.606302
68.095 10.934315
68.100 10.803587
68.105 10.45895
68.110 10.063538
68.115 10.14047
68.120 10.384362
68.125 10.313488
68.130 9.95092
68.135 9.582639
68.140 9.115495
68.145 8.94328
68.150 8.688733
68.155 8.308738
68.160 8.088142
68.165 8.634152
68.170 8.746643
68.175 9.035945
68.180 9.65127
68.185 9.703986
68.190 9.939935
68.195 9.725959
68.200 9.416336
68.205 9.566395
68.210 9.760811
68.215 9.635022
68.220 9.779597
68.225 9.703768
68.230 10.019531
68.235 10.194674
68.240 10.515034
68.245 10.705318
68.250 10.458838
68.255 10.495708
68.260 10.804695
68.265 10.499619
68.270 10.112731
68.275 9.779309
68.280 9.581869
68.285 9.779338
68.290 9.547217
68.295 9.432429
68.300 9.538551
68.305 9.880733
68.310 10.091816
68.315 10.381474
68.320 10.288565
68.325 10.72296
68.330 10.635259
68.335 11.061778
68.340 10.944589
68.345 10.826382
68.350 10.726067
68.355 10.737257
68.360 10.770998
68.365 10.484494
68.370 10.71764
68.375 10.902894
68.380 10.851216
68.385 10.391183
68.390 9.887757
68.395 9.59051
68.400 9.780165
68.405 9.823867
68.410 9.851162
68.415 10.092537
68.420 10.381824
68.425 10.752344
68.430 11.040593
68.435 10.888806
68.440 10.29042
68.445 9.841537
68.450 9.294409
68.455 9.026555
68.460 8.933672
68.465 8.885552
68.470 9.046118
68.475 9.302679
68.480 9.50635
68.485 10.150119
68.490 10.520938
68.495 10.246655
68.500 10.136417
68.505 10.153107
68.510 10.586215
68.515 10.495255
68.520 10.062559
68.525 9.844354
68.530 10.1231
68.535 10.365934
68.540 10.466422
68.545 10.551731
68.550 10.750866
68.555 10.789049
68.560 11.051822
68.565 10.902224
68.570 10.66285
68.575 9.861345
68.580 9.263583
68.585 9.250496
68.590 9.348701
68.595 9.437624
68.600 9.161163
68.605 8.921102
68.610 9.455086
68.615 10.078992
68.620 10.084406
68.625 10.392096
68.630 10.617939
68.635 11.286691
68.640 11.626264
68.645 11.300059
68.650 11.214855
68.655 11.399197
68.660 11.071788
68.665 10.89933
68.670 10.791838
68.675 11.233781
68.680 11.170271
68.685 11.215219
68.690 10.774663
68.695 10.524393
68.700 10.076631
68.705 9.862182
68.710 10.022001
68.715 10.394427
68.720 10.788625
68.725 10.663132
68.730 11.100942
68.735 11.620853
68.740 11.397772
68.745 11.151142
68.750 10.783119
68.755 10.507278
68.760 11.105231
68.765 11.398372
68.770 11.045463
68.775 10.872002
68.780 10.451221
68.785 10.571031
68.790 10.110769
68.795 10.04812
68.800 9.981339
68.805 10.51722
68.810 11.113099
68.815 11.249663
68.820 11.185719
68.825 11.564647
68.830 11.884365
68.835 11.649232
68.840 11.454804
68.845 10.878553
68.850 11.108949
68.855 11.374014
68.860 11.349631
68.865 11.080088
68.870 11.498203
68.875 11.296883
68.880 11.212761
68.885 11.183558
68.890 11.151051
68.895 11.390132
68.900 11.347598
68.905 11.097937
68.910 11.572124
68.915 11.778077
68.920 11.733789
68.925 11.858849
68.930 11.965068
68.935 12.173141
68.940 12.238825
68.945 12.384847
68.950 12.588316
68.955 12.376742
68.960 11.977608
68.965 11.53277
68.970 11.331386
68.975 12.153821
68.980 12.279946
68.985 12.717709
68.990 13.177052
68.995 13.410008
69.000 13.580346
69.005 14.272086
69.010 14.019775
69.015 13.958534
69.020 13.734328
69.025 13.386735
69.030 13.468646
69.035 13.413534
69.040 12.885441
69.045 13.047006
69.050 13.166119
69.055 13.884898
69.060 14.387818
69.065 14.283357
69.070 14.339647
69.075 14.301519
69.080 14.562416
69.085 14.330669
69.090 13.805487
69.095 13.455328
69.100 13.647422
69.105 14.274983
69.110 13.951914
69.115 13.379554
69.120 13.398381
69.125 13.49582
69.130 13.898467
69.135 13.78051
69.140 13.82391
69.145 13.850381
69.150 13.806378
69.155 13.577052
69.160 13.433025
69.165 13.250511
69.170 13.484987
69.175 13.708726
69.180 13.508116
69.185 13.203532
69.190 13.245106
69.195 13.565358
69.200 13.51847
69.205 13.294146
69.210 12.985384
69.215 13.15105
69.220 13.554534
69.225 13.672812
69.230 13.693811
69.235 13.830227
69.240 13.800568
69.245 13.861578
69.250 13.846938
69.255 13.270751
69.260 12.880582
69.265 12.663
69.270 12.350148
69.275 12.161304
69.280 11.894181
69.285 12.193998
69.290 12.69139
69.295 12.253523
69.300 12.182147
69.305 12.181767
69.310 11.886448
69.315 12.209797
69.320 11.97328
69.325 11.854981
69.330 12.541065
69.335 12.778939
69.340 12.424995
69.345 12.607419
69.350 12.378053
69.355 12.281563
69.360 12.220052
69.365 11.809287
69.370 11.643808
69.375 12.331484
69.380 12.133946
69.385 11.987649
69.390 12.113401
69.395 12.322186
69.400 12.337977
69.405 11.922835
69.410 11.709717
69.415 11.615512
69.420 11.293681
69.425 11.066677
69.430 11.092738
69.435 11.323074
69.440 11.775181
69.445 11.788568
69.450 11.720255
69.455 12.275166
69.460 12.420226
69.465 11.992832
69.470 11.950723
69.475 11.795065
69.480 11.954198
69.485 12.327904
69.490 11.870542
69.495 11.495911
69.500 11.571581
69.505 11.777848
69.510 11.538876
69.515 11.122622
69.520 10.486676
69.525 10.509464
69.530 10.763577
69.535 10.576395
69.540 10.167151
69.545 9.90478
69.550 10.027583
69.555 9.83644
69.560 9.781866
69.565 9.671398
69.570 10.095459
69.575 10.219026
69.580 10.501463
69.585 10.539134
69.590 10.828137
69.595 10.63057
69.600 10.503422
69.605 9.741836
69.610 9.718045
69.615 9.828885
69.620 10.165619
69.625 10.272776
69.630 10.300016
69.635 10.488102
69.640 10.627492
69.645 10.046538
69.650 9.639695
69.655 8.939372
69.660 8.765197
69.665 8.945725
69.670 8.803372
69.675 9.081998
69.680 9.434158
69.685 10.014256
69.690 10.360929
69.695 10.496549
69.700 10.677236
69.705 10.501153
69.710 9.975218
69.715 10.077081
69.720 10.177498
69.725 10.17767
69.730 9.454414
69.735 9.108074
69.740 9.590359
69.745 9.861132
69.750 9.664701
69.755 9.373981
69.760 9.522247
69.765 10.059362
69.770 10.373752
69.775 10.004889
69.780 10.547609
69.785 10.529904
69.790 10.132341
69.795 10.215079
69.800 9.948271
69.805 9.529639
69.810 9.698209
69.815 9.330308
69.820 9.422731
69.825 9.559893
69.830 9.555939
69.835 9.761409
69.840 9.582845
69.845 9.444315
69.850 9.328036
69.855 9.350854
69.860 9.774347
69.865 9.688562
69.870 9.58529
69.875 9.910031
69.880 10.062648
69.885 10.374009
69.890 10.198122
69.895 10.283782
69.900 10.40558
69.905 10.504657
69.910 10.501413
69.915 10.149297
69.920 9.596435
69.925 9.478997
69.930 9.084311
69.935 9.558311
69.940 9.538593
69.945 9.530578
69.950 10.063781
69.955 10.65
69.960 11.317478
69.965 11.487286
69.970 11.404711
69.975 11.563354
69.980 11.678329
69.985 11.444825
69.990 11.222469
69.995 10.87846
70.000 10.746233
70.005 10.912266
70.010 10.65167
70.015 10.832838
70.020 10.876308
70.025 10.686142
70.030 10.65583
70.035 10.460671
70.040 10.340645
70.045 10.706014
70.050 10.432567
70.055 10.769909
70.060 10.949871
70.065 11.043151
70.070 11.614575
70.075 11.777401
70.080 11.599549
70.085 11.356185
70.090 11.033522
70.095 11.192446
70.100 11.110554
70.105 10.803886
70.110 10.878824
70.115 10.828794
70.120 10.725569
70.125 10.671101
70.130 10.453938
70.135 10.544881
70.140 10.526519
70.145 10.134692
70.150 10.14243
70.155 10.395823
70.160 10.587251
70.165 10.566527
70.170 10.253991
70.175 10.172295
70.180 10.381309
70.185 10.399063
70.190 10.105942
70.195 10.25097
70.200 10.553462
70.205 10.588573
70.210 10.210238
70.215 10.016043
70.220 10.2616
70.225 10.08672
70.230 9.702321
70.235 9.66186
70.240 9.624513
70.245 10.326992
70.250 10.437243
70.255 10.46032
70.260 10.535819
70.265 10.271412
70.270 9.864462
70.275 9.813519
70.280 9.465372
70.285 9.375701
70.290 9.074812
70.295 9.147768
70.300 9.418003
70.305 9.457055
70.310 9.479132
70.315 9.698878
70.320 9.694116
70.325 9.618282
70.330 9.435109
70.335 9.524156
70.340 10.210612
70.345 10.34508
70.350 10.062277
70.355 10.114575
70.360 10.254608
70.365 9.983016
70.370 9.681123
70.375 9.012777
70.380 8.855302
70.385 8.842957
70.390 8.815492
70.395 9.450603
70.400 10.069683
70.405 10.256081
70.410 10.452463
70.415 10.187811
70.420 10.321238
70.425 10.172449
70.430 9.486188
70.435 9.173843
70.440 9.116425
70.445 9.515832
70.450 9.861131
70.455 9.991199
70.460 10.293968
70.465 10.726457
70.470 10.898024
70.475 10.876284
70.480 10.473815
70.485 10.454444
70.490 10.362251
70.495 10.0853
70.500 10.04975
70.505 9.868052
70.510 10.216763
70.515 10.80789
70.520 10.879351
70.525 11.192488
70.530 11.498703
70.535 11.690699
70.540 12.061908
70.545 12.085024
70.550 11.639062
70.555 11.768105
70.560 11.951883
70.565 11.434832
70.570 10.815797
70.575 10.238628
70.580 10.200757
70.585 10.218671
70.590 10.16002
70.595 10.19314
70.600 10.253859
70.605 10.116384
70.610 10.507614
70.615 10.017967
70.620 10.471792
70.625 10.374529
70.630 10.024376
70.635 10.237615
70.640 10.405056
70.645 10.64819
70.650 10.622883
70.655 10.060905
70.660 10.0867
70.665 10.242092
70.670 10.371765
70.675 10.620009
70.680 10.25416
70.685 10.727406
70.690 11.112908
70.695 10.970939
70.700 10.686795
70.705 10.413065
70.710 10.341584
70.715 10.759485
70.720 10.193665
70.725 9.946601
70.730 10.02371
70.735 10.058231
70.740 10.12673
70.745 9.662315
70.750 9.150221
70.755 9.662634
70.760 9.893239
70.765 9.787565
70.770 9.704248
70.775 10.17097
70.780 10.36146
70.785 10.086325
70.790 9.74627
70.795 9.355055
70.800 10.059305
70.805 10.507073
70.810 10.498923
70.815 10.676701
70.820 10.781766
70.825 10.812935
70.830 11.139712
70.835 10.758316
70.840 10.333758
70.845 10.05751
70.850 9.769149
70.855 9.690354
70.860 9.664246
70.865 9.372157
70.870 9.307096
70.875 9.232579
70.880 9.645897
70.885 10.20719
70.890 10.232743
70.895 10.414903
70.900 10.265068
70.905 10.150023
70.910 9.454054
70.915 9.016677
70.920 8.840858
70.925 8.822193
70.930 8.592315
70.935 8.667855
70.940 8.982678
70.945 9.263288
70.950 9.252996
70.955 9.045425
70.960 9.207517
70.965 9.28807
70.970 9.532433
70.975 9.246015
70.980 9.342753
70.985 9.714586
70.990 9.88766
70.995 10.100253
71.000 9.935863
71.005 10.026704
71.010 10.370021
71.015 10.698652
71.020 10.504076
71.025 10.164719
71.030 10.254589
71.035 10.100166
71.040 10.051151
71.045 9.853283
71.050 9.680089
71.055 9.349353
71.060 9.109117
71.065 8.591323
71.070 8.468182
71.075 8.291415
71.080 8.115515
71.085 7.998027
71.090 8.51631
71.095 9.323072
71.100 10.032139
71.105 9.986092
71.110 10.076078
71.115 10.214815
71.120 10.630805
71.125 10.51178
71.130 10.111361
71.135 9.922813
71.140 9.958149
71.145 10.386795
71.150 10.453899
71.155 9.906598
71.160 9.635496
71.165 9.902982
71.170 10.471904
71.175 10.506778
71.180 10.427826
71.185 10.585243
71.190 10.574063
71.195 10.337548
71.200 9.638729
71.205 9.335613
71.210 9.123141
71.215 9.1544
71.220 9.045491
71.225 9.140594
71.230 9.414742
71.235 9.663242
71.240 9.879495
71.245 9.92203
71.250 9.560034
71.255 9.585337
71.260 9.707041
71.265 9.99185
71.270 9.908104
71.275 10.0313
71.280 10.009268
71.285 10.284814
71.290 10.408157
71.295 10.468334
71.300 10.399264
71.305 10.081628
71.310 9.816423
71.315 10.200521
71.320 10.512452
71.325 10.620884
71.330 10.429149
71.335 10.014721
71.340 9.987512
71.345 9.543036
71.350 8.951424
71.355 8.213443
71.360 8.018438
71.365 8.27673
71.370 8.584563
71.375 9.197178
71.380 9.883945
71.385 10.309579
71.390 10.499831
71.395 10.443761
71.400 10.03784
71.405 10.173876
71.410 9.618056
71.415 9.212889
71.420 9.568208
71.425 9.610188
71.430 9.563716
71.435 9.48602
71.440 9.270634
71.445 9.553128
71.450 9.767888
71.455 9.153358
71.460 8.86084
71.465 9.292559
71.470 9.785883
71.475 9.766673
71.480 9.373995
71.485 9.661718
71.490 10.069808
71.495 9.888655
71.500 9.883716
71.505 9.880259
71.510 9.827652
71.515 10.050929
71.520 9.615354
71.525 9.720562
71.530 10.031646
71.535 10.140738
71.540 10.566522
71.545 10.659917
71.550 10.584115
71.555 11.122895
71.560 11.145667
71.565 10.875439
71.570 10.519096
71.575 10.418611
71.580 10.283312
71.585 9.898849
71.590 9.333154
71.595 9.111424
71.600 8.813855
71.605 8.414085
71.610 8.309079
71.615 8.520119
71.620 8.765572
71.625 9.023849
71.630 9.339325
71.635 9.961899
71.640 10.121938
71.645 9.85289
71.650 9.709816
71.655 9.657633
71.660 9.695082
71.665 9.923856
71.670 9.671453
71.675 9.740154
71.680 9.939713
71.685 9.770789
71.690 9.84257
71.695 9.785792
71.700 9.4905
71.705 9.64289
71.710 10.061639
71.715 10.589223
71.720 10.815422
71.725 10.71069
71.730 10.667838
71.735 10.92635
71.740 10.930925
71.745 10.640917
71.750 10.42202
71.755 10.203339
71.760 10.025147
71.765 9.849329
71.770 9.460134
71.775 9.502738
71.780 9.300846
71.785 9.603551
71.790 9.743862
71.795 9.988162
71.800 10.6092
71.805 10.956842
71.810 11.15113
71.815 11.298128
71.820 11.500255
71.825 11.416539
71.830 10.829382
71.835 10.449122
71.840 10.395185
71.845 10.057696
71.850 9.716424
71.855 9.357864
71.860 9.157529
71.865 9.352312
71.870 9.373588
71.875 9.816212
71.880 10.3073
71.885 10.461524
71.890 10.813469
71.895 10.824494
71.900 10.880908
71.905 10.547918
71.910 10.168005
71.915 10.046861
71.920 9.874389
71.925 9.852813
71.930 10.243551
71.935 10.000486
71.940 9.816423
71.945 9.672112
71.950 9.384769
71.955 9.59195
71.960 9.643015
71.965 9.554218
71.970 9.693461
71.975 9.757306
71.980 10.192464
71.985 10.75773
71.990 10.395482
71.995 10.351942
72.000 10.858642
72.005 11.271801
72.010 11.100657
72.015 10.340089
72.020 10.204496
72.025 10.343178
72.030 10.165932
72.035 9.734235
72.040 9.414933
72.045 9.292688
72.050 9.509809
72.055 9.646985
72.060 9.815947
72.065 10.089276
72.070 9.876522
72.075 9.664621
72.080 9.465366
72.085 9.555768
72.090 9.164389
72.095 9.064485
72.100 8.897376
72.105 9.214254
72.110 9.309185
72.115 9.218308
72.120 8.97913
72.125 9.267369
72.130 9.741245
72.135 9.68492
72.140 9.816722
72.145 9.945773
72.150 10.093044
72.155 10.141867
72.160 9.988509
72.165 9.951541
72.170 9.896618
72.175 9.872821
72.180 9.456693
72.185 9.26694
72.190 8.93995
72.195 8.372575
72.200 8.201505
72.205 8.2484
72.210 8.227596
72.215 8.991379
72.220 9.734074
72.225 10.063635
72.230 10.896905
72.235 11.107316
72.240 11.36307
72.245 12.087697
72.250 12.278722
72.255 11.81671
72.260 11.48448
72.265 10.893713
72.270 10.995428
72.275 10.734683
72.280 9.832721
72.285 9.828588
72.290 10.300516
72.295 10.269868
72.300 10.04916
72.305 9.83707
72.310 10.002567
72.315 10.026113
72.320 9.968922
72.325 10.116929
72.330 10.461069
72.335 10.387262
72.340 10.221927
72.345 10.358329
72.350 10.030396
72.355 10.008638
72.360 9.831364
72.365 9.474669
72.370 9.443727
72.375 9.657878
72.380 9.988082
72.385 10.551162
72.390 10.304184
72.395 10.322494
72.400 10.514785
72.405 10.739636
72.410 10.840822
72.415 10.541139
72.420 10.450559
72.425 10.400231
72.430 10.74708
72.435 11.121771
72.440 10.744271
72.445 10.490491
72.450 10.30461
72.455 10.023774
72.460 9.814505
72.465 9.256474
72.470 8.788363
72.475 8.839191
72.480 8.65378
72.485 8.431637
72.490 8.807879
72.495 8.702449
72.500 8.762181
72.505 8.931658
72.510 8.806453
72.515 8.591218
72.520 8.525948
72.525 8.208251
72.530 8.182362
72.535 8.299977
72.540 8.524079
72.545 8.760937
72.550 8.85832
72.555 8.865899
72.560 8.967364
72.565 8.816605
72.570 8.824893
72.575 8.708554
72.580 8.938108
72.585 9.164984
72.590 9.533923
72.595 9.944919
72.600 9.902366
72.605 9.940834
72.610 10.123791
72.615 9.97678
72.620 10.045508
72.625 9.600697
72.630 9.144914
72.635 8.981383
72.640 8.412801
72.645 8.089561
72.650 7.965167
72.655 7.878044
72.660 8.058198
72.665 8.395148
72.670 8.652117
72.675 8.967788
72.680 9.053988
72.685 9.199171
72.690 9.226452
72.695 9.459918
72.700 9.602288
72.705 9.22885
72.710 9.084801
72.715 8.941935
72.720 8.891109
72.725 9.036452
72.730 8.833127
72.735 8.929132
72.740 9.463632
72.745 9.481518
72.750 9.586427
72.755 9.757959
72.760 9.891557
72.765 10.355211
72.770 10.436482
72.775 10.37098
72.780 10.517722
72.785 10.586631
72.790 10.531553
72.795 10.040235
72.800 9.922042
72.805 9.932814
72.810 10.123209
72.815 10.339519
72.820 10.588017
72.825 11.265169
72.830 11.298858
72.835 11.116732
72.840 10.982794
72.845 10.579264
72.850 9.996797
72.855 9.13282
72.860 8.548143
72.865 8.545853
72.870 8.875748
72.875 8.830139
72.880 8.960311
72.885 8.910823
72.890 9.074152
72.895 9.01432
72.900 8.610024
72.905 8.034194
72.910 8.156199
72.915 8.633852
72.920 8.790826
72.925 8.839544
72.930 9.278519
72.935 9.793527
72.940 10.022534
72.945 10.424864
72.950 10.609878
72.955 10.883108
72.960 10.860603
72.965 10.535831
72.970 10.036021
72.975 10.061966
72.980 9.420487
72.985 8.832077
72.990 8.784192
72.995 8.920757
73.000 9.147065
