!@!!GADDS PLOTSO FILE: Chi integration type
!@!!Title/SampleName: map-8a
!@!!Comment: ?
!@!!User: Bruker Instrument Administrator
!@!!Site: University of Illinois Chicago
!@!!Frame: map-8a_01_000.gfrm
!@!!Wavelengths    1.54184   1.54056   1.54439
!@!!Frame angles: 2Theta: 63.000 Omega: 50.000 Phi: 0.000 Chi: 90.000
!@!!Integration range: 2Theta: 53.000 to 73.000  Gamma: -105.000 to -75.000
!@!!Integration method: bin normalized
!@!N
!@!SS
!@!M
!@!L 0.0 0.0 0.0 0.0
!@!XDegrees
!@!YCounts
53.000 9.159007
53.005 9.197711
53.010 9.04489
53.015 8.774254
53.020 8.759784
53.025 8.981893
53.030 8.878812
53.035 8.893683
53.040 9.217852
53.045 9.865244
53.050 10.512337
53.055 10.266128
53.060 10.593367
53.065 10.999087
53.070 10.886843
53.075 10.436614
53.080 10.043353
53.085 10.329776
53.090 10.622526
53.095 10.61147
53.100 10.729968
53.105 10.88984
53.110 11.034497
53.115 10.806889
53.120 10.243422
53.125 9.85016
53.130 9.414476
53.135 9.345635
53.140 9.038392
53.145 8.770537
53.150 9.311232
53.155 9.605857
53.160 9.535874
53.165 9.636544
53.170 9.815848
53.175 10.144878
53.180 10.245728
53.185 10.368629
53.190 10.640532
53.195 11.417797
53.200 11.810318
53.205 11.789623
53.210 11.754748
53.215 11.193918
53.220 10.920105
53.225 10.888988
53.230 10.527392
53.235 10.236808
53.240 10.243594
53.245 10.400031
53.250 10.389822
53.255 10.573714
53.260 10.594932
53.265 10.128887
53.270 10.163415
53.275 10.002061
53.280 10.268466
53.285 10.734063
53.290 10.663669
53.295 11.041296
53.300 11.287089
53.305 11.180744
53.310 11.085222
53.315 10.894973
53.320 11.238007
53.325 10.999543
53.330 10.755983
53.335 11.265331
53.340 11.217554
53.345 11.503595
53.350 11.750835
53.355 10.816102
53.360 10.741385
53.365 10.611306
53.370 10.010691
53.375 10.05862
53.380 9.922394
53.385 10.322298
53.390 10.718258
53.395 10.797372
53.400 11.408665
53.405 11.959811
53.410 11.985845
53.415 12.138055
53.420 11.801885
53.425 11.239859
53.430 11.205135
53.435 10.844417
53.440 10.653506
53.445 10.380244
53.450 10.239617
53.455 10.768122
53.460 10.908613
53.465 10.826167
53.470 11.076771
53.475 11.460251
53.480 11.627765
53.485 11.33263
53.490 11.472547
53.495 11.363446
53.500 11.200498
53.505 10.892941
53.510 10.140422
53.515 10.279595
53.520 10.817247
53.525 11.28291
53.530 11.731919
53.535 11.392611
53.540 11.073499
53.545 11.262924
53.550 10.831184
53.555 9.868791
53.560 9.686666
53.565 9.601869
53.570 10.469916
53.575 11.392875
53.580 11.871728
53.585 11.94785
53.590 12.036693
53.595 11.841772
53.600 11.570708
53.605 11.089906
53.610 10.636416
53.615 10.774601
53.620 11.142294
53.625 11.418252
53.630 11.752451
53.635 11.999962
53.640 11.852587
53.645 11.520866
53.650 10.872199
53.655 10.385568
53.660 10.103369
53.665 9.831064
53.670 9.560285
53.675 9.525313
53.680 9.685047
53.685 10.368144
53.690 10.497046
53.695 10.42775
53.700 10.551491
53.705 10.953462
53.710 11.300198
53.715 11.383317
53.720 11.165928
53.725 11.633598
53.730 11.940152
53.735 11.805717
53.740 11.830295
53.745 11.831388
53.750 11.883861
53.755 11.900176
53.760 11.361929
53.765 10.71265
53.770 10.684576
53.775 10.843482
53.780 10.712603
53.785 10.233991
53.790 10.12073
53.795 10.497782
53.800 10.917429
53.805 10.773533
53.810 10.232264
53.815 10.042534
53.820 10.690227
53.825 10.913982
53.830 10.804356
53.835 10.81366
53.840 11.011383
53.845 11.342221
53.850 11.600077
53.855 11.660792
53.860 11.560515
53.865 11.396538
53.870 11.009851
53.875 10.757078
53.880 10.832273
53.885 10.449035
53.890 10.236352
53.895 9.885447
53.900 9.879845
53.905 9.649579
53.910 10.100274
53.915 10.455434
53.920 10.337564
53.925 10.400106
53.930 11.070654
53.935 11.222788
53.940 11.519344
53.945 11.429371
53.950 11.986703
53.955 12.398134
53.960 12.171179
53.965 12.250832
53.970 12.378654
53.975 11.89821
53.980 11.874381
53.985 11.690826
53.990 11.638825
53.995 11.84997
54.000 12.073733
54.005 12.288609
54.010 12.745378
54.015 12.407721
54.020 11.992989
54.025 11.718952
54.030 11.698992
54.035 11.432156
54.040 11.601482
54.045 11.730648
54.050 12.148458
54.055 12.577811
54.060 12.685353
54.065 12.958087
54.070 13.463333
54.075 12.93511
54.080 12.765141
54.085 12.219123
54.090 12.162051
54.095 11.803056
54.100 11.38136
54.105 11.007342
54.110 11.147245
54.115 11.024075
54.120 11.245349
54.125 11.576996
54.130 11.504742
54.135 11.586065
54.140 11.997104
54.145 12.191843
54.150 12.369494
54.155 12.195635
54.160 12.082664
54.165 12.440802
54.170 11.744057
54.175 11.906067
54.180 11.782814
54.185 11.598202
54.190 11.4167
54.195 11.083415
54.200 11.081053
54.205 11.705019
54.210 11.242555
54.215 11.465598
54.220 11.229683
54.225 11.4037
54.230 12.036016
54.235 12.414656
54.240 12.482852
54.245 12.707942
54.250 12.838041
54.255 12.937743
54.260 12.724003
54.265 12.279109
54.270 12.373182
54.275 12.577394
54.280 12.761549
54.285 12.77724
54.290 13.010558
54.295 12.990041
54.300 13.191257
54.305 12.493623
54.310 12.24286
54.315 11.897001
54.320 11.965338
54.325 12.341637
54.330 12.089211
54.335 12.295833
54.340 12.132521
54.345 11.715028
54.350 11.791015
54.355 11.930629
54.360 11.716566
54.365 11.834185
54.370 11.780131
54.375 12.082396
54.380 12.136972
54.385 11.774585
54.390 11.604962
54.395 11.929314
54.400 12.167708
54.405 12.55089
54.410 13.172002
54.415 13.628738
54.420 13.893548
54.425 13.584683
54.430 13.171986
54.435 12.388609
54.440 11.473001
54.445 11.03537
54.450 10.494778
54.455 10.564173
54.460 10.608321
54.465 10.538806
54.470 11.322573
54.475 12.040289
54.480 12.099993
54.485 12.342601
54.490 12.297633
54.495 12.805198
54.500 12.799038
54.505 12.470277
54.510 12.056565
54.515 12.2593
54.520 12.022571
54.525 12.225466
54.530 12.340338
54.535 12.176521
54.540 11.672774
54.545 11.710669
54.550 11.652788
54.555 11.336372
54.560 10.942782
54.565 10.788751
54.570 11.211417
54.575 11.751126
54.580 11.749787
54.585 11.92507
54.590 12.390505
54.595 11.981722
54.600 11.648126
54.605 11.861629
54.610 11.631101
54.615 11.810159
54.620 11.77391
54.625 11.592638
54.630 11.976306
54.635 11.903016
54.640 11.57424
54.645 11.477806
54.650 11.37053
54.655 11.942098
54.660 12.273142
54.665 12.374674
54.670 12.474202
54.675 12.69722
54.680 12.887919
54.685 12.884619
54.690 12.453806
54.695 12.325444
54.700 12.398153
54.705 11.960813
54.710 11.355356
54.715 11.002831
54.720 10.446182
54.725 10.174622
54.730 10.135598
54.735 9.751534
54.740 10.095201
54.745 10.374797
54.750 10.299665
54.755 11.156775
54.760 11.134749
54.765 11.254922
54.770 11.540351
54.775 11.402047
54.780 11.704288
54.785 11.384759
54.790 11.211234
54.795 11.288244
54.800 11.427155
54.805 11.788359
54.810 11.992956
54.815 11.979937
54.820 11.847622
54.825 11.900313
54.830 11.554688
54.835 11.274145
54.840 11.057485
54.845 11.099841
54.850 11.578447
54.855 12.102625
54.860 11.966479
54.865 12.623164
54.870 13.067615
54.875 13.09979
54.880 12.757695
54.885 12.667193
54.890 12.129735
54.895 12.188634
54.900 11.808364
54.905 11.322858
54.910 11.618572
54.915 11.897267
54.920 11.751245
54.925 12.020988
54.930 11.565819
54.935 11.581045
54.940 11.608683
54.945 11.877043
54.950 11.958867
54.955 12.250553
54.960 12.456193
54.965 12.644189
54.970 12.350263
54.975 12.47436
54.980 12.001241
54.985 11.682139
54.990 11.73069
54.995 11.118982
55.000 10.913656
55.005 10.569497
55.010 10.550995
55.015 10.866046
55.020 10.831356
55.025 10.695772
55.030 11.879157
55.035 12.877769
55.040 13.294108
55.045 13.393674
55.050 13.315047
55.055 13.117688
55.060 13.376075
55.065 12.991146
55.070 12.856093
55.075 13.088583
55.080 13.095371
55.085 13.091105
55.090 13.385509
55.095 12.893127
55.100 12.700364
55.105 12.835697
55.110 12.89918
55.115 12.75979
55.120 12.450898
55.125 13.062504
55.130 13.328067
55.135 13.469036
55.140 13.46242
55.145 13.388493
55.150 14.226609
55.155 14.502131
55.160 14.120488
55.165 13.945621
55.170 13.755671
55.175 13.591033
55.180 13.342733
55.185 12.783246
55.190 12.824817
55.195 12.624468
55.200 12.417043
55.205 12.088873
55.210 12.192805
55.215 12.235267
55.220 12.5046
55.225 12.642844
55.230 12.847425
55.235 13.326338
55.240 13.376873
55.245 13.166828
55.250 12.362101
55.255 11.670574
55.260 11.26819
55.265 11.09163
55.270 11.109736
55.275 11.663425
55.280 11.949191
55.285 12.652802
55.290 13.337225
55.295 13.668283
55.300 13.573921
55.305 13.372563
55.310 12.615541
55.315 12.460982
55.320 12.312594
55.325 11.804419
55.330 11.580438
55.335 11.768254
55.340 11.969762
55.345 12.214625
55.350 12.54667
55.355 12.498907
55.360 13.042949
55.365 13.692534
55.370 13.340366
55.375 13.193515
55.380 13.135724
55.385 13.374187
55.390 13.894971
55.395 13.868813
55.400 13.782655
55.405 14.278743
55.410 14.683999
55.415 15.190057
55.420 14.944557
55.425 14.535814
55.430 14.150161
55.435 13.437464
55.440 13.220573
55.445 13.210507
55.450 13.032163
55.455 12.736465
55.460 12.77339
55.465 12.843364
55.470 13.433809
55.475 13.116735
55.480 12.631213
55.485 12.275108
55.490 12.281404
55.495 12.225829
55.500 12.433138
55.505 12.152663
55.510 12.67041
55.515 13.32184
55.520 13.600348
55.525 13.523696
55.530 13.088594
55.535 12.934678
55.540 12.589539
55.545 11.727738
55.550 11.775935
55.555 11.577294
55.560 11.442391
55.565 11.423057
55.570 11.356058
55.575 11.572057
55.580 11.790104
55.585 11.653651
55.590 11.803036
55.595 12.600013
55.600 12.162232
55.605 12.328155
55.610 12.566422
55.615 12.211313
55.620 12.115482
55.625 12.123203
55.630 12.243661
55.635 12.897224
55.640 12.914357
55.645 12.813794
55.650 13.368773
55.655 14.041363
55.660 14.383031
55.665 14.388894
55.670 14.824154
55.675 14.940026
55.680 14.95641
55.685 14.634399
55.690 14.099838
55.695 13.654276
55.700 13.350164
55.705 12.976403
55.710 13.054082
55.715 13.203588
55.720 13.070791
55.725 13.082514
55.730 13.252195
55.735 13.01958
55.740 12.884175
55.745 12.609349
55.750 12.662137
55.755 12.643785
55.760 12.573191
55.765 12.598557
55.770 12.094721
55.775 12.326391
55.780 12.649757
55.785 12.772946
55.790 12.656914
55.795 12.714677
55.800 12.604427
55.805 13.1765
55.810 13.137659
55.815 12.873201
55.820 13.433261
55.825 13.920065
55.830 14.062543
55.835 14.76147
55.840 15.189425
55.845 15.271234
55.850 15.143668
55.855 14.666857
55.860 14.297444
55.865 13.478189
55.870 12.720703
55.875 12.746253
55.880 12.996215
55.885 13.214077
55.890 13.36856
55.895 13.330825
55.900 14.253279
55.905 14.595469
55.910 14.095332
55.915 13.166245
55.920 12.429298
55.925 12.008848
55.930 12.14144
55.935 12.142817
55.940 12.061061
55.945 12.388281
55.950 13.27616
55.955 13.933179
55.960 13.851257
55.965 13.565801
55.970 13.386668
55.975 13.274857
55.980 13.65049
55.985 13.286041
55.990 13.247954
55.995 13.554379
56.000 13.781634
56.005 13.694482
56.010 13.880161
56.015 13.716146
56.020 13.435308
56.025 13.729392
56.030 13.903226
56.035 14.09152
56.040 14.052816
56.045 14.076353
56.050 14.299996
56.055 14.472577
56.060 13.781932
56.065 13.578366
56.070 13.443055
56.075 13.589998
56.080 13.28756
56.085 13.233535
56.090 13.472458
56.095 13.447582
56.100 13.300361
56.105 12.955225
56.110 13.00056
56.115 13.213582
56.120 12.67047
56.125 12.493503
56.130 12.801763
56.135 12.658463
56.140 12.792442
56.145 12.703118
56.150 12.907625
56.155 13.474785
56.160 13.46973
56.165 13.558976
56.170 13.651163
56.175 13.5538
56.180 13.483281
56.185 13.070168
56.190 12.724136
56.195 12.897268
56.200 13.083843
56.205 13.301174
56.210 13.197917
56.215 13.019106
56.220 12.989971
56.225 13.556243
56.230 13.622109
56.235 13.507711
56.240 13.780965
56.245 14.426629
56.250 15.04407
56.255 14.748315
56.260 14.289089
56.265 14.708285
56.270 14.959369
56.275 14.422271
56.280 13.822632
56.285 13.585348
56.290 14.045886
56.295 14.082157
56.300 13.646597
56.305 13.789868
56.310 14.274138
56.315 14.282787
56.320 14.208259
56.325 14.599584
56.330 14.514729
56.335 14.776114
56.340 14.606049
56.345 14.326109
56.350 14.146896
56.355 13.929408
56.360 13.078301
56.365 12.754145
56.370 12.348679
56.375 12.479275
56.380 12.217668
56.385 12.158939
56.390 11.910174
56.395 12.387467
56.400 12.764584
56.405 12.704494
56.410 12.667171
56.415 12.913666
56.420 13.4604
56.425 13.753808
56.430 14.261912
56.435 14.311447
56.440 14.019035
56.445 14.036079
56.450 13.880477
56.455 13.601938
56.460 13.611324
56.465 13.007779
56.470 12.887266
56.475 13.112016
56.480 12.957675
56.485 13.198603
56.490 13.523189
56.495 13.799637
56.500 14.270478
56.505 14.338569
56.510 14.153966
56.515 14.264814
56.520 14.082039
56.525 14.023849
56.530 13.957039
56.535 14.021063
56.540 14.213377
56.545 14.306831
56.550 14.225768
56.555 14.334636
56.560 14.38278
56.565 14.159365
56.570 14.159557
56.575 14.005747
56.580 13.841184
56.585 14.106556
56.590 13.91746
56.595 14.05991
56.600 13.780397
56.605 13.426246
56.610 13.471984
56.615 13.714103
56.620 13.653042
56.625 13.742399
56.630 12.927595
56.635 12.670409
56.640 12.49237
56.645 12.657892
56.650 12.688422
56.655 12.948912
56.660 13.260987
56.665 13.968152
56.670 14.420052
56.675 14.574499
56.680 14.128836
56.685 14.042592
56.690 13.905113
56.695 13.980944
56.700 13.623251
56.705 13.699564
56.710 14.089677
56.715 14.463306
56.720 14.9661
56.725 15.216785
56.730 14.933764
56.735 15.375051
56.740 15.263647
56.745 15.263988
56.750 15.130317
56.755 14.579468
56.760 14.443447
56.765 14.192557
56.770 14.25788
56.775 14.335443
56.780 14.129495
56.785 14.184616
56.790 14.571172
56.795 15.467193
56.800 16.284451
56.805 15.941385
56.810 15.859547
56.815 16.128077
56.820 16.108862
56.825 15.265936
56.830 14.58748
56.835 14.717756
56.840 14.676389
56.845 14.305532
56.850 13.653128
56.855 13.809244
56.860 14.364812
56.865 14.605471
56.870 14.658199
56.875 14.487928
56.880 15.077213
56.885 14.925657
56.890 14.444931
56.895 13.903752
56.900 13.361866
56.905 12.729086
56.910 12.618393
56.915 12.523827
56.920 13.132983
56.925 13.409967
56.930 13.541208
56.935 13.748786
56.940 14.13103
56.945 14.694566
56.950 14.869756
56.955 14.56326
56.960 14.613546
56.965 14.161922
56.970 14.140537
56.975 14.446366
56.980 13.986081
56.985 14.14534
56.990 14.115803
56.995 14.487977
57.000 14.871824
57.005 14.39149
57.010 13.934649
57.015 14.102861
57.020 13.974898
57.025 14.134125
57.030 13.92949
57.035 13.730572
57.040 14.457386
57.045 14.649257
57.050 14.65492
57.055 14.860386
57.060 14.444257
57.065 14.675046
57.070 15.116532
57.075 14.64091
57.080 14.754717
57.085 14.906212
57.090 15.104832
57.095 15.313818
57.100 15.211079
57.105 14.997808
57.110 15.183101
57.115 15.205447
57.120 14.696451
57.125 14.587076
57.130 14.192871
57.135 13.9353
57.140 13.767786
57.145 13.420922
57.150 12.724004
57.155 12.812797
57.160 13.247525
57.165 13.767204
57.170 14.205573
57.175 14.818601
57.180 15.2529
57.185 15.798705
57.190 15.731636
57.195 15.505688
57.200 15.469769
57.205 15.254899
57.210 14.695865
57.215 14.142588
57.220 13.912085
57.225 13.631319
57.230 13.49913
57.235 13.797848
57.240 13.595623
57.245 13.994226
57.250 14.449924
57.255 14.832684
57.260 15.245593
57.265 14.94033
57.270 14.556202
57.275 14.665619
57.280 14.562987
57.285 14.279021
57.290 13.606853
57.295 13.583046
57.300 13.873448
57.305 13.800363
57.310 13.732893
57.315 13.908663
57.320 14.369205
57.325 14.929585
57.330 14.72001
57.335 14.843632
57.340 15.064583
57.345 15.095393
57.350 15.629459
57.355 15.390317
57.360 15.433108
57.365 15.792229
57.370 16.513065
57.375 16.914948
57.380 17.20326
57.385 16.672434
57.390 17.180756
57.395 16.885784
57.400 16.417997
57.405 15.659432
57.410 15.372143
57.415 15.181187
57.420 15.516814
57.425 16.080751
57.430 16.573303
57.435 16.537643
57.440 16.446001
57.445 16.541677
57.450 16.396687
57.455 16.138533
57.460 15.050088
57.465 15.052463
57.470 15.227251
57.475 15.236216
57.480 14.592826
57.485 14.932437
57.490 15.300183
57.495 15.473308
57.500 15.544609
57.505 16.14328
57.510 16.465277
57.515 16.719154
57.520 16.504986
57.525 16.187895
57.530 16.239164
57.535 15.689838
57.540 15.433139
57.545 15.561943
57.550 15.821717
57.555 15.504643
57.560 14.976015
57.565 15.5179
57.570 16.15523
57.575 15.771961
57.580 15.676875
57.585 15.562346
57.590 16.342743
57.595 17.268496
57.600 17.245302
57.605 17.003704
57.610 17.486294
57.615 17.612017
57.620 17.841688
57.625 17.80464
57.630 17.297716
57.635 16.553617
57.640 16.190596
57.645 15.795497
57.650 16.019241
57.655 15.6105
57.660 15.180979
57.665 15.033969
57.670 15.784225
57.675 16.498404
57.680 16.324202
57.685 16.479826
57.690 17.187702
57.695 17.385115
57.700 16.900951
57.705 16.665218
57.710 16.461491
57.715 16.764599
57.720 16.45175
57.725 16.11562
57.730 16.515224
57.735 17.359575
57.740 17.271065
57.745 17.776495
57.750 17.466505
57.755 17.029219
57.760 17.316639
57.765 17.124022
57.770 16.743315
57.775 16.720816
57.780 15.866371
57.785 15.796746
57.790 15.782534
57.795 15.772918
57.800 15.338743
57.805 15.735407
57.810 15.381938
57.815 16.096661
57.820 16.759434
57.825 16.780308
57.830 16.845427
57.835 17.268526
57.840 16.961012
57.845 17.427378
57.850 17.20059
57.855 16.870173
57.860 16.475943
57.865 15.749502
57.870 15.689796
57.875 15.224841
57.880 14.491734
57.885 13.979779
57.890 13.993813
57.895 14.144328
57.900 14.234066
57.905 14.974514
57.910 15.45577
57.915 16.056705
57.920 16.973749
57.925 17.113497
57.930 17.040823
57.935 17.262344
57.940 16.841818
57.945 17.475821
57.950 17.918121
57.955 17.220274
57.960 17.394764
57.965 17.845924
57.970 17.886492
57.975 17.889116
57.980 17.266186
57.985 16.921541
57.990 17.702497
57.995 17.879137
58.000 18.251289
58.005 18.788891
58.010 18.853617
58.015 18.878418
58.020 18.266417
58.025 17.856266
58.030 17.151579
58.035 16.64395
58.040 16.343321
58.045 15.871557
58.050 16.033798
58.055 16.870384
58.060 17.0091
58.065 17.378187
58.070 17.265205
58.075 16.865751
58.080 16.885473
58.085 16.555025
58.090 16.29845
58.095 16.311207
58.100 16.539719
58.105 16.625463
58.110 17.194101
58.115 17.581362
58.120 17.955236
58.125 18.205265
58.130 18.201452
58.135 18.292662
58.140 18.469549
58.145 19.042856
58.150 19.40703
58.155 19.263599
58.160 19.258465
58.165 19.842308
58.170 20.044949
58.175 20.141771
58.180 19.773026
58.185 19.567389
58.190 19.542068
58.195 19.97979
58.200 19.765455
58.205 19.634779
58.210 19.030539
58.215 18.747345
58.220 18.592192
58.225 18.518351
58.230 18.210346
58.235 18.110056
58.240 17.825222
58.245 18.532969
58.250 18.497261
58.255 18.625988
58.260 18.750944
58.265 19.228378
58.270 20.258356
58.275 21.690342
58.280 22.146824
58.285 23.202662
58.290 24.062614
58.295 24.461189
58.300 24.211061
58.305 23.965082
58.310 23.155416
58.315 23.308945
58.320 23.533812
58.325 23.503105
58.330 23.422489
58.335 23.139587
58.340 22.9
58.345 23.17816
58.350 22.745691
58.355 22.172617
58.360 22.247807
58.365 22.269474
58.370 22.981621
58.375 23.417837
58.380 23.60146
58.385 24.305676
58.390 24.690725
58.395 24.674952
58.400 25.39826
58.405 25.561607
58.410 25.702707
58.415 25.456476
58.420 25.594673
58.425 25.445177
58.430 25.956942
58.435 26.375732
58.440 26.515841
58.445 26.955036
58.450 27.646347
58.455 27.927755
58.460 29.116602
58.465 29.04287
58.470 28.958099
58.475 29.46402
58.480 29.510748
58.485 29.624886
58.490 30.297153
58.495 30.722389
58.500 31.080948
58.505 30.913933
58.510 30.562508
58.515 30.054968
58.520 29.202652
58.525 28.518892
58.530 28.090883
58.535 27.885395
58.540 26.873524
58.545 26.9146
58.550 27.088551
58.555 28.050983
58.560 28.426115
58.565 28.39604
58.570 28.734329
58.575 29.433462
58.580 29.332918
58.585 29.737476
58.590 29.619329
58.595 29.486324
58.600 29.084139
58.605 28.942671
58.610 28.898296
58.615 28.973551
58.620 28.933384
58.625 28.131359
58.630 27.756516
58.635 27.510298
58.640 27.358471
58.645 27.500237
58.650 27.228245
58.655 27.162464
58.660 27.309475
58.665 27.35668
58.670 27.129572
58.675 26.618172
58.680 26.222761
58.685 25.841192
58.690 25.910189
58.695 26.585695
58.700 26.688076
58.705 26.954716
58.710 26.870001
58.715 27.247044
58.720 27.461468
58.725 27.032108
58.730 25.967426
58.735 25.095936
58.740 24.525673
58.745 25.217825
58.750 25.032988
58.755 24.014845
58.760 23.766418
58.765 23.700121
58.770 24.234043
58.775 24.27463
58.780 23.924873
58.785 24.036772
58.790 24.676657
58.795 25.270712
58.800 24.918625
58.805 24.761339
58.810 24.942276
58.815 24.945498
58.820 24.624866
58.825 24.294895
58.830 23.830959
58.835 23.845978
58.840 23.553753
58.845 23.345762
58.850 22.952618
58.855 22.637737
58.860 22.077517
58.865 21.869329
58.870 21.789043
58.875 21.619505
58.880 21.095715
58.885 20.714977
58.890 20.743742
58.895 20.741932
58.900 20.796219
58.905 20.542046
58.910 20.345526
58.915 20.052126
58.920 20.089176
58.925 20.12879
58.930 20.405405
58.935 19.953796
58.940 19.767132
58.945 20.106802
58.950 20.380741
58.955 19.942251
58.960 19.215086
58.965 18.574635
58.970 19.140041
58.975 19.889828
58.980 19.468805
58.985 19.665976
58.990 20.214878
58.995 20.754272
59.000 21.009052
59.005 20.983393
59.010 21.113783
59.015 21.858864
59.020 21.449207
59.025 20.973278
59.030 21.39683
59.035 21.150316
59.040 21.18298
59.045 20.976828
59.050 20.503719
59.055 20.677662
59.060 21.237734
59.065 21.143412
59.070 21.63203
59.075 21.449072
59.080 20.998137
59.085 20.824326
59.090 20.6747
59.095 20.353144
59.100 20.382191
59.105 20.272127
59.110 19.26161
59.115 19.099754
59.120 19.417694
59.125 19.520197
59.130 19.227858
59.135 19.128603
59.140 18.979151
59.145 19.619247
59.150 19.718962
59.155 19.882191
59.160 19.878937
59.165 20.195127
59.170 20.10277
59.175 19.71911
59.180 19.511681
59.185 19.278963
59.190 18.919703
59.195 18.485371
59.200 18.596376
59.205 19.221752
59.210 19.534536
59.215 19.497398
59.220 19.058086
59.225 19.4496
59.230 20.133871
59.235 19.821535
59.240 19.393435
59.245 19.583212
59.250 19.5124
59.255 19.42515
59.260 19.266479
59.265 19.238222
59.270 18.955725
59.275 18.268755
59.280 17.904865
59.285 17.92506
59.290 18.036345
59.295 18.221861
59.300 17.742842
59.305 17.669582
59.310 17.905973
59.315 18.165745
59.320 18.743391
59.325 18.194378
59.330 17.543093
59.335 17.726892
59.340 17.814142
59.345 17.777405
59.350 17.255219
59.355 16.994669
59.360 17.952959
59.365 18.029268
59.370 18.224577
59.375 18.512573
59.380 18.892544
59.385 19.444277
59.390 20.290359
59.395 20.415743
59.400 20.941811
59.405 20.875538
59.410 21.005098
59.415 20.955351
59.420 20.899172
59.425 19.93335
59.430 19.283602
59.435 18.79446
59.440 18.257616
59.445 17.768316
59.450 17.945932
59.455 17.894085
59.460 18.386702
59.465 19.103765
59.470 19.722933
59.475 19.943581
59.480 20.061749
59.485 19.855837
59.490 19.86377
59.495 20.409136
59.500 19.839209
59.505 19.233551
59.510 19.478771
59.515 19.480509
59.520 19.721031
59.525 19.776632
59.530 19.266096
59.535 19.073874
59.540 19.171803
59.545 19.598148
59.550 19.254374
59.555 18.797731
59.560 18.565538
59.565 18.66729
59.570 19.379513
59.575 19.759466
59.580 19.52597
59.585 19.359289
59.590 19.270208
59.595 18.9713
59.600 18.367125
59.605 17.362513
59.610 16.368217
59.615 16.598864
59.620 17.264198
59.625 17.454885
59.630 17.2458
59.635 17.679495
59.640 18.719742
59.645 19.372265
59.650 19.004797
59.655 18.301096
59.660 18.293026
59.665 18.498213
59.670 17.864285
59.675 17.478474
59.680 17.840527
59.685 18.568726
59.690 18.968252
59.695 18.830919
59.700 19.500511
59.705 20.027304
59.710 19.926491
59.715 19.337116
59.720 19.215353
59.725 19.273508
59.730 19.180012
59.735 18.229582
59.740 18.316196
59.745 18.649271
59.750 19.008505
59.755 18.443546
59.760 18.338884
59.765 18.467913
59.770 19.006414
59.775 19.033051
59.780 18.786335
59.785 18.521214
59.790 18.67342
59.795 18.379345
59.800 18.159027
59.805 18.481215
59.810 18.686754
59.815 18.86871
59.820 19.155163
59.825 19.206364
59.830 19.447166
59.835 19.581657
59.840 18.830791
59.845 18.421335
59.850 17.787876
59.855 16.828972
59.860 16.529263
59.865 16.786863
59.870 16.86088
59.875 16.863207
59.880 17.120604
59.885 17.201141
59.890 18.189777
59.895 18.433405
59.900 18.490396
59.905 18.468077
59.910 18.712332
59.915 18.728432
59.920 19.060234
59.925 19.447502
59.930 19.236067
59.935 19.166088
59.940 19.584085
59.945 19.294437
59.950 18.820843
59.955 18.454765
59.960 18.17252
59.965 18.375034
59.970 17.571949
59.975 16.555727
59.980 16.254568
59.985 16.084135
59.990 16.401011
59.995 16.512983
60.000 16.459604
60.005 16.938925
60.010 17.65904
60.015 18.701302
60.020 19.175926
60.025 19.382914
60.030 19.407585
60.035 19.813641
60.040 19.692532
60.045 19.313894
60.050 19.210186
60.055 19.379761
60.060 18.844694
60.065 18.229929
60.070 18.590321
60.075 18.740881
60.080 19.035978
60.085 18.595087
60.090 18.036261
60.095 17.884277
60.100 18.188589
60.105 17.693407
60.110 17.809551
60.115 17.602657
60.120 17.319416
60.125 17.608454
60.130 17.561977
60.135 17.598339
60.140 17.253662
60.145 16.768976
60.150 16.683565
60.155 16.9879
60.160 17.134781
60.165 17.041746
60.170 16.890396
60.175 16.944185
60.180 17.0189
60.185 17.241785
60.190 17.347515
60.195 17.677612
60.200 17.95577
60.205 17.985086
60.210 18.216013
60.215 19.206629
60.220 19.379036
60.225 19.373795
60.230 19.040148
60.235 19.131567
60.240 19.032215
60.245 18.713375
60.250 17.497351
60.255 16.668064
60.260 17.005972
60.265 16.686897
60.270 16.661201
60.275 16.542177
60.280 16.502075
60.285 16.902338
60.290 17.276512
60.295 16.500349
60.300 16.732712
60.305 16.657948
60.310 16.854418
60.315 17.288343
60.320 17.391157
60.325 17.388882
60.330 17.464262
60.335 17.419136
60.340 17.028002
60.345 17.060078
60.350 17.144798
60.355 16.817339
60.360 16.571289
60.365 16.077831
60.370 16.321394
60.375 16.741293
60.380 16.522293
60.385 16.494282
60.390 16.895678
60.395 17.460587
60.400 17.683086
60.405 17.538952
60.410 17.214426
60.415 17.349386
60.420 17.100771
60.425 16.815981
60.430 16.887335
60.435 17.446348
60.440 17.459801
60.445 17.764482
60.450 17.854025
60.455 18.017788
60.460 17.85409
60.465 17.643965
60.470 17.939465
60.475 18.423582
60.480 18.543592
60.485 18.753222
60.490 18.871067
60.495 18.79936
60.500 18.296448
60.505 18.190317
60.510 17.78891
60.515 17.350266
60.520 16.768877
60.525 16.488674
60.530 16.877029
60.535 17.66284
60.540 17.509222
60.545 17.601091
60.550 17.472965
60.555 17.206865
60.560 16.9205
60.565 16.325907
60.570 15.564634
60.575 15.005397
60.580 14.673411
60.585 15.097685
60.590 15.463279
60.595 15.984807
60.600 16.403559
60.605 17.002605
60.610 17.531036
60.615 18.102394
60.620 18.248529
60.625 18.807978
60.630 18.812069
60.635 18.888996
60.640 18.488089
60.645 18.126143
60.650 17.511171
60.655 16.807566
60.660 16.468761
60.665 16.119656
60.670 15.483846
60.675 15.803189
60.680 16.043747
60.685 16.182772
60.690 16.646187
60.695 16.694439
60.700 17.243011
60.705 17.373596
60.710 16.985369
60.715 16.925339
60.720 17.042425
60.725 16.676865
60.730 16.561922
60.735 16.920277
60.740 16.952055
60.745 17.596031
60.750 17.774904
60.755 18.475971
60.760 18.526379
60.765 18.822729
60.770 18.225931
60.775 18.428648
60.780 18.15299
60.785 17.541149
60.790 16.945349
60.795 16.629494
60.800 16.271744
60.805 16.690201
60.810 16.947739
60.815 16.553974
60.820 16.73307
60.825 17.223047
60.830 17.292263
60.835 17.090294
60.840 16.88694
60.845 16.785
60.850 17.6126
60.855 17.997734
60.860 17.91736
60.865 18.283972
60.870 18.182072
60.875 17.550163
60.880 16.584242
60.885 15.629002
60.890 14.821399
60.895 13.770971
60.900 13.448707
60.905 14.062701
60.910 14.182303
60.915 14.584324
60.920 15.168245
60.925 15.54315
60.930 16.314112
60.935 16.313299
60.940 16.221712
60.945 16.689905
60.950 17.047943
60.955 16.633497
60.960 16.310429
60.965 16.40041
60.970 16.757353
60.975 16.855152
60.980 16.377834
60.985 15.467559
60.990 15.809776
60.995 16.110826
61.000 16.079308
61.005 16.231153
61.010 16.155537
61.015 16.430151
61.020 16.941872
61.025 16.825756
61.030 16.833336
61.035 16.493902
61.040 16.086229
61.045 15.880774
61.050 15.764185
61.055 15.749878
61.060 16.108204
61.065 16.642962
61.070 17.261082
61.075 17.231863
61.080 17.451757
61.085 17.834908
61.090 17.789196
61.095 16.857628
61.100 16.027323
61.105 16.035713
61.110 16.156693
61.115 16.342184
61.120 16.452171
61.125 16.906734
61.130 17.498686
61.135 17.732264
61.140 17.32663
61.145 17.007801
61.150 16.757494
61.155 16.142488
61.160 15.956571
61.165 16.695164
61.170 16.97275
61.175 17.258425
61.180 17.56398
61.185 17.930412
61.190 18.486309
61.195 18.916489
61.200 18.824659
61.205 19.283754
61.210 19.494007
61.215 18.945065
61.220 19.054319
61.225 18.884708
61.230 18.855032
61.235 17.967207
61.240 17.424244
61.245 16.779194
61.250 16.976505
61.255 16.893785
61.260 17.079323
61.265 17.021139
61.270 17.164429
61.275 17.529226
61.280 18.112827
61.285 18.575891
61.290 18.716669
61.295 18.976095
61.300 19.284349
61.305 19.672926
61.310 19.046717
61.315 18.546661
61.320 18.141138
61.325 17.859592
61.330 17.050507
61.335 15.822155
61.340 15.268444
61.345 15.966821
61.350 15.862035
61.355 15.681434
61.360 15.849516
61.365 16.313858
61.370 17.065971
61.375 17.625401
61.380 17.576902
61.385 17.611692
61.390 17.482546
61.395 17.175253
61.400 16.811092
61.405 16.302208
61.410 15.56574
61.415 15.381742
61.420 15.852617
61.425 15.981945
61.430 15.894931
61.435 16.660559
61.440 17.289663
61.445 17.538351
61.450 18.007334
61.455 18.010559
61.460 17.701084
61.465 17.744205
61.470 17.401432
61.475 17.396395
61.480 17.589748
61.485 17.219574
61.490 17.406254
61.495 17.495577
61.500 17.778183
61.505 17.516758
61.510 16.965733
61.515 17.08593
61.520 17.251097
61.525 17.402925
61.530 17.902147
61.535 17.999794
61.540 18.342651
61.545 18.883646
61.550 19.220394
61.555 18.698446
61.560 18.562305
61.565 18.638756
61.570 18.41057
61.575 18.696709
61.580 18.678381
61.585 18.414627
61.590 18.498158
61.595 18.043539
61.600 17.871576
61.605 17.612022
61.610 17.296127
61.615 16.684801
61.620 16.720938
61.625 16.754311
61.630 16.477501
61.635 16.245619
61.640 16.415092
61.645 16.691931
61.650 17.175234
61.655 17.141554
61.660 17.852423
61.665 18.248835
61.670 18.203382
61.675 18.157251
61.680 17.883272
61.685 17.528374
61.690 17.119555
61.695 16.410767
61.700 16.707546
61.705 17.03475
61.710 16.81464
61.715 17.11488
61.720 17.448736
61.725 17.711628
61.730 17.935545
61.735 17.781176
61.740 18.053137
61.745 18.13059
61.750 17.914585
61.755 18.384312
61.760 18.955074
61.765 19.261568
61.770 18.985125
61.775 18.789017
61.780 19.094522
61.785 18.355829
61.790 17.623657
61.795 17.309921
61.800 16.948128
61.805 17.382162
61.810 17.569433
61.815 17.700237
61.820 18.084593
61.825 18.114759
61.830 17.813999
61.835 17.338905
61.840 16.81134
61.845 16.405104
61.850 16.037119
61.855 16.317938
61.860 16.147284
61.865 16.075754
61.870 16.478605
61.875 17.326925
61.880 18.105442
61.885 18.973642
61.890 19.385994
61.895 19.436567
61.900 19.572138
61.905 19.050097
61.910 18.03463
61.915 17.378328
61.920 16.588306
61.925 16.25211
61.930 16.267855
61.935 16.223248
61.940 16.63969
61.945 16.838793
61.950 16.691322
61.955 16.673098
61.960 15.57054
61.965 15.880323
61.970 15.901365
61.975 15.712614
61.980 16.38151
61.985 16.393194
61.990 16.582935
61.995 17.329933
62.000 17.384056
62.005 17.473099
62.010 17.958954
62.015 17.280619
62.020 17.240726
62.025 17.087097
62.030 16.820711
62.035 16.515102
62.040 16.358232
62.045 16.370358
62.050 16.741796
62.055 16.479113
62.060 16.395853
62.065 16.573294
62.070 16.657257
62.075 16.97613
62.080 16.729298
62.085 16.732538
62.090 17.220526
62.095 17.182838
62.100 16.78297
62.105 16.344469
62.110 16.382975
62.115 16.930332
62.120 17.268417
62.125 17.508587
62.130 18.456882
62.135 19.238718
62.140 19.173613
62.145 18.933113
62.150 18.570414
62.155 18.304716
62.160 18.210449
62.165 18.042208
62.170 18.515383
62.175 19.492121
62.180 19.599453
62.185 19.436087
62.190 18.744219
62.195 18.49279
62.200 18.087091
62.205 17.855532
62.210 18.025881
62.215 18.239695
62.220 18.026241
62.225 18.166538
62.230 18.566769
62.235 18.849119
62.240 18.774517
62.245 18.596123
62.250 18.847517
62.255 19.486795
62.260 19.717701
62.265 19.11487
62.270 18.615648
62.275 18.339905
62.280 18.220526
62.285 17.298689
62.290 16.294954
62.295 16.378792
62.300 16.541542
62.305 16.339682
62.310 15.951009
62.315 15.772012
62.320 16.159895
62.325 16.558563
62.330 16.457371
62.335 16.444571
62.340 17.033604
62.345 18.006882
62.350 18.599287
62.355 19.406775
62.360 19.790136
62.365 19.834682
62.370 19.792656
62.375 19.020563
62.380 18.03451
62.385 17.237484
62.390 16.784056
62.395 16.867376
62.400 17.299753
62.405 17.469839
62.410 18.096802
62.415 18.778345
62.420 19.246916
62.425 19.462337
62.430 19.422169
62.435 19.2386
62.440 19.117268
62.445 18.872683
62.450 19.195028
62.455 19.411421
62.460 19.063833
62.465 19.215643
62.470 19.373051
62.475 19.929718
62.480 19.940434
62.485 19.394701
62.490 19.030458
62.495 18.746302
62.500 18.181711
62.505 18.162136
62.510 17.5868
62.515 17.095093
62.520 16.261721
62.525 15.950388
62.530 16.486692
62.535 16.816256
62.540 17.096403
62.545 17.60668
62.550 17.5774
62.555 18.382801
62.560 18.791498
62.565 18.289753
62.570 17.8829
62.575 17.352722
62.580 17.203142
62.585 17.207533
62.590 16.501259
62.595 15.995396
62.600 16.238157
62.605 16.263811
62.610 15.975402
62.615 15.870531
62.620 15.907648
62.625 16.333828
62.630 16.834917
62.635 16.929321
62.640 17.401382
62.645 17.592474
62.650 17.635357
62.655 17.555813
62.660 17.586689
62.665 17.549147
62.670 17.378208
62.675 17.608301
62.680 18.341925
62.685 18.507719
62.690 18.323898
62.695 18.117134
62.700 17.588625
62.705 17.604923
62.710 17.291519
62.715 16.891748
62.720 16.754419
62.725 17.527117
62.730 18.106668
62.735 18.140572
62.740 18.294825
62.745 18.683008
62.750 18.673595
62.755 18.578342
62.760 18.526056
62.765 18.350344
62.770 18.415071
62.775 18.010281
62.780 17.562675
62.785 17.774439
62.790 17.196339
62.795 16.665228
62.800 16.588675
62.805 16.58844
62.810 16.800081
62.815 16.892202
62.820 16.398493
62.825 17.232859
62.830 17.326807
62.835 17.359711
62.840 17.455309
62.845 17.214996
62.850 17.182287
62.855 17.723125
62.860 17.600922
62.865 17.957735
62.870 18.164637
62.875 18.244064
62.880 18.370975
62.885 18.601351
62.890 18.524128
62.895 18.331669
62.900 18.004229
62.905 18.633583
62.910 18.698328
62.915 18.651131
62.920 18.198616
62.925 17.414776
62.930 17.513941
62.935 18.084938
62.940 17.766153
62.945 17.850273
62.950 18.327486
62.955 18.787836
62.960 19.420259
62.965 19.433628
62.970 19.057283
62.975 18.839651
62.980 18.532341
62.985 18.294813
62.990 18.265799
62.995 18.381126
63.000 18.585854
63.005 18.679852
63.010 19.081713
63.015 18.910336
63.020 18.910254
63.025 19.176481
63.030 19.172943
63.035 19.134655
63.040 18.625418
63.045 17.988647
63.050 17.681744
63.055 17.565847
63.060 17.606333
63.065 17.547075
63.070 17.352295
63.075 17.766409
63.080 18.299187
63.085 18.43284
63.090 17.722393
63.095 17.620384
63.100 17.791828
63.105 17.7348
63.110 17.2185
63.115 16.606112
63.120 16.803568
63.125 17.395739
63.130 17.378891
63.135 17.171133
63.140 17.197304
63.145 17.081152
63.150 17.206743
63.155 17.369652
63.160 17.161058
63.165 16.762434
63.170 16.636738
63.175 16.810123
63.180 16.846704
63.185 16.85556
63.190 16.669418
63.195 16.330107
63.200 16.524393
63.205 17.259977
63.210 18.162264
63.215 19.056463
63.220 19.392443
63.225 19.486553
63.230 20.16452
63.235 20.436827
63.240 19.480602
63.245 18.521101
63.250 18.444836
63.255 18.585934
63.260 18.489328
63.265 17.997398
63.270 18.053944
63.275 18.423187
63.280 18.291889
63.285 17.953056
63.290 17.530388
63.295 17.660131
63.300 17.631405
63.305 17.263803
63.310 17.553637
63.315 17.476698
63.320 17.612265
63.325 17.630001
63.330 18.049543
63.335 17.855198
63.340 17.945482
63.345 17.314747
63.350 17.533012
63.355 18.25918
63.360 18.626455
63.365 18.239525
63.370 18.475945
63.375 18.361113
63.380 18.474344
63.385 18.406803
63.390 17.608036
63.395 17.545059
63.400 17.599648
63.405 16.98728
63.410 17.109951
63.415 17.262001
63.420 16.912115
63.425 16.886089
63.430 16.908587
63.435 16.822842
63.440 17.733025
63.445 18.229614
63.450 18.210344
63.455 18.302105
63.460 18.195349
63.465 18.42811
63.470 19.056938
63.475 18.724419
63.480 18.361088
63.485 18.889965
63.490 18.891144
63.495 19.254677
63.500 18.986792
63.505 18.866713
63.510 19.439768
63.515 19.345747
63.520 19.329699
63.525 19.622757
63.530 19.825184
63.535 19.955362
63.540 19.789436
63.545 19.647638
63.550 19.685768
63.555 19.830002
63.560 20.155512
63.565 20.001026
63.570 19.713541
63.575 19.687389
63.580 19.495461
63.585 19.564966
63.590 19.410162
63.595 19.385044
63.600 19.373318
63.605 19.59893
63.610 19.085867
63.615 19.09141
63.620 18.923424
63.625 18.841587
63.630 18.724667
63.635 19.209988
63.640 19.291544
63.645 20.109455
63.650 20.332281
63.655 20.450994
63.660 20.692158
63.665 20.299173
63.670 20.029402
63.675 20.557892
63.680 19.858265
63.685 19.891283
63.690 19.716738
63.695 19.554867
63.700 20.189541
63.705 20.094957
63.710 19.7598
63.715 20.598036
63.720 21.017126
63.725 21.104916
63.730 21.120663
63.735 20.808561
63.740 20.483114
63.745 19.979759
63.750 19.084373
63.755 19.041775
63.760 19.650331
63.765 20.033176
63.770 20.487909
63.775 21.088449
63.780 21.820023
63.785 22.008562
63.790 22.403286
63.795 22.145767
63.800 22.289276
63.805 21.961681
63.810 21.333492
63.815 21.466137
63.820 21.842838
63.825 21.464849
63.830 21.468067
63.835 21.04619
63.840 21.460775
63.845 22.579344
63.850 22.972473
63.855 22.765341
63.860 22.879307
63.865 23.036131
63.870 23.624182
63.875 24.128016
63.880 24.551666
63.885 24.528103
63.890 25.210146
63.895 25.571857
63.900 26.220301
63.905 26.533918
63.910 26.006023
63.915 25.364893
63.920 25.613382
63.925 25.412601
63.930 25.5261
63.935 24.90202
63.940 24.254486
63.945 24.923595
63.950 25.739147
63.955 25.980896
63.960 26.516602
63.965 26.602093
63.970 27.485447
63.975 28.485451
63.980 29.013901
63.985 29.193895
63.990 29.3692
63.995 29.265862
64.000 29.126284
64.005 29.627987
64.010 30.365849
64.015 30.76041
64.020 31.193707
64.025 31.892662
64.030 32.348061
64.035 32.792816
64.040 32.617546
64.045 32.480824
64.050 32.48843
64.055 32.43998
64.060 31.83609
64.065 31.579973
64.070 31.965252
64.075 32.527523
64.080 32.672653
64.085 32.195621
64.090 31.63039
64.095 31.862873
64.100 31.791872
64.105 31.482895
64.110 31.018448
64.115 31.193195
64.120 31.272541
64.125 31.587364
64.130 31.371653
64.135 31.985006
64.140 32.342213
64.145 31.842789
64.150 31.654659
64.155 31.962469
64.160 32.202106
64.165 32.255444
64.170 31.778324
64.175 31.492758
64.180 31.733999
64.185 32.427837
64.190 33.976677
64.195 35.208199
64.200 36.060623
64.205 36.268875
64.210 36.446411
64.215 35.273735
64.220 34.079605
64.225 32.75106
64.230 31.575405
64.235 30.799749
64.240 30.740982
64.245 30.79528
64.250 31.188511
64.255 31.885845
64.260 32.326797
64.265 32.128845
64.270 32.287666
64.275 31.867577
64.280 32.049397
64.285 32.422424
64.290 32.022175
64.295 31.267576
64.300 31.512018
64.305 31.158743
64.310 31.45442
64.315 31.081791
64.320 31.424129
64.325 31.034044
64.330 30.887608
64.335 30.135183
64.340 30.495255
64.345 30.728561
64.350 30.624863
64.355 29.477224
64.360 29.335386
64.365 29.918123
64.370 31.021582
64.375 31.07724
64.380 30.305626
64.385 29.826679
64.390 30.034571
64.395 29.908083
64.400 29.701134
64.405 29.35008
64.410 30.155302
64.415 30.296747
64.420 30.580376
64.425 30.853033
64.430 30.506203
64.435 30.798836
64.440 30.419497
64.445 29.022093
64.450 28.651438
64.455 28.859987
64.460 28.726662
64.465 29.452166
64.470 28.661713
64.475 28.081566
64.480 27.838053
64.485 28.618103
64.490 28.783485
64.495 28.761826
64.500 28.014542
64.505 27.490356
64.510 26.828703
64.515 26.826384
64.520 26.293358
64.525 25.274117
64.530 24.868891
64.535 24.163445
64.540 24.422949
64.545 24.62377
64.550 24.495419
64.555 24.536715
64.560 24.8186
64.565 24.532333
64.570 24.155428
64.575 24.092995
64.580 24.018639
64.585 23.877634
64.590 23.011152
64.595 23.200422
64.600 23.737766
64.605 24.041986
64.610 24.243549
64.615 24.360611
64.620 24.847616
64.625 25.502979
64.630 24.730232
64.635 24.578798
64.640 24.773632
64.645 24.947411
64.650 25.250906
64.655 25.365234
64.660 25.510065
64.665 25.918625
64.670 25.904875
64.675 25.17309
64.680 24.698671
64.685 24.328308
64.690 23.795725
64.695 23.352676
64.700 23.09144
64.705 23.125065
64.710 23.60099
64.715 23.409409
64.720 23.403418
64.725 23.326136
64.730 23.329697
64.735 23.112932
64.740 22.692907
64.745 22.74481
64.750 22.588259
64.755 21.983908
64.760 21.454762
64.765 21.95039
64.770 22.086369
64.775 22.256491
64.780 22.42614
64.785 22.959431
64.790 23.427229
64.795 23.380192
64.800 22.903498
64.805 23.073357
64.810 22.741011
64.815 22.118008
64.820 22.380077
64.825 23.241505
64.830 23.319586
64.835 23.338812
64.840 22.975569
64.845 22.388311
64.850 22.329269
64.855 21.953617
64.860 21.542002
64.865 22.076166
64.870 22.890575
64.875 23.128925
64.880 23.70697
64.885 23.624464
64.890 23.596584
64.895 23.493881
64.900 23.03694
64.905 22.575144
64.910 22.97937
64.915 22.992939
64.920 23.197243
64.925 23.220016
64.930 23.291676
64.935 23.638758
64.940 23.315441
64.945 23.904016
64.950 23.895605
64.955 24.387541
64.960 24.551313
64.965 24.676527
64.970 24.256645
64.975 24.506639
64.980 24.031225
64.985 24.198339
64.990 23.796412
64.995 23.725426
65.000 23.828917
65.005 24.237965
65.010 24.392969
65.015 24.074772
65.020 24.766359
65.025 24.84197
65.030 23.976414
65.035 24.347569
65.040 24.103191
65.045 24.25992
65.050 24.272207
65.055 23.75112
65.060 24.22287
65.065 25.243755
65.070 25.0469
65.075 24.879236
65.080 24.392786
65.085 24.304525
65.090 24.053068
65.095 23.278717
65.100 23.234285
65.105 23.489254
65.110 23.964918
65.115 24.107283
65.120 23.711496
65.125 23.60622
65.130 24.169609
65.135 23.422724
65.140 22.893888
65.145 22.901426
65.150 23.95491
65.155 24.623915
65.160 25.220039
65.165 24.756857
65.170 24.933992
65.175 24.736128
65.180 24.318302
65.185 23.817934
65.190 24.055616
65.195 24.126558
65.200 24.394445
65.205 24.526062
65.210 24.941351
65.215 25.689817
65.220 26.082117
65.225 26.074152
65.230 25.795853
65.235 25.632122
65.240 25.813616
65.245 25.258461
65.250 24.471884
65.255 24.266174
65.260 24.158018
65.265 24.223274
65.270 24.520552
65.275 24.57827
65.280 24.71159
65.285 24.689287
65.290 24.771746
65.295 24.595779
65.300 24.392269
65.305 24.51825
65.310 24.284971
65.315 24.312645
65.320 23.886717
65.325 23.725025
65.330 23.930534
65.335 23.813154
65.340 23.860893
65.345 23.941473
65.350 23.941851
65.355 24.582752
65.360 24.867418
65.365 25.106153
65.370 26.141619
65.375 26.12603
65.380 26.143667
65.385 26.601713
65.390 26.586149
65.395 26.327085
65.400 25.64924
65.405 25.054028
65.410 25.327797
65.415 25.692047
65.420 25.534439
65.425 25.682405
65.430 25.467436
65.435 25.638252
65.440 25.08239
65.445 24.772005
65.450 24.786375
65.455 24.964647
65.460 24.539831
65.465 24.571072
65.470 24.977051
65.475 25.082518
65.480 25.158203
65.485 25.005844
65.490 25.045595
65.495 25.297077
65.500 24.493803
65.505 24.910593
65.510 25.372334
65.515 25.878691
65.520 26.356581
65.525 26.350529
65.530 26.301716
65.535 27.509665
65.540 27.438189
65.545 28.264803
65.550 28.605051
65.555 28.824635
65.560 29.194984
65.565 29.82876
65.570 30.009691
65.575 30.100166
65.580 30.303684
65.585 30.474787
65.590 30.729973
65.595 30.884668
65.600 30.814919
65.605 30.865578
65.610 31.373503
65.615 30.737598
65.620 30.335463
65.625 30.361702
65.630 30.508713
65.635 30.407911
65.640 30.228758
65.645 29.967007
65.650 30.16593
65.655 30.056828
65.660 30.573807
65.665 30.688667
65.670 29.945223
65.675 29.785721
65.680 30.836811
65.685 31.119757
65.690 32.19379
65.695 32.138149
65.700 31.846172
65.705 32.976009
65.710 33.099579
65.715 32.351986
65.720 32.425701
65.725 31.53591
65.730 31.715441
65.735 31.984877
65.740 31.720015
65.745 31.919502
65.750 32.413521
65.755 32.875488
65.760 33.494976
65.765 33.221203
65.770 33.935551
65.775 33.675068
65.780 33.636429
65.785 32.369377
65.790 31.658751
65.795 31.618845
65.800 31.871967
65.805 31.712927
65.810 31.868845
65.815 32.027676
65.820 33.665783
65.825 33.789856
65.830 32.514187
65.835 32.686531
65.840 33.313835
65.845 33.438435
65.850 33.394997
65.855 33.119747
65.860 33.677357
65.865 34.401501
65.870 34.495575
65.875 34.606636
65.880 35.704823
65.885 35.941898
65.890 35.91341
65.895 36.433163
65.900 36.778191
65.905 36.817322
65.910 36.757858
65.915 36.674221
65.920 36.804714
65.925 37.073914
65.930 37.1408
65.935 37.056038
65.940 36.466011
65.945 35.867012
65.950 35.30629
65.955 35.764183
65.960 35.869766
65.965 36.118946
65.970 36.969948
65.975 37.530636
65.980 38.225803
65.985 38.516495
65.990 38.347496
65.995 38.628204
66.000 38.27121
66.005 38.139149
66.010 38.485424
66.015 38.600861
66.020 38.701679
66.025 38.001259
66.030 37.708118
66.035 38.384258
66.040 38.872932
66.045 38.870972
66.050 38.408642
66.055 38.289684
66.060 39.032612
66.065 39.773163
66.070 39.099899
66.075 38.913376
66.080 39.244698
66.085 39.794544
66.090 39.635654
66.095 39.114655
66.100 38.374023
66.105 38.009407
66.110 37.006634
66.115 36.505264
66.120 36.407501
66.125 36.74828
66.130 36.978394
66.135 36.944374
66.140 37.023132
66.145 37.060429
66.150 37.450268
66.155 37.253048
66.160 37.618958
66.165 37.425163
66.170 36.978199
66.175 37.653202
66.180 37.962864
66.185 37.38501
66.190 37.530895
66.195 36.309067
66.200 35.967911
66.205 35.540997
66.210 34.965027
66.215 34.567459
66.220 35.091965
66.225 35.174656
66.230 35.791279
66.235 35.717365
66.240 35.986786
66.245 35.968304
66.250 36.029305
66.255 35.914433
66.260 35.050903
66.265 34.503609
66.270 34.724972
66.275 34.545937
66.280 34.255627
66.285 33.378868
66.290 33.168995
66.295 33.08271
66.300 33.878586
66.305 34.146782
66.310 33.77668
66.315 34.064411
66.320 34.466518
66.325 34.164745
66.330 34.056568
66.335 33.449203
66.340 32.887959
66.345 33.053185
66.350 32.42997
66.355 32.079796
66.360 31.79636
66.365 31.177536
66.370 31.113182
66.375 30.487852
66.380 30.049467
66.385 29.458248
66.390 29.335552
66.395 29.205591
66.400 29.156067
66.405 28.774174
66.410 29.205719
66.415 29.500427
66.420 29.512369
66.425 28.920061
66.430 28.938557
66.435 29.58984
66.440 29.636078
66.445 28.466871
66.450 28.053003
66.455 27.702127
66.460 27.778885
66.465 27.853537
66.470 27.130163
66.475 26.255501
66.480 27.017021
66.485 27.603252
66.490 28.157694
66.495 27.782476
66.500 27.156824
66.505 26.816856
66.510 26.910044
66.515 26.558092
66.520 25.493931
66.525 25.508255
66.530 25.369562
66.535 25.42598
66.540 25.934851
66.545 25.639193
66.550 24.935974
66.555 25.15309
66.560 25.03162
66.565 25.039608
66.570 24.773336
66.575 24.355429
66.580 24.617966
66.585 24.349514
66.590 23.752657
66.595 23.66498
66.600 23.603357
66.605 23.610512
66.610 23.444811
66.615 23.451145
66.620 24.172205
66.625 24.059944
66.630 23.167564
66.635 23.100435
66.640 23.379709
66.645 23.541718
66.650 23.269415
66.655 23.309614
66.660 23.053293
66.665 23.482296
66.670 23.558155
66.675 23.484524
66.680 23.605202
66.685 23.053753
66.690 22.624289
66.695 22.914291
66.700 22.795158
66.705 22.602821
66.710 22.339539
66.715 22.398449
66.720 22.604361
66.725 22.707293
66.730 22.504915
66.735 22.255857
66.740 21.678112
66.745 20.978468
66.750 20.829556
66.755 20.394712
66.760 20.582184
66.765 20.528824
66.770 20.8181
66.775 20.917652
66.780 20.776625
66.785 20.747763
66.790 20.659922
66.795 20.42868
66.800 20.7519
66.805 20.778515
66.810 21.528118
66.815 21.497723
66.820 21.022648
66.825 21.017155
66.830 20.595957
66.835 20.231514
66.840 19.561445
66.845 19.104214
66.850 19.943119
66.855 20.11635
66.860 19.94351
66.865 20.260489
66.870 20.187035
66.875 20.386883
66.880 20.542334
66.885 20.662947
66.890 20.607643
66.895 20.916315
66.900 20.639694
66.905 20.675127
66.910 20.735983
66.915 20.588282
66.920 20.737011
66.925 20.760231
66.930 20.15646
66.935 20.166862
66.940 20.158224
66.945 20.422041
66.950 20.021179
66.955 19.377941
66.960 19.693731
66.965 20.2103
66.970 20.502714
66.975 20.697208
66.980 20.668591
66.985 21.1159
66.990 21.456835
66.995 21.227854
67.000 20.51218
67.005 20.4524
67.010 20.061979
67.015 20.00552
67.020 19.812244
67.025 19.311382
67.030 19.251711
67.035 20.229767
67.040 20.296003
67.045 20.225842
67.050 20.442806
67.055 20.409897
67.060 20.214369
67.065 20.600201
67.070 20.091171
67.075 20.866261
67.080 21.247307
67.085 20.971979
67.090 21.25625
67.095 21.748449
67.100 21.327333
67.105 20.922901
67.110 20.248272
67.115 20.152496
67.120 20.205368
67.125 19.985174
67.130 19.993444
67.135 19.921059
67.140 19.611622
67.145 19.156933
67.150 19.183916
67.155 19.733152
67.160 20.103254
67.165 19.848085
67.170 19.749136
67.175 20.414692
67.180 21.496006
67.185 21.59716
67.190 21.267525
67.195 20.68248
67.200 20.780714
67.205 21.360327
67.210 20.723843
67.215 20.528763
67.220 20.735397
67.225 20.505764
67.230 20.538654
67.235 20.11627
67.240 19.613277
67.245 19.270144
67.250 18.772463
67.255 18.523788
67.260 19.078518
67.265 20.041456
67.270 20.408342
67.275 20.498819
67.280 20.641905
67.285 20.69223
67.290 19.77669
67.295 19.586651
67.300 19.001686
67.305 19.223446
67.310 19.354435
67.315 19.572561
67.320 19.782532
67.325 20.475183
67.330 20.635105
67.335 20.322742
67.340 20.024963
67.345 19.820351
67.350 19.602114
67.355 19.06641
67.360 18.303955
67.365 18.06934
67.370 18.608702
67.375 18.566509
67.380 18.409653
67.385 18.061979
67.390 18.072466
67.395 18.153196
67.400 18.33363
67.405 18.486994
67.410 18.826815
67.415 19.641712
67.420 19.773983
67.425 20.423145
67.430 20.758722
67.435 20.437281
67.440 20.348419
67.445 20.041378
67.450 20.197414
67.455 20.698559
67.460 20.127056
67.465 20.117807
67.470 20.164299
67.475 20.367743
67.480 20.415646
67.485 20.278812
67.490 20.257704
67.495 20.339012
67.500 20.133234
67.505 19.661015
67.510 19.447319
67.515 19.443602
67.520 19.467068
67.525 19.359602
67.530 19.471945
67.535 19.438396
67.540 19.244396
67.545 18.982002
67.550 18.959999
67.555 18.834866
67.560 18.768602
67.565 18.397745
67.570 18.951841
67.575 19.204411
67.580 18.903917
67.585 18.783016
67.590 18.791887
67.595 19.294952
67.600 19.878111
67.605 19.667305
67.610 19.916752
67.615 20.467821
67.620 20.511314
67.625 19.914234
67.630 19.823404
67.635 19.453176
67.640 19.507917
67.645 19.555187
67.650 19.550129
67.655 20.106768
67.660 20.933537
67.665 20.636324
67.670 20.440241
67.675 20.076366
67.680 19.86858
67.685 19.937307
67.690 19.386021
67.695 18.901653
67.700 19.099321
67.705 20.0172
67.710 20.402611
67.715 20.063036
67.720 20.129063
67.725 20.156868
67.730 20.028641
67.735 19.860989
67.740 19.558517
67.745 19.570053
67.750 19.328318
67.755 19.011095
67.760 19.31986
67.765 20.055782
67.770 19.649958
67.775 19.165117
67.780 19.45554
67.785 19.970873
67.790 20.25318
67.795 20.295881
67.800 20.20163
67.805 19.956451
67.810 19.692289
67.815 19.225931
67.820 19.373302
67.825 19.189985
67.830 18.831001
67.835 18.882263
67.840 19.696978
67.845 20.18811
67.850 20.404985
67.855 20.715971
67.860 20.658291
67.865 20.401714
67.870 19.824583
67.875 19.181433
67.880 18.917677
67.885 18.769764
67.890 18.63851
67.895 18.611586
67.900 18.555485
67.905 19.105598
67.910 19.846806
67.915 20.230541
67.920 20.176508
67.925 20.570995
67.930 21.016926
67.935 21.186491
67.940 20.867874
67.945 20.124563
67.950 19.81356
67.955 19.642496
67.960 19.183668
67.965 19.30986
67.970 19.357548
67.975 19.551975
67.980 19.824181
67.985 20.123768
67.990 19.90799
67.995 19.676371
68.000 19.604868
68.005 19.869413
68.010 19.861118
68.015 20.15427
68.020 20.008131
68.025 19.981722
68.030 19.768997
68.035 19.114206
68.040 18.857723
68.045 19.049463
68.050 18.915932
68.055 19.214272
68.060 19.331669
68.065 19.327875
68.070 19.416552
68.075 18.946083
68.080 19.471087
68.085 19.37697
68.090 18.969212
68.095 18.936384
68.100 19.388428
68.105 20.123674
68.110 20.667681
68.115 20.140072
68.120 20.197603
68.125 20.526758
68.130 20.424694
68.135 20.033895
68.140 19.82128
68.145 19.778164
68.150 19.984392
68.155 20.360289
68.160 20.167521
68.165 20.120985
68.170 19.960577
68.175 19.700546
68.180 19.650721
68.185 19.414862
68.190 19.34304
68.195 19.716734
68.200 19.943174
68.205 20.6964
68.210 21.486288
68.215 21.427023
68.220 20.970856
68.225 20.210728
68.230 20.156822
68.235 20.19768
68.240 19.55488
68.245 19.340574
68.250 18.946447
68.255 19.655949
68.260 20.660072
68.265 21.342316
68.270 21.933157
68.275 22.424995
68.280 22.408665
68.285 22.718699
68.290 22.497364
68.295 22.675543
68.300 22.691807
68.305 22.379938
68.310 22.039148
68.315 22.504728
68.320 22.331984
68.325 22.247759
68.330 21.816168
68.335 20.750269
68.340 20.793036
68.345 20.613066
68.350 19.717419
68.355 19.908701
68.360 19.882326
68.365 19.203854
68.370 19.258089
68.375 18.996782
68.380 19.230412
68.385 19.664629
68.390 19.393059
68.395 19.686998
68.400 20.069042
68.405 19.95746
68.410 20.281858
68.415 19.806147
68.420 19.386473
68.425 19.450998
68.430 19.186419
68.435 19.564533
68.440 19.794619
68.445 19.923582
68.450 20.880514
68.455 21.407488
68.460 21.500862
68.465 22.248646
68.470 22.439487
68.475 22.494053
68.480 22.443661
68.485 22.599983
68.490 23.02807
68.495 23.012541
68.500 22.172724
68.505 21.584345
68.510 21.421787
68.515 20.977581
68.520 20.459024
68.525 19.662874
68.530 19.68108
68.535 19.862379
68.540 20.483549
68.545 20.40661
68.550 20.624609
68.555 20.463865
68.560 20.835697
68.565 20.88249
68.570 21.142178
68.575 21.431606
68.580 21.480835
68.585 21.221159
68.590 21.921524
68.595 22.140543
68.600 21.79689
68.605 21.938095
68.610 21.494848
68.615 21.88768
68.620 22.798874
68.625 23.381893
68.630 23.844599
68.635 24.009293
68.640 23.501516
68.645 24.353376
68.650 24.183352
68.655 23.589745
68.660 22.899872
68.665 23.021275
68.670 23.453737
68.675 23.468184
68.680 23.153841
68.685 23.184704
68.690 23.364969
68.695 23.084261
68.700 23.242786
68.705 22.844416
68.710 22.780621
68.715 23.34795
68.720 23.750616
68.725 23.804522
68.730 23.864986
68.735 23.919903
68.740 24.871214
68.745 24.896202
68.750 25.01049
68.755 24.989809
68.760 24.967855
68.765 25.120668
68.770 25.039574
68.775 24.889132
68.780 25.056625
68.785 24.90531
68.790 25.021965
68.795 25.273495
68.800 25.608324
68.805 25.917171
68.810 25.794577
68.815 25.575632
68.820 25.399662
68.825 25.090096
68.830 25.393457
68.835 26.058207
68.840 26.376987
68.845 26.998503
68.850 27.341566
68.855 28.083862
68.860 28.450035
68.865 29.238377
68.870 28.913307
68.875 28.469868
68.880 28.774408
68.885 28.85615
68.890 28.232162
68.895 28.727459
68.900 28.248945
68.905 28.432789
68.910 28.816549
68.915 29.416006
68.920 29.97566
68.925 30.313906
68.930 29.475992
68.935 29.253979
68.940 29.01696
68.945 29.008091
68.950 28.566376
68.955 27.954788
68.960 27.951227
68.965 29.124418
68.970 29.622536
68.975 29.514645
68.980 29.434824
68.985 29.684986
68.990 30.655037
68.995 31.14834
69.000 30.976379
69.005 31.285921
69.010 32.133278
69.015 31.270992
69.020 31.071953
69.025 31.325718
69.030 31.222973
69.035 31.335436
69.040 31.79755
69.045 31.329151
69.050 32.287342
69.055 32.56134
69.060 32.044834
69.065 31.864382
69.070 31.871946
69.075 32.597542
69.080 33.013023
69.085 32.930077
69.090 33.331745
69.095 33.653828
69.100 33.947063
69.105 34.206684
69.110 33.70504
69.115 34.201092
69.120 33.75066
69.125 32.998051
69.130 33.217026
69.135 33.627644
69.140 33.271694
69.145 33.134777
69.150 32.428581
69.155 32.944317
69.160 33.869392
69.165 33.521488
69.170 32.572746
69.175 32.711105
69.180 32.127686
69.185 32.850731
69.190 32.996254
69.195 32.677155
69.200 32.35651
69.205 32.281311
69.210 32.460335
69.215 33.411583
69.220 33.318016
69.225 32.89019
69.230 33.156563
69.235 33.923847
69.240 33.834839
69.245 33.753849
69.250 33.385921
69.255 33.263134
69.260 33.124359
69.265 32.372562
69.270 32.292591
69.275 32.761421
69.280 33.460262
69.285 34.231304
69.290 34.092232
69.295 34.348579
69.300 34.665649
69.305 34.538464
69.310 34.124252
69.315 33.031273
69.320 32.456932
69.325 32.301762
69.330 32.376587
69.335 32.123806
69.340 32.358768
69.345 32.817459
69.350 33.205002
69.355 33.777477
69.360 33.600494
69.365 33.209427
69.370 32.972141
69.375 32.222229
69.380 32.011566
69.385 31.227438
69.390 30.87892
69.395 31.321095
69.400 31.75304
69.405 31.968363
69.410 31.782333
69.415 31.17905
69.420 31.40202
69.425 30.8472
69.430 30.509878
69.435 31.03174
69.440 31.226488
69.445 31.589346
69.450 32.387093
69.455 32.22538
69.460 31.760895
69.465 31.398893
69.470 30.66572
69.475 30.096853
69.480 29.506845
69.485 29.102392
69.490 30.377337
69.495 30.786806
69.500 31.224701
69.505 31.15904
69.510 31.784918
69.515 31.615467
69.520 30.757528
69.525 29.626307
69.530 29.252951
69.535 28.868856
69.540 28.66061
69.545 28.161005
69.550 28.743227
69.555 28.893494
69.560 29.25687
69.565 28.940273
69.570 29.072483
69.575 30.053265
69.580 29.995224
69.585 29.879248
69.590 30.3281
69.595 29.347296
69.600 29.795143
69.605 29.464108
69.610 29.385828
69.615 30.066759
69.620 30.254425
69.625 29.979298
69.630 29.935907
69.635 29.754648
69.640 29.613312
69.645 29.358601
69.650 28.938499
69.655 28.534357
69.660 28.692928
69.665 29.194649
69.670 28.831814
69.675 28.250921
69.680 27.475103
69.685 27.061096
69.690 27.013052
69.695 26.152002
69.700 25.813568
69.705 25.785576
69.710 25.770378
69.715 25.506634
69.720 25.528811
69.725 25.325357
69.730 25.23498
69.735 25.18721
69.740 24.763828
69.745 25.054684
69.750 25.322979
69.755 25.14879
69.760 25.059973
69.765 24.478168
69.770 24.253286
69.775 24.482264
69.780 23.80287
69.785 23.82584
69.790 23.900951
69.795 24.400726
69.800 25.045441
69.805 24.523729
69.810 24.725647
69.815 24.736902
69.820 24.27371
69.825 23.990168
69.830 23.065094
69.835 23.072491
69.840 23.155319
69.845 23.285738
69.850 23.948792
69.855 24.124287
69.860 23.938932
69.865 24.117231
69.870 24.052416
69.875 24.184732
69.880 24.437317
69.885 24.28014
69.890 24.261574
69.895 24.100065
69.900 23.556171
69.905 23.091814
69.910 22.112413
69.915 21.007353
69.920 20.515467
69.925 20.64303
69.930 21.028973
69.935 21.219334
69.940 21.552103
69.945 22.564947
69.950 22.985411
69.955 23.163755
69.960 23.253937
69.965 23.207422
69.970 22.779985
69.975 21.845938
69.980 21.307676
69.985 21.305424
69.990 21.170877
69.995 20.741695
70.000 20.659933
70.005 21.016056
70.010 21.311613
70.015 21.45154
70.020 21.637669
70.025 21.825836
70.030 21.699673
70.035 21.845301
70.040 21.910839
70.045 22.114426
70.050 21.803902
70.055 21.239798
70.060 21.074226
70.065 21.418179
70.070 20.830938
70.075 20.562923
70.080 20.264505
70.085 20.099951
70.090 19.929787
70.095 19.555897
70.100 19.398853
70.105 19.350227
70.110 19.113758
70.115 19.526857
70.120 19.770811
70.125 19.932323
70.130 19.753162
70.135 20.274408
70.140 21.061634
70.145 21.373421
70.150 20.437719
70.155 20.690699
70.160 20.975672
70.165 21.111311
70.170 20.859831
70.175 20.885288
70.180 21.84898
70.185 22.225988
70.190 22.089491
70.195 21.917091
70.200 21.553957
70.205 20.969841
70.210 20.287651
70.215 20.120064
70.220 20.801638
70.225 19.962109
70.230 19.533686
70.235 19.641661
70.240 19.697577
70.245 19.886488
70.250 19.237236
70.255 18.971493
70.260 19.403376
70.265 19.888237
70.270 19.746845
70.275 19.696642
70.280 19.556261
70.285 19.570066
70.290 19.198618
70.295 19.851027
70.300 19.713324
70.305 19.935062
70.310 19.783751
70.315 19.984322
70.320 20.641479
70.325 20.307728
70.330 19.595877
70.335 19.759377
70.340 20.458389
70.345 20.81451
70.350 20.233856
70.355 19.842821
70.360 20.674879
70.365 20.786411
70.370 20.259502
70.375 19.72419
70.380 19.811241
70.385 20.061672
70.390 20.178225
70.395 19.545111
70.400 19.83531
70.405 19.816023
70.410 19.70645
70.415 19.706804
70.420 19.733095
70.425 20.131016
70.430 20.03945
70.435 20.544714
70.440 20.386763
70.445 19.663336
70.450 18.997856
70.455 18.329121
70.460 17.661261
70.465 17.704254
70.470 17.660404
70.475 18.344706
70.480 19.278067
70.485 19.791267
70.490 19.555817
70.495 19.390434
70.500 19.680487
70.505 19.622826
70.510 19.453367
70.515 19.035772
70.520 19.478794
70.525 20.003777
70.530 20.119425
70.535 19.96529
70.540 20.08519
70.545 20.081308
70.550 20.058842
70.555 19.737783
70.560 19.792471
70.565 20.402058
70.570 20.115356
70.575 20.055546
70.580 20.092266
70.585 19.783274
70.590 19.258627
70.595 19.157194
70.600 18.780233
70.605 18.856874
70.610 18.543829
70.615 18.362553
70.620 19.174065
70.625 19.960896
70.630 20.311954
70.635 19.977196
70.640 19.61677
70.645 19.710627
70.650 19.809687
70.655 19.423677
70.660 18.797699
70.665 17.918375
70.670 17.749943
70.675 17.901741
70.680 17.813978
70.685 17.983768
70.690 18.10103
70.695 18.635883
70.700 19.318987
70.705 19.653076
70.710 19.631664
70.715 19.557713
70.720 19.313559
70.725 19.437967
70.730 19.546818
70.735 19.491177
70.740 18.919514
70.745 18.892889
70.750 18.764795
70.755 18.289053
70.760 17.93084
70.765 17.701902
70.770 17.459841
70.775 17.873911
70.780 17.789345
70.785 18.278391
70.790 18.30813
70.795 18.283922
70.800 18.464518
70.805 18.782125
70.810 18.671865
70.815 18.396677
70.820 18.731924
70.825 18.733183
70.830 18.172897
70.835 17.917543
70.840 17.746138
70.845 18.070639
70.850 18.370901
70.855 18.441475
70.860 18.707689
70.865 19.144056
70.870 19.349209
70.875 19.435699
70.880 18.883757
70.885 18.034817
70.890 17.445278
70.895 17.405279
70.900 17.370239
70.905 17.515547
70.910 17.53105
70.915 18.172644
70.920 19.230965
70.925 20.093361
70.930 20.12623
70.935 20.058077
70.940 19.976616
70.945 20.628077
70.950 20.336561
70.955 19.837088
70.960 19.380238
70.965 19.355394
70.970 19.694942
70.975 19.551882
70.980 19.406767
70.985 19.523438
70.990 19.735435
70.995 19.119236
71.000 18.416174
71.005 18.132269
71.010 17.634188
71.015 17.500969
71.020 17.834919
71.025 17.701412
71.030 17.886484
71.035 18.65992
71.040 19.239719
71.045 19.759195
71.050 19.304211
71.055 19.112425
71.060 19.464071
71.065 19.724415
71.070 19.51088
71.075 18.96596
71.080 19.223909
71.085 19.314972
71.090 19.055338
71.095 18.82053
71.100 18.754038
71.105 18.209455
71.110 17.664463
71.115 16.691261
71.120 16.539459
71.125 16.942789
71.130 17.413534
71.135 17.634596
71.140 17.723682
71.145 18.408348
71.150 19.259029
71.155 19.724239
71.160 20.401999
71.165 20.296684
71.170 20.7143
71.175 20.672195
71.180 20.148602
71.185 19.794168
71.190 19.031609
71.195 18.061869
71.200 17.718018
71.205 17.670181
71.210 17.798435
71.215 17.630991
71.220 17.346148
71.225 17.197248
71.230 17.344814
71.235 17.627138
71.240 17.739235
71.245 18.325083
71.250 19.011475
71.255 19.541826
71.260 20.360977
71.265 21.362881
71.270 21.393623
71.275 21.720339
71.280 21.418018
71.285 21.246328
71.290 21.430683
71.295 21.246061
71.300 19.921886
71.305 19.31591
71.310 19.187641
71.315 19.393642
71.320 19.507959
71.325 18.799486
71.330 18.204165
71.335 18.678543
71.340 18.790285
71.345 18.460629
71.350 18.073429
71.355 18.492004
71.360 18.643152
71.365 18.59408
71.370 18.444599
71.375 18.349916
71.380 18.077534
71.385 18.135557
71.390 17.952599
71.395 18.039455
71.400 19.003044
71.405 18.917572
71.410 19.630905
71.415 20.147442
71.420 20.074192
71.425 19.81753
71.430 19.512926
71.435 19.840099
71.440 19.875013
71.445 19.507837
71.450 19.605864
71.455 19.825609
71.460 19.97007
71.465 20.440434
71.470 20.294146
71.475 19.79178
71.480 19.745405
71.485 19.979357
71.490 19.688131
71.495 19.467625
71.500 18.533426
71.505 17.84059
71.510 17.364483
71.515 16.831425
71.520 16.099991
71.525 16.200315
71.530 16.072151
71.535 16.696199
71.540 16.562824
71.545 16.751305
71.550 17.083492
71.555 17.752022
71.560 18.023758
71.565 17.558212
71.570 17.056843
71.575 17.79348
71.580 17.477934
71.585 17.424122
71.590 17.203323
71.595 17.198036
71.600 17.630424
71.605 17.645893
71.610 17.692883
71.615 17.922556
71.620 18.074173
71.625 17.981379
71.630 18.389078
71.635 18.054607
71.640 18.376461
71.645 18.299221
71.650 17.493343
71.655 17.323044
71.660 17.69047
71.665 17.72204
71.670 17.964209
71.675 17.723019
71.680 18.241323
71.685 19.104559
71.690 19.407522
71.695 19.425051
71.700 19.286203
71.705 19.85762
71.710 19.667187
71.715 19.801666
71.720 19.357506
71.725 18.017887
71.730 17.635612
71.735 17.643133
71.740 17.177818
71.745 17.008818
71.750 16.740189
71.755 16.456009
71.760 17.103905
71.765 17.2017
71.770 17.477367
71.775 17.92485
71.780 18.196795
71.785 18.109741
71.790 18.07946
71.795 18.223076
71.800 18.35598
71.805 18.273827
71.810 18.200106
71.815 17.883278
71.820 17.768744
71.825 17.961481
71.830 17.984926
71.835 17.601786
71.840 16.799795
71.845 17.001463
71.850 17.261953
71.855 17.142656
71.860 17.139381
71.865 16.888329
71.870 16.860378
71.875 17.357969
71.880 17.301695
71.885 17.570366
71.890 18.501421
71.895 18.571552
71.900 18.563469
71.905 18.80567
71.910 18.658554
71.915 18.953888
71.920 19.046577
71.925 19.08247
71.930 18.990862
71.935 19.052034
71.940 18.944181
71.945 18.795397
71.950 18.230818
71.955 18.011333
71.960 18.04744
71.965 18.032835
71.970 18.414898
71.975 18.974415
71.980 19.106878
71.985 19.497566
71.990 19.362379
71.995 19.157957
72.000 18.759989
72.005 18.448311
72.010 17.857346
72.015 18.312239
72.020 18.509491
72.025 18.208118
72.030 17.883289
72.035 18.055408
72.040 18.186621
72.045 18.447201
72.050 18.220905
72.055 17.922705
72.060 18.139227
72.065 18.213697
72.070 18.378946
72.075 18.317284
72.080 17.949736
72.085 17.75503
72.090 18.519852
72.095 18.829172
72.100 18.989481
72.105 18.914087
72.110 18.854919
72.115 18.306242
72.120 18.361895
72.125 18.132814
72.130 18.285831
72.135 18.323446
72.140 18.713671
72.145 18.332336
72.150 18.67235
72.155 18.546309
72.160 18.770948
72.165 18.899473
72.170 18.965275
72.175 18.964756
72.180 19.75355
72.185 19.628363
72.190 19.800436
72.195 19.835455
72.200 19.629313
72.205 19.61902
72.210 19.893272
72.215 19.464645
72.220 19.233076
72.225 18.934565
72.230 18.483643
72.235 18.274132
72.240 17.946243
72.245 17.384159
72.250 17.389736
72.255 17.182375
72.260 16.776749
72.265 17.023685
72.270 17.084673
72.275 17.104254
72.280 17.450495
72.285 17.916212
72.290 18.379038
72.295 18.128017
72.300 17.617657
72.305 17.55966
72.310 17.039522
72.315 17.529724
72.320 17.804861
72.325 17.483313
72.330 17.539816
72.335 18.156956
72.340 18.449757
72.345 18.611387
72.350 18.111237
72.355 17.86305
72.360 18.820286
72.365 19.650162
72.370 19.450201
72.375 19.721554
72.380 19.780787
72.385 19.892694
72.390 19.864174
72.395 18.993877
72.400 18.358257
72.405 18.20022
72.410 18.197927
72.415 18.196564
72.420 17.637993
72.425 17.197767
72.430 17.528852
72.435 17.402155
72.440 17.399578
72.445 17.160248
72.450 17.28631
72.455 17.817528
72.460 18.058466
72.465 18.295115
72.470 18.719971
72.475 18.574373
72.480 18.572876
72.485 18.823565
72.490 19.065527
72.495 18.724421
72.500 18.417208
72.505 18.278297
72.510 18.254782
72.515 18.08618
72.520 18.105961
72.525 18.603132
72.530 18.759996
72.535 18.850529
72.540 19.226374
72.545 19.465242
72.550 19.600573
72.555 19.133749
72.560 19.232618
72.565 19.20216
72.570 19.220097
72.575 18.935625
72.580 18.637936
72.585 18.82863
72.590 18.572922
72.595 18.47434
72.600 18.812223
72.605 18.843819
72.610 18.927584
72.615 18.834089
72.620 18.691507
72.625 19.146511
72.630 19.384527
72.635 19.482288
72.640 19.21172
72.645 19.445686
72.650 19.32128
72.655 19.582239
72.660 19.185448
72.665 18.806448
72.670 18.465305
72.675 18.581873
72.680 18.622278
72.685 18.598412
72.690 18.065542
72.695 17.540791
72.700 17.118397
72.705 16.886234
72.710 16.6199
72.715 16.404287
72.720 16.139898
72.725 16.198175
72.730 16.302755
72.735 16.489799
72.740 16.444998
72.745 16.82851
72.750 16.705961
72.755 16.66128
72.760 16.86977
72.765 16.949356
72.770 17.035801
72.775 16.74403
72.780 16.63131
72.785 16.744268
72.790 16.926001
72.795 16.672312
72.800 16.868647
72.805 17.048018
72.810 16.973679
72.815 17.148804
72.820 17.099142
72.825 17.312237
72.830 17.040636
72.835 16.933235
72.840 17.143888
72.845 16.815086
72.850 16.975109
72.855 17.222372
72.860 17.440798
72.865 17.356682
72.870 17.440979
72.875 17.279604
72.880 17.210125
72.885 17.159616
72.890 17.156904
72.895 16.900675
72.900 17.231419
72.905 16.841337
72.910 17.094385
72.915 16.794447
72.920 16.57802
72.925 15.855365
72.930 15.527021
72.935 15.382522
72.940 15.785111
72.945 15.71935
72.950 15.733077
72.955 16.155838
72.960 16.823204
72.965 16.243847
72.970 16.431803
72.975 16.178148
72.980 16.379051
72.985 16.051281
72.990 16.130705
72.995 16.934896
73.000 17.39484
