!@!!GADDS PLOTSO FILE: Chi integration type
!@!!Title/SampleName: map-4a
!@!!Comment: ?
!@!!User: Bruker Instrument Administrator
!@!!Site: University of Illinois Chicago
!@!!Frame: map-4a_01_000.gfrm
!@!!Wavelengths    1.54184   1.54056   1.54439
!@!!Frame angles: 2Theta: 63.000 Omega: 50.000 Phi: 0.000 Chi: 90.000
!@!!Integration range: 2Theta: 53.000 to 73.000  Gamma: -105.000 to -75.000
!@!!Integration method: bin normalized
!@!N
!@!SS
!@!M
!@!L 0.0 0.0 0.0 0.0
!@!XDegrees
!@!YCounts
53.000 9.229193
53.005 8.993787
53.010 8.675014
53.015 8.336614
53.020 8.221355
53.025 8.129687
53.030 8.276731
53.035 8.470082
53.040 9.036537
53.045 9.587819
53.050 9.749128
53.055 10.006652
53.060 10.064016
53.065 9.743611
53.070 9.254519
53.075 9.172839
53.080 8.988573
53.085 8.697811
53.090 8.478534
53.095 8.59222
53.100 9.224151
53.105 9.517886
53.110 9.651508
53.115 10.035588
53.120 10.239048
53.125 9.620331
53.130 9.37443
53.135 9.321959
53.140 9.131708
53.145 8.781073
53.150 8.96647
53.155 9.33344
53.160 9.842843
53.165 10.422651
53.170 10.654463
53.175 10.681911
53.180 10.658726
53.185 11.003623
53.190 10.865355
53.195 11.012806
53.200 10.669186
53.205 10.260927
53.210 10.40279
53.215 10.346655
53.220 9.862291
53.225 9.496675
53.230 8.893288
53.235 9.278893
53.240 9.528401
53.245 9.414802
53.250 9.201449
53.255 9.219769
53.260 9.620025
53.265 9.711551
53.270 9.829488
53.275 10.017952
53.280 10.197093
53.285 10.448518
53.290 10.523385
53.295 10.517874
53.300 10.217204
53.305 9.600223
53.310 9.589804
53.315 9.168888
53.320 9.191422
53.325 9.223512
53.330 9.430107
53.335 9.837339
53.340 9.657105
53.345 9.582685
53.350 9.765922
53.355 9.62674
53.360 9.496891
53.365 9.021724
53.370 9.081633
53.375 9.525777
53.380 9.448152
53.385 10.050153
53.390 9.958015
53.395 10.233993
53.400 10.363895
53.405 9.837464
53.410 10.005836
53.415 9.937059
53.420 9.559535
53.425 9.525796
53.430 9.38732
53.435 9.430838
53.440 9.989554
53.445 10.153117
53.450 9.91223
53.455 10.332994
53.460 10.589535
53.465 10.698991
53.470 10.889302
53.475 10.158588
53.480 9.859468
53.485 10.106472
53.490 10.168687
53.495 10.143437
53.500 10.408129
53.505 10.412361
53.510 10.506791
53.515 10.996125
53.520 10.622313
53.525 10.597591
53.530 10.146361
53.535 9.729015
53.540 9.552221
53.545 9.72549
53.550 9.60194
53.555 9.827449
53.560 9.910724
53.565 10.220399
53.570 10.497598
53.575 10.449435
53.580 10.616466
53.585 10.318357
53.590 10.18154
53.595 10.39228
53.600 10.229011
53.605 10.508448
53.610 10.630523
53.615 10.526976
53.620 10.549905
53.625 10.534285
53.630 10.418136
53.635 10.295691
53.640 9.840816
53.645 9.692716
53.650 9.380128
53.655 9.544478
53.660 9.415475
53.665 9.391129
53.670 9.563982
53.675 10.022857
53.680 10.25419
53.685 10.421029
53.690 10.691468
53.695 10.976498
53.700 11.193505
53.705 11.342692
53.710 11.059836
53.715 10.946417
53.720 10.907303
53.725 10.331198
53.730 10.049903
53.735 9.429715
53.740 9.395418
53.745 8.988024
53.750 8.869974
53.755 9.255002
53.760 9.392141
53.765 9.499374
53.770 9.454391
53.775 9.669782
53.780 10.194397
53.785 10.208641
53.790 10.220655
53.795 10.793858
53.800 10.943839
53.805 11.122556
53.810 11.340277
53.815 11.398396
53.820 11.851186
53.825 11.913363
53.830 11.976551
53.835 12.015996
53.840 11.725219
53.845 10.720846
53.850 10.559113
53.855 10.303908
53.860 9.542292
53.865 9.782867
53.870 10.154885
53.875 10.477813
53.880 10.643939
53.885 10.391113
53.890 10.176308
53.895 10.650462
53.900 10.575041
53.905 10.227962
53.910 10.290855
53.915 10.574152
53.920 10.780119
53.925 10.627881
53.930 10.439589
53.935 9.985655
53.940 10.311988
53.945 10.401777
53.950 10.360239
53.955 10.298062
53.960 10.412919
53.965 10.384088
53.970 10.798875
53.975 10.495921
53.980 10.345803
53.985 10.290461
53.990 10.593015
53.995 10.598286
54.000 10.370131
54.005 9.818968
54.010 10.363778
54.015 10.453966
54.020 10.381418
54.025 10.336811
54.030 10.201579
54.035 10.109824
54.040 10.120933
54.045 9.86562
54.050 10.07373
54.055 9.902387
54.060 9.67651
54.065 9.615561
54.070 9.948613
54.075 9.990949
54.080 10.116332
54.085 10.041937
54.090 10.164601
54.095 10.695507
54.100 10.812414
54.105 10.846781
54.110 10.734751
54.115 10.738223
54.120 10.627009
54.125 10.669179
54.130 10.381239
54.135 10.357246
54.140 10.2843
54.145 10.392601
54.150 10.71656
54.155 11.024869
54.160 10.830309
54.165 11.183811
54.170 11.617263
54.175 11.756928
54.180 11.819305
54.185 11.709176
54.190 11.84531
54.195 12.026128
54.200 12.007689
54.205 12.097435
54.210 12.005206
54.215 11.589482
54.220 11.174824
54.225 11.053699
54.230 11.165617
54.235 11.134758
54.240 10.793048
54.245 10.909717
54.250 11.318214
54.255 11.425992
54.260 10.99079
54.265 10.147544
54.270 9.980348
54.275 10.345653
54.280 10.192721
54.285 10.084628
54.290 10.380988
54.295 10.642101
54.300 10.936465
54.305 10.948844
54.310 10.828711
54.315 10.892212
54.320 10.783435
54.325 10.977136
54.330 11.153494
54.335 11.169319
54.340 10.842613
54.345 10.899241
54.350 11.23978
54.355 11.216448
54.360 11.187504
54.365 11.085166
54.370 10.567817
54.375 10.58472
54.380 10.323068
54.385 10.546462
54.390 10.933704
54.395 11.054748
54.400 11.374615
54.405 11.071774
54.410 10.943755
54.415 11.120437
54.420 10.530727
54.425 10.289778
54.430 10.357424
54.435 11.087775
54.440 11.809509
54.445 12.190062
54.450 12.10678
54.455 12.090662
54.460 11.940595
54.465 11.190865
54.470 10.581652
54.475 10.704419
54.480 10.307372
54.485 10.014272
54.490 10.470714
54.495 10.930024
54.500 11.351366
54.505 11.417665
54.510 11.698932
54.515 12.019918
54.520 12.145409
54.525 11.451987
54.530 11.161264
54.535 10.978562
54.540 10.795473
54.545 10.336897
54.550 10.258118
54.555 10.759855
54.560 11.275445
54.565 11.125689
54.570 11.155845
54.575 11.518228
54.580 11.643923
54.585 11.390739
54.590 10.677705
54.595 10.65487
54.600 10.854594
54.605 11.040656
54.610 10.512158
54.615 10.051587
54.620 10.294244
54.625 10.602354
54.630 10.431629
54.635 10.09704
54.640 10.085603
54.645 10.392641
54.650 10.570187
54.655 10.56722
54.660 10.545115
54.665 10.602734
54.670 10.648284
54.675 9.950248
54.680 10.036117
54.685 10.182279
54.690 10.031784
54.695 10.021524
54.700 10.121116
54.705 10.529096
54.710 11.123178
54.715 11.117602
54.720 11.049526
54.725 11.318622
54.730 11.358389
54.735 11.868505
54.740 12.291295
54.745 12.895347
54.750 12.867751
54.755 12.576811
54.760 12.821157
54.765 12.856876
54.770 12.94947
54.775 12.60672
54.780 12.243602
54.785 12.785954
54.790 12.723514
54.795 12.428964
54.800 12.684939
54.805 12.379389
54.810 12.256824
54.815 12.658349
54.820 12.512039
54.825 12.733225
54.830 12.577322
54.835 12.233752
54.840 12.107851
54.845 12.445446
54.850 12.156355
54.855 12.068378
54.860 12.00701
54.865 11.691937
54.870 11.462481
54.875 11.394088
54.880 11.630931
54.885 11.621441
54.890 11.639394
54.895 11.817764
54.900 12.391681
54.905 12.801393
54.910 12.965596
54.915 12.524916
54.920 13.107924
54.925 13.610952
54.930 13.313322
54.935 13.199063
54.940 12.978049
54.945 12.933327
54.950 13.173655
54.955 12.683904
54.960 12.433861
54.965 12.356762
54.970 11.723429
54.975 11.397039
54.980 11.435559
54.985 11.690275
54.990 11.952331
54.995 11.790359
55.000 11.858591
55.005 12.297992
55.010 12.773458
55.015 12.669661
55.020 12.599344
55.025 12.566689
55.030 12.704816
55.035 13.231956
55.040 13.377989
55.045 13.024055
55.050 12.640308
55.055 12.074975
55.060 12.276868
55.065 12.181077
55.070 11.370757
55.075 10.6554
55.080 10.096591
55.085 9.847404
55.090 9.84003
55.095 9.305085
55.100 9.620866
55.105 9.912135
55.110 10.358987
55.115 11.051755
55.120 11.774711
55.125 12.101456
55.130 12.264297
55.135 12.660022
55.140 13.129941
55.145 13.223525
55.150 12.782747
55.155 12.34376
55.160 12.444774
55.165 12.436237
55.170 11.816362
55.175 11.50532
55.180 11.919972
55.185 12.114846
55.190 12.015198
55.195 12.036382
55.200 12.346507
55.205 12.990022
55.210 13.099357
55.215 12.620885
55.220 12.9821
55.225 13.120696
55.230 12.636931
55.235 11.806069
55.240 11.37923
55.245 11.178194
55.250 11.307802
55.255 11.332263
55.260 11.843813
55.265 12.166392
55.270 12.069858
55.275 12.665174
55.280 12.910631
55.285 13.079169
55.290 13.003934
55.295 12.890817
55.300 13.207169
55.305 13.33501
55.310 12.336556
55.315 11.991294
55.320 12.094623
55.325 11.481173
55.330 10.818288
55.335 10.175628
55.340 10.314492
55.345 10.904414
55.350 10.853934
55.355 10.266934
55.360 10.560224
55.365 10.78896
55.370 11.124734
55.375 11.054447
55.380 11.188567
55.385 11.209123
55.390 11.480061
55.395 11.265514
55.400 11.668701
55.405 11.869245
55.410 12.005572
55.415 11.833112
55.420 11.595902
55.425 12.390594
55.430 12.625678
55.435 12.008339
55.440 11.937765
55.445 12.408929
55.450 13.071577
55.455 13.585237
55.460 12.944744
55.465 13.177262
55.470 13.317163
55.475 13.453846
55.480 13.047341
55.485 12.313186
55.490 12.321411
55.495 12.08409
55.500 11.916289
55.505 12.61394
55.510 12.41686
55.515 12.56264
55.520 12.623875
55.525 12.432921
55.530 12.490419
55.535 12.011337
55.540 11.628884
55.545 11.624893
55.550 11.584159
55.555 11.824041
55.560 11.692635
55.565 11.705282
55.570 12.012243
55.575 12.11531
55.580 11.79855
55.585 11.437415
55.590 11.765095
55.595 11.898584
55.600 12.13165
55.605 12.049835
55.610 11.954322
55.615 11.689212
55.620 11.939742
55.625 12.152621
55.630 12.473212
55.635 12.576414
55.640 12.578994
55.645 12.590754
55.650 12.9562
55.655 12.590024
55.660 12.338047
55.665 12.084874
55.670 12.132778
55.675 11.878525
55.680 11.880705
55.685 11.905724
55.690 11.807631
55.695 11.565693
55.700 11.522057
55.705 11.49644
55.710 11.801191
55.715 11.650056
55.720 11.666802
55.725 11.790873
55.730 12.017819
55.735 12.304543
55.740 12.640876
55.745 13.299684
55.750 13.521609
55.755 13.555775
55.760 13.21068
55.765 13.228374
55.770 12.862947
55.775 12.132546
55.780 11.498139
55.785 11.273993
55.790 11.37879
55.795 11.770514
55.800 11.789603
55.805 12.031082
55.810 12.480642
55.815 12.81505
55.820 12.885261
55.825 12.878754
55.830 12.741947
55.835 13.11257
55.840 13.588335
55.845 13.509741
55.850 14.079748
55.855 13.820979
55.860 13.401427
55.865 13.465881
55.870 12.899567
55.875 12.789428
55.880 12.296275
55.885 11.887045
55.890 12.160673
55.895 12.499684
55.900 12.480968
55.905 12.599676
55.910 12.537135
55.915 12.809438
55.920 13.089876
55.925 12.797795
55.930 12.263938
55.935 11.865726
55.940 11.2356
55.945 12.042897
55.950 12.016981
55.955 11.96629
55.960 12.241505
55.965 12.795686
55.970 13.113773
55.975 12.945024
55.980 12.351086
55.985 12.580866
55.990 12.532386
55.995 12.318127
56.000 12.033875
56.005 12.300797
56.010 12.369619
56.015 11.979171
56.020 11.609909
56.025 12.196856
56.030 12.812016
56.035 12.743554
56.040 12.847493
56.045 13.104297
56.050 13.11107
56.055 13.253806
56.060 12.631939
56.065 12.269267
56.070 12.229041
56.075 11.946807
56.080 12.218035
56.085 12.326362
56.090 11.786664
56.095 12.127268
56.100 12.177455
56.105 12.20609
56.110 11.716217
56.115 11.305568
56.120 11.244576
56.125 11.504683
56.130 11.15317
56.135 11.32265
56.140 11.755392
56.145 12.41583
56.150 12.49277
56.155 12.960741
56.160 13.269137
56.165 13.38656
56.170 13.18903
56.175 12.809278
56.180 12.530794
56.185 12.523929
56.190 12.714878
56.195 12.719783
56.200 13.004397
56.205 13.071828
56.210 13.344456
56.215 13.002278
56.220 13.234302
56.225 13.285414
56.230 13.355692
56.235 13.776168
56.240 14.159233
56.245 14.902184
56.250 15.265298
56.255 14.871973
56.260 14.644468
56.265 14.343799
56.270 13.956609
56.275 13.671807
56.280 12.704394
56.285 12.657828
56.290 12.847077
56.295 12.733988
56.300 12.792502
56.305 12.835248
56.310 12.662939
56.315 13.071287
56.320 12.96721
56.325 12.604058
56.330 12.18651
56.335 12.475151
56.340 12.290328
56.345 12.652021
56.350 12.520174
56.355 12.041611
56.360 12.298689
56.365 12.388032
56.370 11.900213
56.375 11.700521
56.380 11.605978
56.385 12.004265
56.390 12.196593
56.395 12.534434
56.400 12.865535
56.405 13.648648
56.410 13.857077
56.415 14.024804
56.420 14.036623
56.425 14.104816
56.430 14.053712
56.435 13.647717
56.440 13.584352
56.445 13.832565
56.450 13.220801
56.455 13.092772
56.460 13.285532
56.465 13.544985
56.470 13.716621
56.475 13.028094
56.480 12.831404
56.485 13.140585
56.490 13.77437
56.495 13.58289
56.500 13.315072
56.505 13.591432
56.510 14.348844
56.515 14.658607
56.520 14.611416
56.525 14.258698
56.530 14.193198
56.535 14.20563
56.540 14.048729
56.545 13.25932
56.550 12.833848
56.555 13.383904
56.560 13.788496
56.565 13.433568
56.570 13.048257
56.575 13.073274
56.580 13.245676
56.585 13.332005
56.590 12.850614
56.595 12.5436
56.600 12.581512
56.605 12.615057
56.610 13.396015
56.615 13.845614
56.620 13.503139
56.625 13.160771
56.630 13.098847
56.635 13.381516
56.640 13.45632
56.645 12.892776
56.650 13.070253
56.655 13.955617
56.660 14.074105
56.665 14.681237
56.670 15.098515
56.675 14.963002
56.680 14.57906
56.685 14.359583
56.690 14.170277
56.695 14.137393
56.700 13.82653
56.705 13.408074
56.710 13.474639
56.715 13.745511
56.720 13.227759
56.725 13.227172
56.730 13.180031
56.735 13.338202
56.740 13.727754
56.745 13.824031
56.750 13.987676
56.755 14.179561
56.760 14.568421
56.765 15.0909
56.770 15.013711
56.775 14.900434
56.780 15.080968
56.785 15.223163
56.790 15.435725
56.795 15.072933
56.800 14.534781
56.805 14.084881
56.810 13.944331
56.815 13.646684
56.820 13.228782
56.825 13.110492
56.830 13.239675
56.835 12.96073
56.840 12.987754
56.845 12.773743
56.850 12.935627
56.855 13.103868
56.860 12.501654
56.865 12.240228
56.870 12.955844
56.875 13.208172
56.880 13.139841
56.885 13.786381
56.890 13.925744
56.895 14.440842
56.900 14.664857
56.905 14.90412
56.910 14.99363
56.915 15.434115
56.920 15.141053
56.925 15.469832
56.930 15.39386
56.935 15.275374
56.940 14.879991
56.945 14.476278
56.950 14.002482
56.955 13.723047
56.960 13.861677
56.965 13.754601
56.970 13.787017
56.975 13.891518
56.980 14.049475
56.985 14.324619
56.990 14.244387
56.995 13.814239
57.000 14.070319
57.005 14.535177
57.010 14.877295
57.015 15.044286
57.020 14.516514
57.025 14.647704
57.030 14.584991
57.035 14.169498
57.040 13.089156
57.045 12.703088
57.050 12.564704
57.055 12.231394
57.060 11.977981
57.065 12.532743
57.070 12.956475
57.075 13.176142
57.080 12.760982
57.085 12.26727
57.090 12.711033
57.095 12.548321
57.100 12.17925
57.105 12.178644
57.110 13.233685
57.115 14.105436
57.120 14.625894
57.125 15.113711
57.130 15.391884
57.135 15.619371
57.140 15.06445
57.145 15.129618
57.150 15.687618
57.155 15.466577
57.160 15.373745
57.165 15.331979
57.170 15.213504
57.175 15.603514
57.180 14.862826
57.185 14.445235
57.190 14.692084
57.195 14.634501
57.200 14.557414
57.205 14.581261
57.210 14.248841
57.215 13.34918
57.220 13.04896
57.225 12.868015
57.230 12.596009
57.235 12.53781
57.240 12.563705
57.245 13.300961
57.250 14.29715
57.255 14.534331
57.260 14.33041
57.265 14.209327
57.270 14.306737
57.275 14.179646
57.280 14.31951
57.285 13.876552
57.290 14.007218
57.295 13.956788
57.300 14.143414
57.305 14.393506
57.310 14.130032
57.315 13.47078
57.320 13.586047
57.325 13.493585
57.330 13.405467
57.335 13.383135
57.340 13.629086
57.345 13.781701
57.350 14.034822
57.355 13.854964
57.360 14.518647
57.365 14.706209
57.370 14.561882
57.375 14.585386
57.380 14.512364
57.385 14.548345
57.390 14.600603
57.395 14.04131
57.400 13.847853
57.405 13.636171
57.410 13.174435
57.415 13.241264
57.420 13.610037
57.425 13.49051
57.430 14.215535
57.435 15.008865
57.440 15.262893
57.445 15.210203
57.450 14.965071
57.455 14.70999
57.460 14.558578
57.465 14.133449
57.470 13.620463
57.475 13.762756
57.480 13.791003
57.485 13.727365
57.490 13.617437
57.495 13.959823
57.500 13.901942
57.505 13.795108
57.510 13.844469
57.515 14.49702
57.520 14.941126
57.525 14.82547
57.530 14.946333
57.535 14.544878
57.540 14.54927
57.545 14.031586
57.550 13.221678
57.555 13.4465
57.560 13.364299
57.565 12.645819
57.570 13.010752
57.575 13.473709
57.580 14.063601
57.585 14.075727
57.590 13.52856
57.595 13.641733
57.600 14.306053
57.605 14.630959
57.610 14.364951
57.615 14.512857
57.620 14.898413
57.625 15.026731
57.630 15.455518
57.635 15.525604
57.640 15.329554
57.645 16.013956
57.650 16.255424
57.655 16.202799
57.660 16.382114
57.665 16.085278
57.670 15.656791
57.675 15.668379
57.680 14.935957
57.685 14.447627
57.690 14.550056
57.695 14.51368
57.700 14.783627
57.705 15.120723
57.710 15.136377
57.715 15.653073
57.720 16.052174
57.725 15.891183
57.730 15.818513
57.735 15.954966
57.740 16.522186
57.745 16.370449
57.750 15.942907
57.755 15.941507
57.760 16.490238
57.765 16.957994
57.770 16.877487
57.775 16.697926
57.780 17.037701
57.785 17.137308
57.790 17.608793
57.795 17.30283
57.800 16.968023
57.805 16.768164
57.810 16.579458
57.815 15.851902
57.820 15.66656
57.825 15.32379
57.830 15.474406
57.835 16.131226
57.840 16.170321
57.845 16.055325
57.850 16.235071
57.855 15.835607
57.860 15.307546
57.865 15.385895
57.870 15.001332
57.875 14.584965
57.880 14.833328
57.885 15.082138
57.890 15.662663
57.895 16.101532
57.900 15.975408
57.905 15.899296
57.910 16.103786
57.915 16.229212
57.920 16.776567
57.925 16.530058
57.930 16.289404
57.935 16.582895
57.940 17.036163
57.945 17.809137
57.950 17.744473
57.955 17.362528
57.960 17.503017
57.965 17.346157
57.970 16.991199
57.975 16.688084
57.980 16.562311
57.985 16.687418
57.990 16.823292
57.995 16.777
58.000 16.691584
58.005 16.95228
58.010 17.52491
58.015 16.82789
58.020 16.195267
58.025 16.025114
58.030 16.699429
58.035 17.200144
58.040 16.673452
58.045 15.983667
58.050 16.384247
58.055 17.019415
58.060 17.171524
58.065 17.190939
58.070 17.194571
58.075 17.293922
58.080 17.206093
58.085 16.859108
58.090 16.12578
58.095 15.19107
58.100 14.463597
58.105 14.662115
58.110 14.731831
58.115 14.904602
58.120 15.446859
58.125 16.236498
58.130 16.459854
58.135 16.355612
58.140 15.816509
58.145 15.86225
58.150 16.188463
58.155 16.531582
58.160 16.448107
58.165 17.283186
58.170 17.849661
58.175 17.92098
58.180 17.636261
58.185 17.158678
58.190 17.006001
58.195 17.379942
58.200 17.301844
58.205 17.74029
58.210 17.797733
58.215 18.612637
58.220 19.17996
58.225 18.812946
58.230 18.668777
58.235 18.833223
58.240 19.066988
58.245 19.270969
58.250 19.415581
58.255 19.322771
58.260 19.648886
58.265 19.758959
58.270 19.234993
58.275 18.761116
58.280 18.799795
58.285 18.194292
58.290 18.264986
58.295 18.055428
58.300 17.925962
58.305 18.458815
58.310 18.460981
58.315 18.468512
58.320 18.899086
58.325 19.645201
58.330 20.01774
58.335 20.184429
58.340 19.481491
58.345 20.326147
58.350 21.518496
58.355 21.46797
58.360 21.124411
58.365 21.02803
58.370 20.969404
58.375 21.322966
58.380 21.625179
58.385 20.829052
58.390 20.617657
58.395 21.162741
58.400 21.514908
58.405 21.864929
58.410 22.086342
58.415 21.785156
58.420 22.718731
58.425 22.658955
58.430 22.743504
58.435 23.631077
58.440 24.493307
58.445 25.20175
58.450 25.483269
58.455 25.510489
58.460 26.831902
58.465 26.711893
58.470 26.665131
58.475 26.213102
58.480 26.1651
58.485 25.96003
58.490 25.866493
58.495 25.680796
58.500 25.62281
58.505 26.47352
58.510 27.637524
58.515 28.120956
58.520 28.90324
58.525 30.051342
58.530 31.16482
58.535 32.108833
58.540 31.915323
58.545 31.480579
58.550 31.330275
58.555 31.840324
58.560 32.811039
58.565 33.161263
58.570 33.636215
58.575 34.291943
58.580 34.900002
58.585 35.245457
58.590 35.684959
58.595 36.213032
58.600 36.84182
58.605 37.153111
58.610 37.462879
58.615 38.087597
58.620 38.355782
58.625 38.017429
58.630 37.186378
58.635 36.981602
58.640 36.792542
58.645 36.304352
58.650 35.771347
58.655 36.19791
58.660 36.474304
58.665 35.997005
58.670 35.046638
58.675 34.600327
58.680 35.26215
58.685 35.702023
58.690 35.864697
58.695 36.226818
58.700 36.704247
58.705 37.165272
58.710 37.603924
58.715 37.032913
58.720 36.501778
58.725 35.481766
58.730 34.649418
58.735 34.596756
58.740 34.322929
58.745 34.033424
58.750 34.324982
58.755 34.789223
58.760 35.524628
58.765 34.952278
58.770 34.828793
58.775 34.136021
58.780 33.400543
58.785 32.481419
58.790 31.950256
58.795 31.629036
58.800 31.683374
58.805 31.805752
58.810 32.152225
58.815 31.928787
58.820 32.095974
58.825 31.750429
58.830 30.841644
58.835 29.192923
58.840 27.976286
58.845 27.526764
58.850 26.909918
58.855 26.518507
58.860 25.599556
58.865 25.654617
58.870 26.126362
58.875 25.967327
58.880 25.533001
58.885 25.342554
58.890 24.881128
58.895 25.030947
58.900 24.131857
58.905 23.620787
58.910 23.528452
58.915 23.277409
58.920 22.388693
58.925 21.931391
58.930 21.639288
58.935 22.01446
58.940 21.747881
58.945 21.742783
58.950 21.655073
58.955 21.769291
58.960 21.660818
58.965 21.602602
58.970 20.906712
58.975 20.452684
58.980 19.160297
58.985 19.180069
58.990 19.201052
58.995 19.180479
59.000 19.115948
59.005 19.566675
59.010 19.792521
59.015 20.337534
59.020 20.005428
59.025 19.850439
59.030 19.50691
59.035 19.11212
59.040 18.492344
59.045 18.442774
59.050 18.450558
59.055 18.677195
59.060 18.327019
59.065 18.282532
59.070 18.36854
59.075 18.410172
59.080 17.932699
59.085 18.14262
59.090 17.596098
59.095 18.049208
59.100 18.158297
59.105 18.014187
59.110 18.037289
59.115 17.904299
59.120 17.775793
59.125 17.514988
59.130 17.228819
59.135 16.840548
59.140 16.116835
59.145 15.989104
59.150 15.498388
59.155 15.124464
59.160 15.556676
59.165 15.759079
59.170 15.87987
59.175 16.428188
59.180 16.643419
59.185 16.932369
59.190 17.480103
59.195 17.612644
59.200 17.721537
59.205 17.820543
59.210 18.014603
59.215 17.803631
59.220 17.565609
59.225 16.960354
59.230 16.49947
59.235 16.077026
59.240 16.100456
59.245 16.172424
59.250 15.742023
59.255 15.912488
59.260 16.067776
59.265 16.31661
59.270 16.035034
59.275 15.545979
59.280 15.120316
59.285 15.168191
59.290 14.977376
59.295 15.079196
59.300 14.98846
59.305 15.379197
59.310 15.714972
59.315 15.840716
59.320 16.273731
59.325 16.396105
59.330 16.00341
59.335 15.978884
59.340 15.829635
59.345 15.411308
59.350 15.180264
59.355 15.129227
59.360 15.184232
59.365 14.808207
59.370 14.792183
59.375 14.981784
59.380 15.781287
59.385 16.451794
59.390 17.360168
59.395 17.298903
59.400 17.596382
59.405 17.394558
59.410 17.224909
59.415 17.217863
59.420 16.514156
59.425 15.152387
59.430 15.663088
59.435 15.868968
59.440 16.373819
59.445 16.523811
59.450 16.647938
59.455 16.973553
59.460 17.180878
59.465 17.072456
59.470 17.055874
59.475 16.968531
59.480 16.650471
59.485 15.735606
59.490 15.68175
59.495 15.100524
59.500 14.755909
59.505 14.611017
59.510 14.424699
59.515 14.539134
59.520 15.059077
59.525 15.513465
59.530 15.914618
59.535 15.586092
59.540 15.598042
59.545 15.47983
59.550 15.879397
59.555 15.834608
59.560 15.505492
59.565 15.12977
59.570 15.337739
59.575 15.558165
59.580 15.258651
59.585 15.129193
59.590 15.254112
59.595 16.105875
59.600 16.702835
59.605 16.540239
59.610 16.584991
59.615 17.021217
59.620 17.025234
59.625 16.717091
59.630 15.794398
59.635 15.798558
59.640 16.065365
59.645 16.071856
59.650 16.05265
59.655 15.426323
59.660 15.493759
59.665 15.960747
59.670 15.655409
59.675 15.338741
59.680 15.694833
59.685 15.585687
59.690 15.959926
59.695 15.810987
59.700 16.225965
59.705 16.547132
59.710 17.246298
59.715 17.08252
59.720 17.099659
59.725 17.315119
59.730 17.564348
59.735 17.116316
59.740 16.939857
59.745 16.434345
59.750 16.388664
59.755 16.525137
59.760 16.398903
59.765 16.028175
59.770 15.541388
59.775 15.786798
59.780 15.671457
59.785 15.652537
59.790 15.882783
59.795 16.428379
59.800 16.839785
59.805 17.030489
59.810 16.542435
59.815 16.82707
59.820 16.938028
59.825 16.30477
59.830 15.367238
59.835 15.051779
59.840 14.86152
59.845 15.05739
59.850 14.689113
59.855 14.435378
59.860 14.63702
59.865 14.766877
59.870 14.569997
59.875 14.617702
59.880 14.071981
59.885 13.866429
59.890 13.841137
59.895 13.805356
59.900 14.165548
59.905 14.462468
59.910 14.233869
59.915 14.462007
59.920 15.103173
59.925 15.885165
59.930 15.908915
59.935 15.803217
59.940 16.168875
59.945 16.346899
59.950 16.186552
59.955 15.765825
59.960 15.395696
59.965 16.034136
59.970 16.013147
59.975 15.538525
59.980 15.705728
59.985 16.227644
59.990 16.74748
59.995 16.409077
60.000 15.457166
60.005 15.058161
60.010 14.981915
60.015 14.986521
60.020 14.504557
60.025 14.279389
60.030 14.736337
60.035 14.656322
60.040 14.877231
60.045 15.107267
60.050 15.072686
60.055 14.977306
60.060 14.914433
60.065 15.150255
60.070 15.125578
60.075 15.165652
60.080 15.17479
60.085 15.176683
60.090 15.479829
60.095 15.727344
60.100 16.112522
60.105 16.660044
60.110 16.776106
60.115 16.765265
60.120 16.97682
60.125 16.135521
60.130 14.93741
60.135 14.241535
60.140 14.301342
60.145 14.924927
60.150 14.915663
60.155 14.595032
60.160 15.056283
60.165 15.567168
60.170 15.719584
60.175 15.444824
60.180 15.023584
60.185 15.349427
60.190 16.464296
60.195 16.80265
60.200 17.02264
60.205 17.402809
60.210 17.068338
60.215 17.135668
60.220 16.652937
60.225 15.931887
60.230 15.635683
60.235 14.843025
60.240 14.697227
60.245 15.008581
60.250 14.779058
60.255 14.856967
60.260 15.123965
60.265 15.333492
60.270 15.909994
60.275 15.694235
60.280 15.647482
60.285 15.643897
60.290 15.372638
60.295 15.793797
60.300 15.6879
60.305 15.493663
60.310 15.963697
60.315 16.259693
60.320 16.096355
60.325 16.353306
60.330 16.267155
60.335 16.311268
60.340 16.305614
60.345 15.703233
60.350 15.653069
60.355 15.876255
60.360 16.051336
60.365 16.077997
60.370 16.389051
60.375 16.480059
60.380 16.875965
60.385 17.039652
60.390 17.477718
60.395 17.421141
60.400 16.861132
60.405 17.150145
60.410 17.51325
60.415 17.438265
60.420 17.058407
60.425 17.056059
60.430 17.723825
60.435 18.180515
60.440 17.702263
60.445 17.562887
60.450 17.622126
60.455 17.394691
60.460 16.708677
60.465 15.882411
60.470 15.948902
60.475 16.481527
60.480 16.278877
60.485 16.052202
60.490 16.465696
60.495 16.722542
60.500 16.490623
60.505 16.099054
60.510 15.702762
60.515 15.48489
60.520 15.644522
60.525 15.525571
60.530 15.338942
60.535 14.987898
60.540 15.163618
60.545 15.098411
60.550 15.287225
60.555 15.273597
60.560 15.166854
60.565 15.408098
60.570 16.052456
60.575 15.89079
60.580 16.098524
60.585 16.503098
60.590 17.016727
60.595 17.466499
60.600 16.993605
60.605 17.058084
60.610 16.685305
60.615 16.189617
60.620 15.675561
60.625 15.199356
60.630 14.709351
60.635 15.005845
60.640 14.953653
60.645 15.7051
60.650 16.069572
60.655 16.21731
60.660 16.241322
60.665 16.512768
60.670 16.37101
60.675 16.155043
60.680 15.921279
60.685 15.876104
60.690 15.400272
60.695 15.456246
60.700 15.501785
60.705 15.769676
60.710 15.544779
60.715 15.182453
60.720 15.054571
60.725 15.049412
60.730 15.040674
60.735 14.849611
60.740 14.880284
60.745 14.776607
60.750 14.843568
60.755 15.173809
60.760 15.676762
60.765 15.698525
60.770 15.836498
60.775 15.865376
60.780 16.102776
60.785 16.537432
60.790 16.408978
60.795 15.848255
60.800 15.80753
60.805 15.825059
60.810 15.970773
60.815 15.989032
60.820 16.049946
60.825 16.067266
60.830 16.186594
60.835 16.184975
60.840 16.35442
60.845 16.538679
60.850 16.630371
60.855 16.982763
60.860 17.24341
60.865 17.074539
60.870 16.889463
60.875 16.670135
60.880 16.424286
60.885 15.970675
60.890 15.507459
60.895 15.642513
60.900 15.920014
60.905 16.719702
60.910 16.670944
60.915 16.588017
60.920 17.305984
60.925 17.318714
60.930 17.1353
60.935 17.237915
60.940 16.10508
60.945 15.873913
60.950 15.628907
60.955 15.082287
60.960 15.000838
60.965 15.494308
60.970 15.423124
60.975 16.017754
60.980 16.465199
60.985 16.324224
60.990 16.059149
60.995 15.856573
61.000 15.852663
61.005 15.904907
61.010 15.84773
61.015 15.102683
61.020 14.669804
61.025 14.953155
61.030 15.006937
61.035 14.750256
61.040 15.169045
61.045 15.174446
61.050 15.600487
61.055 15.84365
61.060 15.809094
61.065 15.708102
61.070 15.175231
61.075 14.351884
61.080 14.32645
61.085 14.440688
61.090 14.822544
61.095 15.118153
61.100 15.108553
61.105 15.516262
61.110 16.423262
61.115 16.811167
61.120 16.64403
61.125 16.660572
61.130 17.145464
61.135 17.588718
61.140 17.628597
61.145 17.356243
61.150 16.988836
61.155 16.814323
61.160 16.392599
61.165 15.548595
61.170 15.202996
61.175 15.335411
61.180 15.653587
61.185 16.07185
61.190 16.441168
61.195 16.562464
61.200 16.928595
61.205 17.714323
61.210 17.141573
61.215 16.506638
61.220 16.774551
61.225 17.028944
61.230 17.263641
61.235 17.277428
61.240 17.433977
61.245 18.267887
61.250 18.72538
61.255 18.167086
61.260 18.087391
61.265 18.309919
61.270 17.989845
61.275 17.175934
61.280 16.535278
61.285 16.194494
61.290 16.089169
61.295 16.056421
61.300 16.276318
61.305 16.32626
61.310 16.011505
61.315 15.67083
61.320 16.236092
61.325 16.445713
61.330 16.594494
61.335 16.520041
61.340 16.327271
61.345 16.738855
61.350 17.434731
61.355 17.574427
61.360 17.986012
61.365 17.774502
61.370 17.852184
61.375 18.168186
61.380 18.477787
61.385 18.322548
61.390 17.66028
61.395 16.76375
61.400 16.566692
61.405 16.656252
61.410 16.641392
61.415 15.769453
61.420 15.168213
61.425 14.954249
61.430 15.909868
61.435 16.097364
61.440 16.051376
61.445 16.113539
61.450 16.351786
61.455 16.581583
61.460 16.86858
61.465 17.079618
61.470 17.170374
61.475 16.576048
61.480 16.264294
61.485 16.605457
61.490 16.600861
61.495 16.326145
61.500 15.658888
61.505 15.077287
61.510 15.308217
61.515 15.463367
61.520 15.426834
61.525 15.766546
61.530 16.502783
61.535 16.890305
61.540 17.085169
61.545 16.734335
61.550 17.131645
61.555 17.301773
61.560 17.029375
61.565 16.836519
61.570 16.44652
61.575 15.858748
61.580 16.407198
61.585 16.364191
61.590 16.137753
61.595 15.723838
61.600 15.536935
61.605 16.015188
61.610 16.484562
61.615 16.552822
61.620 16.092999
61.625 15.957962
61.630 16.076691
61.635 16.028254
61.640 15.991357
61.645 15.920006
61.650 15.437727
61.655 15.575772
61.660 16.029602
61.665 15.879933
61.670 15.952565
61.675 15.882669
61.680 15.649865
61.685 15.81952
61.690 16.200443
61.695 16.134966
61.700 16.476851
61.705 16.516565
61.710 17.056026
61.715 17.50621
61.720 17.484692
61.725 17.060806
61.730 16.730003
61.735 16.929407
61.740 16.834782
61.745 16.414291
61.750 16.065805
61.755 16.386625
61.760 16.136728
61.765 15.688793
61.770 15.114717
61.775 15.357855
61.780 15.107559
61.785 15.379028
61.790 15.383973
61.795 15.332871
61.800 15.691357
61.805 15.366026
61.810 15.27208
61.815 15.650716
61.820 15.341886
61.825 15.392076
61.830 16.045954
61.835 16.57091
61.840 16.804922
61.845 16.988276
61.850 17.143909
61.855 17.234076
61.860 17.311214
61.865 17.440586
61.870 17.997738
61.875 18.410566
61.880 18.354965
61.885 18.150301
61.890 19.029835
61.895 19.051624
61.900 18.688568
61.905 18.156616
61.910 17.397135
61.915 17.012836
61.920 17.294586
61.925 16.810562
61.930 16.559973
61.935 16.829685
61.940 17.216991
61.945 17.766798
61.950 18.011074
61.955 17.961712
61.960 18.086285
61.965 17.932812
61.970 17.755819
61.975 17.875124
61.980 17.984972
61.985 17.705318
61.990 17.388195
61.995 17.203083
62.000 16.953304
62.005 16.714664
62.010 16.3736
62.015 15.921803
62.020 16.139578
62.025 16.168623
62.030 16.437714
62.035 17.055233
62.040 17.327812
62.045 17.223967
62.050 17.546127
62.055 17.161028
62.060 17.032223
62.065 16.772577
62.070 16.579847
62.075 16.311699
62.080 16.939644
62.085 17.0583
62.090 17.518486
62.095 18.086794
62.100 18.148317
62.105 18.075239
62.110 17.866552
62.115 17.252897
62.120 17.431473
62.125 16.841564
62.130 16.555035
62.135 16.987169
62.140 16.780479
62.145 16.624056
62.150 16.004381
62.155 15.596682
62.160 16.341442
62.165 16.749065
62.170 17.51502
62.175 18.376667
62.180 18.993664
62.185 19.346865
62.190 19.204714
62.195 18.298759
62.200 17.363317
62.205 16.101881
62.210 14.993728
62.215 14.961518
62.220 15.588766
62.225 16.161339
62.230 16.774784
62.235 17.165102
62.240 17.589739
62.245 18.174847
62.250 17.705433
62.255 17.349619
62.260 16.87381
62.265 16.547579
62.270 16.414812
62.275 16.213636
62.280 15.827119
62.285 15.782352
62.290 15.652771
62.295 15.701553
62.300 15.440918
62.305 15.110315
62.310 15.044012
62.315 14.82793
62.320 14.880317
62.325 14.80384
62.330 15.021093
62.335 15.234552
62.340 15.69554
62.345 16.155893
62.350 17.101406
62.355 17.171173
62.360 17.098112
62.365 17.202703
62.370 17.413219
62.375 17.680578
62.380 17.365149
62.385 17.004284
62.390 17.179556
62.395 17.111807
62.400 17.545595
62.405 17.721842
62.410 17.352055
62.415 17.28141
62.420 17.191002
62.425 17.112829
62.430 17.303904
62.435 17.099667
62.440 17.365353
62.445 17.819567
62.450 18.59062
62.455 19.301207
62.460 20.002016
62.465 19.973562
62.470 19.757681
62.475 19.70438
62.480 19.648895
62.485 19.616301
62.490 19.762119
62.495 19.421259
62.500 19.469698
62.505 19.340067
62.510 19.086329
62.515 18.786953
62.520 17.688532
62.525 17.014767
62.530 16.58004
62.535 16.262991
62.540 16.224274
62.545 16.301517
62.550 16.587915
62.555 16.942114
62.560 16.440315
62.565 16.275208
62.570 16.349169
62.575 16.518764
62.580 16.648857
62.585 16.452757
62.590 16.987801
62.595 17.662394
62.600 18.632105
62.605 19.144489
62.610 19.289392
62.615 19.263147
62.620 19.043745
62.625 18.872023
62.630 18.730082
62.635 18.086327
62.640 17.562443
62.645 17.395679
62.650 17.341364
62.655 17.742756
62.660 17.112091
62.665 16.98535
62.670 17.253273
62.675 17.501028
62.680 17.444456
62.685 17.378281
62.690 17.313837
62.695 17.422079
62.700 17.227343
62.705 16.959343
62.710 16.405191
62.715 16.086525
62.720 16.035339
62.725 15.742352
62.730 15.212078
62.735 15.29182
62.740 15.534939
62.745 15.742648
62.750 15.660811
62.755 15.693929
62.760 15.593139
62.765 16.500566
62.770 16.523668
62.775 16.352299
62.780 16.409924
62.785 17.108837
62.790 17.502369
62.795 18.243557
62.800 17.863567
62.805 17.661972
62.810 17.732098
62.815 17.47121
62.820 17.054594
62.825 16.453072
62.830 15.965712
62.835 15.700221
62.840 15.812949
62.845 16.1085
62.850 16.124809
62.855 15.982933
62.860 16.437288
62.865 16.472591
62.870 16.732195
62.875 16.697811
62.880 17.156134
62.885 17.235041
62.890 16.815353
62.895 16.367018
62.900 16.245682
62.905 16.166702
62.910 15.950446
62.915 15.768319
62.920 15.51999
62.925 15.754704
62.930 15.994711
62.935 16.200705
62.940 16.248018
62.945 15.837054
62.950 15.894583
62.955 16.279345
62.960 16.443022
62.965 16.170139
62.970 16.16054
62.975 17.228451
62.980 17.535227
62.985 17.422993
62.990 17.725216
62.995 17.649166
63.000 17.708851
63.005 17.099047
63.010 16.515366
63.015 16.479324
63.020 16.343409
63.025 16.265553
63.030 16.427109
63.035 16.603664
63.040 17.319626
63.045 17.34095
63.050 17.52866
63.055 17.28327
63.060 16.900169
63.065 16.855944
63.070 16.756817
63.075 16.261292
63.080 16.293974
63.085 16.191862
63.090 16.39159
63.095 16.77861
63.100 16.58783
63.105 16.901691
63.110 17.395254
63.115 17.106579
63.120 17.206823
63.125 16.998758
63.130 17.125402
63.135 17.302788
63.140 16.939236
63.145 16.356339
63.150 16.298265
63.155 15.99922
63.160 16.322361
63.165 16.30459
63.170 16.351198
63.175 17.341915
63.180 17.690289
63.185 17.927839
63.190 18.020752
63.195 18.083237
63.200 18.481966
63.205 18.208786
63.210 16.989239
63.215 17.282722
63.220 17.547306
63.225 17.225792
63.230 16.966604
63.235 16.92211
63.240 17.585304
63.245 17.999897
63.250 17.401695
63.255 17.260735
63.260 17.747025
63.265 17.894922
63.270 17.670238
63.275 17.345335
63.280 18.189365
63.285 18.838186
63.290 19.328213
63.295 19.32198
63.300 19.540627
63.305 19.335667
63.310 19.505064
63.315 18.966131
63.320 18.293003
63.325 18.146433
63.330 18.113503
63.335 18.128181
63.340 17.856663
63.345 17.560619
63.350 17.413698
63.355 17.602608
63.360 17.570715
63.365 17.472755
63.370 17.592901
63.375 17.56436
63.380 17.438999
63.385 17.405926
63.390 17.183311
63.395 16.963718
63.400 16.880684
63.405 17.10553
63.410 17.459728
63.415 17.467049
63.420 17.342436
63.425 17.420509
63.430 17.241421
63.435 17.267206
63.440 16.75248
63.445 16.897678
63.450 17.688684
63.455 18.122589
63.460 19.117096
63.465 19.770506
63.470 19.782522
63.475 19.947365
63.480 19.652765
63.485 18.737677
63.490 19.204792
63.495 18.625229
63.500 18.118315
63.505 18.450668
63.510 18.8223
63.515 19.281668
63.520 19.302813
63.525 18.683361
63.530 18.81255
63.535 19.224571
63.540 18.932667
63.545 18.460735
63.550 17.535366
63.555 17.872648
63.560 17.763945
63.565 17.531487
63.570 17.287754
63.575 16.690063
63.580 16.468458
63.585 17.301508
63.590 17.152935
63.595 17.155403
63.600 16.966406
63.605 16.986776
63.610 17.052179
63.615 17.501606
63.620 17.123014
63.625 17.511122
63.630 17.329405
63.635 17.719122
63.640 17.426449
63.645 17.42717
63.650 17.140448
63.655 17.240597
63.660 16.877754
63.665 17.20001
63.670 17.520632
63.675 17.954451
63.680 18.771111
63.685 19.322098
63.690 19.485579
63.695 19.832703
63.700 19.302029
63.705 18.745733
63.710 18.802694
63.715 17.937885
63.720 17.529905
63.725 17.266747
63.730 16.779268
63.735 16.637527
63.740 17.048815
63.745 17.027441
63.750 17.20631
63.755 17.253532
63.760 17.703596
63.765 18.344099
63.770 18.491564
63.775 18.182678
63.780 18.460146
63.785 18.518726
63.790 18.677313
63.795 18.685848
63.800 18.721443
63.805 18.733303
63.810 18.522596
63.815 18.475414
63.820 18.285725
63.825 18.452118
63.830 18.182461
63.835 18.353954
63.840 19.036188
63.845 19.602119
63.850 19.682259
63.855 19.515652
63.860 19.327671
63.865 19.236881
63.870 19.206835
63.875 18.943111
63.880 18.76269
63.885 18.557108
63.890 19.208052
63.895 19.494349
63.900 20.080256
63.905 19.474316
63.910 19.202961
63.915 19.176952
63.920 19.671875
63.925 19.036434
63.930 18.66431
63.935 18.343597
63.940 18.807947
63.945 19.090645
63.950 19.171686
63.955 18.967583
63.960 19.909327
63.965 20.233377
63.970 20.330206
63.975 20.721218
63.980 21.721416
63.985 22.486534
63.990 22.905296
63.995 23.121395
64.000 23.395542
64.005 23.842609
64.010 24.514315
64.015 24.611273
64.020 24.590487
64.025 24.818634
64.030 24.509577
64.035 24.975771
64.040 25.024086
64.045 24.791655
64.050 24.634735
64.055 24.960424
64.060 24.332355
64.065 24.731913
64.070 25.283363
64.075 25.642727
64.080 25.747269
64.085 26.032747
64.090 26.077242
64.095 27.18873
64.100 27.457327
64.105 27.051523
64.110 26.836023
64.115 27.09366
64.120 27.267023
64.125 26.704073
64.130 26.67886
64.135 26.983871
64.140 27.121908
64.145 28.184635
64.150 28.899261
64.155 29.560047
64.160 31.281614
64.165 32.036816
64.170 32.343075
64.175 32.612495
64.180 32.119076
64.185 32.569321
64.190 33.361916
64.195 33.516209
64.200 33.933907
64.205 34.272232
64.210 34.734631
64.215 34.812592
64.220 34.907066
64.225 35.982342
64.230 37.113655
64.235 37.880478
64.240 38.082825
64.245 39.189617
64.250 40.260532
64.255 41.460674
64.260 41.116501
64.265 41.149422
64.270 41.601147
64.275 42.589607
64.280 41.970863
64.285 42.405617
64.290 42.339832
64.295 42.890526
64.300 43.031841
64.305 43.295998
64.310 43.850754
64.315 44.270203
64.320 44.787987
64.325 45.684921
64.330 45.859848
64.335 45.349396
64.340 44.459805
64.345 44.601746
64.350 45.636719
64.355 45.908833
64.360 45.913467
64.365 46.16951
64.370 47.150948
64.375 47.738457
64.380 47.913647
64.385 47.651569
64.390 47.467117
64.395 47.350376
64.400 47.437859
64.405 47.277317
64.410 47.451405
64.415 47.098701
64.420 47.146378
64.425 46.90588
64.430 46.691376
64.435 46.980343
64.440 46.643452
64.445 46.591408
64.450 46.528362
64.455 46.832428
64.460 46.765873
64.465 45.829929
64.470 45.651474
64.475 45.10535
64.480 44.566311
64.485 44.073101
64.490 43.7584
64.495 44.673347
64.500 45.547474
64.505 44.495773
64.510 44.579697
64.515 44.382591
64.520 43.568157
64.525 43.101662
64.530 42.112606
64.535 41.228168
64.540 41.293781
64.545 40.88829
64.550 41.096375
64.555 41.030018
64.560 41.44183
64.565 41.780514
64.570 40.84594
64.575 40.419804
64.580 39.436039
64.585 39.245461
64.590 39.427502
64.595 37.685059
64.600 36.423019
64.605 36.748608
64.610 36.88031
64.615 37.178337
64.620 36.421967
64.625 36.065559
64.630 35.852482
64.635 35.042793
64.640 33.728107
64.645 33.339256
64.650 32.838215
64.655 31.932415
64.660 31.326069
64.665 30.387213
64.670 30.173729
64.675 29.821663
64.680 29.117144
64.685 28.694019
64.690 28.476421
64.695 27.568521
64.700 27.504858
64.705 27.397192
64.710 27.113733
64.715 27.286148
64.720 27.263626
64.725 27.037472
64.730 27.796154
64.735 28.20616
64.740 27.765638
64.745 27.179251
64.750 26.257875
64.755 25.655582
64.760 25.227505
64.765 24.375879
64.770 24.410799
64.775 24.137428
64.780 24.234356
64.785 23.972408
64.790 23.513056
64.795 23.573072
64.800 23.389402
64.805 22.942816
64.810 22.710394
64.815 22.683765
64.820 23.204157
64.825 24.256065
64.830 24.685415
64.835 25.080099
64.840 25.114429
64.845 24.90123
64.850 23.982643
64.855 23.729042
64.860 23.524559
64.865 22.167091
64.870 21.105614
64.875 20.898144
64.880 21.03269
64.885 21.122793
64.890 20.546713
64.895 19.916409
64.900 21.182959
64.905 22.215389
64.910 23.031401
64.915 23.800318
64.920 23.7512
64.925 24.702965
64.930 24.773521
64.935 24.860146
64.940 24.569408
64.945 24.138088
64.950 24.162758
64.955 24.453732
64.960 24.175682
64.965 24.749235
64.970 25.174583
64.975 25.110659
64.980 25.506599
64.985 26.533894
64.990 26.9333
64.995 27.586079
65.000 27.847891
65.005 27.567507
65.010 27.786234
65.015 27.812082
65.020 28.665861
65.025 28.796995
65.030 28.621384
65.035 29.000769
65.040 28.90642
65.045 29.36908
65.050 29.465614
65.055 28.437796
65.060 28.393505
65.065 28.612875
65.070 28.619413
65.075 29.895594
65.080 30.297409
65.085 30.456839
65.090 31.7297
65.095 33.137882
65.100 33.50808
65.105 33.620228
65.110 33.849659
65.115 34.329155
65.120 34.21048
65.125 33.852612
65.130 33.963947
65.135 33.586315
65.140 33.832127
65.145 33.287674
65.150 33.157539
65.155 33.454922
65.160 33.566048
65.165 33.088608
65.170 33.074093
65.175 32.942078
65.180 32.954479
65.185 33.288647
65.190 33.418694
65.195 33.473122
65.200 34.146858
65.205 34.481384
65.210 34.574398
65.215 34.22821
65.220 33.817039
65.225 34.079006
65.230 33.78907
65.235 33.311386
65.240 34.116489
65.245 34.884319
65.250 34.790924
65.255 34.650288
65.260 34.713264
65.265 35.714958
65.270 36.423656
65.275 36.396217
65.280 36.279346
65.285 37.034248
65.290 37.249134
65.295 37.407471
65.300 36.775421
65.305 35.784634
65.310 35.718803
65.315 35.336525
65.320 35.141624
65.325 35.285641
65.330 35.120399
65.335 35.425297
65.340 36.2383
65.345 36.010948
65.350 36.422085
65.355 36.971619
65.360 37.150158
65.365 37.380322
65.370 37.572701
65.375 37.174957
65.380 36.80418
65.385 37.067543
65.390 37.612526
65.395 38.051197
65.400 37.393436
65.405 37.558781
65.410 38.506508
65.415 39.391811
65.420 39.226349
65.425 38.86599
65.430 38.462887
65.435 38.317051
65.440 37.682568
65.445 37.198284
65.450 36.634392
65.455 36.430168
65.460 36.924801
65.465 37.339191
65.470 37.907101
65.475 38.941845
65.480 38.988426
65.485 39.403095
65.490 39.967018
65.495 39.448082
65.500 39.044476
65.505 39.42992
65.510 39.84816
65.515 40.188282
65.520 40.305149
65.525 39.870956
65.530 39.985577
65.535 40.512985
65.540 41.008179
65.545 40.59333
65.550 40.664631
65.555 41.102848
65.560 40.870335
65.565 41.003742
65.570 41.249115
65.575 41.227634
65.580 41.948887
65.585 42.108715
65.590 41.681671
65.595 41.235699
65.600 40.26366
65.605 40.269295
65.610 39.816498
65.615 38.014908
65.620 36.909729
65.625 37.567112
65.630 37.977844
65.635 37.9268
65.640 37.06023
65.645 36.711826
65.650 36.943752
65.655 36.64695
65.660 36.013443
65.665 36.425274
65.670 36.811661
65.675 37.505306
65.680 37.237469
65.685 36.819118
65.690 37.160313
65.695 37.842747
65.700 37.861908
65.705 37.243134
65.710 36.510044
65.715 36.490326
65.720 37.182354
65.725 36.911957
65.730 36.584869
65.735 36.177803
65.740 36.330376
65.745 36.503319
65.750 36.598362
65.755 36.655521
65.760 36.349792
65.765 35.748569
65.770 35.840672
65.775 35.736515
65.780 35.456791
65.785 35.501717
65.790 35.162861
65.795 35.347286
65.800 35.475628
65.805 35.648468
65.810 34.894558
65.815 34.710442
65.820 34.70092
65.825 34.971737
65.830 34.077862
65.835 33.222725
65.840 32.252483
65.845 32.288414
65.850 32.023487
65.855 30.772787
65.860 29.670082
65.865 29.587381
65.870 29.322598
65.875 29.431065
65.880 29.830257
65.885 29.892179
65.890 29.86445
65.895 30.561455
65.900 30.710049
65.905 30.36541
65.910 30.332153
65.915 29.728701
65.920 29.453011
65.925 29.054026
65.930 28.690645
65.935 28.25729
65.940 28.757668
65.945 27.959251
65.950 28.159819
65.955 28.117113
65.960 27.176382
65.965 26.459234
65.970 25.892843
65.975 25.564735
65.980 25.759853
65.985 25.469404
65.990 25.291582
65.995 25.581839
66.000 25.618118
66.005 25.851128
66.010 25.547762
66.015 25.209
66.020 24.693851
66.025 24.482065
66.030 24.997149
66.035 24.733604
66.040 24.287491
66.045 24.382162
66.050 24.627722
66.055 24.920389
66.060 24.528597
66.065 23.430994
66.070 23.855495
66.075 24.121426
66.080 24.174768
66.085 23.455927
66.090 23.091835
66.095 23.092726
66.100 23.586102
66.105 22.751648
66.110 22.565512
66.115 22.460314
66.120 22.088421
66.125 22.222237
66.130 21.342621
66.135 19.863102
66.140 19.989618
66.145 19.292007
66.150 19.07147
66.155 19.723967
66.160 20.03425
66.165 20.852272
66.170 21.097929
66.175 20.77384
66.180 21.221895
66.185 21.130219
66.190 20.732962
66.195 20.033445
66.200 20.148781
66.205 20.491274
66.210 20.750795
66.215 20.510771
66.220 20.487688
66.225 20.486103
66.230 20.958891
66.235 20.634085
66.240 20.914335
66.245 20.92737
66.250 20.684666
66.255 20.853146
66.260 20.487156
66.265 19.997549
66.270 20.77784
66.275 20.593208
66.280 19.932974
66.285 19.994221
66.290 19.485537
66.295 19.745647
66.300 19.884445
66.305 18.743244
66.310 18.849859
66.315 19.002272
66.320 18.978283
66.325 19.269823
66.330 18.919661
66.335 18.828671
66.340 19.233231
66.345 19.027452
66.350 19.269585
66.355 19.28466
66.360 19.568768
66.365 19.663204
66.370 20.153728
66.375 19.80233
66.380 20.127762
66.385 20.164316
66.390 19.740093
66.395 19.391768
66.400 19.355482
66.405 19.103973
66.410 18.827017
66.415 18.217615
66.420 18.54291
66.425 19.232874
66.430 19.496389
66.435 19.657019
66.440 19.940151
66.445 19.80228
66.450 19.831181
66.455 19.171665
66.460 18.610571
66.465 18.412169
66.470 18.250195
66.475 18.413771
66.480 19.316607
66.485 18.986427
66.490 18.889263
66.495 18.961473
66.500 18.650423
66.505 18.719492
66.510 18.297474
66.515 18.118689
66.520 18.51782
66.525 18.150026
66.530 18.241978
66.535 18.670429
66.540 18.42774
66.545 18.336815
66.550 18.056993
66.555 18.007076
66.560 18.184908
66.565 18.108858
66.570 18.270487
66.575 17.984186
66.580 17.915758
66.585 17.550154
66.590 17.939854
66.595 18.692667
66.600 18.368763
66.605 17.949978
66.610 18.710909
66.615 18.471674
66.620 18.851358
66.625 18.895168
66.630 18.886635
66.635 19.491474
66.640 19.236889
66.645 18.90122
66.650 19.036015
66.655 19.332964
66.660 19.47603
66.665 19.37739
66.670 19.226042
66.675 19.598093
66.680 19.604242
66.685 19.262625
66.690 18.615589
66.695 18.377041
66.700 17.966692
66.705 18.507343
66.710 18.455469
66.715 18.441742
66.720 18.540976
66.725 18.4342
66.730 18.321371
66.735 17.649584
66.740 16.891132
66.745 17.288055
66.750 18.167084
66.755 18.825481
66.760 19.037081
66.765 19.227182
66.770 20.231592
66.775 20.876339
66.780 20.876371
66.785 20.710352
66.790 20.771935
66.795 20.793505
66.800 20.655174
66.805 20.981699
66.810 20.499819
66.815 20.150183
66.820 19.442102
66.825 19.16263
66.830 19.261433
66.835 19.014891
66.840 18.046474
66.845 18.055622
66.850 18.097651
66.855 18.345276
66.860 18.324566
66.865 18.003841
66.870 18.319637
66.875 19.208305
66.880 19.725588
66.885 19.541321
66.890 18.900782
66.895 19.034508
66.900 19.476791
66.905 19.565115
66.910 18.744167
66.915 18.244503
66.920 18.254099
66.925 18.645464
66.930 18.237341
66.935 17.911636
66.940 17.775969
66.945 17.930311
66.950 18.12105
66.955 18.183146
66.960 18.283464
66.965 18.37425
66.970 18.102629
66.975 18.286757
66.980 17.807562
66.985 18.155857
66.990 18.345463
66.995 18.299896
67.000 18.335749
67.005 18.639721
67.010 18.487432
67.015 18.664129
67.020 18.229843
67.025 18.251495
67.030 18.359367
67.035 18.644226
67.040 18.609911
67.045 18.788872
67.050 18.433554
67.055 18.152403
67.060 17.915581
67.065 17.811956
67.070 17.192173
67.075 16.747683
67.080 16.934046
67.085 17.635689
67.090 17.947811
67.095 17.962116
67.100 18.206617
67.105 18.975786
67.110 19.900415
67.115 19.525234
67.120 19.615774
67.125 19.500856
67.130 19.369467
67.135 19.1521
67.140 18.918827
67.145 18.837297
67.150 18.892746
67.155 19.30242
67.160 19.739817
67.165 19.938509
67.170 20.322422
67.175 20.218615
67.180 20.199493
67.185 20.087559
67.190 19.730141
67.195 19.342663
67.200 19.349792
67.205 18.489777
67.210 18.019192
67.215 17.648872
67.220 17.564293
67.225 17.741341
67.230 17.928804
67.235 18.054148
67.240 18.607206
67.245 18.708082
67.250 19.039522
67.255 18.69931
67.260 18.716852
67.265 18.330103
67.270 19.008762
67.275 19.054316
67.280 20.001907
67.285 20.080919
67.290 20.479586
67.295 20.414015
67.300 20.94138
67.305 20.13699
67.310 20.013754
67.315 19.594376
67.320 19.777006
67.325 19.708818
67.330 19.511648
67.335 18.979717
67.340 19.353817
67.345 20.029263
67.350 20.016535
67.355 19.735538
67.360 19.886606
67.365 20.09296
67.370 20.04495
67.375 19.921076
67.380 19.561949
67.385 19.119362
67.390 18.522051
67.395 18.243624
67.400 18.449677
67.405 18.611835
67.410 18.176483
67.415 18.204517
67.420 18.999258
67.425 19.326313
67.430 19.487652
67.435 19.202017
67.440 18.899162
67.445 19.681253
67.450 19.276705
67.455 19.291754
67.460 18.962349
67.465 18.922533
67.470 18.355385
67.475 18.576773
67.480 18.12781
67.485 18.807922
67.490 18.611065
67.495 19.201633
67.500 19.770088
67.505 20.123337
67.510 20.221504
67.515 20.669153
67.520 20.582836
67.525 20.76001
67.530 20.934891
67.535 21.011524
67.540 21.323458
67.545 21.296453
67.550 20.973261
67.555 20.876936
67.560 20.581776
67.565 20.377304
67.570 20.015869
67.575 20.025192
67.580 19.818253
67.585 19.427631
67.590 18.721291
67.595 18.592869
67.600 17.809151
67.605 17.807846
67.610 17.464472
67.615 17.610666
67.620 17.988523
67.625 18.810974
67.630 19.24749
67.635 19.990011
67.640 20.437321
67.645 20.691399
67.650 20.750017
67.655 20.639868
67.660 20.27957
67.665 19.940651
67.670 20.073
67.675 20.066422
67.680 20.217319
67.685 20.12534
67.690 20.123745
67.695 19.442934
67.700 18.712854
67.705 17.864799
67.710 17.330774
67.715 17.325491
67.720 17.104433
67.725 17.44508
67.730 18.673481
67.735 19.2873
67.740 19.833757
67.745 19.728943
67.750 19.247311
67.755 19.255154
67.760 18.616995
67.765 18.335274
67.770 18.13475
67.775 18.259777
67.780 18.358339
67.785 18.510202
67.790 18.652433
67.795 19.002138
67.800 19.189795
67.805 18.709375
67.810 18.160908
67.815 18.131279
67.820 18.117266
67.825 17.699406
67.830 16.959942
67.835 17.191736
67.840 17.860188
67.845 18.078871
67.850 17.634756
67.855 17.649895
67.860 18.227613
67.865 18.776314
67.870 18.862274
67.875 19.253489
67.880 19.288025
67.885 19.851175
67.890 19.901062
67.895 19.473761
67.900 19.523458
67.905 18.902739
67.910 18.604136
67.915 18.835289
67.920 18.748478
67.925 18.796259
67.930 18.404676
67.935 18.046648
67.940 19.046164
67.945 19.292877
67.950 18.918285
67.955 18.226532
67.960 18.117542
67.965 18.9272
67.970 19.243959
67.975 19.00139
67.980 19.179487
67.985 19.66186
67.990 20.354376
67.995 20.574783
68.000 20.371464
68.005 19.905334
68.010 19.227938
68.015 19.159523
68.020 18.950787
68.025 18.446529
68.030 18.353647
68.035 18.151129
68.040 18.296818
68.045 17.949186
68.050 17.532801
68.055 17.960888
68.060 18.896463
68.065 18.790812
68.070 19.22875
68.075 18.943054
68.080 19.544203
68.085 20.141066
68.090 21.012497
68.095 20.711842
68.100 20.714481
68.105 21.109818
68.110 21.324047
68.115 21.907143
68.120 21.602251
68.125 20.948111
68.130 21.153353
68.135 21.022324
68.140 19.936316
68.145 20.020731
68.150 19.520357
68.155 19.298536
68.160 18.856859
68.165 18.301039
68.170 18.146879
68.175 19.372843
68.180 19.819477
68.185 19.938896
68.190 20.891317
68.195 21.226049
68.200 21.679199
68.205 21.940273
68.210 21.788561
68.215 22.069284
68.220 22.456722
68.225 22.471779
68.230 23.225573
68.235 23.454151
68.240 23.766333
68.245 24.349747
68.250 24.557768
68.255 24.264456
68.260 23.858219
68.265 24.034716
68.270 24.330442
68.275 24.661774
68.280 23.835871
68.285 23.415091
68.290 23.280148
68.295 23.090874
68.300 23.016834
68.305 22.939615
68.310 22.903433
68.315 23.634243
68.320 24.036093
68.325 24.295336
68.330 24.64715
68.335 24.751177
68.340 24.626139
68.345 24.63616
68.350 24.154127
68.355 23.902786
68.360 24.178371
68.365 24.252024
68.370 24.362896
68.375 24.664721
68.380 25.491667
68.385 25.640413
68.390 26.453196
68.395 26.932402
68.400 26.790085
68.405 26.475029
68.410 25.99313
68.415 25.877794
68.420 27.117771
68.425 27.031681
68.430 26.853798
68.435 27.045074
68.440 27.84374
68.445 28.816257
68.450 29.002029
68.455 28.839417
68.460 29.466591
68.465 29.95112
68.470 30.41975
68.475 30.286251
68.480 30.042185
68.485 30.697742
68.490 31.391556
68.495 31.401617
68.500 31.617456
68.505 31.501261
68.510 31.323467
68.515 31.428185
68.520 31.111935
68.525 30.880373
68.530 30.870335
68.535 31.36224
68.540 32.001675
68.545 31.767103
68.550 31.198444
68.555 31.44198
68.560 31.851707
68.565 31.840149
68.570 31.784716
68.575 31.389345
68.580 31.631132
68.585 31.979748
68.590 32.058491
68.595 31.917004
68.600 31.25808
68.605 31.108866
68.610 32.502953
68.615 33.172039
68.620 32.99934
68.625 32.655937
68.630 33.427593
68.635 34.290146
68.640 33.52021
68.645 32.23769
68.650 32.810043
68.655 32.939106
68.660 32.609245
68.665 32.099907
68.670 32.095383
68.675 33.413864
68.680 34.374287
68.685 34.144421
68.690 34.337334
68.695 34.79887
68.700 34.872414
68.705 34.999855
68.710 35.032677
68.715 34.957314
68.720 35.482613
68.725 35.497154
68.730 35.473644
68.735 36.071621
68.740 35.60001
68.745 35.396431
68.750 35.196289
68.755 34.614975
68.760 34.800468
68.765 34.829571
68.770 33.893635
68.775 33.656616
68.780 32.860832
68.785 32.868958
68.790 33.269058
68.795 33.742569
68.800 34.86554
68.805 35.523361
68.810 36.15065
68.815 36.656506
68.820 36.986488
68.825 36.492393
68.830 35.36615
68.835 34.467815
68.840 34.355682
68.845 34.295273
68.850 34.319405
68.855 34.104492
68.860 34.177975
68.865 34.13044
68.870 34.388618
68.875 34.690727
68.880 34.919605
68.885 34.355927
68.890 34.737904
68.895 35.579208
68.900 36.367065
68.905 36.158791
68.910 36.150928
68.915 35.712376
68.920 35.983593
68.925 35.976238
68.930 35.775322
68.935 35.184036
68.940 35.25304
68.945 35.469952
68.950 35.341965
68.955 34.354828
68.960 34.002262
68.965 33.82312
68.970 33.61343
68.975 33.147854
68.980 32.527954
68.985 32.285717
68.990 32.672909
68.995 31.83736
69.000 31.813917
69.005 31.2756
69.010 32.03664
69.015 31.796288
69.020 31.350403
69.025 31.031839
69.030 30.7831
69.035 29.884979
69.040 30.364092
69.045 29.944658
69.050 30.543201
69.055 31.123449
69.060 31.012119
69.065 30.783768
69.070 31.459221
69.075 31.291849
69.080 30.644171
69.085 30.65303
69.090 30.275515
69.095 30.429832
69.100 30.889408
69.105 30.440784
69.110 29.896507
69.115 29.872316
69.120 28.991762
69.125 29.00613
69.130 29.161901
69.135 28.340975
69.140 28.505419
69.145 27.872843
69.150 26.966988
69.155 26.672741
69.160 26.211353
69.165 25.990961
69.170 26.314808
69.175 26.154062
69.180 26.068283
69.185 26.50889
69.190 26.349689
69.195 25.813448
69.200 25.81848
69.205 25.435846
69.210 24.68243
69.215 24.977926
69.220 24.59189
69.225 24.394436
69.230 24.826239
69.235 24.29384
69.240 23.528532
69.245 22.698862
69.250 22.634241
69.255 22.804762
69.260 23.55204
69.265 23.250856
69.270 23.105431
69.275 23.503725
69.280 23.875397
69.285 23.733379
69.290 23.49799
69.295 22.91717
69.300 22.726269
69.305 22.977346
69.310 22.515278
69.315 22.313501
69.320 22.392839
69.325 22.593
69.330 22.892345
69.335 22.784277
69.340 21.926531
69.345 21.520714
69.350 21.517269
69.355 21.616268
69.360 20.859241
69.365 20.474413
69.370 20.974319
69.375 21.773754
69.380 22.402761
69.385 22.598927
69.390 22.788788
69.395 22.807802
69.400 22.231339
69.405 21.994583
69.410 21.784698
69.415 21.013819
69.420 20.885786
69.425 20.293652
69.430 20.518478
69.435 20.925865
69.440 20.891537
69.445 20.572018
69.450 19.9044
69.455 19.206211
69.460 19.669323
69.465 19.168331
69.470 18.593027
69.475 18.239553
69.480 18.325584
69.485 18.449467
69.490 18.881924
69.495 19.012192
69.500 18.958941
69.505 18.84738
69.510 18.834618
69.515 19.262197
69.520 19.311213
69.525 18.9058
69.530 18.780563
69.535 18.991817
69.540 19.087311
69.545 19.137081
69.550 19.186224
69.555 18.996473
69.560 19.072052
69.565 19.124102
69.570 19.979723
69.575 19.960375
69.580 19.594782
69.585 19.470959
69.590 19.472532
69.595 18.854589
69.600 18.442608
69.605 17.320248
69.610 17.32402
69.615 17.189091
69.620 16.802586
69.625 16.844946
69.630 17.306383
69.635 17.160324
69.640 18.177752
69.645 19.140732
69.650 19.547054
69.655 19.959839
69.660 20.17593
69.665 19.675425
69.670 19.671352
69.675 19.268478
69.680 18.756615
69.685 18.696482
69.690 18.611027
69.695 19.083614
69.700 19.942812
69.705 19.589731
69.710 19.033596
69.715 18.627693
69.720 18.615234
69.725 18.52165
69.730 18.305149
69.735 17.645395
69.740 17.691814
69.745 17.944031
69.750 17.711378
69.755 17.837484
69.760 17.978998
69.765 17.611116
69.770 17.743902
69.775 17.951204
69.780 17.987261
69.785 18.173559
69.790 18.110762
69.795 17.826448
69.800 17.879114
69.805 18.313168
69.810 18.521603
69.815 19.065495
69.820 19.38101
69.825 19.49264
69.830 19.759027
69.835 19.675962
69.840 19.556292
69.845 19.553486
69.850 19.226765
69.855 19.793962
69.860 20.004532
69.865 20.032179
69.870 20.498457
69.875 20.394808
69.880 19.958899
69.885 19.746748
69.890 18.549738
69.895 18.117193
69.900 17.675062
69.905 17.468517
69.910 17.653343
69.915 17.94688
69.920 18.001192
69.925 18.438257
69.930 18.524145
69.935 19.101788
69.940 19.51829
69.945 19.39813
69.950 19.088493
69.955 19.196489
69.960 19.163527
69.965 19.053436
69.970 17.986864
69.975 17.917845
69.980 18.230417
69.985 18.006287
69.990 17.943119
69.995 17.418831
70.000 18.011652
70.005 18.423721
70.010 18.106836
70.015 18.306204
70.020 18.403175
70.025 18.37974
70.030 18.373171
70.035 17.984383
70.040 17.945761
70.045 17.538969
70.050 17.360275
70.055 16.92325
70.060 16.775068
70.065 17.322903
70.070 17.220011
70.075 17.315739
70.080 17.304373
70.085 17.523006
70.090 18.375767
70.095 18.319559
70.100 18.507236
70.105 19.135811
70.110 19.100224
70.115 19.386723
70.120 19.356216
70.125 18.947866
70.130 19.431965
70.135 18.687874
70.140 18.188293
70.145 18.017841
70.150 17.74567
70.155 17.659416
70.160 17.613718
70.165 17.604729
70.170 18.045818
70.175 18.455566
70.180 18.906145
70.185 19.256981
70.190 19.336073
70.195 19.233244
70.200 18.812048
70.205 18.551786
70.210 18.30822
70.215 18.141344
70.220 18.211584
70.225 18.255657
70.230 18.187603
70.235 18.266304
70.240 18.269468
70.245 17.951002
70.250 17.786913
70.255 17.576391
70.260 18.035742
70.265 18.591152
70.270 18.274302
70.275 18.094448
70.280 17.719929
70.285 17.647184
70.290 17.844383
70.295 17.45726
70.300 17.404881
70.305 18.328289
70.310 18.8272
70.315 19.677046
70.320 19.712568
70.325 19.536657
70.330 19.364666
70.335 19.383139
70.340 19.226521
70.345 18.978115
70.350 18.633894
70.355 18.392416
70.360 18.15991
70.365 18.802271
70.370 18.436787
70.375 18.261154
70.380 18.351171
70.385 18.868433
70.390 19.41325
70.395 19.519096
70.400 19.022858
70.405 19.367363
70.410 19.558969
70.415 19.571531
70.420 18.913103
70.425 18.081196
70.430 18.225872
70.435 18.322041
70.440 18.286499
70.445 18.11124
70.450 17.763054
70.455 17.996937
70.460 18.197622
70.465 17.697706
70.470 18.205441
70.475 17.858667
70.480 17.900505
70.485 17.959171
70.490 18.244856
70.495 18.599142
70.500 18.627819
70.505 18.345884
70.510 18.791512
70.515 18.420925
70.520 18.110079
70.525 18.164297
70.530 18.169861
70.535 17.979856
70.540 17.9179
70.545 18.357302
70.550 18.757223
70.555 18.943272
70.560 19.337732
70.565 19.403677
70.570 19.329744
70.575 19.048744
70.580 18.828207
70.585 19.063904
70.590 19.171562
70.595 18.550949
70.600 19.110687
70.605 19.224106
70.610 19.150658
70.615 19.070923
70.620 18.813908
70.625 18.787392
70.630 18.344595
70.635 17.986492
70.640 17.834242
70.645 17.489122
70.650 17.038095
70.655 17.18338
70.660 16.985785
70.665 16.90889
70.670 16.958473
70.675 17.43885
70.680 17.780569
70.685 18.090477
70.690 18.670935
70.695 19.408552
70.700 19.992367
70.705 19.79425
70.710 19.457653
70.715 19.316572
70.720 19.214304
70.725 18.34157
70.730 17.488085
70.735 17.438726
70.740 17.265341
70.745 16.799959
70.750 16.183434
70.755 16.197777
70.760 16.522905
70.765 16.731218
70.770 16.245947
70.775 16.354424
70.780 17.087265
70.785 17.558151
70.790 17.34223
70.795 17.573887
70.800 17.856264
70.805 18.163361
70.810 18.271944
70.815 17.655079
70.820 17.556648
70.825 17.858194
70.830 17.569454
70.835 17.354649
70.840 17.152134
70.845 17.536562
70.850 17.937319
70.855 18.244837
70.860 17.948467
70.865 17.99435
70.870 18.475946
70.875 18.658989
70.880 18.578207
70.885 19.045654
70.890 19.236719
70.895 19.569859
70.900 19.569057
70.905 19.612917
70.910 19.347851
70.915 19.307888
70.920 18.969877
70.925 18.560226
70.930 18.175369
70.935 18.012506
70.940 17.792852
70.945 18.112774
70.950 18.066662
70.955 18.039474
70.960 17.741835
70.965 18.084993
70.970 18.724436
70.975 19.130577
70.980 19.042095
70.985 18.580893
70.990 18.398779
70.995 18.227663
71.000 17.854038
71.005 18.022774
71.010 18.017569
71.015 18.185511
71.020 19.051249
71.025 19.746185
71.030 19.903292
71.035 19.60058
71.040 19.438663
71.045 18.996014
71.050 19.144327
71.055 19.094627
71.060 19.367174
71.065 19.612726
71.070 19.601696
71.075 19.339874
71.080 19.5991
71.085 19.379274
71.090 18.957661
71.095 18.021694
71.100 17.408768
71.105 17.177584
71.110 16.746099
71.115 16.39843
71.120 16.0438
71.125 16.128313
71.130 16.466816
71.135 16.915089
71.140 17.159578
71.145 16.842669
71.150 17.007078
71.155 17.007025
71.160 17.651173
71.165 18.475821
71.170 18.673786
71.175 19.055786
71.180 20.177128
71.185 20.009827
71.190 20.034863
71.195 20.12631
71.200 19.494953
71.205 19.302647
71.210 19.743177
71.215 19.751638
71.220 19.744837
71.225 18.867813
71.230 18.485632
71.235 19.333347
71.240 19.324493
71.245 18.609529
71.250 17.933939
71.255 18.463116
71.260 18.8437
71.265 19.037331
71.270 18.527002
71.275 18.721436
71.280 18.261387
71.285 18.260832
71.290 18.112673
71.295 18.346745
71.300 18.137352
71.305 17.695662
71.310 17.362104
71.315 17.449062
71.320 17.072531
71.325 16.544752
71.330 16.154209
71.335 15.978613
71.340 15.751853
71.345 15.975917
71.350 15.727815
71.355 16.568584
71.360 16.839712
71.365 16.927464
71.370 16.718485
71.375 17.183277
71.380 17.553869
71.385 17.761816
71.390 17.621149
71.395 17.296093
71.400 18.017973
71.405 18.112829
71.410 17.919775
71.415 17.975422
71.420 17.443211
71.425 17.714777
71.430 17.864786
71.435 17.61434
71.440 17.896263
71.445 17.679462
71.450 17.851852
71.455 17.672428
71.460 17.025202
71.465 17.593891
71.470 17.545151
71.475 17.85869
71.480 17.514463
71.485 17.606541
71.490 18.278687
71.495 18.719622
71.500 17.930565
71.505 17.421799
71.510 17.368982
71.515 17.91058
71.520 17.535822
71.525 17.138353
71.530 17.172249
71.535 18.209164
71.540 19.30409
71.545 19.176355
71.550 19.338354
71.555 19.977236
71.560 19.934238
71.565 19.291706
71.570 18.265493
71.575 17.629162
71.580 17.824207
71.585 17.689653
71.590 17.446957
71.595 17.796677
71.600 18.182201
71.605 18.552727
71.610 18.870028
71.615 18.614826
71.620 18.348591
71.625 18.092579
71.630 17.720655
71.635 17.519978
71.640 17.200933
71.645 16.934263
71.650 17.437275
71.655 17.569887
71.660 17.541233
71.665 18.166916
71.670 18.32469
71.675 18.849199
71.680 18.671463
71.685 18.521738
71.690 18.821358
71.695 18.909286
71.700 18.700714
71.705 18.670525
71.710 18.272097
71.715 17.735844
71.720 17.694796
71.725 17.835236
71.730 17.896828
71.735 17.602058
71.740 17.547768
71.745 17.910189
71.750 18.245371
71.755 18.319513
71.760 18.18952
71.765 17.738829
71.770 18.395636
71.775 18.065426
71.780 18.053558
71.785 17.360529
71.790 17.314583
71.795 17.187565
71.800 17.352634
71.805 17.281849
71.810 17.984804
71.815 18.305901
71.820 18.714434
71.825 18.612074
71.830 19.235632
71.835 19.561071
71.840 18.993225
71.845 18.8741
71.850 18.916534
71.855 18.85462
71.860 18.715141
71.865 18.264036
71.870 18.357357
71.875 18.094448
71.880 17.406694
71.885 17.030653
71.890 16.573418
71.895 16.963226
71.900 16.397432
71.905 16.133442
71.910 16.03842
71.915 16.419275
71.920 16.453381
71.925 16.585098
71.930 16.563282
71.935 16.9851
71.940 17.421814
71.945 18.125233
71.950 18.92758
71.955 19.57663
71.960 19.566868
71.965 19.394045
71.970 19.252741
71.975 19.402514
71.980 19.244963
71.985 19.291958
71.990 19.420084
71.995 19.650352
72.000 20.404284
72.005 20.029242
72.010 19.49358
72.015 19.318485
72.020 19.100193
72.025 18.64514
72.030 18.465845
72.035 18.000135
72.040 18.769705
72.045 18.485048
72.050 18.140427
72.055 17.953728
72.060 17.999712
72.065 17.876959
72.070 17.44449
72.075 17.165707
72.080 17.308218
72.085 16.798567
72.090 16.70557
72.095 17.141394
72.100 16.986229
72.105 16.99155
72.110 16.674704
72.115 16.862434
72.120 18.147459
72.125 18.114468
72.130 17.538157
72.135 17.997332
72.140 18.062244
72.145 18.539879
72.150 18.517912
72.155 17.942913
72.160 18.387817
72.165 18.889765
72.170 18.520864
72.175 18.73192
72.180 18.475531
72.185 17.968336
72.190 18.111887
72.195 17.909384
72.200 17.947205
72.205 17.746614
72.210 17.5077
72.215 17.549154
72.220 17.327208
72.225 16.493231
72.230 16.706881
72.235 16.754566
72.240 17.537313
72.245 17.835297
72.250 18.098831
72.255 18.169462
72.260 18.541477
72.265 18.449495
72.270 18.377396
72.275 18.156347
72.280 18.126776
72.285 17.840061
72.290 17.983107
72.295 17.53948
72.300 17.19445
72.305 17.126629
72.310 16.838423
72.315 17.18906
72.320 17.504393
72.325 17.843773
72.330 18.10104
72.335 18.334524
72.340 18.276121
72.345 18.137424
72.350 18.240389
72.355 18.387939
72.360 18.575796
72.365 18.711197
72.370 18.264381
72.375 18.464609
72.380 18.950605
72.385 18.937155
72.390 18.61599
72.395 18.158842
72.400 17.954332
72.405 18.404272
72.410 18.372372
72.415 17.73279
72.420 17.378988
72.425 17.409515
72.430 17.161419
72.435 17.661474
72.440 17.457022
72.445 17.607761
72.450 18.004974
72.455 18.227034
72.460 18.477468
72.465 18.237495
72.470 17.539524
72.475 17.390499
72.480 16.969364
72.485 16.771988
72.490 16.411768
72.495 16.521168
72.500 16.954067
72.505 17.499157
72.510 17.384043
72.515 17.167667
72.520 17.61952
72.525 17.456959
72.530 17.193584
72.535 17.046925
72.540 16.963257
72.545 17.061625
72.550 16.878103
72.555 16.787018
72.560 16.813061
72.565 16.777697
72.570 16.977255
72.575 16.738098
72.580 16.777437
72.585 17.177797
72.590 17.304028
72.595 17.598461
72.600 17.334976
72.605 17.278454
72.610 17.199909
72.615 17.171368
72.620 16.877106
72.625 16.080359
72.630 16.366646
72.635 16.508087
72.640 16.362099
72.645 16.563095
72.650 16.46484
72.655 16.855694
72.660 16.906586
72.665 16.73934
72.670 16.914854
72.675 17.035164
72.680 16.902103
72.685 16.717659
72.690 17.034657
72.695 17.244457
72.700 17.320654
72.705 17.222784
72.710 17.323954
72.715 17.208784
72.720 17.477047
72.725 16.686777
72.730 16.913189
72.735 17.505705
72.740 17.332325
72.745 17.232864
72.750 17.307911
72.755 17.551455
72.760 17.120926
72.765 16.198059
72.770 15.565063
72.775 15.571588
72.780 15.558706
72.785 15.418985
72.790 15.977719
72.795 16.916616
72.800 17.434963
72.805 17.35219
72.810 17.43383
72.815 18.060652
72.820 17.291685
72.825 16.68239
72.830 16.473999
72.835 16.477869
72.840 16.526169
72.845 16.065399
72.850 15.801394
72.855 16.707832
72.860 17.54776
72.865 18.022503
72.870 17.937206
72.875 18.328424
72.880 18.488041
72.885 18.244247
72.890 17.537817
72.895 16.941502
72.900 16.220263
72.905 16.629532
72.910 15.906357
72.915 16.093821
72.920 16.158134
72.925 16.20829
72.930 16.35578
72.935 16.67042
72.940 16.945072
72.945 17.334681
72.950 17.246742
72.955 17.137693
72.960 17.135378
72.965 16.977789
72.970 16.217529
72.975 15.705464
72.980 15.682355
72.985 15.855793
72.990 15.892698
72.995 15.496746
73.000 15.219121
