!@!!GADDS PLOTSO FILE: Chi integration type
!@!!Title/SampleName: map-ba
!@!!Comment: ?
!@!!User: Bruker Instrument Administrator
!@!!Site: University of Illinois Chicago
!@!!Frame: map-ba_01_000.gfrm
!@!!Wavelengths    1.54184   1.54056   1.54439
!@!!Frame angles: 2Theta: 63.000 Omega: 50.000 Phi: 0.000 Chi: 90.000
!@!!Integration range: 2Theta: 53.000 to 73.000  Gamma: -105.000 to -75.000
!@!!Integration method: bin normalized
!@!N
!@!SS
!@!M
!@!L 0.0 0.0 0.0 0.0
!@!XDegrees
!@!YCounts
53.000 7.795301
53.005 7.704607
53.010 7.381577
53.015 7.173173
53.020 7.265066
53.025 7.563391
53.030 7.994373
53.035 7.710736
53.040 7.940459
53.045 8.135859
53.050 8.622468
53.055 8.347466
53.060 8.115967
53.065 7.803371
53.070 7.988075
53.075 7.686305
53.080 7.703861
53.085 7.629347
53.090 7.547188
53.095 7.263138
53.100 7.088425
53.105 6.999227
53.110 7.388063
53.115 7.213853
53.120 7.353213
53.125 7.309964
53.130 7.328314
53.135 7.473388
53.140 7.235411
53.145 7.361537
53.150 7.654925
53.155 7.503815
53.160 7.81952
53.165 8.327147
53.170 8.521998
53.175 8.666114
53.180 8.264518
53.185 8.218902
53.190 8.432131
53.195 8.466174
53.200 8.171944
53.205 7.819086
53.210 7.750606
53.215 7.524304
53.220 7.194173
53.225 7.315572
53.230 6.905438
53.235 6.846377
53.240 7.095193
53.245 7.100282
53.250 7.533493
53.255 7.605917
53.260 7.37343
53.265 8.018653
53.270 8.21677
53.275 8.193686
53.280 8.101171
53.285 7.796485
53.290 7.544104
53.295 7.388534
53.300 7.397656
53.305 7.245275
53.310 7.132825
53.315 7.196724
53.320 7.414788
53.325 7.620883
53.330 7.516502
53.335 7.11866
53.340 7.578903
53.345 7.442047
53.350 7.584475
53.355 7.586482
53.360 7.666831
53.365 7.888068
53.370 7.809655
53.375 7.704357
53.380 8.099025
53.385 8.206281
53.390 8.212082
53.395 7.943749
53.400 8.041844
53.405 8.179017
53.410 7.898314
53.415 7.763854
53.420 7.613213
53.425 7.650691
53.430 7.642574
53.435 7.60814
53.440 7.960005
53.445 8.126824
53.450 8.096807
53.455 8.231321
53.460 8.140809
53.465 8.345561
53.470 8.308299
53.475 8.17008
53.480 8.408017
53.485 8.18942
53.490 8.336568
53.495 8.38
53.500 8.293599
53.505 8.470636
53.510 8.366666
53.515 7.97164
53.520 8.435578
53.525 8.083422
53.530 7.802158
53.535 7.416444
53.540 7.374626
53.545 7.818931
53.550 8.027933
53.555 7.700227
53.560 7.798337
53.565 8.068607
53.570 7.972644
53.575 7.40894
53.580 6.993001
53.585 6.802752
53.590 7.097859
53.595 7.3212
53.600 7.643214
53.605 7.756078
53.610 8.494773
53.615 8.970484
53.620 9.122152
53.625 9.002551
53.630 8.435891
53.635 8.386054
53.640 8.65534
53.645 8.29261
53.650 8.073568
53.655 7.95846
53.660 8.254269
53.665 8.940642
53.670 8.861548
53.675 8.78596
53.680 8.365132
53.685 8.338787
53.690 8.686856
53.695 8.74827
53.700 8.640033
53.705 8.716687
53.710 8.766175
53.715 8.710375
53.720 8.618164
53.725 7.860932
53.730 7.533042
53.735 7.520689
53.740 7.153966
53.745 7.118603
53.750 7.230853
53.755 7.158509
53.760 7.286763
53.765 6.942158
53.770 6.988353
53.775 7.925852
53.780 8.222161
53.785 8.272562
53.790 8.704251
53.795 9.049001
53.800 9.257584
53.805 9.044322
53.810 8.649879
53.815 8.94342
53.820 8.998929
53.825 9.002217
53.830 8.995115
53.835 8.800091
53.840 8.606848
53.845 8.136608
53.850 8.019337
53.855 7.723038
53.860 7.37128
53.865 7.133762
53.870 7.077914
53.875 7.487941
53.880 7.948328
53.885 8.253282
53.890 8.55263
53.895 9.179063
53.900 9.677495
53.905 9.718415
53.910 9.022189
53.915 8.779114
53.920 8.485257
53.925 7.833692
53.930 7.454322
53.935 7.244622
53.940 7.544699
53.945 7.488036
53.950 7.266091
53.955 7.181787
53.960 7.433843
53.965 7.595469
53.970 7.436772
53.975 6.991203
53.980 7.021191
53.985 7.157045
53.990 7.238129
53.995 7.444136
54.000 7.326991
54.005 7.777002
54.010 8.297955
54.015 8.546906
54.020 8.838028
54.025 8.861814
54.030 8.678426
54.035 8.564686
54.040 8.002553
54.045 7.954212
54.050 7.670853
54.055 7.518481
54.060 7.802016
54.065 7.989318
54.070 8.250691
54.075 8.498588
54.080 8.71977
54.085 8.802606
54.090 8.656306
54.095 8.304873
54.100 8.702992
54.105 9.078132
54.110 9.030107
54.115 8.806819
54.120 8.908888
54.125 8.910254
54.130 9.110454
54.135 8.882715
54.140 8.948153
54.145 8.911808
54.150 9.045022
54.155 8.819267
54.160 8.668127
54.165 8.197563
54.170 8.06066
54.175 7.650436
54.180 7.752562
54.185 7.917522
54.190 8.160108
54.195 8.194944
54.200 8.458917
54.205 8.397953
54.210 8.781503
54.215 8.500686
54.220 8.321684
54.225 8.455534
54.230 8.735251
54.235 8.957677
54.240 9.042191
54.245 8.973705
54.250 9.331134
54.255 9.928021
54.260 10.157194
54.265 10.17447
54.270 9.962474
54.275 9.906381
54.280 9.478823
54.285 8.852596
54.290 8.407479
54.295 8.183276
54.300 8.109377
54.305 8.22174
54.310 8.268383
54.315 8.576258
54.320 8.257054
54.325 8.454083
54.330 8.908952
54.335 9.342143
54.340 9.071551
54.345 8.76606
54.350 9.021637
54.355 9.641907
54.360 9.443914
54.365 8.837502
54.370 8.630605
54.375 8.620739
54.380 8.730474
54.385 8.629617
54.390 9.063848
54.395 9.331368
54.400 9.53018
54.405 9.839798
54.410 10.22356
54.415 10.599307
54.420 10.338539
54.425 9.814459
54.430 9.46882
54.435 9.577009
54.440 9.508434
54.445 9.58699
54.450 9.521085
54.455 9.540733
54.460 9.486506
54.465 9.496298
54.470 8.674941
54.475 8.522014
54.480 8.379836
54.485 8.22784
54.490 8.476986
54.495 8.471734
54.500 8.428963
54.505 9.373693
54.510 9.161056
54.515 9.479417
54.520 9.776453
54.525 9.570876
54.530 9.882415
54.535 9.872211
54.540 9.409649
54.545 9.281831
54.550 9.187798
54.555 9.303406
54.560 9.736619
54.565 9.767157
54.570 9.706653
54.575 9.716738
54.580 9.75198
54.585 10.118842
54.590 9.631722
54.595 9.066802
54.600 8.757871
54.605 8.314761
54.610 8.27191
54.615 8.062775
54.620 8.141027
54.625 8.380479
54.630 8.956201
54.635 9.634249
54.640 9.968415
54.645 10.321452
54.650 10.13296
54.655 9.696486
54.660 9.267075
54.665 8.508587
54.670 8.202381
54.675 8.763135
54.680 9.2271
54.685 9.358709
54.690 9.440962
54.695 9.769201
54.700 10.065969
54.705 9.889061
54.710 9.378393
54.715 8.921074
54.720 8.663341
54.725 8.564914
54.730 8.405919
54.735 8.410254
54.740 8.6079
54.745 8.49704
54.750 8.609018
54.755 8.682545
54.760 8.392076
54.765 8.507068
54.770 8.669002
54.775 8.367235
54.780 8.806333
54.785 9.03491
54.790 9.438795
54.795 10.082561
54.800 10.00139
54.805 9.6049
54.810 9.907663
54.815 9.701553
54.820 9.426546
54.825 9.491449
54.830 9.166086
54.835 9.205162
54.840 9.190774
54.845 8.957124
54.850 9.398728
54.855 9.546151
54.860 9.405846
54.865 9.438968
54.870 9.52181
54.875 9.889709
54.880 10.123123
54.885 10.194719
54.890 9.801393
54.895 9.817526
54.900 9.961192
54.905 9.922079
54.910 10.052141
54.915 9.706938
54.920 9.567727
54.925 9.471219
54.930 9.504202
54.935 9.677956
54.940 9.621347
54.945 9.509604
54.950 9.674661
54.955 9.381834
54.960 9.477283
54.965 9.118926
54.970 9.115817
54.975 9.471213
54.980 9.275379
54.985 9.098389
54.990 8.806298
54.995 8.393554
55.000 8.47995
55.005 8.060814
55.010 7.650434
55.015 7.622188
55.020 7.718976
55.025 7.794033
55.030 7.89192
55.035 8.15873
55.040 8.337074
55.045 8.672517
55.050 8.686116
55.055 8.904606
55.060 9.627069
55.065 9.97369
55.070 9.957825
55.075 10.040323
55.080 10.053576
55.085 10.386011
55.090 10.221743
55.095 9.846417
55.100 9.680253
55.105 9.346869
55.110 9.201818
55.115 9.134714
55.120 8.72849
55.125 8.998927
55.130 9.18956
55.135 9.641044
55.140 9.818912
55.145 9.589872
55.150 9.502467
55.155 10.005123
55.160 10.346493
55.165 10.522326
55.170 10.101893
55.175 10.229328
55.180 10.294502
55.185 10.225326
55.190 10.256679
55.195 10.10106
55.200 10.259775
55.205 10.673628
55.210 11.052299
55.215 11.42543
55.220 11.599251
55.225 11.096868
55.230 10.971906
55.235 10.802782
55.240 10.683029
55.245 10.544331
55.250 10.299831
55.255 9.951228
55.260 10.058411
55.265 9.788422
55.270 9.498697
55.275 9.039145
55.280 8.668287
55.285 8.907064
55.290 9.536276
55.295 9.775892
55.300 10.332883
55.305 10.485894
55.310 10.791118
55.315 10.932941
55.320 10.752412
55.325 10.843651
55.330 10.506042
55.335 10.038576
55.340 10.047051
55.345 9.952427
55.350 10.21594
55.355 10.227969
55.360 9.607711
55.365 9.849706
55.370 10.227401
55.375 10.370844
55.380 10.48349
55.385 10.300606
55.390 10.303251
55.395 10.601094
55.400 10.343537
55.405 10.039731
55.410 10.165687
55.415 10.309199
55.420 10.174503
55.425 9.820188
55.430 9.900658
55.435 10.182182
55.440 10.163
55.445 10.17664
55.450 9.990523
55.455 10.111056
55.460 10.263763
55.465 9.879582
55.470 10.054474
55.475 10.291983
55.480 10.209134
55.485 10.033986
55.490 9.975061
55.495 10.68681
55.500 10.953324
55.505 11.02068
55.510 10.797276
55.515 10.918503
55.520 11.566191
55.525 11.490762
55.530 10.751235
55.535 10.865588
55.540 10.955324
55.545 10.765641
55.550 10.733196
55.555 10.725954
55.560 11.060951
55.565 11.424603
55.570 10.88544
55.575 10.858306
55.580 11.169451
55.585 10.91173
55.590 10.765984
55.595 10.117163
55.600 9.967954
55.605 10.013284
55.610 9.539378
55.615 9.503847
55.620 9.517071
55.625 9.538312
55.630 9.907237
55.635 9.773226
55.640 9.708183
55.645 10.051296
55.650 10.163321
55.655 9.949218
55.660 9.876795
55.665 9.934722
55.670 10.020435
55.675 10.585106
55.680 10.800922
55.685 10.572046
55.690 10.760708
55.695 10.803427
55.700 10.561761
55.705 10.59691
55.710 9.937098
55.715 9.796187
55.720 10.061404
55.725 10.00281
55.730 10.396559
55.735 11.317686
55.740 11.449715
55.745 12.040517
55.750 12.169099
55.755 12.05294
55.760 12.123176
55.765 11.598841
55.770 10.974442
55.775 10.726447
55.780 10.132402
55.785 9.676526
55.790 9.391823
55.795 9.375552
55.800 9.753944
55.805 9.867157
55.810 10.060998
55.815 10.324323
55.820 10.643425
55.825 10.896119
55.830 10.993568
55.835 10.905807
55.840 11.161829
55.845 10.907733
55.850 10.713557
55.855 10.83762
55.860 10.672613
55.865 10.317982
55.870 10.140504
55.875 10.244761
55.880 10.627552
55.885 10.593666
55.890 10.279716
55.895 10.244522
55.900 10.504604
55.905 10.368712
55.910 10.32645
55.915 10.328309
55.920 10.026687
55.925 10.062387
55.930 10.443963
55.935 10.641949
55.940 10.390361
55.945 10.089084
55.950 9.608233
55.955 10.103061
55.960 10.3
55.965 9.827441
55.970 9.402709
55.975 9.679473
55.980 9.798624
55.985 10.000215
55.990 9.872222
55.995 10.149811
56.000 10.53123
56.005 10.833011
56.010 11.242069
56.015 11.78496
56.020 12.193072
56.025 12.390883
56.030 12.042197
56.035 11.889244
56.040 11.36623
56.045 10.583662
56.050 10.381193
56.055 10.02177
56.060 9.904987
56.065 10.175692
56.070 10.517512
56.075 10.852395
56.080 11.122697
56.085 10.94478
56.090 10.986978
56.095 10.686312
56.100 10.680153
56.105 10.858923
56.110 11.148127
56.115 11.01249
56.120 10.895236
56.125 10.96282
56.130 11.18997
56.135 11.375315
56.140 11.661002
56.145 11.657311
56.150 11.365272
56.155 11.357225
56.160 11.084807
56.165 10.573219
56.170 10.018825
56.175 9.351423
56.180 9.276114
56.185 9.493315
56.190 9.997105
56.195 9.905073
56.200 10.208394
56.205 10.299322
56.210 10.381657
56.215 10.607335
56.220 10.955976
56.225 11.199471
56.230 11.922518
56.235 11.922948
56.240 12.356057
56.245 12.818184
56.250 13.153654
56.255 12.751309
56.260 12.584809
56.265 12.349827
56.270 12.127904
56.275 11.80894
56.280 11.266464
56.285 10.857299
56.290 10.785869
56.295 10.719857
56.300 10.93266
56.305 11.056456
56.310 10.94911
56.315 10.916481
56.320 11.153978
56.325 11.284893
56.330 10.897482
56.335 10.643786
56.340 10.438688
56.345 10.42904
56.350 10.053633
56.355 9.876044
56.360 9.747003
56.365 10.136857
56.370 9.96363
56.375 10.003029
56.380 10.344553
56.385 11.227605
56.390 11.542881
56.395 11.649748
56.400 11.338421
56.405 11.950907
56.410 12.34887
56.415 12.188812
56.420 11.653168
56.425 11.782946
56.430 12.384976
56.435 12.811141
56.440 12.143372
56.445 11.380768
56.450 10.930572
56.455 10.702882
56.460 10.585816
56.465 10.245486
56.470 10.04215
56.475 10.604504
56.480 11.33575
56.485 11.843006
56.490 12.684776
56.495 11.975833
56.500 11.491626
56.505 11.506869
56.510 11.060783
56.515 10.49641
56.520 10.431234
56.525 10.577399
56.530 10.583838
56.535 10.477542
56.540 10.150349
56.545 10.694
56.550 11.165081
56.555 10.891789
56.560 10.798959
56.565 11.081874
56.570 11.604503
56.575 11.793758
56.580 11.700592
56.585 11.796409
56.590 11.805619
56.595 11.30156
56.600 11.088288
56.605 10.691082
56.610 10.369596
56.615 10.415003
56.620 10.144321
56.625 9.919731
56.630 10.851663
56.635 11.598312
56.640 11.911345
56.645 12.004254
56.650 11.447793
56.655 11.438331
56.660 11.71772
56.665 10.99949
56.670 10.600309
56.675 10.469688
56.680 9.992216
56.685 10.27149
56.690 10.223264
56.695 10.289727
56.700 10.531169
56.705 10.460529
56.710 11.244879
56.715 11.826086
56.720 11.706386
56.725 12.176416
56.730 12.037005
56.735 12.562674
56.740 12.70694
56.745 12.69766
56.750 13.199662
56.755 13.593183
56.760 13.482738
56.765 13.857945
56.770 13.431649
56.775 13.461014
56.780 13.198393
56.785 12.517554
56.790 12.191144
56.795 12.209647
56.800 12.516356
56.805 12.530966
56.810 12.239053
56.815 12.291953
56.820 12.38645
56.825 12.129648
56.830 12.059009
56.835 11.711243
56.840 11.569613
56.845 12.1383
56.850 12.136971
56.855 12.000389
56.860 12.285289
56.865 11.714617
56.870 11.329888
56.875 11.188503
56.880 10.97434
56.885 11.498988
56.890 11.564741
56.895 11.443748
56.900 11.803888
56.905 11.812301
56.910 12.050217
56.915 11.959599
56.920 11.648211
56.925 11.973024
56.930 11.93955
56.935 12.137836
56.940 11.965429
56.945 12.11278
56.950 11.556665
56.955 11.415609
56.960 11.375278
56.965 11.59779
56.970 11.421076
56.975 11.565772
56.980 11.465819
56.985 11.825653
56.990 11.669106
56.995 11.468773
57.000 11.226438
57.005 11.369674
57.010 11.707597
57.015 11.477199
57.020 11.910789
57.025 12.3556
57.030 12.435739
57.035 12.474267
57.040 12.220954
57.045 12.033655
57.050 12.591918
57.055 12.298922
57.060 12.296257
57.065 12.822712
57.070 12.785832
57.075 13.05853
57.080 12.67347
57.085 12.254227
57.090 12.093279
57.095 11.772138
57.100 11.111872
57.105 11.34126
57.110 11.254877
57.115 11.38626
57.120 11.466172
57.125 11.634328
57.130 11.684678
57.135 12.542179
57.140 12.681603
57.145 13.091927
57.150 13.722025
57.155 13.829093
57.160 13.991556
57.165 14.383672
57.170 13.716129
57.175 13.468784
57.180 13.181157
57.185 13.014489
57.190 12.888228
57.195 12.640212
57.200 12.490313
57.205 12.502438
57.210 12.880279
57.215 12.814447
57.220 12.572177
57.225 12.536798
57.230 12.47708
57.235 12.109545
57.240 12.241595
57.245 11.906056
57.250 11.60406
57.255 10.97596
57.260 10.986325
57.265 10.78291
57.270 10.75321
57.275 10.800668
57.280 10.730931
57.285 11.038899
57.290 11.694211
57.295 11.931486
57.300 12.271429
57.305 12.671227
57.310 12.695628
57.315 12.93953
57.320 12.804824
57.325 12.480017
57.330 12.458893
57.335 12.612362
57.340 12.183404
57.345 12.171532
57.350 12.502107
57.355 12.379439
57.360 12.342284
57.365 12.23899
57.370 12.190781
57.375 11.972274
57.380 11.940543
57.385 11.902945
57.390 12.485975
57.395 12.482465
57.400 12.242131
57.405 12.304914
57.410 12.417825
57.415 12.139938
57.420 12.188842
57.425 11.816702
57.430 12.067222
57.435 12.004217
57.440 11.983982
57.445 12.423955
57.450 12.679502
57.455 12.504234
57.460 12.234777
57.465 12.075315
57.470 12.230828
57.475 11.814651
57.480 11.461329
57.485 11.276872
57.490 11.799009
57.495 11.878052
57.500 12.077091
57.505 11.869701
57.510 12.196656
57.515 12.661854
57.520 12.987487
57.525 12.75249
57.530 12.949688
57.535 12.575487
57.540 12.834698
57.545 12.604126
57.550 12.124085
57.555 12.145069
57.560 12.479002
57.565 12.360379
57.570 12.291649
57.575 12.265408
57.580 12.698628
57.585 12.824471
57.590 12.567455
57.595 12.45691
57.600 12.534513
57.605 13.082688
57.610 13.312205
57.615 13.337843
57.620 12.897993
57.625 12.567889
57.630 12.461843
57.635 12.434681
57.640 12.012033
57.645 11.96405
57.650 12.099161
57.655 12.785361
57.660 13.210527
57.665 13.277392
57.670 13.693153
57.675 13.92944
57.680 13.748871
57.685 13.523263
57.690 13.269895
57.695 13.158526
57.700 12.850714
57.705 12.473586
57.710 12.043284
57.715 11.988779
57.720 11.904643
57.725 11.811438
57.730 12.248423
57.735 12.457034
57.740 12.902401
57.745 13.567513
57.750 14.335702
57.755 14.987878
57.760 14.807505
57.765 14.050035
57.770 13.598111
57.775 13.105745
57.780 13.412214
57.785 12.893456
57.790 12.647908
57.795 12.593997
57.800 12.841984
57.805 13.09721
57.810 13.721673
57.815 13.831028
57.820 14.010731
57.825 14.234266
57.830 14.515971
57.835 15.105453
57.840 15.533428
57.845 15.627012
57.850 14.932685
57.855 14.605474
57.860 14.283809
57.865 14.2236
57.870 14.080318
57.875 13.839833
57.880 13.161348
57.885 13.510231
57.890 13.683167
57.895 14.033494
57.900 13.966876
57.905 13.54129
57.910 13.657545
57.915 14.235457
57.920 13.681257
57.925 13.436478
57.930 13.15191
57.935 13.210257
57.940 13.614676
57.945 13.54901
57.950 13.418435
57.955 13.861964
57.960 13.796255
57.965 13.918013
57.970 14.245059
57.975 14.371791
57.980 14.289381
57.985 14.389037
57.990 14.632729
57.995 14.608975
58.000 14.374228
58.005 14.673672
58.010 15.056776
58.015 14.839655
58.020 14.400506
58.025 13.732608
58.030 13.946098
58.035 14.474222
58.040 14.61918
58.045 14.208836
58.050 14.726114
58.055 15.129302
58.060 15.774728
58.065 16.153807
58.070 15.639541
58.075 15.47659
58.080 16.092321
58.085 15.656107
58.090 15.517546
58.095 15.515034
58.100 15.295548
58.105 15.58566
58.110 15.278743
58.115 14.23007
58.120 13.986562
58.125 13.534035
58.130 13.35024
58.135 13.695987
58.140 13.725162
58.145 13.462386
58.150 13.721678
58.155 14.287395
58.160 14.814921
58.165 14.975277
58.170 14.955106
58.175 14.589878
58.180 15.05946
58.185 15.266558
58.190 15.259636
58.195 15.320595
58.200 15.237207
58.205 15.381598
58.210 15.702914
58.215 15.365186
58.220 15.789826
58.225 15.720619
58.230 15.606298
58.235 15.577237
58.240 15.364508
58.245 15.703134
58.250 16.802364
58.255 16.60005
58.260 16.53883
58.265 16.500319
58.270 16.52314
58.275 16.706585
58.280 16.524229
58.285 15.713649
58.290 15.950034
58.295 16.23105
58.300 16.280819
58.305 16.306311
58.310 16.405752
58.315 17.002171
58.320 17.923841
58.325 17.7251
58.330 17.564732
58.335 17.986069
58.340 18.213661
58.345 18.192764
58.350 18.085718
58.355 17.705574
58.360 17.989244
58.365 18.330742
58.370 18.212328
58.375 18.455851
58.380 18.437084
58.385 18.219046
58.390 18.672886
58.395 19.083841
58.400 19.262541
58.405 19.141882
58.410 19.060484
58.415 19.56357
58.420 20.502455
58.425 20.819244
58.430 21.710215
58.435 22.61307
58.440 23.290024
58.445 23.854572
58.450 24.67359
58.455 24.381504
58.460 25.156374
58.465 24.682335
58.470 24.666792
58.475 24.9758
58.480 24.56625
58.485 24.263664
58.490 24.448589
58.495 24.672674
58.500 24.628361
58.505 24.670862
58.510 24.646093
58.515 24.97715
58.520 25.564739
58.525 26.09955
58.530 26.825098
58.535 26.944118
58.540 27.090733
58.545 28.116467
58.550 29.067173
58.555 28.720188
58.560 28.390291
58.565 28.327618
58.570 29.537178
58.575 30.628859
58.580 31.562489
58.585 32.14505
58.590 32.765217
58.595 33.169884
58.600 33.2509
58.605 32.851387
58.610 32.556515
58.615 31.851091
58.620 31.333673
58.625 32.361565
58.630 34.001591
58.635 33.884617
58.640 33.009926
58.645 32.957825
58.650 32.982292
58.655 32.65094
58.660 32.701756
58.665 31.418385
58.670 31.649509
58.675 32.391205
58.680 32.282898
58.685 32.490921
58.690 32.845215
58.695 31.512291
58.700 31.376299
58.705 31.582001
58.710 31.772535
58.715 32.05154
58.720 32.190311
58.725 32.281212
58.730 32.386387
58.735 32.652439
58.740 32.522751
58.745 31.893732
58.750 31.680414
58.755 30.910688
58.760 30.451771
58.765 30.458263
58.770 29.7381
58.775 29.482872
58.780 29.230541
58.785 28.456005
58.790 27.873726
58.795 27.691088
58.800 27.787512
58.805 27.489786
58.810 26.671366
58.815 26.422256
58.820 26.633286
58.825 26.746565
58.830 26.774979
58.835 26.041151
58.840 25.455883
58.845 25.495335
58.850 24.728724
58.855 24.040941
58.860 23.457472
58.865 22.517405
58.870 22.403627
58.875 22.13476
58.880 21.172066
58.885 21.11525
58.890 21.738695
58.895 21.829708
58.900 21.888887
58.905 20.974483
58.910 21.439589
58.915 21.052298
58.920 20.766531
58.925 20.456766
58.930 20.192179
58.935 19.975428
58.940 20.303965
58.945 20.575758
58.950 20.849211
58.955 20.904352
58.960 20.403208
58.965 19.813656
58.970 19.453377
58.975 19.04179
58.980 18.102423
58.985 17.702713
58.990 17.296505
58.995 17.074612
59.000 16.785534
59.005 16.829235
59.010 17.127327
59.015 16.866806
59.020 16.593996
59.025 16.581539
59.030 16.517689
59.035 16.62352
59.040 16.742586
59.045 16.38867
59.050 16.676987
59.055 16.760044
59.060 16.307877
59.065 16.563362
59.070 16.510929
59.075 16.050282
59.080 15.513687
59.085 15.301686
59.090 15.250025
59.095 15.587787
59.100 14.786549
59.105 14.923405
59.110 14.921642
59.115 14.889043
59.120 14.842805
59.125 14.958736
59.130 15.457748
59.135 16.126213
59.140 16.068245
59.145 15.867986
59.150 15.815327
59.155 15.252873
59.160 14.638047
59.165 13.988541
59.170 13.729103
59.175 13.450102
59.180 13.068419
59.185 13.077867
59.190 13.493302
59.195 13.776604
59.200 13.546026
59.205 13.464688
59.210 13.871165
59.215 14.176011
59.220 13.903038
59.225 13.556114
59.230 13.531405
59.235 13.638232
59.240 13.462741
59.245 13.296846
59.250 13.664779
59.255 14.27081
59.260 14.675614
59.265 14.447808
59.270 14.480899
59.275 14.950619
59.280 14.764622
59.285 14.688421
59.290 14.5941
59.295 14.638267
59.300 14.523522
59.305 14.257466
59.310 14.309143
59.315 14.49698
59.320 13.987921
59.325 14.250864
59.330 14.345189
59.335 14.412507
59.340 14.151567
59.345 13.606886
59.350 13.222581
59.355 13.368531
59.360 13.782854
59.365 14.00373
59.370 14.139346
59.375 14.765175
59.380 14.893666
59.385 15.146658
59.390 15.497816
59.395 14.629102
59.400 14.566891
59.405 14.497851
59.410 14.426657
59.415 14.516665
59.420 14.162766
59.425 13.816315
59.430 14.085079
59.435 14.03193
59.440 14.522913
59.445 13.940349
59.450 13.689435
59.455 13.36905
59.460 13.30835
59.465 12.996844
59.470 12.681087
59.475 12.818353
59.480 13.391787
59.485 13.853044
59.490 13.937226
59.495 13.75728
59.500 13.392134
59.505 13.388883
59.510 13.126831
59.515 12.722733
59.520 12.446696
59.525 12.774956
59.530 12.817712
59.535 12.899164
59.540 13.027463
59.545 13.400737
59.550 13.353002
59.555 12.938021
59.560 12.735257
59.565 13.208035
59.570 13.315162
59.575 13.1196
59.580 12.43235
59.585 12.514862
59.590 13.253412
59.595 13.887311
59.600 13.6924
59.605 14.34182
59.610 14.280599
59.615 14.125039
59.620 13.972169
59.625 13.862866
59.630 13.507914
59.635 13.654108
59.640 14.058274
59.645 14.178599
59.650 14.545311
59.655 14.329395
59.660 14.201377
59.665 14.460198
59.670 14.27783
59.675 13.541381
59.680 13.65486
59.685 13.325179
59.690 13.713799
59.695 13.638179
59.700 13.755292
59.705 13.251173
59.710 12.856632
59.715 12.897374
59.720 13.348494
59.725 13.217061
59.730 13.237851
59.735 14.352468
59.740 14.793519
59.745 14.819437
59.750 14.809702
59.755 14.881393
59.760 14.692497
59.765 14.617547
59.770 13.281302
59.775 13.412549
59.780 13.841784
59.785 13.806121
59.790 13.60413
59.795 13.753778
59.800 13.450899
59.805 13.828155
59.810 13.849176
59.815 14.204117
59.820 14.606298
59.825 14.815699
59.830 14.90426
59.835 15.093719
59.840 15.111313
59.845 14.991111
59.850 14.417357
59.855 14.487546
59.860 15.209284
59.865 15.530658
59.870 15.734582
59.875 15.544936
59.880 15.20813
59.885 15.72281
59.890 15.993531
59.895 15.178861
59.900 15.040489
59.905 14.7647
59.910 15.116115
59.915 15.756594
59.920 15.172261
59.925 15.215162
59.930 14.880934
59.935 14.656727
59.940 14.831735
59.945 15.078156
59.950 14.869413
59.955 14.999717
59.960 14.209222
59.965 14.413029
59.970 14.271347
59.975 13.871087
59.980 13.221171
59.985 13.320492
59.990 12.725147
59.995 12.894882
60.000 12.830077
60.005 13.395033
60.010 13.983415
60.015 14.032095
60.020 13.831807
60.025 14.228337
60.030 14.79275
60.035 15.288753
60.040 15.267619
60.045 14.911882
60.050 14.865838
60.055 14.809148
60.060 14.404988
60.065 13.913954
60.070 13.532266
60.075 13.385916
60.080 13.516785
60.085 14.421599
60.090 15.102638
60.095 14.997041
60.100 14.809974
60.105 14.727851
60.110 14.558283
60.115 14.435872
60.120 14.218938
60.125 14.122298
60.130 14.385766
60.135 14.787077
60.140 14.858713
60.145 14.484271
60.150 14.305989
60.155 14.391109
60.160 14.447869
60.165 14.392155
60.170 14.436688
60.175 15.151086
60.180 15.729357
60.185 15.400903
60.190 15.015628
60.195 14.970058
60.200 15.42146
60.205 15.114479
60.210 14.54806
60.215 14.472928
60.220 14.384863
60.225 14.016825
60.230 14.31021
60.235 14.162961
60.240 14.279309
60.245 14.431183
60.250 14.930948
60.255 15.759857
60.260 15.965977
60.265 15.434915
60.270 15.043499
60.275 14.943941
60.280 14.798578
60.285 14.40892
60.290 13.562669
60.295 13.303442
60.300 13.065735
60.305 13.419024
60.310 13.351419
60.315 13.355243
60.320 13.113739
60.325 13.725421
60.330 14.451001
60.335 14.78925
60.340 15.029967
60.345 15.231871
60.350 14.976943
60.355 14.657695
60.360 13.624322
60.365 13.45729
60.370 13.468356
60.375 12.915328
60.380 13.063627
60.385 13.713878
60.390 14.435905
60.395 14.989991
60.400 14.621923
60.405 14.900159
60.410 14.772064
60.415 14.736439
60.420 14.756354
60.425 14.9897
60.430 14.883839
60.435 15.01104
60.440 14.977762
60.445 14.960296
60.450 14.833873
60.455 14.191704
60.460 13.965847
60.465 14.655498
60.470 15.02937
60.475 15.282864
60.480 15.612999
60.485 15.61327
60.490 15.725787
60.495 15.764037
60.500 15.308673
60.505 15.267173
60.510 15.051888
60.515 14.565009
60.520 13.982994
60.525 13.833657
60.530 13.437201
60.535 13.646032
60.540 13.581717
60.545 13.122223
60.550 13.215419
60.555 13.160316
60.560 13.389916
60.565 13.676714
60.570 13.223697
60.575 13.36808
60.580 14.055799
60.585 14.646389
60.590 15.08922
60.595 15.261187
60.600 15.051463
60.605 14.980941
60.610 14.559853
60.615 14.313212
60.620 14.520356
60.625 14.879306
60.630 15.183197
60.635 15.714258
60.640 15.720499
60.645 16.224491
60.650 16.522772
60.655 16.22677
60.660 15.728539
60.665 15.388685
60.670 14.761258
60.675 14.722642
60.680 14.491582
60.685 14.273188
60.690 13.91807
60.695 13.628671
60.700 13.564103
60.705 14.023486
60.710 14.149573
60.715 13.916258
60.720 13.729999
60.725 13.916207
60.730 14.533973
60.735 14.548203
60.740 14.112133
60.745 14.386797
60.750 14.539985
60.755 14.821859
60.760 15.353347
60.765 15.337252
60.770 15.814775
60.775 16.492077
60.780 16.989943
60.785 17.107145
60.790 16.573887
60.795 15.811449
60.800 15.773056
60.805 15.506531
60.810 15.279704
60.815 15.040554
60.820 14.63418
60.825 14.813906
60.830 14.912313
60.835 15.161598
60.840 15.082094
60.845 14.925632
60.850 14.985933
60.855 15.891752
60.860 16.026728
60.865 16.494314
60.870 15.935321
60.875 16.159849
60.880 16.176495
60.885 15.657727
60.890 15.113288
60.895 15.14602
60.900 15.312004
60.905 15.265251
60.910 14.964819
60.915 14.490346
60.920 14.587021
60.925 14.808971
60.930 14.735723
60.935 14.452265
60.940 14.812716
60.945 14.983054
60.950 15.347479
60.955 15.397528
60.960 15.35982
60.965 15.512686
60.970 15.677149
60.975 15.047834
60.980 14.754887
60.985 14.632192
60.990 14.521505
60.995 14.039665
61.000 13.355115
61.005 13.302772
61.010 13.432602
61.015 13.641026
61.020 14.21055
61.025 14.544626
61.030 15.485912
61.035 16.070538
61.040 15.98464
61.045 16.392559
61.050 16.440271
61.055 16.227903
61.060 16.321278
61.065 15.937038
61.070 15.935268
61.075 16.184515
61.080 16.001411
61.085 15.905746
61.090 15.250399
61.095 14.932571
61.100 14.750982
61.105 14.557314
61.110 14.351682
61.115 14.45351
61.120 14.335525
61.125 14.769835
61.130 14.787486
61.135 14.99973
61.140 15.068527
61.145 15.138316
61.150 15.417453
61.155 15.668164
61.160 15.870885
61.165 15.967429
61.170 16.011353
61.175 16.177877
61.180 15.944058
61.185 15.168491
61.190 14.919092
61.195 14.687437
61.200 15.114548
61.205 15.128403
61.210 15.216104
61.215 15.649889
61.220 16.347303
61.225 16.552769
61.230 16.481491
61.235 15.917408
61.240 15.777725
61.245 15.567278
61.250 15.409644
61.255 15.363844
61.260 15.142544
61.265 15.203829
61.270 15.201766
61.275 15.387834
61.280 15.033444
61.285 15.067398
61.290 14.947105
61.295 14.882781
61.300 14.276622
61.305 14.710618
61.310 15.100177
61.315 15.531798
61.320 15.039795
61.325 14.945932
61.330 14.895682
61.335 15.235228
61.340 14.895485
61.345 14.17184
61.350 13.929483
61.355 14.201718
61.360 14.259541
61.365 14.090582
61.370 14.177291
61.375 14.606847
61.380 14.521886
61.385 14.699913
61.390 14.837359
61.395 14.953634
61.400 15.852098
61.405 16.144428
61.410 16.191122
61.415 16.714504
61.420 16.549383
61.425 16.533894
61.430 16.571636
61.435 16.149298
61.440 15.703291
61.445 15.014011
61.450 14.849229
61.455 14.568812
61.460 14.421664
61.465 14.185699
61.470 14.131251
61.475 14.079221
61.480 14.287333
61.485 14.22232
61.490 14.255981
61.495 14.025216
61.500 14.280221
61.505 14.792394
61.510 14.687883
61.515 14.79858
61.520 14.997828
61.525 14.951468
61.530 15.319159
61.535 15.396306
61.540 14.661107
61.545 14.292027
61.550 14.098281
61.555 14.01436
61.560 14.354993
61.565 14.356923
61.570 13.864944
61.575 14.169
61.580 14.539286
61.585 14.719896
61.590 15.119836
61.595 15.309678
61.600 15.173574
61.605 15.209449
61.610 15.440027
61.615 15.444872
61.620 15.398474
61.625 15.266238
61.630 15.109503
61.635 15.19306
61.640 15.621398
61.645 15.607668
61.650 15.254143
61.655 14.864682
61.660 14.416182
61.665 14.167104
61.670 13.906383
61.675 13.955329
61.680 14.133266
61.685 14.61223
61.690 14.835173
61.695 15.127092
61.700 15.599892
61.705 15.335525
61.710 14.883073
61.715 14.036117
61.720 13.748997
61.725 13.588166
61.730 13.220931
61.735 13.198966
61.740 13.440007
61.745 13.443909
61.750 13.588095
61.755 13.703125
61.760 13.904803
61.765 13.837392
61.770 13.617566
61.775 13.747618
61.780 13.921597
61.785 14.103468
61.790 14.421122
61.795 14.259168
61.800 14.417509
61.805 14.751529
61.810 14.819713
61.815 14.787977
61.820 14.850368
61.825 14.937379
61.830 15.140129
61.835 15.388664
61.840 15.232099
61.845 15.002759
61.850 14.882607
61.855 15.507849
61.860 15.679678
61.865 15.60762
61.870 15.74565
61.875 16.220831
61.880 16.857801
61.885 17.309355
61.890 16.73695
61.895 16.661041
61.900 16.663311
61.905 15.813548
61.910 15.076333
61.915 14.592038
61.920 14.018642
61.925 13.434973
61.930 13.268367
61.935 13.109992
61.940 14.138136
61.945 14.557538
61.950 14.410011
61.955 14.876069
61.960 15.554391
61.965 15.303228
61.970 15.4879
61.975 15.07068
61.980 14.710341
61.985 14.811398
61.990 15.046665
61.995 14.635008
62.000 15.177343
62.005 15.107861
62.010 15.483492
62.015 16.037012
62.020 15.863448
62.025 15.598999
62.030 15.75951
62.035 15.150409
62.040 14.97153
62.045 14.123344
62.050 13.87054
62.055 14.009587
62.060 14.078139
62.065 13.985018
62.070 14.68287
62.075 14.652683
62.080 14.815481
62.085 14.936625
62.090 15.21231
62.095 14.865829
62.100 14.569166
62.105 14.405181
62.110 14.562292
62.115 14.639141
62.120 14.655583
62.125 14.95728
62.130 15.355419
62.135 15.740191
62.140 15.566278
62.145 15.718691
62.150 15.933595
62.155 15.708638
62.160 15.643884
62.165 15.957017
62.170 16.176302
62.175 16.230068
62.180 16.172752
62.185 16.500248
62.190 16.313704
62.195 15.853332
62.200 15.41278
62.205 15.467557
62.210 15.22415
62.215 15.123093
62.220 14.884414
62.225 15.079499
62.230 15.058832
62.235 15.055814
62.240 15.584333
62.245 16.031727
62.250 16.397373
62.255 16.198921
62.260 15.696376
62.265 16.187094
62.270 16.429337
62.275 15.631875
62.280 15.476915
62.285 15.332516
62.290 15.697131
62.295 16.154943
62.300 15.492077
62.305 15.26964
62.310 15.547122
62.315 15.578009
62.320 15.991427
62.325 15.913952
62.330 16.290546
62.335 16.734995
62.340 16.844694
62.345 17.057911
62.350 16.654325
62.355 15.698991
62.360 15.88854
62.365 15.658594
62.370 15.898792
62.375 15.923895
62.380 15.404014
62.385 15.972023
62.390 16.155352
62.395 15.971902
62.400 16.251307
62.405 15.866657
62.410 15.403518
62.415 15.620334
62.420 15.174797
62.425 15.388173
62.430 15.198441
62.435 14.903016
62.440 15.280157
62.445 16.754288
62.450 17.562147
62.455 17.614489
62.460 17.384708
62.465 17.725353
62.470 17.791128
62.475 17.312447
62.480 16.589615
62.485 15.718881
62.490 15.784178
62.495 16.210346
62.500 15.892193
62.505 15.34427
62.510 15.199965
62.515 14.94367
62.520 15.026862
62.525 15.697483
62.530 15.381938
62.535 15.317331
62.540 15.287594
62.545 15.938364
62.550 16.23271
62.555 15.952133
62.560 14.899978
62.565 14.399777
62.570 14.444067
62.575 14.573256
62.580 13.873708
62.585 12.830635
62.590 12.94513
62.595 12.909242
62.600 13.393214
62.605 13.053158
62.610 12.897807
62.615 12.990877
62.620 13.3755
62.625 13.270586
62.630 13.360841
62.635 13.594027
62.640 13.904776
62.645 13.993967
62.650 14.221675
62.655 14.371395
62.660 15.108927
62.665 15.567415
62.670 15.479342
62.675 15.741006
62.680 15.619294
62.685 15.652306
62.690 15.571914
62.695 15.866994
62.700 15.888618
62.705 15.972348
62.710 16.21104
62.715 16.855713
62.720 16.960039
62.725 16.689703
62.730 16.386709
62.735 16.317785
62.740 16.191206
62.745 15.991107
62.750 16.035917
62.755 16.253809
62.760 16.694077
62.765 16.102419
62.770 15.593702
62.775 14.726926
62.780 14.273153
62.785 13.829773
62.790 13.800874
62.795 13.66902
62.800 14.111753
62.805 14.791005
62.810 15.576715
62.815 15.842618
62.820 15.970907
62.825 15.858029
62.830 15.964052
62.835 16.197973
62.840 16.235023
62.845 16.498665
62.850 16.59473
62.855 16.180096
62.860 15.913632
62.865 15.346956
62.870 14.597471
62.875 14.353292
62.880 14.379096
62.885 14.921268
62.890 15.392114
62.895 15.449761
62.900 16.300737
62.905 16.756819
62.910 16.891781
62.915 16.613661
62.920 16.066246
62.925 15.519637
62.930 15.344229
62.935 14.962609
62.940 14.165326
62.945 13.960002
62.950 13.598641
62.955 13.705238
62.960 14.086697
62.965 14.159458
62.970 14.435558
62.975 15.381099
62.980 15.569899
62.985 16.131834
62.990 16.204517
62.995 16.523071
63.000 16.977013
63.005 16.488598
63.010 16.250422
63.015 16.176628
63.020 15.582185
63.025 15.603941
63.030 15.454359
63.035 15.273032
63.040 15.498569
63.045 15.945123
63.050 16.004839
63.055 16.228315
63.060 15.957561
63.065 15.484246
63.070 16.174942
63.075 16.57486
63.080 16.332203
63.085 16.260193
63.090 16.232277
63.095 16.438036
63.100 17.19656
63.105 16.708757
63.110 16.40313
63.115 16.738632
63.120 17.657442
63.125 18.182337
63.130 18.903347
63.135 19.100616
63.140 19.244354
63.145 19.217709
63.150 18.831116
63.155 18.188707
63.160 17.855446
63.165 17.150743
63.170 16.46282
63.175 15.874229
63.180 15.801919
63.185 15.548192
63.190 15.408274
63.195 15.478034
63.200 15.877609
63.205 15.826319
63.210 16.455519
63.215 16.77037
63.220 16.947447
63.225 16.754181
63.230 16.218441
63.235 16.119524
63.240 16.279959
63.245 15.902275
63.250 15.231874
63.255 14.756758
63.260 15.051521
63.265 15.55269
63.270 15.222299
63.275 15.334921
63.280 15.673944
63.285 16.297987
63.290 16.576056
63.295 16.873165
63.300 16.737055
63.305 17.051649
63.310 16.790712
63.315 16.839123
63.320 17.429255
63.325 17.930859
63.330 17.147541
63.335 17.179693
63.340 16.82276
63.345 16.888319
63.350 16.357355
63.355 15.777332
63.360 15.736991
63.365 16.032721
63.370 15.889879
63.375 16.069925
63.380 16.18346
63.385 15.791641
63.390 15.873028
63.395 15.947396
63.400 15.897489
63.405 16.318439
63.410 16.309563
63.415 16.705153
63.420 17.524969
63.425 17.131678
63.430 16.95834
63.435 17.16592
63.440 17.108377
63.445 16.989075
63.450 16.626232
63.455 16.462427
63.460 16.657394
63.465 17.09922
63.470 16.996897
63.475 16.868296
63.480 16.958912
63.485 17.036728
63.490 17.074408
63.495 17.175089
63.500 17.207233
63.505 17.525019
63.510 17.956274
63.515 18.346153
63.520 18.299616
63.525 18.325747
63.530 17.903631
63.535 17.802097
63.540 17.898756
63.545 17.718325
63.550 17.174788
63.555 16.78524
63.560 16.469812
63.565 16.079542
63.570 15.792542
63.575 15.655004
63.580 15.644245
63.585 16.201731
63.590 16.749834
63.595 17.129976
63.600 17.539038
63.605 17.812815
63.610 17.65312
63.615 17.648094
63.620 17.085627
63.625 16.424526
63.630 16.302855
63.635 16.243937
63.640 16.167545
63.645 16.700195
63.650 16.682661
63.655 17.783966
63.660 18.380201
63.665 18.861103
63.670 19.148491
63.675 18.642521
63.680 18.015657
63.685 17.720459
63.690 17.353413
63.695 17.209169
63.700 17.502224
63.705 17.550646
63.710 17.591379
63.715 17.745573
63.720 17.838469
63.725 17.460537
63.730 17.33016
63.735 17.201838
63.740 17.609343
63.745 17.673748
63.750 18.145935
63.755 18.299831
63.760 18.422653
63.765 18.044285
63.770 17.59342
63.775 17.787083
63.780 18.000685
63.785 17.96657
63.790 17.914223
63.795 17.694296
63.800 17.898853
63.805 18.121
63.810 17.519428
63.815 17.328703
63.820 16.664303
63.825 17.329767
63.830 17.818344
63.835 18.078897
63.840 18.36215
63.845 18.800659
63.850 19.154301
63.855 19.424252
63.860 18.890587
63.865 18.755718
63.870 18.897362
63.875 18.967562
63.880 18.535101
63.885 18.287796
63.890 18.062311
63.895 18.348734
63.900 18.67135
63.905 18.907513
63.910 19.277555
63.915 19.426798
63.920 19.388178
63.925 19.523304
63.930 19.555553
63.935 19.21731
63.940 18.481148
63.945 18.194372
63.950 18.207365
63.955 18.502283
63.960 18.657412
63.965 18.805393
63.970 19.099995
63.975 19.442749
63.980 19.203581
63.985 20.067156
63.990 20.648785
63.995 20.126493
64.000 19.717306
64.005 19.899561
64.010 19.707333
64.015 20.168919
64.020 20.054173
64.025 20.606075
64.030 21.59046
64.035 22.417639
64.040 22.941059
64.045 23.791975
64.050 23.93257
64.055 23.642349
64.060 23.112286
64.065 23.16346
64.070 23.395636
64.075 23.635302
64.080 23.52212
64.085 23.363613
64.090 23.833967
64.095 24.213923
64.100 24.392881
64.105 24.445499
64.110 24.621986
64.115 25.712734
64.120 26.736935
64.125 26.951998
64.130 26.869825
64.135 26.740126
64.140 26.485891
64.145 26.117785
64.150 25.92791
64.155 26.042448
64.160 27.2731
64.165 28.137587
64.170 29.097994
64.175 29.893948
64.180 29.976084
64.185 30.230755
64.190 31.051016
64.195 31.436909
64.200 32.189594
64.205 32.38063
64.210 32.451778
64.215 33.638222
64.220 34.753918
64.225 35.091278
64.230 34.482815
64.235 34.024254
64.240 34.609245
64.245 35.33205
64.250 34.925755
64.255 35.25573
64.260 36.268417
64.265 37.507362
64.270 38.376186
64.275 38.432285
64.280 38.938782
64.285 39.816765
64.290 40.412693
64.295 39.923279
64.300 40.258469
64.305 40.525627
64.310 40.840851
64.315 41.275887
64.320 41.843918
64.325 41.751831
64.330 41.2766
64.335 41.989822
64.340 42.690464
64.345 42.616444
64.350 42.261234
64.355 42.801434
64.360 44.132854
64.365 45.694824
64.370 46.016479
64.375 46.289864
64.380 47.215931
64.385 46.986465
64.390 46.700062
64.395 47.72123
64.400 47.585644
64.405 47.639355
64.410 47.831177
64.415 47.714455
64.420 48.366783
64.425 48.158161
64.430 47.136822
64.435 47.553768
64.440 46.672836
64.445 46.662376
64.450 46.961708
64.455 46.890652
64.460 46.463562
64.465 45.358471
64.470 43.965511
64.475 43.979961
64.480 44.697403
64.485 45.342495
64.490 45.093105
64.495 45.284958
64.500 45.459824
64.505 45.857754
64.510 44.800941
64.515 43.277824
64.520 42.027855
64.525 41.664764
64.530 40.883591
64.535 40.79813
64.540 40.301193
64.545 40.38456
64.550 39.862816
64.555 39.682594
64.560 38.626774
64.565 38.217094
64.570 36.58429
64.575 35.826134
64.580 35.23439
64.585 34.989567
64.590 34.600048
64.595 33.768871
64.600 33.187908
64.605 33.313103
64.610 33.474072
64.615 33.205471
64.620 32.908138
64.625 32.404644
64.630 32.211006
64.635 31.620298
64.640 30.716131
64.645 30.263988
64.650 29.803442
64.655 28.925179
64.660 28.842911
64.665 28.788757
64.670 28.649158
64.675 28.596451
64.680 28.186604
64.685 27.832949
64.690 27.922075
64.695 27.865042
64.700 27.726524
64.705 27.463923
64.710 26.852545
64.715 26.459227
64.720 25.369272
64.725 24.77877
64.730 24.056278
64.735 24.052975
64.740 24.280003
64.745 23.900078
64.750 24.344221
64.755 24.37948
64.760 23.817047
64.765 23.837532
64.770 23.473484
64.775 23.276163
64.780 22.704235
64.785 21.648775
64.790 21.589027
64.795 21.857985
64.800 21.76103
64.805 21.814777
64.810 21.34754
64.815 20.500744
64.820 20.355213
64.825 20.803898
64.830 20.424839
64.835 20.848509
64.840 21.538021
64.845 22.228109
64.850 23.117804
64.855 23.511316
64.860 23.61343
64.865 23.828478
64.870 23.706274
64.875 23.024546
64.880 22.960882
64.885 22.65275
64.890 22.146788
64.895 21.786156
64.900 21.941059
64.905 21.730053
64.910 21.343943
64.915 20.948872
64.920 21.815901
64.925 22.463528
64.930 22.855593
64.935 23.197586
64.940 23.324484
64.945 23.225403
64.950 23.324934
64.955 22.781157
64.960 22.333166
64.965 21.938967
64.970 21.417637
64.975 21.399307
64.980 21.804195
64.985 22.343151
64.990 22.708933
64.995 23.274565
65.000 23.471371
65.005 23.492167
65.010 23.89539
65.015 24.410316
65.020 25.548738
65.025 26.762804
65.030 26.464312
65.035 27.402658
65.040 28.262205
65.045 27.870626
65.050 27.147163
65.055 25.822474
65.060 25.236704
65.065 25.974813
65.070 26.165335
65.075 26.374104
65.080 27.836039
65.085 28.302977
65.090 28.88624
65.095 29.567915
65.100 29.658407
65.105 29.515835
65.110 29.827671
65.115 29.481232
65.120 29.817945
65.125 30.352413
65.130 30.521652
65.135 30.836254
65.140 31.115742
65.145 31.097353
65.150 31.337488
65.155 31.417757
65.160 30.859583
65.165 30.69751
65.170 31.272747
65.175 32.144348
65.180 32.604542
65.185 32.288715
65.190 32.455383
65.195 33.006054
65.200 33.810337
65.205 33.910778
65.210 33.600128
65.215 33.718811
65.220 34.42347
65.225 34.649918
65.230 36.175648
65.235 35.681881
65.240 35.55545
65.245 35.655041
65.250 35.660511
65.255 35.293995
65.260 34.910404
65.265 33.802547
65.270 34.515133
65.275 34.435707
65.280 33.692459
65.285 33.308552
65.290 33.59898
65.295 34.003307
65.300 33.685497
65.305 32.840508
65.310 33.249252
65.315 34.040302
65.320 34.075386
65.325 34.459167
65.330 34.507355
65.335 34.623592
65.340 34.903381
65.345 34.585804
65.350 34.292912
65.355 34.507671
65.360 34.67379
65.365 34.696911
65.370 35.335762
65.375 35.849506
65.380 35.871162
65.385 36.059406
65.390 36.328747
65.395 36.480385
65.400 37.009808
65.405 36.601761
65.410 36.298283
65.415 36.606228
65.420 36.68795
65.425 37.008404
65.430 36.881325
65.435 36.663704
65.440 37.020725
65.445 37.096001
65.450 37.072784
65.455 36.831684
65.460 36.732147
65.465 36.559204
65.470 36.52747
65.475 37.896885
65.480 38.018421
65.485 37.812855
65.490 37.692776
65.495 38.185009
65.500 38.57584
65.505 38.574352
65.510 37.298576
65.515 37.226601
65.520 37.815895
65.525 37.867859
65.530 37.148396
65.535 36.846088
65.540 36.80294
65.545 37.774235
65.550 38.294258
65.555 38.412842
65.560 38.66898
65.565 39.448887
65.570 40.321198
65.575 40.346382
65.580 39.742702
65.585 39.822998
65.590 39.780563
65.595 39.482288
65.600 39.208683
65.605 38.909332
65.610 38.950546
65.615 38.270538
65.620 38.3288
65.625 38.029274
65.630 38.001041
65.635 37.221512
65.640 36.753517
65.645 36.907574
65.650 36.802536
65.655 36.163124
65.660 36.554131
65.665 36.725136
65.670 35.992592
65.675 35.867733
65.680 35.014977
65.685 35.10767
65.690 35.069473
65.695 34.202961
65.700 33.770306
65.705 34.649326
65.710 34.131672
65.715 34.540401
65.720 34.680412
65.725 34.297985
65.730 34.531189
65.735 34.559002
65.740 34.22905
65.745 34.326046
65.750 33.763885
65.755 32.85817
65.760 32.731415
65.765 32.363148
65.770 32.091358
65.775 32.395721
65.780 32.657581
65.785 32.394176
65.790 31.880402
65.795 31.623722
65.800 31.156248
65.805 30.826355
65.810 30.224829
65.815 29.560619
65.820 29.699869
65.825 29.718952
65.830 29.601877
65.835 29.227846
65.840 28.908234
65.845 29.442684
65.850 29.573351
65.855 29.347151
65.860 29.573122
65.865 29.712934
65.870 29.890263
65.875 29.35899
65.880 28.300474
65.885 27.619534
65.890 27.131596
65.895 26.644819
65.900 26.926609
65.905 27.041113
65.910 26.172077
65.915 25.653193
65.920 25.763845
65.925 25.827173
65.930 24.569159
65.935 23.909689
65.940 23.732359
65.945 24.151844
65.950 24.322828
65.955 23.677517
65.960 23.316721
65.965 23.578011
65.970 22.972937
65.975 22.720776
65.980 22.13516
65.985 21.576651
65.990 21.637905
65.995 21.570713
66.000 21.297293
66.005 20.605383
66.010 20.328945
66.015 21.413591
66.020 22.551685
66.025 22.507175
66.030 22.48958
66.035 22.188995
66.040 22.339825
66.045 22.364025
66.050 21.706669
66.055 20.868311
66.060 20.541883
66.065 20.397383
66.070 20.377224
66.075 20.381535
66.080 19.912426
66.085 19.089628
66.090 19.086275
66.095 18.743208
66.100 18.170578
66.105 17.840891
66.110 17.81222
66.115 18.30142
66.120 18.44997
66.125 18.60845
66.130 19.153595
66.135 19.29365
66.140 19.805061
66.145 20.066374
66.150 19.956339
66.155 19.849712
66.160 19.472101
66.165 18.955902
66.170 19.044678
66.175 19.019958
66.180 18.715549
66.185 18.688608
66.190 18.411762
66.195 18.421925
66.200 18.545078
66.205 18.256857
66.210 18.031218
66.215 18.070244
66.220 18.279598
66.225 19.023148
66.230 19.137985
66.235 19.401836
66.240 19.343395
66.245 19.321461
66.250 18.9314
66.255 18.580471
66.260 18.842772
66.265 18.765829
66.270 18.425938
66.275 18.026228
66.280 18.1313
66.285 18.937254
66.290 19.307199
66.295 18.824303
66.300 18.851791
66.305 19.372702
66.310 20.127468
66.315 20.02096
66.320 19.573849
66.325 19.765047
66.330 19.710564
66.335 19.611439
66.340 18.774181
66.345 17.874315
66.350 17.936081
66.355 17.8234
66.360 17.184631
66.365 16.506535
66.370 16.226141
66.375 16.54882
66.380 16.781334
66.385 16.807732
66.390 16.571335
66.395 16.400368
66.400 16.636253
66.405 16.730343
66.410 17.121611
66.415 16.802979
66.420 16.168833
66.425 16.364807
66.430 17.209307
66.435 17.638466
66.440 17.49151
66.445 17.17396
66.450 17.824518
66.455 18.492899
66.460 18.414932
66.465 17.958229
66.470 17.964832
66.475 17.903912
66.480 18.661345
66.485 18.571499
66.490 18.851423
66.495 18.81632
66.500 18.80748
66.505 18.476799
66.510 18.553923
66.515 17.799044
66.520 17.615976
66.525 17.399122
66.530 17.525547
66.535 17.490026
66.540 17.437593
66.545 17.383175
66.550 17.281477
66.555 17.317015
66.560 17.403187
66.565 17.143587
66.570 17.40317
66.575 17.902411
66.580 17.891296
66.585 17.672161
66.590 17.492804
66.595 17.089769
66.600 16.647787
66.605 16.157459
66.610 16.110521
66.615 15.471102
66.620 16.17086
66.625 16.235899
66.630 16.474113
66.635 16.944359
66.640 17.090485
66.645 16.688429
66.650 16.975386
66.655 17.142879
66.660 16.86997
66.665 16.63596
66.670 16.512371
66.675 16.872681
66.680 18.014273
66.685 18.261179
66.690 17.965199
66.695 18.233267
66.700 18.456047
66.705 18.166765
66.710 18.179195
66.715 17.488775
66.720 17.577246
66.725 17.615128
66.730 17.368999
66.735 17.15543
66.740 17.434423
66.745 16.879747
66.750 16.509823
66.755 15.904079
66.760 15.733528
66.765 15.707221
66.770 15.823112
66.775 16.050991
66.780 16.306223
66.785 16.489733
66.790 16.545666
66.795 16.4473
66.800 16.552309
66.805 16.656237
66.810 17.100313
66.815 17.31896
66.820 17.109949
66.825 17.270981
66.830 17.180704
66.835 17.187386
66.840 17.475529
66.845 17.125845
66.850 17.261656
66.855 16.887093
66.860 17.295586
66.865 18.034193
66.870 18.5784
66.875 18.025173
66.880 17.677528
66.885 17.482418
66.890 17.452127
66.895 17.038469
66.900 16.746531
66.905 16.694296
66.910 16.873838
66.915 17.121916
66.920 17.289223
66.925 17.763258
66.930 17.808062
66.935 17.71319
66.940 17.403538
66.945 17.361454
66.950 16.936811
66.955 17.184647
66.960 17.564243
66.965 17.654467
66.970 18.109818
66.975 18.749029
66.980 19.44886
66.985 20.121481
66.990 20.355814
66.995 20.101582
67.000 19.798645
67.005 19.460756
67.010 18.849775
67.015 18.515696
67.020 18.604696
67.025 18.149498
67.030 18.591587
67.035 19.063629
67.040 19.277657
67.045 19.304222
67.050 18.930502
67.055 18.395651
67.060 18.558033
67.065 18.193783
67.070 18.021194
67.075 17.390709
67.080 16.825317
67.085 17.177279
67.090 17.44149
67.095 17.316597
67.100 16.955944
67.105 16.359501
67.110 16.7248
67.115 17.310328
67.120 17.498909
67.125 17.544586
67.130 17.320173
67.135 17.047977
67.140 17.242899
67.145 17.18321
67.150 16.413952
67.155 15.933664
67.160 15.905182
67.165 16.416595
67.170 16.784534
67.175 17.050797
67.180 17.442747
67.185 18.068699
67.190 18.568134
67.195 18.632278
67.200 18.173454
67.205 18.333666
67.210 17.76408
67.215 17.758659
67.220 17.27721
67.225 16.594782
67.230 17.035114
67.235 17.410419
67.240 17.140234
67.245 16.980318
67.250 16.875196
67.255 16.925859
67.260 17.430218
67.265 17.117334
67.270 17.133188
67.275 17.627201
67.280 18.038124
67.285 18.477636
67.290 18.687162
67.295 18.749096
67.300 18.683882
67.305 18.590025
67.310 18.56875
67.315 18.568439
67.320 17.899984
67.325 17.286095
67.330 16.315868
67.335 16.027695
67.340 16.602863
67.345 16.53751
67.350 16.034805
67.355 15.889566
67.360 16.154644
67.365 16.983679
67.370 16.718498
67.375 16.401737
67.380 16.306967
67.385 16.818218
67.390 17.18903
67.395 16.928005
67.400 16.85445
67.405 16.710855
67.410 16.266073
67.415 16.139391
67.420 15.627632
67.425 15.477736
67.430 15.638198
67.435 15.757696
67.440 16.119953
67.445 15.542166
67.450 15.647116
67.455 16.054878
67.460 16.143656
67.465 16.5751
67.470 16.461296
67.475 17.001789
67.480 17.87932
67.485 18.470192
67.490 18.151882
67.495 18.506742
67.500 18.103586
67.505 18.237022
67.510 18.458288
67.515 18.527798
67.520 18.505857
67.525 19.340261
67.530 19.021469
67.535 18.640604
67.540 18.296253
67.545 17.951696
67.550 17.351973
67.555 16.640795
67.560 15.752061
67.565 16.107677
67.570 16.557949
67.575 16.518766
67.580 16.765581
67.585 17.529633
67.590 18.005348
67.595 18.301157
67.600 18.035555
67.605 17.970331
67.610 17.898903
67.615 17.212862
67.620 16.919201
67.625 17.019623
67.630 16.903751
67.635 16.562977
67.640 16.325453
67.645 16.324154
67.650 16.859558
67.655 17.224165
67.660 16.860939
67.665 16.719067
67.670 17.255209
67.675 17.210892
67.680 16.993933
67.685 17.228964
67.690 17.105051
67.695 17.126728
67.700 17.363188
67.705 17.280098
67.710 17.321709
67.715 16.922991
67.720 16.496231
67.725 16.025242
67.730 16.147419
67.735 16.100473
67.740 15.676679
67.745 15.559524
67.750 15.623992
67.755 15.152385
67.760 15.645497
67.765 15.832136
67.770 16.054024
67.775 16.411457
67.780 16.805233
67.785 17.511208
67.790 18.248722
67.795 18.166447
67.800 18.374662
67.805 17.958254
67.810 18.284489
67.815 18.282463
67.820 17.956732
67.825 17.266665
67.830 16.30402
67.835 15.872457
67.840 16.370358
67.845 16.104553
67.850 15.776113
67.855 15.991222
67.860 15.776279
67.865 16.081942
67.870 16.140341
67.875 16.001446
67.880 16.122755
67.885 16.650694
67.890 17.3424
67.895 17.833546
67.900 18.853582
67.905 19.454456
67.910 19.6255
67.915 19.496925
67.920 19.177231
67.925 18.833282
67.930 18.84726
67.935 18.323931
67.940 17.987888
67.945 18.422998
67.950 18.042606
67.955 17.32719
67.960 17.447392
67.965 17.424507
67.970 17.641232
67.975 17.696541
67.980 17.539391
67.985 18.535397
67.990 18.909698
67.995 18.957777
68.000 18.488056
68.005 18.064835
68.010 17.987446
68.015 18.145086
68.020 17.872471
68.025 18.080526
68.030 18.10037
68.035 19.205256
68.040 19.173098
68.045 18.875542
68.050 18.328554
68.055 18.026144
68.060 17.810827
68.065 18.044922
68.070 17.856817
68.075 17.957155
68.080 18.343702
68.085 18.831553
68.090 19.15724
68.095 18.711023
68.100 18.848154
68.105 18.883648
68.110 19.093445
68.115 18.58309
68.120 18.051283
68.125 18.438604
68.130 18.853563
68.135 18.771425
68.140 18.204659
68.145 18.501234
68.150 19.297735
68.155 19.622879
68.160 19.884626
68.165 19.56011
68.170 19.065168
68.175 19.434128
68.180 19.154596
68.185 18.892523
68.190 19.24704
68.195 19.073303
68.200 19.739986
68.205 20.557764
68.210 21.289738
68.215 21.599371
68.220 21.322933
68.225 21.039043
68.230 20.796597
68.235 20.417067
68.240 19.468414
68.245 19.212212
68.250 19.442856
68.255 20.102728
68.260 20.427864
68.265 21.003082
68.270 21.456537
68.275 21.542843
68.280 21.53994
68.285 21.645977
68.290 21.159023
68.295 20.970146
68.300 20.629242
68.305 20.741104
68.310 21.246244
68.315 21.400373
68.320 21.767759
68.325 22.283987
68.330 22.631504
68.335 23.016014
68.340 22.938116
68.345 23.38974
68.350 23.506208
68.355 23.665377
68.360 23.453876
68.365 23.103613
68.370 23.815756
68.375 24.196136
68.380 24.792213
68.385 25.090864
68.390 25.145058
68.395 25.89838
68.400 26.272776
68.405 26.272409
68.410 27.083246
68.415 27.060163
68.420 26.852589
68.425 27.340277
68.430 27.276484
68.435 27.294802
68.440 27.458994
68.445 27.431051
68.450 27.613285
68.455 27.834517
68.460 27.251266
68.465 27.824652
68.470 27.704588
68.475 27.201504
68.480 26.479158
68.485 26.355579
68.490 27.229706
68.495 27.678524
68.500 27.933485
68.505 28.826628
68.510 29.374226
68.515 29.949379
68.520 30.911634
68.525 30.46566
68.530 31.367889
68.535 31.597954
68.540 31.870417
68.545 31.887121
68.550 31.750404
68.555 32.260609
68.560 32.979702
68.565 33.124172
68.570 33.09708
68.575 33.428719
68.580 33.28989
68.585 33.657967
68.590 34.324974
68.595 33.400524
68.600 32.870167
68.605 33.377186
68.610 33.159569
68.615 33.33474
68.620 33.619087
68.625 33.492882
68.630 33.940544
68.635 34.37925
68.640 34.238186
68.645 35.017574
68.650 35.363312
68.655 34.695995
68.660 34.538204
68.665 34.61544
68.670 34.274494
68.675 33.395039
68.680 32.858593
68.685 32.631527
68.690 32.82901
68.695 32.715965
68.700 33.145477
68.705 33.207222
68.710 33.61367
68.715 34.23568
68.720 34.581417
68.725 35.166222
68.730 35.676125
68.735 35.911251
68.740 36.331169
68.745 36.702255
68.750 36.599602
68.755 36.200012
68.760 35.442707
68.765 35.456104
68.770 34.404434
68.775 33.934765
68.780 33.188847
68.785 33.044884
68.790 33.311504
68.795 33.481876
68.800 33.966381
68.805 34.960674
68.810 35.613873
68.815 35.92931
68.820 36.052963
68.825 36.451817
68.830 35.783634
68.835 35.390163
68.840 35.329601
68.845 35.351929
68.850 35.73196
68.855 35.756348
68.860 35.411156
68.865 35.976524
68.870 35.410583
68.875 34.974308
68.880 34.192215
68.885 33.46843
68.890 33.212605
68.895 33.748814
68.900 33.46788
68.905 33.44939
68.910 33.395378
68.915 34.124172
68.920 34.005043
68.925 33.760094
68.930 32.886547
68.935 32.519302
68.940 31.548836
68.945 31.159098
68.950 30.525656
68.955 30.393948
68.960 30.732115
68.965 30.910357
68.970 30.80862
68.975 31.333483
68.980 31.066589
68.985 30.694553
68.990 30.288668
68.995 29.538284
69.000 28.81312
69.005 29.008961
69.010 29.659771
69.015 29.246773
69.020 28.889147
69.025 28.665026
69.030 28.537397
69.035 29.022572
69.040 28.396278
69.045 27.229828
69.050 28.267771
69.055 28.899275
69.060 28.690302
69.065 29.07893
69.070 28.16354
69.075 27.84745
69.080 28.096718
69.085 27.11047
69.090 26.350069
69.095 26.444923
69.100 26.389051
69.105 26.804678
69.110 26.85568
69.115 26.802507
69.120 26.715265
69.125 27.148188
69.130 26.578075
69.135 25.972904
69.140 25.649969
69.145 24.371038
69.150 24.016411
69.155 23.249393
69.160 22.649151
69.165 22.61828
69.170 22.011806
69.175 21.515293
69.180 21.937319
69.185 21.985374
69.190 21.77297
69.195 21.607193
69.200 21.44986
69.205 21.42231
69.210 21.647205
69.215 21.586205
69.220 21.712831
69.225 21.971842
69.230 21.559797
69.235 21.610785
69.240 21.829388
69.245 22.303846
69.250 21.806358
69.255 21.645128
69.260 21.822939
69.265 22.038092
69.270 21.880285
69.275 20.965616
69.280 20.513868
69.285 21.188963
69.290 20.588171
69.295 19.981201
69.300 19.607605
69.305 19.443727
69.310 19.676765
69.315 18.946285
69.320 17.729204
69.325 18.190914
69.330 18.660053
69.335 19.009377
69.340 19.190676
69.345 19.008373
69.350 20.124434
69.355 20.601505
69.360 20.290047
69.365 20.377674
69.370 19.989536
69.375 20.097372
69.380 20.296293
69.385 19.970119
69.390 20.336946
69.395 20.373075
69.400 20.281231
69.405 20.377533
69.410 20.644152
69.415 19.947287
69.420 19.893461
69.425 20.523308
69.430 20.66745
69.435 20.642597
69.440 20.51185
69.445 20.49872
69.450 20.657766
69.455 19.929136
69.460 19.018661
69.465 19.442444
69.470 19.6115
69.475 19.297068
69.480 19.1745
69.485 19.331156
69.490 19.586197
69.495 19.339745
69.500 18.881861
69.505 18.823153
69.510 19.100018
69.515 18.940081
69.520 18.15024
69.525 17.192177
69.530 17.01251
69.535 17.347118
69.540 17.42351
69.545 17.425282
69.550 17.876432
69.555 18.344051
69.560 18.951656
69.565 19.37443
69.570 19.688147
69.575 19.882872
69.580 19.715784
69.585 19.004234
69.590 19.397854
69.595 19.149303
69.600 18.411064
69.605 17.890026
69.610 17.965569
69.615 17.765312
69.620 18.084408
69.625 17.839622
69.630 17.709524
69.635 17.634394
69.640 17.66489
69.645 17.249474
69.650 17.448092
69.655 17.874565
69.660 19.082205
69.665 19.896498
69.670 19.840551
69.675 18.944033
69.680 19.259926
69.685 19.6612
69.690 19.436314
69.695 18.280657
69.700 17.548843
69.705 17.797306
69.710 18.604073
69.715 18.277445
69.720 17.996878
69.725 17.540762
69.730 17.563564
69.735 18.058462
69.740 18.524719
69.745 18.379501
69.750 18.553471
69.755 18.146402
69.760 18.396189
69.765 18.768766
69.770 18.259377
69.775 17.206993
69.780 16.945583
69.785 16.620932
69.790 16.882265
69.795 16.804605
69.800 16.866053
69.805 17.027027
69.810 17.589245
69.815 18.329559
69.820 19.048019
69.825 18.075109
69.830 17.933229
69.835 17.998627
69.840 17.854986
69.845 17.886566
69.850 17.318148
69.855 17.023869
69.860 17.675076
69.865 17.750216
69.870 18.052952
69.875 18.198469
69.880 18.231937
69.885 18.677742
69.890 18.994778
69.895 18.517263
69.900 18.395517
69.905 18.688297
69.910 19.340302
69.915 19.694447
69.920 19.427319
69.925 19.440977
69.930 19.694744
69.935 19.393902
69.940 18.594198
69.945 17.951584
69.950 17.40941
69.955 17.370861
69.960 16.998405
69.965 17.043182
69.970 16.793833
69.975 16.881721
69.980 16.949751
69.985 17.09045
69.990 16.845039
69.995 17.20245
70.000 17.90774
70.005 18.006172
70.010 17.427578
70.015 17.136379
70.020 17.288271
70.025 17.63039
70.030 17.379295
70.035 16.785198
70.040 17.184175
70.045 17.572664
70.050 17.529299
70.055 17.644699
70.060 17.868383
70.065 17.830385
70.070 18.04191
70.075 17.602879
70.080 17.829781
70.085 18.025377
70.090 17.820351
70.095 17.415956
70.100 17.462688
70.105 16.551714
70.110 16.344782
70.115 15.904874
70.120 16.090475
70.125 15.85482
70.130 15.971055
70.135 16.082832
70.140 16.863108
70.145 17.377451
70.150 17.351198
70.155 17.278492
70.160 17.58419
70.165 17.561653
70.170 18.079788
70.175 18.534342
70.180 18.607676
70.185 18.677927
70.190 18.829664
70.195 19.048637
70.200 18.610056
70.205 17.860294
70.210 17.170391
70.215 16.871426
70.220 16.695164
70.225 16.644102
70.230 16.563892
70.235 17.156639
70.240 17.184475
70.245 17.5553
70.250 17.856924
70.255 17.900669
70.260 17.316235
70.265 17.073936
70.270 17.086655
70.275 17.3449
70.280 17.531122
70.285 17.252674
70.290 17.317968
70.295 17.862932
70.300 18.006222
70.305 17.650846
70.310 17.967674
70.315 18.075403
70.320 18.235104
70.325 17.850159
70.330 17.425274
70.335 17.619339
70.340 18.104675
70.345 17.732576
70.350 17.368259
70.355 17.177118
70.360 17.837353
70.365 18.373249
70.370 18.183926
70.375 17.360052
70.380 17.600334
70.385 17.516226
70.390 17.9189
70.395 17.877052
70.400 17.569397
70.405 18.096832
70.410 18.758461
70.415 18.669975
70.420 19.208324
70.425 19.044617
70.430 18.684139
70.435 18.944767
70.440 18.544104
70.445 17.877382
70.450 17.948673
70.455 17.577425
70.460 17.526653
70.465 17.057011
70.470 17.072283
70.475 17.398886
70.480 18.064358
70.485 17.670856
70.490 17.621473
70.495 17.802645
70.500 18.659176
70.505 18.661432
70.510 18.873972
70.515 18.525564
70.520 18.951454
70.525 18.602924
70.530 18.357851
70.535 18.006042
70.540 17.95178
70.545 17.554617
70.550 17.675669
70.555 17.701967
70.560 17.772085
70.565 17.924858
70.570 17.650166
70.575 17.892561
70.580 18.336708
70.585 18.475676
70.590 18.474791
70.595 18.453451
70.600 18.745352
70.605 18.772072
70.610 18.192991
70.615 17.448671
70.620 17.704828
70.625 17.54563
70.630 17.317387
70.635 16.607458
70.640 16.634029
70.645 16.482388
70.650 15.89805
70.655 15.284658
70.660 15.262127
70.665 15.248567
70.670 15.697521
70.675 15.290362
70.680 15.728937
70.685 16.524666
70.690 16.793941
70.695 16.526398
70.700 16.954498
70.705 17.024841
70.710 17.649269
70.715 18.217722
70.720 17.893072
70.725 18.347008
70.730 18.445488
70.735 18.202562
70.740 18.176172
70.745 18.226208
70.750 17.917545
70.755 17.826584
70.760 17.507442
70.765 17.824999
70.770 17.745058
70.775 17.593319
70.780 16.780756
70.785 16.9048
70.790 17.365564
70.795 17.140839
70.800 17.414804
70.805 18.003508
70.810 18.494242
70.815 18.97547
70.820 19.435223
70.825 19.692911
70.830 19.306677
70.835 19.399611
70.840 18.859358
70.845 18.297909
70.850 17.980413
70.855 16.840389
70.860 16.854553
70.865 17.142292
70.870 16.415699
70.875 16.071817
70.880 16.175072
70.885 16.125383
70.890 16.587934
70.895 16.341387
70.900 16.370821
70.905 16.360861
70.910 16.535259
70.915 16.255142
70.920 16.198456
70.925 15.921728
70.930 15.759899
70.935 15.745152
70.940 16.183382
70.945 16.459358
70.950 16.936724
70.955 17.07427
70.960 17.502596
70.965 17.741734
70.970 17.649681
70.975 17.497047
70.980 17.24299
70.985 17.510237
70.990 17.515686
70.995 17.439468
71.000 18.106705
71.005 18.585371
71.010 18.886381
71.015 18.826616
71.020 18.523483
71.025 18.627125
71.030 17.914591
71.035 17.490192
71.040 17.253662
71.045 17.523773
71.050 17.343906
71.055 17.360518
71.060 17.234283
71.065 17.518932
71.070 17.130573
71.075 16.642769
71.080 16.512941
71.085 16.595476
71.090 16.670841
71.095 17.255589
71.100 17.201004
71.105 17.143372
71.110 17.201365
71.115 17.209352
71.120 17.454334
71.125 17.452702
71.130 17.173586
71.135 17.044151
71.140 17.188259
71.145 17.518742
71.150 17.801317
71.155 17.627773
71.160 17.571724
71.165 17.605869
71.170 18.047012
71.175 18.09861
71.180 17.79442
71.185 16.985064
71.190 16.843246
71.195 16.694273
71.200 16.911812
71.205 16.910589
71.210 16.895517
71.215 17.613214
71.220 18.180914
71.225 17.898659
71.230 17.494104
71.235 17.406624
71.240 17.471827
71.245 17.214327
71.250 17.133862
71.255 17.242481
71.260 18.008108
71.265 17.535553
71.270 16.923943
71.275 16.475925
71.280 16.318554
71.285 16.137836
71.290 15.552257
71.295 15.264422
71.300 15.30599
71.305 15.931129
71.310 15.7796
71.315 15.511373
71.320 15.449186
71.325 15.473147
71.330 15.656035
71.335 16.014727
71.340 16.130428
71.345 16.778625
71.350 16.782507
71.355 17.346918
71.360 17.57045
71.365 17.992821
71.370 18.128445
71.375 17.640717
71.380 17.357399
71.385 17.218342
71.390 16.852516
71.395 17.109499
71.400 17.151783
71.405 17.205667
71.410 17.448616
71.415 17.569065
71.420 17.63114
71.425 17.443172
71.430 16.97109
71.435 16.743334
71.440 16.631084
71.445 16.368111
71.450 16.25416
71.455 16.136232
71.460 16.411716
71.465 16.560148
71.470 16.87018
71.475 17.281708
71.480 17.666628
71.485 18.068165
71.490 18.053667
71.495 17.790173
71.500 17.653997
71.505 17.464022
71.510 17.095997
71.515 16.87042
71.520 16.511202
71.525 16.539707
71.530 16.376366
71.535 16.763256
71.540 16.638058
71.545 16.918064
71.550 17.48357
71.555 17.537033
71.560 17.527271
71.565 17.903055
71.570 18.217377
71.575 17.954775
71.580 17.097363
71.585 17.264704
71.590 18.086636
71.595 18.587662
71.600 18.595861
71.605 18.227665
71.610 18.381447
71.615 18.588867
71.620 18.011881
71.625 17.29743
71.630 16.885309
71.635 16.85482
71.640 16.776697
71.645 17.304399
71.650 17.031191
71.655 17.182371
71.660 17.207985
71.665 16.922812
71.670 16.511908
71.675 16.841103
71.680 16.729338
71.685 16.913868
71.690 17.032295
71.695 17.393044
71.700 17.555174
71.705 17.542286
71.710 17.196798
71.715 17.244242
71.720 17.498632
71.725 17.65616
71.730 17.953272
71.735 18.124846
71.740 17.996483
71.745 17.6576
71.750 17.904814
71.755 17.695538
71.760 17.117624
71.765 16.580664
71.770 16.477926
71.775 16.855293
71.780 17.351576
71.785 17.096766
71.790 17.077961
71.795 17.15897
71.800 17.542057
71.805 17.355444
71.810 16.728376
71.815 16.348152
71.820 16.500139
71.825 16.393435
71.830 16.5147
71.835 16.841961
71.840 17.312101
71.845 18.195782
71.850 17.91065
71.855 17.900307
71.860 17.94533
71.865 17.690712
71.870 17.270838
71.875 17.081257
71.880 16.527081
71.885 16.810255
71.890 16.597467
71.895 16.346495
71.900 16.507805
71.905 16.767206
71.910 16.874636
71.915 16.980078
71.920 17.278164
71.925 17.532223
71.930 17.975958
71.935 17.881393
71.940 18.042692
71.945 17.939035
71.950 18.223537
71.955 17.797335
71.960 18.078976
71.965 17.679842
71.970 17.676573
71.975 17.272478
71.980 17.091509
71.985 17.42136
71.990 17.684727
71.995 17.261042
72.000 17.303305
72.005 17.256607
72.010 17.178709
72.015 16.768261
72.020 15.700707
72.025 15.520216
72.030 15.550175
72.035 15.765751
72.040 15.723014
72.045 16.168516
72.050 16.366634
72.055 16.404703
72.060 16.759947
72.065 17.048492
72.070 17.256304
72.075 17.432066
72.080 17.709827
72.085 17.984221
72.090 18.619528
72.095 18.518581
72.100 18.439468
72.105 17.912331
72.110 17.48728
72.115 16.946587
72.120 16.716698
72.125 16.413788
72.130 15.983879
72.135 15.966432
72.140 16.629963
72.145 16.675507
72.150 16.344143
72.155 16.391787
72.160 16.886452
72.165 16.57663
72.170 15.95639
72.175 15.568359
72.180 16.189835
72.185 16.50729
72.190 16.047476
72.195 16.460985
72.200 17.170969
72.205 17.597719
72.210 17.368246
72.215 17.193993
72.220 17.411245
72.225 17.524723
72.230 16.879526
72.235 16.637589
72.240 16.955137
72.245 17.083113
72.250 17.002214
72.255 16.973093
72.260 17.22888
72.265 17.39147
72.270 16.880293
72.275 16.604548
72.280 16.327974
72.285 16.290829
72.290 15.861453
72.295 15.627891
72.300 15.494445
72.305 15.120672
72.310 15.194963
72.315 15.343454
72.320 15.704143
72.325 15.936284
72.330 16.182503
72.335 16.911779
72.340 17.589022
72.345 17.551086
72.350 17.204596
72.355 16.94101
72.360 16.692749
72.365 16.549614
72.370 16.637644
72.375 16.486481
72.380 16.515057
72.385 16.419283
72.390 16.503057
72.395 16.029905
72.400 15.941957
72.405 15.851311
72.410 15.905012
72.415 15.986802
72.420 15.752006
72.425 16.170189
72.430 16.720116
72.435 16.704973
72.440 16.629328
72.445 16.865856
72.450 17.216267
72.455 17.218367
72.460 16.934483
72.465 16.698536
72.470 16.548414
72.475 16.647213
72.480 16.733021
72.485 17.022436
72.490 17.662874
72.495 17.720766
72.500 18.23601
72.505 18.413229
72.510 18.493774
72.515 18.127743
72.520 17.891462
72.525 17.589943
72.530 17.678938
72.535 17.496857
72.540 17.134865
72.545 17.11064
72.550 17.281677
72.555 17.515078
72.560 17.407181
72.565 17.050346
72.570 17.40933
72.575 17.631811
72.580 17.655973
72.585 17.256319
72.590 17.00522
72.595 17.529917
72.600 17.343208
72.605 17.243795
72.610 17.227186
72.615 17.391035
72.620 17.616814
72.625 17.684677
72.630 17.145555
72.635 17.264887
72.640 17.302917
72.645 17.947712
72.650 17.604849
72.655 17.768715
72.660 17.494267
72.665 17.371351
72.670 16.387632
72.675 15.926178
72.680 15.457582
72.685 15.394395
72.690 15.175183
72.695 15.483729
72.700 16.222187
72.705 17.056574
72.710 16.872066
72.715 16.823391
72.720 16.857288
72.725 17.16271
72.730 17.142185
72.735 16.87207
72.740 17.058142
72.745 17.12883
72.750 16.394968
72.755 16.239199
72.760 15.883651
72.765 16.105837
72.770 16.111052
72.775 16.05064
72.780 16.763006
72.785 17.735718
72.790 18.200209
72.795 18.229256
72.800 18.176498
72.805 17.71376
72.810 17.30756
72.815 16.776621
72.820 16.213341
72.825 15.865722
72.830 16.224499
72.835 15.995927
72.840 16.072601
72.845 16.252943
72.850 16.384346
72.855 16.588764
72.860 16.297117
72.865 15.481873
72.870 16.267506
72.875 16.009726
72.880 16.314116
72.885 15.904724
72.890 15.897532
72.895 16.349531
72.900 15.888395
72.905 15.554538
72.910 15.612041
72.915 15.597138
72.920 15.884864
72.925 15.472565
72.930 15.351582
72.935 15.923292
72.940 15.696289
72.945 15.841516
72.950 15.609609
72.955 15.716531
72.960 15.734434
72.965 16.250925
72.970 16.501581
72.975 16.222967
72.980 16.005978
72.985 15.348444
72.990 15.496522
72.995 15.589789
73.000 15.604856
