!@!!GADDS PLOTSO FILE: Chi integration type
!@!!Title/SampleName: map-38
!@!!Comment: ?
!@!!User: Bruker Instrument Administrator
!@!!Site: University of Illinois Chicago
!@!!Frame: map-38_01_000.gfrm
!@!!Wavelengths    1.54184   1.54056   1.54439
!@!!Frame angles: 2Theta: 63.000 Omega: 50.000 Phi: 0.000 Chi: 90.000
!@!!Integration range: 2Theta: 53.000 to 73.000  Gamma: -105.000 to -75.000
!@!!Integration method: bin normalized
!@!N
!@!SS
!@!M
!@!L 0.0 0.0 0.0 0.0
!@!XDegrees
!@!YCounts
53.000 9.223474
53.005 9.460362
53.010 9.4194
53.015 9.378913
53.020 9.497414
53.025 10.007429
53.030 10.047654
53.035 10.082836
53.040 10.234592
53.045 10.783267
53.050 10.489437
53.055 10.553889
53.060 10.404408
53.065 10.437344
53.070 9.937969
53.075 9.547536
53.080 9.257215
53.085 9.187656
53.090 8.569242
53.095 8.92555
53.100 9.450864
53.105 9.339689
53.110 8.958183
53.115 9.364258
53.120 9.963313
53.125 10.477008
53.130 10.159613
53.135 9.936843
53.140 10.369263
53.145 10.765593
53.150 10.161128
53.155 10.022965
53.160 9.626795
53.165 9.282723
53.170 9.122348
53.175 8.772366
53.180 8.537856
53.185 8.733408
53.190 8.407901
53.195 8.704291
53.200 8.909081
53.205 8.975185
53.210 9.209051
53.215 9.01778
53.220 8.98534
53.225 9.298362
53.230 9.502413
53.235 9.626353
53.240 9.620232
53.245 9.626079
53.250 9.925769
53.255 10.227446
53.260 9.966212
53.265 9.839087
53.270 9.726017
53.275 9.636762
53.280 9.280727
53.285 9.117734
53.290 8.689656
53.295 8.917914
53.300 8.672526
53.305 8.410215
53.310 8.695696
53.315 8.702351
53.320 8.745392
53.325 8.615175
53.330 8.358915
53.335 8.398737
53.340 8.444737
53.345 8.424082
53.350 8.685591
53.355 9.646799
53.360 10.638028
53.365 11.061348
53.370 11.431921
53.375 11.511569
53.380 11.601261
53.385 11.436638
53.390 10.815625
53.395 10.588638
53.400 10.487714
53.405 10.336621
53.410 10.53325
53.415 10.365565
53.420 9.758921
53.425 9.143007
53.430 8.733311
53.435 8.941486
53.440 8.940958
53.445 8.952015
53.450 9.046228
53.455 9.497953
53.460 9.936273
53.465 10.03724
53.470 9.769527
53.475 9.682739
53.480 9.433857
53.485 9.168379
53.490 9.071258
53.495 8.680949
53.500 8.313459
53.505 8.361491
53.510 8.955029
53.515 9.349874
53.520 9.839415
53.525 9.949679
53.530 10.556808
53.535 11.119335
53.540 11.078139
53.545 10.602742
53.550 10.010332
53.555 9.269621
53.560 9.408918
53.565 9.259085
53.570 9.603342
53.575 9.689649
53.580 10.579443
53.585 11.30549
53.590 12.297819
53.595 12.543689
53.600 12.642638
53.605 12.624
53.610 12.213219
53.615 11.662234
53.620 12.003095
53.625 11.645548
53.630 11.482335
53.635 11.274343
53.640 10.874022
53.645 10.812199
53.650 10.434943
53.655 9.962005
53.660 9.71878
53.665 9.56743
53.670 9.678073
53.675 10.111306
53.680 10.108471
53.685 10.404959
53.690 10.49979
53.695 11.071964
53.700 10.891129
53.705 10.381294
53.710 10.516103
53.715 10.647684
53.720 10.541789
53.725 10.519942
53.730 10.392682
53.735 10.922508
53.740 11.605831
53.745 11.805276
53.750 11.907301
53.755 11.853971
53.760 11.812402
53.765 11.809978
53.770 11.763329
53.775 11.541713
53.780 11.229693
53.785 11.214691
53.790 11.823895
53.795 12.376369
53.800 12.379979
53.805 12.298838
53.810 12.142754
53.815 12.072018
53.820 12.229795
53.825 11.297726
53.830 11.17261
53.835 11.073819
53.840 10.664595
53.845 10.324789
53.850 10.016842
53.855 9.989857
53.860 10.241593
53.865 9.600671
53.870 9.552436
53.875 10.224169
53.880 10.835839
53.885 11.02674
53.890 10.931964
53.895 10.78988
53.900 10.751326
53.905 10.54734
53.910 10.471575
53.915 10.423115
53.920 10.519349
53.925 10.297777
53.930 10.299125
53.935 10.578398
53.940 10.673855
53.945 10.291329
53.950 9.966177
53.955 9.73173
53.960 10.099505
53.965 11.018827
53.970 11.423189
53.975 12.081609
53.980 12.345558
53.985 12.548518
53.990 12.459447
53.995 11.390036
54.000 10.674324
54.005 10.833013
54.010 10.542878
54.015 10.606289
54.020 10.391363
54.025 10.687002
54.030 11.225881
54.035 10.999098
54.040 10.512532
54.045 10.429634
54.050 10.497908
54.055 10.567327
54.060 10.615224
54.065 10.897248
54.070 10.894062
54.075 10.795687
54.080 10.737278
54.085 10.686321
54.090 10.474936
54.095 10.307874
54.100 10.047415
54.105 9.877991
54.110 10.156661
54.115 10.147767
54.120 10.07163
54.125 10.285509
54.130 10.394039
54.135 10.42211
54.140 10.596192
54.145 10.894264
54.150 11.150325
54.155 11.39717
54.160 11.452216
54.165 11.340379
54.170 10.925319
54.175 10.424102
54.180 9.796378
54.185 9.461035
54.190 9.595801
54.195 9.745802
54.200 9.61052
54.205 10.131432
54.210 11.179732
54.215 11.372882
54.220 11.166368
54.225 10.461809
54.230 10.226079
54.235 10.750213
54.240 10.378308
54.245 9.197862
54.250 9.084836
54.255 9.397915
54.260 9.743949
54.265 9.546966
54.270 8.933073
54.275 8.793011
54.280 9.510949
54.285 9.981487
54.290 9.951874
54.295 10.114672
54.300 10.453662
54.305 10.614607
54.310 10.629308
54.315 10.16142
54.320 10.200765
54.325 10.595842
54.330 10.843885
54.335 11.069111
54.340 11.494236
54.345 11.538152
54.350 11.695147
54.355 11.442888
54.360 11.388991
54.365 11.224697
54.370 11.204199
54.375 11.369285
54.380 11.980279
54.385 12.177496
54.390 12.232512
54.395 11.966728
54.400 11.703315
54.405 11.54871
54.410 11.580076
54.415 10.924845
54.420 10.896696
54.425 11.426457
54.430 11.685329
54.435 11.520576
54.440 11.424147
54.445 11.772103
54.450 12.183401
54.455 11.866399
54.460 11.646205
54.465 11.988873
54.470 12.135046
54.475 11.840251
54.480 11.479779
54.485 11.13862
54.490 11.189307
54.495 10.790822
54.500 10.43417
54.505 10.600392
54.510 10.319657
54.515 9.906643
54.520 10.178925
54.525 10.133952
54.530 10.857669
54.535 10.637536
54.540 10.514068
54.545 10.745516
54.550 10.807729
54.555 10.818507
54.560 10.823133
54.565 10.100841
54.570 10.316691
54.575 10.584587
54.580 11.013418
54.585 11.175959
54.590 11.648042
54.595 11.791098
54.600 11.988988
54.605 12.278941
54.610 12.255886
54.615 11.876947
54.620 11.272864
54.625 10.795246
54.630 10.882266
54.635 11.034665
54.640 11.201983
54.645 11.270857
54.650 11.326941
54.655 11.48868
54.660 11.80193
54.665 11.881987
54.670 11.63023
54.675 11.352396
54.680 11.145048
54.685 11.433304
54.690 11.605572
54.695 11.583843
54.700 11.235261
54.705 11.29797
54.710 11.560178
54.715 12.273719
54.720 12.050418
54.725 11.742082
54.730 11.722237
54.735 11.872233
54.740 12.211402
54.745 12.291596
54.750 11.78479
54.755 11.953491
54.760 12.246161
54.765 12.615242
54.770 12.678726
54.775 12.213184
54.780 12.377957
54.785 12.581843
54.790 12.337511
54.795 12.031835
54.800 11.523914
54.805 11.632348
54.810 11.935996
54.815 11.764647
54.820 11.769813
54.825 11.664109
54.830 11.894926
54.835 12.104521
54.840 11.386837
54.845 11.296129
54.850 11.524844
54.855 11.699181
54.860 12.139739
54.865 11.923649
54.870 12.477103
54.875 13.054992
54.880 13.049958
54.885 12.489885
54.890 12.265647
54.895 12.393393
54.900 12.394596
54.905 11.652238
54.910 11.705207
54.915 11.694431
54.920 11.736774
54.925 11.274545
54.930 11.3307
54.935 11.332651
54.940 11.378392
54.945 11.051228
54.950 11.413924
54.955 11.738583
54.960 12.117532
54.965 11.689811
54.970 12.022699
54.975 12.125257
54.980 11.927445
54.985 12.062708
54.990 11.973588
54.995 11.585814
55.000 11.866122
55.005 11.827617
55.010 12.134433
55.015 12.503038
55.020 12.335256
55.025 12.412575
55.030 12.296526
55.035 11.60507
55.040 11.840639
55.045 11.421488
55.050 10.868617
55.055 10.726316
55.060 10.756243
55.065 10.736702
55.070 10.422896
55.075 9.786731
55.080 10.028001
55.085 10.189941
55.090 10.596457
55.095 10.611383
55.100 11.18222
55.105 12.141237
55.110 12.839314
55.115 13.173963
55.120 13.489173
55.125 13.419782
55.130 13.332509
55.135 13.079985
55.140 12.841306
55.145 12.470034
55.150 11.756458
55.155 11.366293
55.160 11.38827
55.165 11.391415
55.170 12.048381
55.175 11.865993
55.180 12.0308
55.185 12.260055
55.190 12.266365
55.195 12.739544
55.200 12.280252
55.205 11.800697
55.210 11.882107
55.215 11.784128
55.220 11.805923
55.225 11.9619
55.230 11.888729
55.235 12.161289
55.240 11.86686
55.245 11.962837
55.250 11.917421
55.255 12.02994
55.260 11.835794
55.265 11.833499
55.270 11.836589
55.275 11.718548
55.280 11.527191
55.285 11.407136
55.290 11.128748
55.295 11.157327
55.300 10.798189
55.305 11.1489
55.310 11.605421
55.315 11.925284
55.320 11.93722
55.325 11.997046
55.330 11.793797
55.335 12.025408
55.340 11.602075
55.345 11.032185
55.350 10.837213
55.355 11.429414
55.360 11.480071
55.365 11.383264
55.370 10.966853
55.375 10.806342
55.380 11.181881
55.385 11.252566
55.390 11.226081
55.395 11.535964
55.400 11.300694
55.405 11.592721
55.410 11.776237
55.415 11.829189
55.420 11.598675
55.425 11.274588
55.430 11.399453
55.435 11.772607
55.440 11.878865
55.445 11.725308
55.450 11.788246
55.455 12.021469
55.460 12.573274
55.465 12.684925
55.470 13.349093
55.475 13.984459
55.480 14.057879
55.485 13.800463
55.490 13.739216
55.495 13.386817
55.500 13.534917
55.505 13.22108
55.510 12.683235
55.515 13.139482
55.520 13.433134
55.525 13.032757
55.530 12.376264
55.535 11.755535
55.540 11.887834
55.545 12.36359
55.550 12.332012
55.555 12.212678
55.560 12.551346
55.565 13.108311
55.570 13.005561
55.575 12.695368
55.580 11.978308
55.585 11.931385
55.590 12.081828
55.595 12.112377
55.600 12.13833
55.605 12.296228
55.610 12.766374
55.615 13.276643
55.620 13.140368
55.625 13.084785
55.630 12.713672
55.635 12.961775
55.640 12.887511
55.645 12.521222
55.650 11.947035
55.655 11.479206
55.660 11.275187
55.665 11.134598
55.670 10.292498
55.675 9.856417
55.680 9.572315
55.685 9.755908
55.690 9.889596
55.695 10.282974
55.700 11.058839
55.705 12.097687
55.710 12.438419
55.715 13.215809
55.720 13.899579
55.725 14.380897
55.730 14.327256
55.735 13.88948
55.740 13.513385
55.745 13.543337
55.750 13.613465
55.755 13.227662
55.760 13.058526
55.765 12.530567
55.770 12.820592
55.775 12.659245
55.780 12.367477
55.785 12.030339
55.790 11.9571
55.795 11.991084
55.800 12.828255
55.805 12.592388
55.810 12.273429
55.815 12.266806
55.820 12.434773
55.825 12.766733
55.830 13.213245
55.835 13.335864
55.840 13.332364
55.845 14.17307
55.850 14.5366
55.855 14.616535
55.860 14.288656
55.865 13.460961
55.870 12.465126
55.875 12.772685
55.880 12.489948
55.885 12.344267
55.890 12.422391
55.895 12.353705
55.900 12.945646
55.905 13.575651
55.910 13.404261
55.915 13.238422
55.920 13.074786
55.925 13.142138
55.930 13.480855
55.935 13.421124
55.940 13.744957
55.945 14.335254
55.950 14.542213
55.955 14.175822
55.960 14.194959
55.965 14.01957
55.970 13.760995
55.975 12.846956
55.980 12.196107
55.985 12.384992
55.990 13.018664
55.995 12.704232
56.000 12.857058
56.005 12.974035
56.010 12.793683
56.015 13.119681
56.020 13.032023
56.025 12.415384
56.030 12.092066
56.035 12.297533
56.040 12.72233
56.045 14.17623
56.050 13.830536
56.055 13.328529
56.060 13.451687
56.065 13.940137
56.070 13.548648
56.075 13.366459
56.080 12.765528
56.085 13.179661
56.090 13.556664
56.095 14.011517
56.100 14.325084
56.105 14.193618
56.110 13.726162
56.115 13.811874
56.120 13.731821
56.125 13.706612
56.130 13.196836
56.135 12.868504
56.140 13.190127
56.145 13.344696
56.150 12.700808
56.155 12.589386
56.160 12.675946
56.165 12.63821
56.170 12.768272
56.175 12.443321
56.180 13.321618
56.185 13.471036
56.190 13.545182
56.195 13.560118
56.200 13.606283
56.205 13.415854
56.210 13.182337
56.215 12.753287
56.220 13.463652
56.225 13.472
56.230 14.01099
56.235 14.227812
56.240 14.689472
56.245 14.889485
56.250 14.52209
56.255 13.964717
56.260 13.979904
56.265 13.576408
56.270 13.355854
56.275 12.993832
56.280 13.060573
56.285 13.027511
56.290 13.310538
56.295 13.124378
56.300 13.011462
56.305 13.212394
56.310 13.657039
56.315 13.810895
56.320 13.886875
56.325 13.878074
56.330 13.829682
56.335 13.916463
56.340 13.79209
56.345 13.82156
56.350 13.953468
56.355 14.065522
56.360 13.612576
56.365 13.864272
56.370 14.027278
56.375 14.501922
56.380 14.132874
56.385 13.695641
56.390 13.620716
56.395 13.645059
56.400 13.843176
56.405 14.094485
56.410 13.570437
56.415 13.713446
56.420 13.418784
56.425 13.288065
56.430 14.337096
56.435 14.385553
56.440 14.122281
56.445 14.526734
56.450 14.867826
56.455 14.877469
56.460 14.848118
56.465 13.979693
56.470 14.153742
56.475 13.901502
56.480 13.323088
56.485 13.216776
56.490 13.811933
56.495 13.950659
56.500 13.625898
56.505 13.034888
56.510 12.867835
56.515 13.314487
56.520 13.819433
56.525 13.882129
56.530 13.810353
56.535 13.89959
56.540 13.896364
56.545 13.782407
56.550 13.531712
56.555 13.457611
56.560 13.325461
56.565 13.299205
56.570 13.618711
56.575 13.735748
56.580 13.982835
56.585 14.002033
56.590 13.688032
56.595 13.480782
56.600 13.377055
56.605 13.615788
56.610 13.630851
56.615 13.316596
56.620 12.883293
56.625 12.756392
56.630 13.378387
56.635 13.461093
56.640 13.733578
56.645 14.131445
56.650 14.407657
56.655 14.956387
56.660 14.657942
56.665 14.117183
56.670 14.106045
56.675 13.623552
56.680 13.096652
56.685 13.129424
56.690 13.029518
56.695 13.540718
56.700 13.620627
56.705 13.910739
56.710 14.674854
56.715 15.345208
56.720 15.420912
56.725 14.751319
56.730 14.453127
56.735 14.565612
56.740 14.103251
56.745 13.907756
56.750 13.840181
56.755 14.344786
56.760 14.966047
56.765 14.964034
56.770 14.511418
56.775 14.479406
56.780 14.109495
56.785 13.819121
56.790 13.454492
56.795 13.350399
56.800 13.720644
56.805 14.507595
56.810 14.504054
56.815 14.230924
56.820 14.260783
56.825 14.72309
56.830 14.721361
56.835 14.740849
56.840 15.044615
56.845 14.921148
56.850 15.098161
56.855 14.890797
56.860 14.908386
56.865 15.329357
56.870 14.823501
56.875 14.182384
56.880 14.46246
56.885 14.608521
56.890 14.559567
56.895 14.33737
56.900 13.847888
56.905 14.160537
56.910 14.408671
56.915 14.919097
56.920 15.24615
56.925 15.470586
56.930 15.683283
56.935 16.36986
56.940 16.403538
56.945 16.025787
56.950 15.19602
56.955 14.462336
56.960 13.985699
56.965 13.60904
56.970 13.256079
56.975 13.122156
56.980 13.653876
56.985 14.229703
56.990 14.801742
56.995 15.679435
57.000 15.951714
57.005 15.774079
57.010 15.228968
57.015 14.276289
57.020 13.989939
57.025 13.76333
57.030 12.918139
57.035 13.052486
57.040 13.444218
57.045 14.025078
57.050 14.825716
57.055 15.310699
57.060 15.325987
57.065 15.554596
57.070 15.221887
57.075 15.616252
57.080 15.744482
57.085 15.564663
57.090 15.249026
57.095 14.798726
57.100 14.649115
57.105 14.183955
57.110 13.863544
57.115 13.419938
57.120 13.357139
57.125 13.500679
57.130 13.954253
57.135 14.298004
57.140 14.928909
57.145 15.201445
57.150 15.563764
57.155 15.315891
57.160 14.935321
57.165 14.700799
57.170 14.353866
57.175 14.289091
57.180 14.405962
57.185 14.16061
57.190 14.331573
57.195 14.877106
57.200 15.074608
57.205 14.960581
57.210 14.219378
57.215 13.839469
57.220 13.978052
57.225 13.848126
57.230 13.515548
57.235 13.629158
57.240 13.618725
57.245 13.499162
57.250 13.389023
57.255 13.823798
57.260 13.849206
57.265 13.698217
57.270 13.285634
57.275 13.233887
57.280 13.358497
57.285 13.448489
57.290 13.373827
57.295 13.860421
57.300 14.139224
57.305 14.418612
57.310 14.962358
57.315 14.591195
57.320 14.411271
57.325 14.354129
57.330 13.842854
57.335 13.992674
57.340 14.23105
57.345 14.325717
57.350 15.464576
57.355 15.764533
57.360 16.19326
57.365 16.503679
57.370 16.534412
57.375 16.109222
57.380 16.190742
57.385 15.765597
57.390 15.237923
57.395 14.638395
57.400 14.557209
57.405 14.264491
57.410 14.242326
57.415 13.955538
57.420 13.985333
57.425 13.798969
57.430 13.779325
57.435 13.645015
57.440 13.353381
57.445 13.28
57.450 13.053306
57.455 13.602713
57.460 14.701016
57.465 15.194779
57.470 15.888754
57.475 16.004112
57.480 16.184515
57.485 16.558516
57.490 15.685402
57.495 14.999133
57.500 14.381005
57.505 14.108207
57.510 14.544624
57.515 14.51591
57.520 14.314389
57.525 14.510001
57.530 14.367919
57.535 14.494245
57.540 13.830505
57.545 13.673127
57.550 13.951732
57.555 14.334161
57.560 14.358205
57.565 14.503074
57.570 14.316684
57.575 14.929482
57.580 15.158997
57.585 14.822362
57.590 15.154026
57.595 15.387615
57.600 16.10009
57.605 16.497095
57.610 16.20899
57.615 16.460869
57.620 16.532423
57.625 16.514074
57.630 16.889771
57.635 16.65275
57.640 16.944323
57.645 17.105431
57.650 16.427248
57.655 15.854861
57.660 14.43413
57.665 13.421893
57.670 12.714272
57.675 12.596261
57.680 12.503979
57.685 13.046144
57.690 13.958438
57.695 14.791093
57.700 15.163034
57.705 15.555336
57.710 15.399056
57.715 15.261175
57.720 15.273834
57.725 15.240854
57.730 15.160415
57.735 15.403803
57.740 15.246497
57.745 15.392486
57.750 15.697742
57.755 14.982785
57.760 14.503876
57.765 14.904561
57.770 14.668825
57.775 14.721275
57.780 14.395302
57.785 14.001058
57.790 14.611332
57.795 15.006707
57.800 14.444909
57.805 14.04893
57.810 13.798404
57.815 13.717215
57.820 13.971133
57.825 14.139019
57.830 13.612198
57.835 13.232237
57.840 13.517447
57.845 13.531762
57.850 13.761454
57.855 13.650456
57.860 13.345541
57.865 13.644287
57.870 14.368684
57.875 14.285981
57.880 14.239968
57.885 14.291182
57.890 14.249564
57.895 14.425391
57.900 15.023339
57.905 15.39946
57.910 15.61677
57.915 15.476955
57.920 15.346747
57.925 15.657783
57.930 15.962658
57.935 15.500708
57.940 15.159657
57.945 15.581256
57.950 15.819821
57.955 15.656013
57.960 15.045612
57.965 14.613326
57.970 14.531525
57.975 14.06724
57.980 13.708434
57.985 13.558397
57.990 14.202217
57.995 14.895339
58.000 15.273293
58.005 15.71144
58.010 16.246107
58.015 16.586796
58.020 16.776619
58.025 15.758189
58.030 15.466825
58.035 15.401955
58.040 15.633967
58.045 15.703589
58.050 16.256458
58.055 16.559181
58.060 17.140123
58.065 16.858648
58.070 16.450289
58.075 16.47451
58.080 16.010567
58.085 15.364655
58.090 14.876469
58.095 14.644116
58.100 14.932772
58.105 15.20123
58.110 15.472776
58.115 15.652342
58.120 15.855455
58.125 16.36042
58.130 16.477684
58.135 16.864426
58.140 16.866182
58.145 16.527344
58.150 16.324661
58.155 16.935118
58.160 17.036873
58.165 17.082426
58.170 16.809166
58.175 16.538317
58.180 16.387503
58.185 16.557449
58.190 16.294771
58.195 16.228466
58.200 15.95155
58.205 15.761355
58.210 15.953755
58.215 16.47789
58.220 16.275486
58.225 15.585252
58.230 15.579679
58.235 15.441732
58.240 15.620937
58.245 15.871273
58.250 15.022012
58.255 15.223569
58.260 15.791356
58.265 15.71084
58.270 15.866178
58.275 15.319525
58.280 14.748864
58.285 14.976217
58.290 14.785414
58.295 14.683003
58.300 14.92811
58.305 15.455164
58.310 16.081923
58.315 15.997298
58.320 16.529007
58.325 16.613165
58.330 16.270239
58.335 15.892546
58.340 15.082486
58.345 14.611038
58.350 15.021111
58.355 15.080964
58.360 14.849123
58.365 14.891579
58.370 15.101175
58.375 15.462127
58.380 15.969959
58.385 16.205015
58.390 15.902501
58.395 15.775517
58.400 15.556771
58.405 15.494417
58.410 14.745931
58.415 14.429874
58.420 14.167075
58.425 14.082479
58.430 14.812787
58.435 15.37118
58.440 15.372034
58.445 16.060337
58.450 16.003012
58.455 15.240884
58.460 15.142644
58.465 15.263675
58.470 15.43369
58.475 15.567009
58.480 15.759451
58.485 15.931722
58.490 16.251642
58.495 16.054907
58.500 15.257866
58.505 15.01089
58.510 14.927013
58.515 14.923281
58.520 15.490025
58.525 15.659366
58.530 15.782064
58.535 15.87608
58.540 15.896117
58.545 15.93898
58.550 15.820653
58.555 15.458387
58.560 15.560651
58.565 15.540311
58.570 15.511413
58.575 15.471355
58.580 15.599659
58.585 15.298864
58.590 15.11325
58.595 14.89647
58.600 15.612776
58.605 16.066914
58.610 16.034542
58.615 16.244778
58.620 16.535496
58.625 16.635437
58.630 16.889872
58.635 16.104843
58.640 16.091858
58.645 16.04228
58.650 15.698469
58.655 16.117813
58.660 16.461544
58.665 16.306452
58.670 16.387508
58.675 16.136478
58.680 16.649725
58.685 17.219093
58.690 16.931839
58.695 16.854803
58.700 16.692675
58.705 16.953644
58.710 17.003164
58.715 16.953337
58.720 16.488682
58.725 16.755653
58.730 16.408442
58.735 16.095392
58.740 15.82373
58.745 15.845117
58.750 15.453046
58.755 14.836799
58.760 15.183263
58.765 15.904491
58.770 16.118484
58.775 16.473835
58.780 16.51898
58.785 16.735756
58.790 16.770712
58.795 15.902185
58.800 15.422606
58.805 15.54093
58.810 15.064237
58.815 14.768885
58.820 14.516049
58.825 14.871042
58.830 14.742464
58.835 14.881571
58.840 15.041487
58.845 15.715225
58.850 15.809948
58.855 16.249683
58.860 16.681057
58.865 16.592548
58.870 16.87339
58.875 16.973019
58.880 17.093618
58.885 17.54022
58.890 17.590328
58.895 17.515587
58.900 17.89155
58.905 17.635115
58.910 17.317955
58.915 17.389341
58.920 17.029774
58.925 16.561298
58.930 15.990822
58.935 15.861627
58.940 15.804717
58.945 15.120059
58.950 14.714793
58.955 15.432507
58.960 16.054588
58.965 17.054327
58.970 17.233747
58.975 17.937487
58.980 18.584995
58.985 18.65576
58.990 17.753786
58.995 17.626247
59.000 17.373503
59.005 17.565907
59.010 17.221951
59.015 17.339022
59.020 17.401405
59.025 17.933794
59.030 17.829536
59.035 17.902542
59.040 17.869913
59.045 17.658278
59.050 17.325558
59.055 17.631416
59.060 17.762131
59.065 17.983181
59.070 17.759289
59.075 18.039713
59.080 19.150421
59.085 18.963713
59.090 18.627325
59.095 18.289839
59.100 17.845467
59.105 17.688528
59.110 17.078897
59.115 16.105618
59.120 16.625666
59.125 16.505459
59.130 16.7132
59.135 17.069469
59.140 17.060633
59.145 17.413105
59.150 17.440882
59.155 16.965052
59.160 17.258249
59.165 17.286514
59.170 16.967098
59.175 16.960796
59.180 16.633165
59.185 17.276539
59.190 17.65835
59.195 17.50235
59.200 17.31282
59.205 17.559175
59.210 17.473793
59.215 17.374063
59.220 16.84129
59.225 16.869247
59.230 17.003244
59.235 17.277727
59.240 17.296864
59.245 17.572618
59.250 17.421768
59.255 16.904428
59.260 16.096834
59.265 15.371036
59.270 15.188114
59.275 15.478344
59.280 15.295932
59.285 15.392606
59.290 15.531552
59.295 16.038965
59.300 16.780376
59.305 16.956778
59.310 16.887981
59.315 17.100756
59.320 16.894711
59.325 17.393053
59.330 17.518564
59.335 17.482615
59.340 16.966282
59.345 16.588568
59.350 16.509615
59.355 17.222614
59.360 17.386766
59.365 17.352949
59.370 17.062315
59.375 17.321152
59.380 17.305033
59.385 17.202614
59.390 16.632339
59.395 16.261404
59.400 16.668114
59.405 17.105408
59.410 17.595465
59.415 17.666962
59.420 17.894672
59.425 18.182838
59.430 18.12219
59.435 17.608978
59.440 17.636507
59.445 17.016579
59.450 17.308014
59.455 17.729284
59.460 17.986778
59.465 17.855865
59.470 17.815769
59.475 17.645395
59.480 17.89015
59.485 17.769672
59.490 17.763399
59.495 17.869293
59.500 18.205849
59.505 18.053686
59.510 17.923174
59.515 17.506811
59.520 17.042059
59.525 16.677111
59.530 16.220716
59.535 16.287291
59.540 16.454933
59.545 16.738518
59.550 17.180746
59.555 17.758183
59.560 17.533072
59.565 16.924526
59.570 16.687145
59.575 17.015642
59.580 17.495127
59.585 17.399624
59.590 17.476713
59.595 18.090855
59.600 18.612638
59.605 19.20318
59.610 19.041712
59.615 18.988264
59.620 19.040407
59.625 18.844015
59.630 19.440554
59.635 19.780685
59.640 19.050636
59.645 19.106625
59.650 18.761202
59.655 18.901154
59.660 19.180889
59.665 18.78076
59.670 19.355711
59.675 19.997093
59.680 19.683355
59.685 19.490265
59.690 19.187386
59.695 18.935289
59.700 19.100979
59.705 18.817299
59.710 19.036587
59.715 18.635738
59.720 18.649879
59.725 18.254736
59.730 17.55607
59.735 17.20031
59.740 17.091034
59.745 17.246609
59.750 18.339991
59.755 18.937572
59.760 19.513346
59.765 20.164427
59.770 20.027618
59.775 20.03994
59.780 20.09375
59.785 19.556038
59.790 19.219666
59.795 19.056242
59.800 18.940979
59.805 18.898762
59.810 18.245277
59.815 18.048101
59.820 17.782421
59.825 17.518715
59.830 17.935007
59.835 18.149677
59.840 17.849503
59.845 17.794451
59.850 17.593977
59.855 17.940655
59.860 18.282667
59.865 18.39016
59.870 19.036219
59.875 19.560738
59.880 20.019463
59.885 20.134409
59.890 20.721466
59.895 20.798014
59.900 20.304205
59.905 19.398666
59.910 19.635181
59.915 19.742945
59.920 19.520832
59.925 18.881588
59.930 19.300213
59.935 19.233252
59.940 19.529188
59.945 19.123821
59.950 19.403017
59.955 20.069275
59.960 20.634821
59.965 20.678247
59.970 20.670006
59.975 20.94068
59.980 21.393053
59.985 21.271889
59.990 21.402536
59.995 21.026043
60.000 20.8389
60.005 20.669378
60.010 20.595697
60.015 20.415899
60.020 20.183062
60.025 19.662096
60.030 19.463387
60.035 19.537708
60.040 20.02841
60.045 20.347183
60.050 20.800142
60.055 21.703871
60.060 22.302584
60.065 22.545938
60.070 22.804426
60.075 22.881197
60.080 23.088974
60.085 23.272755
60.090 22.81605
60.095 22.243736
60.100 22.182806
60.105 21.937069
60.110 21.601801
60.115 21.475574
60.120 21.311325
60.125 21.39937
60.130 21.916126
60.135 22.105619
60.140 22.148472
60.145 22.690248
60.150 22.87031
60.155 23.014694
60.160 22.411076
60.165 22.337442
60.170 22.610054
60.175 22.94607
60.180 22.380737
60.185 21.65217
60.190 21.240608
60.195 20.827728
60.200 20.624994
60.205 20.547791
60.210 19.689861
60.215 19.974737
60.220 19.982422
60.225 21.005636
60.230 22.359606
60.235 23.005724
60.240 23.541523
60.245 24.146069
60.250 24.592014
60.255 25.084583
60.260 23.850433
60.265 22.807062
60.270 21.814556
60.275 21.686916
60.280 21.607273
60.285 21.048513
60.290 20.997726
60.295 21.55431
60.300 21.783701
60.305 22.094845
60.310 21.71648
60.315 21.578295
60.320 21.490593
60.325 21.038706
60.330 21.51384
60.335 22.234409
60.340 22.55962
60.345 22.683405
60.350 22.968073
60.355 23.065693
60.360 23.291676
60.365 23.251295
60.370 22.564009
60.375 21.93568
60.380 21.739824
60.385 22.064939
60.390 22.216324
60.395 22.861418
60.400 22.368137
60.405 22.995708
60.410 23.860119
60.415 24.381592
60.420 23.705126
60.425 23.360449
60.430 22.350403
60.435 22.450893
60.440 22.308283
60.445 22.176369
60.450 21.985786
60.455 21.845844
60.460 21.524185
60.465 21.338602
60.470 21.283016
60.475 21.826897
60.480 21.678534
60.485 22.041693
60.490 22.305481
60.495 22.662653
60.500 23.186674
60.505 23.031898
60.510 21.850132
60.515 21.210972
60.520 20.709442
60.525 20.866539
60.530 20.663975
60.535 20.714695
60.540 20.657393
60.545 21.482563
60.550 21.789627
60.555 21.913555
60.560 21.907967
60.565 22.347366
60.570 22.643095
60.575 22.410292
60.580 21.506502
60.585 20.972816
60.590 20.648993
60.595 20.798368
60.600 20.282598
60.605 19.38656
60.610 19.579187
60.615 20.013113
60.620 20.339624
60.625 20.575083
60.630 20.625286
60.635 20.793627
60.640 20.854013
60.645 20.763966
60.650 20.245325
60.655 20.144756
60.660 19.870277
60.665 19.694986
60.670 19.536755
60.675 19.569279
60.680 19.393927
60.685 19.684641
60.690 19.720444
60.695 19.71027
60.700 19.215532
60.705 19.419413
60.710 18.759377
60.715 18.357712
60.720 18.481855
60.725 18.065786
60.730 18.061777
60.735 17.717211
60.740 17.732277
60.745 18.628468
60.750 18.807384
60.755 18.94449
60.760 20.075663
60.765 20.569555
60.770 21.376028
60.775 21.153
60.780 20.520735
60.785 20.246683
60.790 19.570776
60.795 19.153172
60.800 18.668711
60.805 18.071215
60.810 17.810827
60.815 18.337132
60.820 18.565857
60.825 18.463663
60.830 18.220037
60.835 18.091772
60.840 18.693134
60.845 19.108992
60.850 19.028711
60.855 19.297403
60.860 19.929329
60.865 20.43984
60.870 20.651167
60.875 20.27854
60.880 19.786652
60.885 19.312757
60.890 18.915712
60.895 18.191845
60.900 17.411505
60.905 17.223799
60.910 17.483553
60.915 18.306318
60.920 19.357347
60.925 19.781973
60.930 19.764109
60.935 19.796265
60.940 19.6518
60.945 19.470921
60.950 19.01428
60.955 17.789961
60.960 17.189974
60.965 17.197855
60.970 17.189241
60.975 17.345453
60.980 17.248865
60.985 17.451065
60.990 18.101236
60.995 18.516994
61.000 18.420137
61.005 18.378633
61.010 18.332178
61.015 18.180573
61.020 18.191879
61.025 17.70051
61.030 17.719215
61.035 18.305332
61.040 18.686913
61.045 18.598066
61.050 18.451801
61.055 18.709129
61.060 18.997992
61.065 18.91876
61.070 18.37825
61.075 18.286564
61.080 18.484846
61.085 18.566069
61.090 18.057009
61.095 17.846338
61.100 17.797892
61.105 17.658607
61.110 17.204966
61.115 17.471678
61.120 17.495352
61.125 16.730263
61.130 16.397018
61.135 16.583014
61.140 17.112976
61.145 17.938068
61.150 17.45841
61.155 17.140812
61.160 17.846886
61.165 18.222229
61.170 18.266682
61.175 18.634365
61.180 18.35531
61.185 18.842627
61.190 19.171595
61.195 19.061182
61.200 18.988995
61.205 18.805637
61.210 18.73378
61.215 18.755133
61.220 18.224865
61.225 17.9739
61.230 17.612314
61.235 17.615145
61.240 17.314909
61.245 17.017704
61.250 16.851181
61.255 16.680107
61.260 16.733261
61.265 17.151251
61.270 17.193474
61.275 17.280474
61.280 17.386293
61.285 17.369537
61.290 17.140154
61.295 17.266777
61.300 17.198364
61.305 17.221624
61.310 16.642586
61.315 16.336866
61.320 16.526775
61.325 17.155725
61.330 17.38357
61.335 16.954327
61.340 16.716595
61.345 17.040358
61.350 17.097858
61.355 17.162868
61.360 16.709312
61.365 16.371218
61.370 16.461596
61.375 15.971057
61.380 16.027527
61.385 16.074326
61.390 16.640112
61.395 17.268627
61.400 17.906267
61.405 18.378216
61.410 19.050219
61.415 19.482883
61.420 19.302858
61.425 18.711365
61.430 18.122353
61.435 17.848219
61.440 18.197479
61.445 19.111345
61.450 18.95789
61.455 18.706093
61.460 18.626434
61.465 18.999414
61.470 18.686901
61.475 17.795494
61.480 17.132364
61.485 17.439964
61.490 17.352587
61.495 17.16898
61.500 16.905863
61.505 16.681805
61.510 16.578323
61.515 16.48871
61.520 16.428196
61.525 16.572641
61.530 17.050827
61.535 17.282969
61.540 18.166775
61.545 19.010582
61.550 18.770605
61.555 18.675932
61.560 18.651285
61.565 18.228739
61.570 17.836153
61.575 17.302868
61.580 17.240704
61.585 17.461613
61.590 17.277143
61.595 17.21599
61.600 17.389082
61.605 17.560272
61.610 17.080484
61.615 16.105495
61.620 15.876445
61.625 15.813186
61.630 15.739232
61.635 15.480494
61.640 15.650878
61.645 16.066133
61.650 16.808735
61.655 17.239367
61.660 17.670778
61.665 18.584339
61.670 18.977844
61.675 18.951973
61.680 18.555994
61.685 18.230051
61.690 17.935421
61.695 17.237339
61.700 15.964478
61.705 15.804831
61.710 16.464128
61.715 17.096939
61.720 16.780733
61.725 16.37438
61.730 17.243124
61.735 18.346422
61.740 17.993404
61.745 17.290955
61.750 17.036613
61.755 17.680281
61.760 18.223677
61.765 17.860477
61.770 17.208416
61.775 17.466116
61.780 17.585934
61.785 17.57049
61.790 17.837
61.795 18.49378
61.800 18.355185
61.805 18.95554
61.810 19.458132
61.815 19.67071
61.820 19.676901
61.825 18.908442
61.830 18.161457
61.835 18.111574
61.840 17.415092
61.845 17.143219
61.850 16.945799
61.855 16.948641
61.860 16.978765
61.865 17.336546
61.870 17.858442
61.875 17.978218
61.880 18.028107
61.885 18.595877
61.890 18.873529
61.895 18.777805
61.900 18.610558
61.905 18.123241
61.910 18.290596
61.915 18.137213
61.920 17.590885
61.925 16.978325
61.930 17.093403
61.935 17.348009
61.940 17.940014
61.945 18.14736
61.950 17.948673
61.955 17.740986
61.960 17.919861
61.965 17.43638
61.970 17.118546
61.975 16.989864
61.980 17.107115
61.985 17.066923
61.990 17.410788
61.995 18.153389
62.000 18.415508
62.005 18.810305
62.010 19.10824
62.015 18.886227
62.020 18.964428
62.025 18.97658
62.030 18.383539
62.035 18.303137
62.040 17.360331
62.045 16.998817
62.050 17.009445
62.055 16.785765
62.060 16.481611
62.065 17.234545
62.070 17.151608
62.075 17.324844
62.080 16.703539
62.085 16.46102
62.090 16.30625
62.095 16.081984
62.100 15.275982
62.105 15.618752
62.110 15.743848
62.115 16.186649
62.120 16.944468
62.125 17.409784
62.130 17.637274
62.135 17.695408
62.140 17.557787
62.145 17.880178
62.150 18.291246
62.155 18.427979
62.160 18.495609
62.165 18.730141
62.170 19.002199
62.175 19.117302
62.180 19.958597
62.185 19.747889
62.190 19.08304
62.195 18.92358
62.200 18.443262
62.205 18.10281
62.210 18.208817
62.215 17.01017
62.220 16.41905
62.225 16.440472
62.230 16.38814
62.235 16.544861
62.240 16.652035
62.245 16.674597
62.250 16.783203
62.255 16.830948
62.260 16.740553
62.265 16.713432
62.270 17.313492
62.275 17.158503
62.280 16.559206
62.285 16.385599
62.290 16.721983
62.295 17.105497
62.300 17.203827
62.305 16.866913
62.310 17.491016
62.315 17.355331
62.320 17.326296
62.325 16.991302
62.330 16.767483
62.335 16.721712
62.340 16.433744
62.345 16.151789
62.350 16.646748
62.355 16.987192
62.360 17.207918
62.365 17.331182
62.370 17.174837
62.375 17.081814
62.380 16.879267
62.385 17.271236
62.390 17.129271
62.395 16.925879
62.400 16.731625
62.405 17.013571
62.410 17.512239
62.415 17.779295
62.420 17.903215
62.425 18.118425
62.430 18.407694
62.435 18.673492
62.440 18.687681
62.445 18.527908
62.450 18.54331
62.455 18.577339
62.460 19.373768
62.465 19.736879
62.470 19.672197
62.475 20.107838
62.480 20.329762
62.485 19.99279
62.490 19.290499
62.495 19.02042
62.500 19.305635
62.505 19.222069
62.510 18.941341
62.515 18.777344
62.520 18.668438
62.525 18.88204
62.530 18.251801
62.535 17.923082
62.540 17.731806
62.545 17.621477
62.550 17.199368
62.555 17.087751
62.560 16.803526
62.565 16.669312
62.570 16.613384
62.575 16.648422
62.580 16.571667
62.585 16.714607
62.590 16.628925
62.595 16.808252
62.600 16.856928
62.605 16.214045
62.610 15.870461
62.615 15.756033
62.620 15.572936
62.625 16.006887
62.630 16.313734
62.635 17.001472
62.640 17.507992
62.645 17.950312
62.650 17.961285
62.655 17.946224
62.660 17.456921
62.665 17.36076
62.670 17.4576
62.675 17.383263
62.680 17.069466
62.685 17.290741
62.690 17.223717
62.695 17.366718
62.700 16.791788
62.705 16.677807
62.710 17.309313
62.715 17.667713
62.720 17.617529
62.725 17.561264
62.730 17.941795
62.735 18.660458
62.740 18.407042
62.745 18.154444
62.750 17.989006
62.755 18.503075
62.760 18.5082
62.765 18.147795
62.770 17.523663
62.775 17.315174
62.780 16.837454
62.785 16.622469
62.790 16.51428
62.795 17.004059
62.800 17.040632
62.805 17.454809
62.810 16.973909
62.815 16.88822
62.820 17.223145
62.825 16.882423
62.830 17.168875
62.835 17.345402
62.840 17.436979
62.845 18.216366
62.850 18.424339
62.855 18.362185
62.860 17.995796
62.865 17.67638
62.870 17.308458
62.875 17.331039
62.880 16.731108
62.885 16.361475
62.890 15.789636
62.895 15.547124
62.900 15.285932
62.905 15.420339
62.910 14.757232
62.915 15.145905
62.920 15.470988
62.925 16.025135
62.930 16.107714
62.935 15.386206
62.940 14.698461
62.945 15.075395
62.950 15.25235
62.955 15.721928
62.960 15.810625
62.965 16.447803
62.970 18.081429
62.975 18.723665
62.980 19.049322
62.985 19.322527
62.990 19.599995
62.995 19.79026
63.000 19.190495
63.005 18.615484
63.010 18.585508
63.015 18.570074
63.020 18.774446
63.025 19.023083
63.030 18.6497
63.035 18.77986
63.040 18.305243
63.045 18.196033
63.050 18.374876
63.055 17.67223
63.060 17.172321
63.065 17.257544
63.070 17.568003
63.075 18.1943
63.080 18.250996
63.085 18.082016
63.090 17.838812
63.095 17.755836
63.100 18.214405
63.105 18.162506
63.110 17.508554
63.115 17.297722
63.120 17.533228
63.125 17.800842
63.130 18.073977
63.135 18.154795
63.140 18.056828
63.145 18.494509
63.150 18.157387
63.155 18.066053
63.160 18.119532
63.165 17.980665
63.170 18.075106
63.175 18.31493
63.180 18.626699
63.185 18.388363
63.190 17.997702
63.195 17.681755
63.200 17.609787
63.205 16.932293
63.210 16.772829
63.215 16.699705
63.220 17.321341
63.225 18.128372
63.230 18.922745
63.235 18.685013
63.240 18.406353
63.245 18.567059
63.250 19.447329
63.255 19.744055
63.260 19.236074
63.265 18.889179
63.270 19.276682
63.275 19.752243
63.280 19.912882
63.285 19.136181
63.290 18.381435
63.295 18.293652
63.300 17.958752
63.305 18.072523
63.310 18.255444
63.315 17.90464
63.320 17.875189
63.325 18.575195
63.330 18.336054
63.335 18.515816
63.340 18.142242
63.345 17.833111
63.350 18.025034
63.355 18.016388
63.360 17.807327
63.365 17.85387
63.370 17.66766
63.375 18.030931
63.380 18.355495
63.385 18.647207
63.390 19.106573
63.395 19.478294
63.400 19.728338
63.405 19.826336
63.410 19.452341
63.415 19.483681
63.420 19.616552
63.425 19.30191
63.430 19.11128
63.435 18.939259
63.440 18.561653
63.445 18.900425
63.450 19.201706
63.455 18.789654
63.460 18.911068
63.465 18.582355
63.470 18.82843
63.475 18.984585
63.480 18.09289
63.485 17.341501
63.490 17.72245
63.495 17.28566
63.500 17.606892
63.505 17.586218
63.510 17.721952
63.515 18.160824
63.520 18.140919
63.525 17.853771
63.530 17.948196
63.535 17.398365
63.540 17.197407
63.545 17.426308
63.550 17.67844
63.555 17.460867
63.560 16.926754
63.565 16.337671
63.570 16.204498
63.575 16.568335
63.580 16.308285
63.585 15.817808
63.590 15.816493
63.595 16.092367
63.600 16.948114
63.605 18.166542
63.610 18.128014
63.615 18.392866
63.620 18.507252
63.625 18.934845
63.630 19.313995
63.635 19.235136
63.640 18.25326
63.645 18.057215
63.650 17.986944
63.655 18.251217
63.660 18.130648
63.665 18.210896
63.670 17.952961
63.675 17.990503
63.680 18.239103
63.685 18.672871
63.690 18.558695
63.695 18.398697
63.700 18.254122
63.705 18.524849
63.710 18.705345
63.715 18.361572
63.720 18.119625
63.725 18.185135
63.730 18.142139
63.735 18.251265
63.740 18.427242
63.745 18.849186
63.750 19.146061
63.755 18.946995
63.760 18.649443
63.765 18.66288
63.770 18.295649
63.775 18.037966
63.780 17.907284
63.785 17.483444
63.790 17.105742
63.795 17.251289
63.800 17.081871
63.805 17.132332
63.810 16.603027
63.815 16.016338
63.820 16.095125
63.825 17.082129
63.830 17.183674
63.835 17.829487
63.840 18.231546
63.845 18.662905
63.850 19.15099
63.855 19.055454
63.860 18.664042
63.865 19.426346
63.870 19.234589
63.875 17.816879
63.880 17.56481
63.885 17.415873
63.890 17.368233
63.895 17.133377
63.900 16.70429
63.905 16.966291
63.910 18.162157
63.915 19.169231
63.920 19.634903
63.925 20.113569
63.930 20.346581
63.935 19.999355
63.940 19.806705
63.945 19.768066
63.950 19.235294
63.955 19.167137
63.960 19.476229
63.965 19.863094
63.970 20.005274
63.975 20.440323
63.980 20.680393
63.985 21.059034
63.990 20.956745
63.995 21.027128
64.000 21.068012
64.005 20.635172
64.010 20.716948
64.015 20.456673
64.020 19.949799
64.025 19.890114
64.030 19.084995
64.035 18.221111
64.040 18.274492
64.045 18.130203
64.050 17.603582
64.055 17.499996
64.060 17.192513
64.065 17.390717
64.070 17.56604
64.075 17.5695
64.080 17.247923
64.085 17.85037
64.090 17.816244
64.095 18.031849
64.100 17.850618
64.105 18.238359
64.110 18.640543
64.115 19.336157
64.120 19.363478
64.125 19.31953
64.130 19.28475
64.135 19.415279
64.140 19.628914
64.145 19.668196
64.150 19.345579
64.155 19.251181
64.160 19.135077
64.165 19.122292
64.170 19.188311
64.175 18.828814
64.180 18.634138
64.185 18.290052
64.190 17.613018
64.195 17.642582
64.200 17.322599
64.205 17.362776
64.210 17.724997
64.215 17.984203
64.220 17.97274
64.225 18.297304
64.230 18.528934
64.235 18.738815
64.240 18.84374
64.245 18.481918
64.250 17.953714
64.255 18.310036
64.260 19.24448
64.265 19.252699
64.270 19.46244
64.275 19.303493
64.280 19.221127
64.285 19.482431
64.290 19.944197
64.295 19.683681
64.300 19.450535
64.305 19.296118
64.310 19.400375
64.315 19.482813
64.320 19.493042
64.325 19.614712
64.330 19.662405
64.335 19.484823
64.340 19.831457
64.345 19.889664
64.350 20.272421
64.355 20.534672
64.360 20.05899
64.365 19.8419
64.370 20.193262
64.375 19.643999
64.380 19.498877
64.385 18.662292
64.390 18.022785
64.395 17.952959
64.400 18.141497
64.405 18.209631
64.410 18.848236
64.415 19.272722
64.420 19.738405
64.425 19.676777
64.430 19.171543
64.435 19.175215
64.440 19.354961
64.445 19.679281
64.450 20.304283
64.455 20.241514
64.460 20.489643
64.465 20.43886
64.470 20.266956
64.475 20.427425
64.480 19.708872
64.485 19.20122
64.490 20.320974
64.495 20.846315
64.500 20.767042
64.505 20.485041
64.510 20.426935
64.515 21.383268
64.520 21.219753
64.525 20.74081
64.530 20.861197
64.535 21.010422
64.540 21.537153
64.545 20.819593
64.550 20.308369
64.555 19.828939
64.560 19.276978
64.565 19.045078
64.570 19.372381
64.575 19.291296
64.580 18.974277
64.585 18.699986
64.590 19.010904
64.595 19.670979
64.600 19.645905
64.605 19.63125
64.610 19.501196
64.615 20.337063
64.620 20.427496
64.625 20.540623
64.630 20.130667
64.635 20.29497
64.640 20.642178
64.645 20.459816
64.650 20.555668
64.655 20.462601
64.660 20.438766
64.665 20.652021
64.670 20.033255
64.675 19.105202
64.680 19.10161
64.685 19.029182
64.690 19.21817
64.695 18.807648
64.700 18.504869
64.705 18.964613
64.710 20.004103
64.715 19.877344
64.720 19.813364
64.725 20.216753
64.730 20.214413
64.735 20.722826
64.740 21.217201
64.745 20.74033
64.750 21.075743
64.755 20.521452
64.760 20.242962
64.765 20.325689
64.770 20.105347
64.775 20.194134
64.780 20.42293
64.785 20.274887
64.790 20.792473
64.795 20.900253
64.800 21.195524
64.805 21.104794
64.810 20.185017
64.815 20.593441
64.820 20.338905
64.825 20.439671
64.830 20.626801
64.835 20.688681
64.840 21.045609
64.845 21.865503
64.850 21.516174
64.855 21.794764
64.860 21.988905
64.865 22.196209
64.870 22.08824
64.875 21.579924
64.880 21.334385
64.885 21.605347
64.890 22.021534
64.895 21.346306
64.900 20.819427
64.905 20.935791
64.910 21.447865
64.915 21.160789
64.920 21.048626
64.925 20.457138
64.930 20.841082
64.935 21.504322
64.940 21.644606
64.945 21.249344
64.950 21.085342
64.955 21.423471
64.960 22.053616
64.965 22.118675
64.970 22.395859
64.975 22.374432
64.980 22.623861
64.985 23.152731
64.990 23.031538
64.995 22.25885
65.000 21.976316
65.005 21.60581
65.010 21.769272
65.015 21.52626
65.020 20.791433
65.025 20.779928
65.030 21.55048
65.035 22.196331
65.040 22.142597
65.045 22.388826
65.050 22.579647
65.055 22.681332
65.060 22.726835
65.065 23.075144
65.070 22.602293
65.075 22.362577
65.080 22.457865
65.085 22.537853
65.090 22.735361
65.095 22.364557
65.100 21.652321
65.105 21.683142
65.110 21.934612
65.115 21.682394
65.120 21.829639
65.125 22.546986
65.130 23.214828
65.135 23.344994
65.140 23.255232
65.145 23.970007
65.150 23.84803
65.155 23.423737
65.160 23.468206
65.165 23.539917
65.170 23.928421
65.175 24.024988
65.180 23.853964
65.185 23.994835
65.190 24.130095
65.195 23.817556
65.200 23.965286
65.205 23.993963
65.210 24.375061
65.215 24.032507
65.220 24.512529
65.225 25.014563
65.230 25.038353
65.235 24.28517
65.240 24.372713
65.245 23.559237
65.250 23.874891
65.255 24.101126
65.260 23.730299
65.265 24.556526
65.270 24.780462
65.275 24.309319
65.280 24.640547
65.285 24.267401
65.290 24.130169
65.295 24.373131
65.300 23.365425
65.305 23.106661
65.310 23.622904
65.315 23.572147
65.320 23.598692
65.325 23.704748
65.330 23.658781
65.335 23.91564
65.340 24.141277
65.345 24.300829
65.350 24.847614
65.355 25.033302
65.360 24.875324
65.365 24.665621
65.370 24.528534
65.375 24.223869
65.380 23.705467
65.385 23.527464
65.390 23.741655
65.395 23.391111
65.400 23.201069
65.405 23.396811
65.410 24.046501
65.415 24.139956
65.420 23.509214
65.425 23.31732
65.430 23.642334
65.435 23.985546
65.440 24.457417
65.445 24.375069
65.450 24.480616
65.455 24.067286
65.460 23.587257
65.465 23.859337
65.470 23.98447
65.475 23.675587
65.480 24.111231
65.485 24.65447
65.490 25.728245
65.495 26.527933
65.500 27.280422
65.505 27.948751
65.510 28.149778
65.515 28.581871
65.520 28.404848
65.525 28.707762
65.530 28.872278
65.535 28.731424
65.540 28.3041
65.545 29.06212
65.550 29.422728
65.555 29.446432
65.560 29.774008
65.565 29.8304
65.570 29.953365
65.575 30.191763
65.580 30.210915
65.585 30.077644
65.590 30.532501
65.595 30.255598
65.600 30.358669
65.605 30.681515
65.610 30.68107
65.615 30.512156
65.620 30.150713
65.625 29.547298
65.630 29.28084
65.635 29.098013
65.640 29.805897
65.645 30.137566
65.650 29.9039
65.655 30.227341
65.660 31.052639
65.665 30.939825
65.670 31.607304
65.675 30.905504
65.680 30.777653
65.685 31.054123
65.690 32.119343
65.695 32.256474
65.700 32.460537
65.705 31.847773
65.710 32.02066
65.715 32.611446
65.720 33.244537
65.725 33.357388
65.730 34.340824
65.735 34.486805
65.740 34.616562
65.745 35.114208
65.750 35.613419
65.755 36.356865
65.760 36.056477
65.765 35.895123
65.770 36.685436
65.775 37.360149
65.780 37.140327
65.785 36.623798
65.790 35.515568
65.795 35.417233
65.800 34.611217
65.805 34.163326
65.810 34.337868
65.815 34.457542
65.820 35.315243
65.825 35.645393
65.830 36.798325
65.835 37.594902
65.840 38.455128
65.845 38.008907
65.850 38.310474
65.855 39.59547
65.860 39.551777
65.865 38.412411
65.870 37.845497
65.875 38.03455
65.880 38.325871
65.885 37.984951
65.890 37.71394
65.895 38.51894
65.900 40.064896
65.905 40.652477
65.910 40.102921
65.915 40.141708
65.920 40.356548
65.925 39.528732
65.930 39.32209
65.935 38.849815
65.940 38.558594
65.945 38.29361
65.950 37.333549
65.955 37.048637
65.960 37.806683
65.965 37.862686
65.970 37.733105
65.975 38.390251
65.980 38.959698
65.985 39.690159
65.990 39.182842
65.995 37.24654
66.000 37.472721
66.005 37.761246
66.010 37.104076
66.015 36.961803
66.020 37.060555
66.025 38.07151
66.030 38.661175
66.035 37.658009
66.040 36.923782
66.045 36.767075
66.050 36.416416
66.055 36.242481
66.060 36.088139
66.065 35.611618
66.070 34.869701
66.075 34.030342
66.080 33.795101
66.085 34.032074
66.090 34.131256
66.095 33.647648
66.100 34.735168
66.105 35.656155
66.110 36.215904
66.115 35.983643
66.120 35.463074
66.125 34.772614
66.130 34.871483
66.135 34.966503
66.140 35.160439
66.145 35.062717
66.150 35.106377
66.155 35.072807
66.160 35.396053
66.165 35.410313
66.170 34.578045
66.175 34.130199
66.180 34.51651
66.185 34.734241
66.190 34.729431
66.195 34.873386
66.200 35.063652
66.205 34.990486
66.210 35.101307
66.215 35.602543
66.220 35.294914
66.225 35.690308
66.230 34.816612
66.235 34.006226
66.240 33.893822
66.245 33.638626
66.250 32.858639
66.255 32.559372
66.260 31.997894
66.265 32.126156
66.270 32.142155
66.275 31.852524
66.280 32.200939
66.285 32.271606
66.290 32.448765
66.295 32.812908
66.300 33.508297
66.305 34.409378
66.310 34.516106
66.315 33.986683
66.320 34.17115
66.325 34.866463
66.330 34.799839
66.335 34.359219
66.340 33.792725
66.345 33.592339
66.350 33.770466
66.355 33.625992
66.360 32.843788
66.365 32.063004
66.370 31.502005
66.375 31.171228
66.380 31.344378
66.385 30.400797
66.390 29.721478
66.395 29.142782
66.400 29.834209
66.405 30.419941
66.410 30.364389
66.415 30.318485
66.420 30.611969
66.425 31.404728
66.430 31.680359
66.435 31.275517
66.440 30.544479
66.445 30.324034
66.450 30.162603
66.455 29.567745
66.460 28.660378
66.465 28.238073
66.470 28.028542
66.475 27.925379
66.480 28.113874
66.485 28.735237
66.490 29.076576
66.495 28.992105
66.500 29.573368
66.505 29.791849
66.510 29.309931
66.515 28.716244
66.520 27.372969
66.525 26.830387
66.530 26.649261
66.535 26.388042
66.540 26.366083
66.545 26.571207
66.550 27.040651
66.555 27.002508
66.560 27.202703
66.565 27.676313
66.570 27.8255
66.575 27.35347
66.580 26.387478
66.585 25.736462
66.590 26.259373
66.595 26.700602
66.600 26.84763
66.605 26.836256
66.610 27.204206
66.615 27.673365
66.620 27.663731
66.625 27.209187
66.630 26.620281
66.635 26.600899
66.640 26.19453
66.645 26.199524
66.650 26.07753
66.655 25.644464
66.660 25.538267
66.665 25.635069
66.670 25.508165
66.675 25.603586
66.680 25.975426
66.685 26.038696
66.690 26.068769
66.695 26.490761
66.700 26.190361
66.705 25.625782
66.710 25.463705
66.715 25.276089
66.720 25.226755
66.725 25.916655
66.730 25.767513
66.735 26.058886
66.740 26.05554
66.745 25.686554
66.750 25.572334
66.755 25.925934
66.760 26.097126
66.765 26.415695
66.770 26.631762
66.775 27.430754
66.780 27.812401
66.785 27.70233
66.790 27.653524
66.795 27.332129
66.800 26.712677
66.805 26.58481
66.810 25.631641
66.815 25.181643
66.820 25.183359
66.825 24.592524
66.830 24.46895
66.835 24.919157
66.840 24.453728
66.845 24.613035
66.850 24.622633
66.855 23.983372
66.860 23.967636
66.865 24.138733
66.870 23.844498
66.875 23.939564
66.880 23.134502
66.885 23.119308
66.890 23.458054
66.895 22.837185
66.900 22.466478
66.905 22.432556
66.910 22.573042
66.915 23.14468
66.920 23.254877
66.925 22.960575
66.930 24.283863
66.935 24.156399
66.940 23.791252
66.945 24.050327
66.950 23.701723
66.955 23.59203
66.960 23.285143
66.965 22.666725
66.970 22.920671
66.975 22.925434
66.980 22.105909
66.985 22.378872
66.990 23.234194
66.995 24.276497
67.000 24.383486
67.005 24.382734
67.010 24.798395
67.015 26.019457
67.020 26.749762
67.025 26.60647
67.030 25.730869
67.035 25.520939
67.040 25.326658
67.045 25.49062
67.050 25.161785
67.055 24.237101
67.060 23.863016
67.065 23.360411
67.070 23.044815
67.075 23.03216
67.080 22.55979
67.085 22.22382
67.090 22.607956
67.095 22.46545
67.100 22.705992
67.105 22.766216
67.110 23.176785
67.115 22.954212
67.120 22.91292
67.125 22.837265
67.130 22.995407
67.135 23.375771
67.140 23.550348
67.145 22.73098
67.150 22.481745
67.155 23.017616
67.160 22.692999
67.165 22.540651
67.170 22.45882
67.175 22.757168
67.180 23.502157
67.185 23.562357
67.190 23.223017
67.195 23.171564
67.200 23.011948
67.205 22.325333
67.210 21.490049
67.215 21.673813
67.220 21.544388
67.225 21.529703
67.230 22.085026
67.235 22.540161
67.240 23.026808
67.245 23.229
67.250 22.68133
67.255 22.956989
67.260 22.552444
67.265 22.282433
67.270 22.058336
67.275 22.418598
67.280 22.407684
67.285 22.530275
67.290 22.029564
67.295 22.161501
67.300 22.11194
67.305 22.105062
67.310 21.980974
67.315 21.790659
67.320 21.586599
67.325 21.629551
67.330 21.667271
67.335 21.298914
67.340 20.463524
67.345 19.632229
67.350 19.719059
67.355 20.045099
67.360 19.870255
67.365 19.420689
67.370 19.430294
67.375 20.278944
67.380 20.355104
67.385 20.527781
67.390 21.309666
67.395 21.669804
67.400 22.953512
67.405 23.226553
67.410 23.099533
67.415 23.950895
67.420 23.431379
67.425 22.727905
67.430 21.951792
67.435 20.9214
67.440 21.16778
67.445 21.172625
67.450 21.107374
67.455 21.278095
67.460 21.151569
67.465 21.663286
67.470 21.609375
67.475 21.751181
67.480 21.878052
67.485 21.903702
67.490 22.556545
67.495 23.168041
67.500 23.249226
67.505 23.395685
67.510 23.054901
67.515 23.325495
67.520 23.137295
67.525 22.640617
67.530 22.44319
67.535 22.3922
67.540 22.474743
67.545 23.366676
67.550 22.6371
67.555 22.630852
67.560 23.251701
67.565 23.265242
67.570 23.905792
67.575 23.817589
67.580 22.96661
67.585 23.280916
67.590 23.085073
67.595 22.261143
67.600 22.799807
67.605 22.559658
67.610 22.668449
67.615 22.693068
67.620 22.360994
67.625 22.564476
67.630 22.789093
67.635 22.525093
67.640 22.477718
67.645 22.200075
67.650 22.324413
67.655 23.099016
67.660 23.361624
67.665 23.072187
67.670 22.639923
67.675 22.696049
67.680 23.061213
67.685 22.886847
67.690 21.36948
67.695 20.770723
67.700 20.658249
67.705 20.704988
67.710 20.64135
67.715 20.990673
67.720 20.886314
67.725 21.039101
67.730 21.543459
67.735 22.562773
67.740 22.49185
67.745 21.963764
67.750 21.549974
67.755 21.747051
67.760 21.815744
67.765 21.465176
67.770 21.246693
67.775 21.345486
67.780 21.799208
67.785 21.956406
67.790 22.470247
67.795 23.240801
67.800 22.802059
67.805 22.457573
67.810 22.204329
67.815 21.880831
67.820 22.154827
67.825 21.718792
67.830 22.022573
67.835 22.865381
67.840 22.723536
67.845 22.663301
67.850 22.690851
67.855 22.370705
67.860 22.785797
67.865 22.146542
67.870 21.778946
67.875 21.313848
67.880 20.991976
67.885 21.480091
67.890 21.188457
67.895 20.749512
67.900 21.100367
67.905 21.046835
67.910 21.344791
67.915 21.858404
67.920 21.671989
67.925 22.004915
67.930 22.189884
67.935 22.297272
67.940 22.772881
67.945 22.7806
67.950 22.653671
67.955 22.241928
67.960 21.969385
67.965 21.397314
67.970 21.262577
67.975 20.603918
67.980 20.605923
67.985 20.325859
67.990 20.50491
67.995 20.691978
68.000 21.287373
68.005 21.660048
68.010 21.900106
68.015 22.19227
68.020 22.876839
68.025 22.975271
68.030 22.867817
68.035 22.280111
68.040 21.805235
68.045 22.054115
68.050 21.35894
68.055 21.336554
68.060 21.362577
68.065 21.554142
68.070 21.331837
68.075 21.721811
68.080 21.767225
68.085 21.949306
68.090 21.613754
68.095 21.409887
68.100 22.149912
68.105 23.424644
68.110 23.519632
68.115 23.799311
68.120 23.514917
68.125 23.258558
68.130 23.343012
68.135 22.693813
68.140 21.703571
68.145 21.177467
68.150 20.644569
68.155 20.740326
68.160 20.570894
68.165 20.935101
68.170 20.709545
68.175 20.134594
68.180 20.16221
68.185 20.84132
68.190 21.032602
68.195 21.516144
68.200 21.198215
68.205 21.5336
68.210 22.437357
68.215 22.460012
68.220 21.963871
68.225 21.913059
68.230 21.855055
68.235 22.324358
68.240 22.130299
68.245 22.438875
68.250 22.823807
68.255 23.26206
68.260 23.468006
68.265 23.672991
68.270 23.644444
68.275 23.445213
68.280 22.908857
68.285 22.952221
68.290 22.950029
68.295 22.837517
68.300 22.458448
68.305 21.635912
68.310 21.836233
68.315 22.053087
68.320 22.257843
68.325 22.313553
68.330 22.230595
68.335 22.397705
68.340 22.405218
68.345 22.333471
68.350 21.674818
68.355 20.699621
68.360 20.536985
68.365 21.049208
68.370 21.477924
68.375 22.161716
68.380 22.071054
68.385 22.160202
68.390 22.300114
68.395 22.270166
68.400 21.217192
68.405 20.393494
68.410 20.310106
68.415 20.445837
68.420 20.987038
68.425 21.231956
68.430 21.254944
68.435 21.347809
68.440 21.74087
68.445 21.604807
68.450 21.650789
68.455 21.237389
68.460 21.101263
68.465 20.932293
68.470 21.003838
68.475 21.151781
68.480 21.627901
68.485 22.129856
68.490 23.021645
68.495 23.525396
68.500 23.473669
68.505 23.164597
68.510 22.694042
68.515 22.45631
68.520 21.905022
68.525 21.408518
68.530 21.331268
68.535 22.315477
68.540 22.380478
68.545 22.013275
68.550 21.700794
68.555 21.701284
68.560 21.79616
68.565 21.842007
68.570 21.386812
68.575 21.933611
68.580 22.7115
68.585 22.966007
68.590 22.686468
68.595 22.209869
68.600 22.501812
68.605 22.934044
68.610 23.483147
68.615 23.187815
68.620 23.375023
68.625 24.309488
68.630 24.979921
68.635 24.926584
68.640 24.732229
68.645 24.060808
68.650 24.192036
68.655 23.283552
68.660 22.799185
68.665 22.757772
68.670 22.385862
68.675 22.443422
68.680 22.681679
68.685 22.695316
68.690 23.179241
68.695 23.28322
68.700 23.077511
68.705 22.94315
68.710 23.054482
68.715 22.89926
68.720 22.840662
68.725 22.450186
68.730 21.708513
68.735 21.313875
68.740 20.686712
68.745 19.966543
68.750 19.604216
68.755 19.608704
68.760 19.731478
68.765 20.122681
68.770 20.882692
68.775 21.803411
68.780 22.364822
68.785 22.662283
68.790 22.646339
68.795 22.723129
68.800 22.686819
68.805 22.531288
68.810 22.310131
68.815 22.583574
68.820 22.956331
68.825 23.309103
68.830 23.785805
68.835 23.78628
68.840 24.01042
68.845 24.139755
68.850 23.937029
68.855 23.549782
68.860 23.348448
68.865 23.108265
68.870 23.178488
68.875 23.196072
68.880 22.775728
68.885 22.747427
68.890 22.615719
68.895 22.548487
68.900 22.971182
68.905 22.875587
68.910 22.629374
68.915 22.916149
68.920 23.098347
68.925 23.149509
68.930 22.978001
68.935 22.843443
68.940 22.923716
68.945 22.828104
68.950 22.321413
68.955 22.248007
68.960 22.526634
68.965 22.888645
68.970 22.766464
68.975 22.430914
68.980 22.580837
68.985 23.139345
68.990 23.897434
68.995 23.64613
69.000 23.385389
69.005 23.747868
69.010 23.962666
69.015 23.541975
69.020 23.487274
69.025 23.048828
69.030 23.458757
69.035 23.369694
69.040 23.336296
69.045 23.555712
69.050 24.458466
69.055 24.814068
69.060 25.261421
69.065 25.710484
69.070 26.12999
69.075 25.732346
69.080 25.680693
69.085 25.768761
69.090 26.234856
69.095 26.829647
69.100 26.691507
69.105 26.485241
69.110 27.114538
69.115 27.288923
69.120 26.692787
69.125 26.298508
69.130 25.846718
69.135 25.285828
69.140 26.532087
69.145 26.446388
69.150 26.193329
69.155 26.958611
69.160 27.042679
69.165 27.439247
69.170 28.16053
69.175 27.989296
69.180 28.632156
69.185 28.978933
69.190 28.187986
69.195 27.502647
69.200 27.199877
69.205 26.795937
69.210 26.119125
69.215 26.036554
69.220 25.932819
69.225 26.557663
69.230 27.17367
69.235 27.016672
69.240 27.143915
69.245 27.402367
69.250 27.113358
69.255 27.129612
69.260 26.850994
69.265 26.157936
69.270 26.745529
69.275 27.042149
69.280 27.031822
69.285 26.637152
69.290 26.564127
69.295 27.086199
69.300 27.708473
69.305 27.274914
69.310 26.731968
69.315 27.383757
69.320 27.960672
69.325 27.666672
69.330 27.311438
69.335 27.025703
69.340 27.31468
69.345 28.143764
69.350 28.22323
69.355 28.102777
69.360 28.268026
69.365 28.528925
69.370 28.951384
69.375 29.040701
69.380 28.576704
69.385 28.698637
69.390 28.912226
69.395 29.613007
69.400 29.469114
69.405 29.189016
69.410 29.283018
69.415 29.811985
69.420 29.943254
69.425 29.479355
69.430 29.612394
69.435 29.885899
69.440 29.881762
69.445 29.692808
69.450 30.302273
69.455 30.704838
69.460 30.889265
69.465 29.864935
69.470 29.679329
69.475 29.381908
69.480 28.925209
69.485 27.321949
69.490 26.817764
69.495 27.146496
69.500 27.748249
69.505 27.806278
69.510 27.516155
69.515 28.355539
69.520 28.669613
69.525 28.637392
69.530 28.472946
69.535 28.921152
69.540 28.959124
69.545 28.984556
69.550 28.174582
69.555 28.797514
69.560 29.117064
69.565 29.189081
69.570 29.259371
69.575 29.4848
69.580 29.476976
69.585 29.38666
69.590 28.782833
69.595 28.541313
69.600 28.106752
69.605 27.843893
69.610 27.8503
69.615 28.868963
69.620 28.530336
69.625 27.886822
69.630 27.820091
69.635 27.008749
69.640 26.74753
69.645 26.626173
69.650 25.888304
69.655 25.508492
69.660 25.9776
69.665 25.625587
69.670 26.881916
69.675 26.787933
69.680 27.07765
69.685 27.620268
69.690 28.359274
69.695 28.007071
69.700 28.338886
69.705 28.317591
69.710 27.60076
69.715 27.24345
69.720 27.038433
69.725 27.19219
69.730 27.943304
69.735 27.548059
69.740 27.066393
69.745 27.497602
69.750 26.920036
69.755 27.31526
69.760 27.153172
69.765 26.971254
69.770 27.08643
69.775 26.72366
69.780 26.898359
69.785 26.995066
69.790 26.477262
69.795 26.784901
69.800 27.04656
69.805 27.409552
69.810 27.661846
69.815 27.775475
69.820 27.305075
69.825 26.428511
69.830 26.446369
69.835 25.699448
69.840 25.130674
69.845 25.833817
69.850 25.534386
69.855 25.530811
69.860 25.539433
69.865 25.201614
69.870 25.391653
69.875 25.110935
69.880 24.083845
69.885 24.037985
69.890 24.235256
69.895 24.652956
69.900 24.262787
69.905 23.843584
69.910 23.801678
69.915 23.199055
69.920 23.430048
69.925 22.739405
69.930 21.93059
69.935 22.360922
69.940 22.789225
69.945 23.280521
69.950 23.509962
69.955 23.189919
69.960 23.097429
69.965 21.925484
69.970 21.569706
69.975 21.70804
69.980 21.493389
69.985 21.534817
69.990 21.337755
69.995 22.118603
70.000 23.21965
70.005 23.178787
70.010 22.480001
70.015 22.089834
70.020 22.315336
70.025 22.329823
70.030 22.072271
70.035 22.50185
70.040 22.669762
70.045 22.612436
70.050 22.683907
70.055 22.567894
70.060 23.297663
70.065 22.910378
70.070 22.141205
70.075 22.140894
70.080 22.443886
70.085 22.411417
70.090 22.099504
70.095 21.838366
70.100 22.536118
70.105 22.679281
70.110 22.290724
70.115 22.291891
70.120 22.507034
70.125 22.190752
70.130 21.82762
70.135 21.110792
70.140 21.265738
70.145 21.499846
70.150 21.561125
70.155 21.448196
70.160 21.739016
70.165 21.100254
70.170 20.456615
70.175 20.54756
70.180 20.500765
70.185 20.747267
70.190 21.036732
70.195 21.091311
70.200 21.942057
70.205 22.738367
70.210 22.842609
70.215 22.576294
70.220 21.867971
70.225 21.331772
70.230 21.17901
70.235 21.226393
70.240 20.577257
70.245 20.007572
70.250 19.881626
70.255 19.979464
70.260 20.311747
70.265 20.187078
70.270 19.935818
70.275 19.465569
70.280 19.414963
70.285 19.652279
70.290 20.215294
70.295 20.45833
70.300 20.672659
70.305 20.463148
70.310 20.903933
70.315 21.276447
70.320 21.317387
70.325 21.025011
70.330 20.91995
70.335 20.554939
70.340 20.892288
70.345 20.488001
70.350 20.929108
70.355 20.593534
70.360 20.361258
70.365 20.416536
70.370 20.782383
70.375 21.467728
70.380 21.110312
70.385 20.93714
70.390 21.01088
70.395 20.686264
70.400 20.729277
70.405 20.033936
70.410 19.207132
70.415 19.33844
70.420 18.785597
70.425 18.887972
70.430 19.23077
70.435 19.463797
70.440 20.17178
70.445 19.886646
70.450 20.351629
70.455 19.964697
70.460 19.558279
70.465 19.06562
70.470 18.734867
70.475 18.659235
70.480 19.410107
70.485 19.555143
70.490 19.636929
70.495 20.271418
70.500 20.306862
70.505 20.299921
70.510 20.533573
70.515 20.480434
70.520 20.09671
70.525 20.555864
70.530 20.374027
70.535 20.505894
70.540 20.45537
70.545 20.035782
70.550 19.750607
70.555 20.014221
70.560 19.903612
70.565 20.167629
70.570 20.870148
70.575 20.758947
70.580 21.14743
70.585 21.308784
70.590 21.052481
70.595 21.230009
70.600 20.789633
70.605 21.062149
70.610 21.424154
70.615 21.315523
70.620 21.789465
70.625 21.818443
70.630 22.095413
70.635 22.095615
70.640 21.485777
70.645 22.000511
70.650 21.355759
70.655 21.175142
70.660 21.130455
70.665 20.474138
70.670 20.381184
70.675 20.509222
70.680 20.124598
70.685 20.031782
70.690 19.999689
70.695 20.200041
70.700 20.112492
70.705 20.01535
70.710 19.789455
70.715 20.029833
70.720 20.858618
70.725 20.25108
70.730 20.53009
70.735 20.88381
70.740 20.862215
70.745 20.370092
70.750 20.325211
70.755 20.26009
70.760 19.895487
70.765 19.212135
70.770 18.75672
70.775 19.097908
70.780 19.68215
70.785 19.118835
70.790 18.991018
70.795 19.405983
70.800 19.581181
70.805 20.30039
70.810 19.760759
70.815 19.29258
70.820 19.721041
70.825 19.748283
70.830 19.966829
70.835 19.660658
70.840 19.123884
70.845 19.194391
70.850 19.36113
70.855 18.912024
70.860 19.21394
70.865 19.313515
70.870 19.54693
70.875 19.752111
70.880 19.306
70.885 19.207247
70.890 19.611416
70.895 19.647593
70.900 19.497673
70.905 19.05184
70.910 19.204893
70.915 19.264442
70.920 19.072901
70.925 18.655989
70.930 18.592751
70.935 19.444878
70.940 19.964312
70.945 20.230978
70.950 20.672153
70.955 20.848433
70.960 21.08378
70.965 21.194227
70.970 21.186625
70.975 20.83147
70.980 20.916906
70.985 21.088434
70.990 20.774738
70.995 20.946459
71.000 20.485579
71.005 20.209665
71.010 20.719522
71.015 21.213482
71.020 21.117071
71.025 21.383974
71.030 21.149206
71.035 21.605476
71.040 21.613243
71.045 21.027369
71.050 21.009705
71.055 21.432335
71.060 22.136868
71.065 22.404331
71.070 22.018415
71.075 21.857246
71.080 21.564083
71.085 20.767521
71.090 20.519356
71.095 19.914612
71.100 18.84219
71.105 18.38554
71.110 18.536232
71.115 18.558672
71.120 18.884735
71.125 18.753809
71.130 19.176165
71.135 19.651014
71.140 20.011858
71.145 20.534237
71.150 20.717508
71.155 20.002014
71.160 20.27235
71.165 20.70862
71.170 20.928114
71.175 20.495991
71.180 19.939974
71.185 20.264263
71.190 20.395237
71.195 19.422655
71.200 19.182098
71.205 19.656944
71.210 19.792582
71.215 19.665339
71.220 19.450722
71.225 19.375273
71.230 19.438133
71.235 19.127834
71.240 19.233908
71.245 19.965082
71.250 20.328554
71.255 20.721975
71.260 21.225214
71.265 21.578415
71.270 21.271999
71.275 20.797277
71.280 20.140532
71.285 20.324005
71.290 20.180326
71.295 20.061647
71.300 19.587297
71.305 20.17885
71.310 20.176817
71.315 20.315907
71.320 19.92058
71.325 19.445744
71.330 19.356995
71.335 19.67416
71.340 18.863874
71.345 18.909475
71.350 18.71669
71.355 18.49876
71.360 18.960596
71.365 18.678473
71.370 18.512304
71.375 18.703156
71.380 18.702101
71.385 19.143227
71.390 19.210512
71.395 19.253122
71.400 19.662386
71.405 20.055603
71.410 20.363768
71.415 20.54425
71.420 20.013859
71.425 20.206797
71.430 20.251976
71.435 19.931068
71.440 20.117664
71.445 20.000395
71.450 20.399389
71.455 20.456631
71.460 19.993544
71.465 19.371031
71.470 18.804609
71.475 17.823629
71.480 17.475361
71.485 17.362291
71.490 18.03019
71.495 18.354662
71.500 18.82988
71.505 19.215004
71.510 19.515497
71.515 19.51059
71.520 19.241611
71.525 18.809
71.530 18.481489
71.535 18.479132
71.540 18.367905
71.545 18.177574
71.550 17.980049
71.555 18.008574
71.560 18.220467
71.565 18.591204
71.570 18.453609
71.575 18.139658
71.580 18.007944
71.585 18.011713
71.590 17.690233
71.595 17.46949
71.600 18.218241
71.605 18.558399
71.610 19.00592
71.615 19.8228
71.620 20.11916
71.625 20.158007
71.630 20.181692
71.635 19.426598
71.640 19.476271
71.645 19.098778
71.650 18.513674
71.655 18.084944
71.660 17.862104
71.665 17.810108
71.670 17.74354
71.675 17.648117
71.680 17.390539
71.685 17.301523
71.690 17.364256
71.695 17.528128
71.700 17.869228
71.705 17.667925
71.710 18.147137
71.715 18.909393
71.720 19.361395
71.725 19.644581
71.730 19.371784
71.735 19.035877
71.740 19.495651
71.745 19.473089
71.750 19.586426
71.755 19.300882
71.760 18.901262
71.765 18.984324
71.770 19.007301
71.775 18.89225
71.780 18.261333
71.785 18.929663
71.790 19.180092
71.795 19.558649
71.800 19.462599
71.805 19.587172
71.810 19.649662
71.815 19.299217
71.820 19.35541
71.825 19.286547
71.830 19.171549
71.835 19.453857
71.840 19.259754
71.845 19.405127
71.850 19.207575
71.855 18.447205
71.860 18.191713
71.865 18.279119
71.870 17.774546
71.875 18.303902
71.880 18.039572
71.885 18.465893
71.890 18.916119
71.895 19.026331
71.900 19.204803
71.905 19.664108
71.910 20.097952
71.915 20.702599
71.920 20.592152
71.925 20.252932
71.930 20.471508
71.935 20.941856
71.940 20.376049
71.945 19.86364
71.950 19.322412
71.955 19.325277
71.960 19.432396
71.965 18.77817
71.970 18.299782
71.975 18.305136
71.980 18.509581
71.985 19.063492
71.990 19.000526
71.995 19.153061
72.000 19.417742
72.005 19.808483
72.010 20.018232
72.015 20.092321
72.020 19.880159
72.025 19.768591
72.030 19.703384
72.035 19.469423
72.040 18.823212
72.045 18.447838
72.050 17.596729
72.055 17.408783
72.060 17.043053
72.065 17.02552
72.070 17.22991
72.075 16.830376
72.080 16.808048
72.085 17.40139
72.090 17.11474
72.095 17.408648
72.100 18.122534
72.105 18.386671
72.110 19.09313
72.115 18.811697
72.120 19.048149
72.125 19.703293
72.130 19.678928
72.135 19.229437
72.140 19.459099
72.145 19.050848
72.150 18.565136
72.155 17.698217
72.160 17.64019
72.165 17.299372
72.170 17.30899
72.175 16.90102
72.180 17.310287
72.185 18.094065
72.190 18.730957
72.195 18.583136
72.200 18.490622
72.205 18.409781
72.210 18.528906
72.215 18.110947
72.220 18.389299
72.225 18.361933
72.230 18.689821
72.235 18.619989
72.240 19.225616
72.245 19.691294
72.250 20.146948
72.255 20.261496
72.260 20.300755
72.265 20.175531
72.270 20.237131
72.275 20.286812
72.280 20.19883
72.285 20.060549
72.290 19.555487
72.295 19.445328
72.300 19.843214
72.305 19.699009
72.310 19.800375
72.315 19.645571
72.320 19.487026
72.325 19.813545
72.330 20.395567
72.335 20.430866
72.340 20.150242
72.345 19.618801
72.350 20.924761
72.355 21.332861
72.360 20.919598
72.365 20.552675
72.370 21.069771
72.375 21.704624
72.380 21.905607
72.385 20.633167
72.390 20.097754
72.395 19.801092
72.400 19.573893
72.405 19.314083
72.410 18.753109
72.415 18.88069
72.420 18.746813
72.425 18.952421
72.430 18.938658
72.435 18.470671
72.440 18.290419
72.445 18.448109
72.450 18.738831
72.455 19.141773
72.460 19.044666
72.465 19.250591
72.470 18.989874
72.475 18.404222
72.480 17.513504
72.485 16.985966
72.490 16.85075
72.495 16.650457
72.500 16.992632
72.505 17.734285
72.510 18.533106
72.515 18.549219
72.520 18.640947
72.525 18.870487
72.530 18.761005
72.535 18.406973
72.540 17.549469
72.545 17.166494
72.550 17.330917
72.555 18.084864
72.560 18.236198
72.565 18.103844
72.570 17.954132
72.575 18.256897
72.580 18.752831
72.585 18.428856
72.590 18.118401
72.595 18.376284
72.600 19.241901
72.605 19.756021
72.610 20.141361
72.615 20.396482
72.620 21.032227
72.625 20.828384
72.630 19.696066
72.635 18.871046
72.640 18.597685
72.645 18.117634
72.650 17.345228
72.655 16.974859
72.660 17.182238
72.665 17.614695
72.670 17.949274
72.675 17.912878
72.680 18.482616
72.685 19.052464
72.690 19.351034
72.695 19.548923
72.700 19.60924
72.705 19.268482
72.710 19.566948
72.715 19.100275
72.720 18.69375
72.725 18.347412
72.730 18.712095
72.735 19.119789
72.740 19.394049
72.745 19.021467
72.750 18.819981
72.755 19.520403
72.760 19.492683
72.765 19.210138
72.770 18.10606
72.775 17.900497
72.780 17.399714
72.785 17.403791
72.790 17.347748
72.795 17.605253
72.800 18.231731
72.805 18.365108
72.810 18.316023
72.815 18.21711
72.820 17.748852
72.825 16.689711
72.830 16.275585
72.835 16.541824
72.840 16.68854
72.845 16.784403
72.850 17.338629
72.855 17.83573
72.860 17.989231
72.865 17.429087
72.870 17.118864
72.875 16.826166
72.880 17.196215
72.885 17.008329
72.890 16.508329
72.895 16.5723
72.900 17.008062
72.905 17.390415
72.910 17.637856
72.915 17.725317
72.920 17.621319
72.925 18.146793
72.930 17.742332
72.935 17.546282
72.940 17.629974
72.945 17.366325
72.950 17.576624
72.955 17.674318
72.960 17.484756
72.965 17.995707
72.970 17.661306
72.975 17.840694
72.980 17.950968
72.985 17.523735
72.990 17.736483
72.995 18.190329
73.000 18.427713
