!@!!GADDS PLOTSO FILE: Chi integration type
!@!!Title/SampleName: map-cd
!@!!Comment: ?
!@!!User: Bruker Instrument Administrator
!@!!Site: University of Illinois Chicago
!@!!Frame: map-cd_01_000.gfrm
!@!!Wavelengths    1.54184   1.54056   1.54439
!@!!Frame angles: 2Theta: 63.000 Omega: 50.000 Phi: 0.000 Chi: 90.000
!@!!Integration range: 2Theta: 53.000 to 73.000  Gamma: -105.000 to -75.000
!@!!Integration method: bin normalized
!@!N
!@!SS
!@!M
!@!L 0.0 0.0 0.0 0.0
!@!XDegrees
!@!YCounts
53.000 9.357003
53.005 9.402879
53.010 9.377606
53.015 9.530214
53.020 9.780804
53.025 10.092295
53.030 9.96128
53.035 9.524409
53.040 9.322529
53.045 9.03227
53.050 8.459052
53.055 8.611363
53.060 8.598856
53.065 8.784485
53.070 8.89231
53.075 9.090466
53.080 9.446612
53.085 9.327922
53.090 9.117038
53.095 9.079232
53.100 8.976793
53.105 9.390382
53.110 9.250343
53.115 9.215735
53.120 9.164971
53.125 9.258644
53.130 9.386912
53.135 8.934895
53.140 8.864419
53.145 9.086981
53.150 9.052683
53.155 9.099504
53.160 8.942201
53.165 8.866895
53.170 9.38477
53.175 9.266717
53.180 8.839878
53.185 8.983702
53.190 9.416075
53.195 9.862658
53.200 9.766168
53.205 9.211727
53.210 9.683816
53.215 10.108823
53.220 9.698096
53.225 9.333577
53.230 9.503946
53.235 9.889633
53.240 10.225751
53.245 9.936791
53.250 10.122623
53.255 10.486073
53.260 10.296009
53.265 9.908459
53.270 9.266556
53.275 9.111501
53.280 9.202581
53.285 8.640805
53.290 8.470565
53.295 8.529508
53.300 9.163828
53.305 9.823119
53.310 10.055042
53.315 10.470723
53.320 10.616455
53.325 10.677413
53.330 10.872238
53.335 10.557294
53.340 10.338075
53.345 10.129147
53.350 10.129889
53.355 10.101986
53.360 9.592876
53.365 9.740612
53.370 10.024802
53.375 10.298674
53.380 10.397019
53.385 10.39473
53.390 10.836531
53.395 11.590391
53.400 11.281991
53.405 11.162436
53.410 10.7852
53.415 10.688586
53.420 10.358594
53.425 10.353455
53.430 9.920795
53.435 9.501975
53.440 9.036761
53.445 8.948244
53.450 8.887867
53.455 8.758789
53.460 8.60084
53.465 8.746483
53.470 9.443181
53.475 9.786983
53.480 9.720798
53.485 9.744432
53.490 9.704674
53.495 9.833113
53.500 9.86917
53.505 10.022335
53.510 10.176001
53.515 10.187459
53.520 10.155409
53.525 10.231339
53.530 10.15719
53.535 10.21139
53.540 9.684526
53.545 9.370695
53.550 9.257113
53.555 9.7397
53.560 9.739878
53.565 9.74437
53.570 9.599205
53.575 9.679153
53.580 10.322117
53.585 10.52991
53.590 10.701076
53.595 10.308167
53.600 10.796268
53.605 11.299184
53.610 11.390264
53.615 11.268243
53.620 10.918903
53.625 10.900764
53.630 11.325223
53.635 10.757078
53.640 10.550188
53.645 10.717545
53.650 10.777562
53.655 10.573198
53.660 10.746845
53.665 11.218767
53.670 11.095153
53.675 10.99464
53.680 10.956867
53.685 11.623073
53.690 11.43548
53.695 11.203148
53.700 11.088858
53.705 11.612411
53.710 11.520659
53.715 11.218196
53.720 11.145337
53.725 11.568295
53.730 11.282641
53.735 10.656872
53.740 10.267856
53.745 10.405805
53.750 10.462074
53.755 10.252001
53.760 10.204047
53.765 10.29276
53.770 10.482431
53.775 10.353394
53.780 10.040087
53.785 10.148231
53.790 10.218563
53.795 10.012541
53.800 10.493576
53.805 10.463329
53.810 10.804323
53.815 11.229217
53.820 10.972214
53.825 10.988491
53.830 10.875729
53.835 10.409951
53.840 10.740746
53.845 10.530618
53.850 10.047334
53.855 10.098552
53.860 9.670024
53.865 9.712803
53.870 9.60296
53.875 9.469771
53.880 9.745985
53.885 9.703838
53.890 9.754791
53.895 9.802181
53.900 9.916533
53.905 10.367259
53.910 10.244943
53.915 10.270059
53.920 10.645468
53.925 11.446901
53.930 11.99457
53.935 12.069715
53.940 11.935038
53.945 12.211807
53.950 11.782392
53.955 11.147752
53.960 10.596876
53.965 10.827722
53.970 10.701564
53.975 10.582534
53.980 10.203326
53.985 10.173621
53.990 10.594327
53.995 10.375667
54.000 10.072465
54.005 10.361588
54.010 10.694758
54.015 11.021649
54.020 11.088725
54.025 11.254251
54.030 11.777541
54.035 11.729322
54.040 11.309964
54.045 11.192806
54.050 11.205001
54.055 11.136244
54.060 10.895694
54.065 10.634179
54.070 10.746762
54.075 10.667048
54.080 10.975457
54.085 10.931008
54.090 11.214373
54.095 11.011912
54.100 11.190592
54.105 11.607963
54.110 12.186596
54.115 12.141287
54.120 11.88059
54.125 11.319937
54.130 11.293948
54.135 10.646144
54.140 9.689207
54.145 8.831819
54.150 8.681602
54.155 9.270743
54.160 9.830563
54.165 10.552963
54.170 11.346239
54.175 11.99213
54.180 12.078339
54.185 12.078742
54.190 11.684927
54.195 11.16463
54.200 11.201708
54.205 10.693819
54.210 10.489419
54.215 10.723256
54.220 11.16944
54.225 11.355203
54.230 11.320916
54.235 11.382602
54.240 11.74537
54.245 11.967421
54.250 11.954817
54.255 11.887085
54.260 11.883315
54.265 12.011607
54.270 11.579925
54.275 11.594665
54.280 11.674887
54.285 11.690742
54.290 11.668254
54.295 11.064381
54.300 11.085075
54.305 11.174326
54.310 11.326473
54.315 11.570002
54.320 11.488035
54.325 11.733308
54.330 12.418333
54.335 12.033303
54.340 12.060814
54.345 11.665681
54.350 11.404548
54.355 11.229184
54.360 11.116017
54.365 11.015582
54.370 11.153993
54.375 11.113364
54.380 11.057777
54.385 11.585702
54.390 12.029844
54.395 11.934626
54.400 11.809371
54.405 11.684382
54.410 11.581433
54.415 11.465517
54.420 10.985753
54.425 10.538647
54.430 10.112473
54.435 10.236023
54.440 10.454592
54.445 11.260852
54.450 11.682419
54.455 11.728354
54.460 11.833714
54.465 12.427119
54.470 12.614555
54.475 12.64325
54.480 12.135729
54.485 11.658698
54.490 11.678725
54.495 12.10997
54.500 12.06089
54.505 12.14933
54.510 12.124432
54.515 11.831492
54.520 11.486127
54.525 11.693178
54.530 11.211139
54.535 10.820818
54.540 10.632868
54.545 10.655286
54.550 11.193854
54.555 11.625544
54.560 11.560145
54.565 11.593217
54.570 11.825989
54.575 11.849959
54.580 11.929556
54.585 11.903936
54.590 12.209712
54.595 12.090769
54.600 12.083026
54.605 11.989593
54.610 12.000909
54.615 11.803784
54.620 11.421687
54.625 11.207335
54.630 11.45931
54.635 11.416751
54.640 11.462395
54.645 11.222729
54.650 11.44645
54.655 11.873219
54.660 11.744134
54.665 11.505671
54.670 11.617074
54.675 11.572925
54.680 11.820778
54.685 11.52587
54.690 11.433059
54.695 11.459648
54.700 11.510837
54.705 11.451899
54.710 11.261655
54.715 11.327206
54.720 11.321463
54.725 10.997569
54.730 11.007176
54.735 11.160727
54.740 11.554737
54.745 11.571243
54.750 11.265538
54.755 10.913943
54.760 10.947595
54.765 11.155958
54.770 10.997088
54.775 10.767805
54.780 10.79419
54.785 11.062211
54.790 11.420831
54.795 11.443436
54.800 10.895735
54.805 10.469933
54.810 9.848206
54.815 9.453324
54.820 9.137358
54.825 9.067257
54.830 9.207725
54.835 9.62015
54.840 10.121135
54.845 10.728165
54.850 11.206136
54.855 11.5777
54.860 11.551157
54.865 11.486646
54.870 11.758128
54.875 11.768193
54.880 11.688225
54.885 11.295749
54.890 11.033276
54.895 10.823156
54.900 10.748807
54.905 10.660097
54.910 10.688922
54.915 11.114755
54.920 11.654024
54.925 11.725197
54.930 11.618328
54.935 12.108003
54.940 11.967196
54.945 11.48289
54.950 11.226121
54.955 11.248836
54.960 11.294137
54.965 11.475464
54.970 11.080553
54.975 11.461244
54.980 11.546465
54.985 11.262898
54.990 10.885107
54.995 10.771822
55.000 10.637797
55.005 10.492043
55.010 10.86614
55.015 11.042073
55.020 11.136183
55.025 11.130556
55.030 11.069969
55.035 11.384809
55.040 11.45066
55.045 11.159482
55.050 11.481449
55.055 12.020067
55.060 12.935678
55.065 13.513391
55.070 13.193736
55.075 12.876706
55.080 13.038477
55.085 12.637341
55.090 12.545792
55.095 11.854702
55.100 11.529407
55.105 11.793808
55.110 11.971104
55.115 12.128573
55.120 12.090371
55.125 11.934884
55.130 12.550259
55.135 12.834488
55.140 13.105376
55.145 13.094533
55.150 12.514102
55.155 12.19908
55.160 12.21568
55.165 11.553986
55.170 11.230676
55.175 11.277329
55.180 11.712567
55.185 12.427121
55.190 12.739054
55.195 12.838905
55.200 13.136123
55.205 12.95978
55.210 12.571664
55.215 12.011648
55.220 11.673088
55.225 11.166712
55.230 10.49985
55.235 10.387964
55.240 10.496341
55.245 10.731025
55.250 10.887242
55.255 10.823621
55.260 11.226295
55.265 11.369112
55.270 11.452799
55.275 11.286024
55.280 10.863263
55.285 10.889004
55.290 11.334117
55.295 10.902186
55.300 11.189289
55.305 11.285269
55.310 11.170589
55.315 11.039119
55.320 10.683228
55.325 10.689394
55.330 11.09285
55.335 10.863456
55.340 10.597576
55.345 10.659704
55.350 11.068864
55.355 11.735698
55.360 12.076641
55.365 12.140845
55.370 12.201177
55.375 12.421918
55.380 12.780107
55.385 13.026152
55.390 12.110803
55.395 11.22435
55.400 10.906366
55.405 11.008128
55.410 11.287563
55.415 10.961432
55.420 10.701519
55.425 10.78082
55.430 11.275938
55.435 12.075717
55.440 11.964872
55.445 11.700882
55.450 11.937901
55.455 11.983461
55.460 12.149693
55.465 11.857123
55.470 11.238791
55.475 11.008814
55.480 11.233032
55.485 11.143903
55.490 10.951961
55.495 11.255531
55.500 11.248732
55.505 11.911009
55.510 12.361763
55.515 12.177578
55.520 12.470599
55.525 12.338734
55.530 12.352645
55.535 12.058928
55.540 11.379329
55.545 11.329344
55.550 11.904002
55.555 11.665747
55.560 11.5524
55.565 11.685136
55.570 11.89577
55.575 12.213375
55.580 12.210421
55.585 11.546882
55.590 12.069929
55.595 12.435853
55.600 12.701139
55.605 12.302025
55.610 12.244259
55.615 12.006973
55.620 11.877005
55.625 11.831787
55.630 11.96346
55.635 12.528584
55.640 12.865117
55.645 13.176767
55.650 13.647771
55.655 13.593644
55.660 13.228958
55.665 12.882719
55.670 12.323612
55.675 11.977265
55.680 11.490745
55.685 11.481728
55.690 12.054535
55.695 11.877585
55.700 11.99827
55.705 12.043951
55.710 12.701817
55.715 12.752739
55.720 12.572079
55.725 12.827258
55.730 13.189612
55.735 12.934895
55.740 13.072581
55.745 12.520964
55.750 12.779097
55.755 12.279019
55.760 11.998114
55.765 12.051974
55.770 12.044387
55.775 11.687334
55.780 11.751842
55.785 11.860633
55.790 12.091249
55.795 12.080679
55.800 11.960623
55.805 12.157112
55.810 12.329421
55.815 12.14299
55.820 12.104851
55.825 12.12274
55.830 12.185242
55.835 12.950377
55.840 13.160592
55.845 13.493139
55.850 13.718473
55.855 13.903123
55.860 13.798885
55.865 13.207623
55.870 12.121128
55.875 11.809974
55.880 12.058351
55.885 11.911808
55.890 11.894934
55.895 12.432639
55.900 12.550423
55.905 13.042982
55.910 12.811527
55.915 12.271225
55.920 12.492133
55.925 12.285756
55.930 11.812485
55.935 11.839488
55.940 11.95003
55.945 12.630124
55.950 12.707889
55.955 12.847026
55.960 12.972562
55.965 13.101761
55.970 13.052371
55.975 12.133872
55.980 11.845193
55.985 11.5795
55.990 11.237577
55.995 11.255723
56.000 11.226097
56.005 11.618346
56.010 12.251056
56.015 12.371074
56.020 12.389202
56.025 12.291933
56.030 12.401603
56.035 12.579804
56.040 12.521232
56.045 12.439316
56.050 11.881669
56.055 11.892221
56.060 12.321298
56.065 12.152916
56.070 11.584599
56.075 11.506643
56.080 11.544137
56.085 12.083635
56.090 12.173702
56.095 12.172491
56.100 12.149998
56.105 12.439822
56.110 12.335465
56.115 12.021029
56.120 12.355833
56.125 12.155214
56.130 11.855279
56.135 11.805759
56.140 11.76015
56.145 12.503413
56.150 12.489147
56.155 12.396781
56.160 12.447209
56.165 12.197946
56.170 12.364967
56.175 12.192576
56.180 11.745911
56.185 11.756947
56.190 11.40971
56.195 11.277815
56.200 11.34854
56.205 11.429768
56.210 11.321692
56.215 11.315682
56.220 11.986529
56.225 12.090895
56.230 12.692673
56.235 12.965126
56.240 13.250353
56.245 13.721173
56.250 13.892671
56.255 13.84814
56.260 13.728553
56.265 13.463425
56.270 13.418812
56.275 13.01315
56.280 13.071459
56.285 12.645225
56.290 12.263674
56.295 12.201617
56.300 12.315386
56.305 12.054411
56.310 12.095815
56.315 11.792742
56.320 11.639902
56.325 11.49627
56.330 11.396495
56.335 11.262235
56.340 11.526664
56.345 11.620584
56.350 11.348108
56.355 11.685404
56.360 12.246693
56.365 13.25166
56.370 13.222001
56.375 13.068302
56.380 12.629252
56.385 12.48581
56.390 11.928331
56.395 11.44679
56.400 11.003107
56.405 11.218334
56.410 11.392054
56.415 12.128559
56.420 13.037066
56.425 13.546411
56.430 14.01265
56.435 14.429468
56.440 14.174716
56.445 13.67526
56.450 13.000982
56.455 12.905466
56.460 12.757024
56.465 11.962276
56.470 11.587044
56.475 11.975154
56.480 12.031153
56.485 12.004553
56.490 11.967719
56.495 11.958261
56.500 12.468059
56.505 12.419575
56.510 12.401011
56.515 13.109041
56.520 13.824856
56.525 13.808826
56.530 14.080746
56.535 13.832729
56.540 13.818495
56.545 13.651058
56.550 13.468244
56.555 12.818969
56.560 12.553211
56.565 12.824253
56.570 13.133083
56.575 13.620838
56.580 13.632114
56.585 13.37429
56.590 13.677863
56.595 13.503112
56.600 13.03262
56.605 12.216333
56.610 11.638469
56.615 11.525341
56.620 11.896177
56.625 11.687153
56.630 11.590115
56.635 11.656441
56.640 12.673454
56.645 12.906627
56.650 12.777491
56.655 12.892874
56.660 13.800136
56.665 13.917297
56.670 13.758056
56.675 13.282914
56.680 13.133487
56.685 13.136096
56.690 13.232115
56.695 13.226348
56.700 13.251072
56.705 13.572193
56.710 13.449146
56.715 13.606338
56.720 14.220174
56.725 13.702898
56.730 13.677718
56.735 14.48531
56.740 14.364538
56.745 15.158605
56.750 15.497113
56.755 15.063481
56.760 14.855853
56.765 14.697542
56.770 14.390444
56.775 14.267018
56.780 14.184386
56.785 14.109984
56.790 14.419501
56.795 15.030932
56.800 15.074882
56.805 14.888962
56.810 14.570791
56.815 14.092883
56.820 13.56629
56.825 13.690009
56.830 13.52225
56.835 13.522566
56.840 13.65714
56.845 13.850736
56.850 14.193545
56.855 14.642165
56.860 14.222232
56.865 13.927835
56.870 13.826242
56.875 14.149139
56.880 14.418312
56.885 14.305199
56.890 13.996586
56.895 14.072248
56.900 13.911613
56.905 13.871311
56.910 13.176494
56.915 12.455882
56.920 12.296101
56.925 12.81012
56.930 12.995175
56.935 13.181354
56.940 13.241339
56.945 13.646301
56.950 14.315712
56.955 14.583194
56.960 14.248552
56.965 14.655728
56.970 15.045876
56.975 15.20496
56.980 15.412281
56.985 15.76038
56.990 15.910222
56.995 16.01893
57.000 15.523866
57.005 15.068561
57.010 15.047488
57.015 14.795427
57.020 14.441485
57.025 14.43862
57.030 14.506357
57.035 14.677635
57.040 14.654447
57.045 14.574708
57.050 14.707314
57.055 14.695761
57.060 14.889133
57.065 14.67607
57.070 14.905443
57.075 15.241831
57.080 15.368308
57.085 14.943372
57.090 14.604129
57.095 14.151581
57.100 13.954308
57.105 13.876918
57.110 13.856308
57.115 14.161236
57.120 14.104021
57.125 13.384294
57.130 13.084679
57.135 12.771894
57.140 12.245782
57.145 11.52354
57.150 11.651638
57.155 11.982896
57.160 12.836896
57.165 13.24255
57.170 13.734772
57.175 13.878532
57.180 13.764616
57.185 13.176003
57.190 13.116138
57.195 12.848974
57.200 12.891949
57.205 12.803625
57.210 13.091098
57.215 13.241138
57.220 13.904572
57.225 14.329801
57.230 14.460625
57.235 14.252496
57.240 14.536482
57.245 14.602777
57.250 14.742168
57.255 14.386959
57.260 14.457652
57.265 14.84636
57.270 14.820454
57.275 14.732731
57.280 15.376042
57.285 15.619469
57.290 15.832673
57.295 15.460344
57.300 15.467797
57.305 15.654295
57.310 15.383222
57.315 15.846401
57.320 15.881704
57.325 16.292517
57.330 16.593477
57.335 16.74712
57.340 16.848825
57.345 16.583668
57.350 16.319477
57.355 16.608051
57.360 16.219753
57.365 15.913918
57.370 15.519576
57.375 15.867335
57.380 15.640744
57.385 15.253778
57.390 14.649365
57.395 14.460029
57.400 14.493657
57.405 14.709149
57.410 14.422122
57.415 14.519366
57.420 14.263597
57.425 14.446237
57.430 14.463246
57.435 14.520801
57.440 13.814424
57.445 13.741645
57.450 14.127152
57.455 14.534923
57.460 14.096283
57.465 14.21864
57.470 14.533126
57.475 14.980079
57.480 15.485067
57.485 15.309955
57.490 15.388646
57.495 16.016638
57.500 15.823695
57.505 15.74862
57.510 15.565129
57.515 15.365849
57.520 15.212024
57.525 14.888391
57.530 15.293294
57.535 15.546582
57.540 15.861622
57.545 16.173605
57.550 16.030935
57.555 16.157076
57.560 16.148121
57.565 15.538264
57.570 15.551337
57.575 15.441154
57.580 15.411456
57.585 15.712517
57.590 15.704419
57.595 15.70773
57.600 16.198088
57.605 16.366234
57.610 16.383085
57.615 16.395744
57.620 16.225529
57.625 16.54961
57.630 16.520832
57.635 15.833718
57.640 15.503354
57.645 15.532925
57.650 15.250549
57.655 15.10757
57.660 14.603588
57.665 14.686891
57.670 15.228341
57.675 15.122121
57.680 14.629807
57.685 14.609494
57.690 14.657427
57.695 14.767145
57.700 14.670762
57.705 14.512337
57.710 14.556738
57.715 14.866326
57.720 15.31472
57.725 15.089024
57.730 15.140038
57.735 15.506939
57.740 15.331413
57.745 15.45286
57.750 15.506036
57.755 15.642633
57.760 16.159241
57.765 15.95074
57.770 15.799922
57.775 16.202051
57.780 16.293207
57.785 16.193676
57.790 15.58422
57.795 15.063205
57.800 15.053191
57.805 14.955593
57.810 15.267907
57.815 15.534143
57.820 15.83399
57.825 16.083307
57.830 16.067698
57.835 15.710695
57.840 15.441081
57.845 15.377608
57.850 14.954344
57.855 14.61259
57.860 14.526631
57.865 14.785791
57.870 15.170395
57.875 15.534671
57.880 14.791119
57.885 15.047986
57.890 15.581496
57.895 15.683812
57.900 15.880334
57.905 16.509964
57.910 16.759073
57.915 17.095211
57.920 17.448574
57.925 17.884422
57.930 18.240417
57.935 17.94887
57.940 17.427914
57.945 17.527559
57.950 17.522923
57.955 17.050869
57.960 16.669464
57.965 16.363499
57.970 16.541271
57.975 15.895314
57.980 15.742942
57.985 15.553383
57.990 15.429156
57.995 14.950024
58.000 15.108317
58.005 15.198022
58.010 14.932008
58.015 15.142289
58.020 15.43409
58.025 15.734705
58.030 16.08976
58.035 15.993073
58.040 16.083036
58.045 16.354874
58.050 15.856619
58.055 16.070499
58.060 16.384916
58.065 16.531811
58.070 16.762444
58.075 16.602705
58.080 16.625626
58.085 17.120787
58.090 16.691755
58.095 16.446507
58.100 16.180473
58.105 15.229964
58.110 15.053483
58.115 15.345159
58.120 15.473323
58.125 15.689378
58.130 15.832478
58.135 16.168972
58.140 17.189505
58.145 17.65173
58.150 17.492477
58.155 17.62331
58.160 17.460667
58.165 17.265455
58.170 17.100388
58.175 17.391495
58.180 17.526836
58.185 17.911295
58.190 17.490551
58.195 17.613499
58.200 18.016579
58.205 18.032339
58.210 18.022512
58.215 17.942797
58.220 17.574749
58.225 17.225945
58.230 17.167744
58.235 16.930618
58.240 17.457886
58.245 17.301008
58.250 16.927206
58.255 16.651199
58.260 17.248823
58.265 17.728798
58.270 17.565073
58.275 17.314062
58.280 17.442829
58.285 17.770655
58.290 18.252682
58.295 18.208622
58.300 18.131245
58.305 18.511164
58.310 18.533426
58.315 17.857748
58.320 18.144878
58.325 18.28244
58.330 18.115904
58.335 18.370878
58.340 18.477995
58.345 18.849705
58.350 19.199955
58.355 19.139221
58.360 19.094702
58.365 19.236198
58.370 18.914661
58.375 19.213644
58.380 18.937336
58.385 19.517443
58.390 19.691843
58.395 19.991632
58.400 20.033628
58.405 19.616163
58.410 18.954861
58.415 19.00773
58.420 19.432814
58.425 19.61459
58.430 19.074236
58.435 18.752512
58.440 19.274273
58.445 20.226185
58.450 20.367907
58.455 19.884817
58.460 20.028908
58.465 20.696514
58.470 21.131033
58.475 21.507565
58.480 21.651423
58.485 21.766829
58.490 21.675217
58.495 21.995438
58.500 21.828295
58.505 21.622917
58.510 21.228725
58.515 20.822359
58.520 20.564873
58.525 21.268486
58.530 21.127525
58.535 21.298182
58.540 21.84815
58.545 21.817251
58.550 22.171474
58.555 22.235128
58.560 22.00206
58.565 21.457228
58.570 21.098457
58.575 21.024038
58.580 20.617872
58.585 20.689537
58.590 20.878496
58.595 20.39595
58.600 20.671875
58.605 20.494328
58.610 20.18688
58.615 20.514452
58.620 20.368713
58.625 21.063629
58.630 22.058823
58.635 22.215477
58.640 22.747393
58.645 22.671928
58.650 22.882334
58.655 22.769758
58.660 21.79874
58.665 21.355438
58.670 21.332315
58.675 21.618256
58.680 22.201574
58.685 22.107706
58.690 22.852631
58.695 23.818487
58.700 23.567286
58.705 23.091421
58.710 22.370951
58.715 21.619396
58.720 21.644205
58.725 21.107405
58.730 20.605541
58.735 20.730612
58.740 21.218021
58.745 21.378496
58.750 21.518829
58.755 20.445292
58.760 19.926003
58.765 20.38385
58.770 20.433548
58.775 19.8529
58.780 19.56254
58.785 19.502697
58.790 19.589542
58.795 19.533024
58.800 18.913414
58.805 18.963993
58.810 19.435654
58.815 19.722185
58.820 19.571905
58.825 19.474766
58.830 18.957287
58.835 18.565208
58.840 18.292753
58.845 17.91906
58.850 17.846842
58.855 18.47485
58.860 19.07756
58.865 19.930965
58.870 20.249952
58.875 19.885811
58.880 19.992086
58.885 20.182625
58.890 20.263651
58.895 20.323721
58.900 19.601547
58.905 19.346743
58.910 19.619427
58.915 19.774782
58.920 19.550789
58.925 19.42823
58.930 19.446659
58.935 19.296028
58.940 19.039757
58.945 18.962633
58.950 18.306648
58.955 18.16321
58.960 18.038286
58.965 17.762321
58.970 18.26939
58.975 18.225206
58.980 17.975822
58.985 18.160809
58.990 18.748697
58.995 19.234203
59.000 19.165983
59.005 19.563272
59.010 20.351141
59.015 21.245171
59.020 22.041407
59.025 21.852686
59.030 21.711527
59.035 21.54891
59.040 21.922176
59.045 22.332272
59.050 22.310665
59.055 21.367094
59.060 21.439423
59.065 21.537189
59.070 21.718645
59.075 21.055676
59.080 21.113312
59.085 21.202127
59.090 21.438133
59.095 21.032785
59.100 21.453403
59.105 21.87509
59.110 21.581665
59.115 21.082809
59.120 21.238087
59.125 21.211575
59.130 21.188709
59.135 21.250502
59.140 21.21048
59.145 21.444143
59.150 21.790119
59.155 21.815483
59.160 22.409397
59.165 22.318874
59.170 22.509871
59.175 22.239334
59.180 21.672503
59.185 21.098927
59.190 20.76746
59.195 20.013798
59.200 19.661366
59.205 18.829216
59.210 18.600937
59.215 18.750425
59.220 18.621279
59.225 18.168842
59.230 17.982529
59.235 17.998058
59.240 18.075809
59.245 18.356541
59.250 18.345385
59.255 18.582388
59.260 18.290409
59.265 18.590071
59.270 19.054005
59.275 19.803907
59.280 20.038956
59.285 20.144445
59.290 19.718386
59.295 20.153551
59.300 20.235554
59.305 19.769173
59.310 19.479843
59.315 18.578003
59.320 17.966398
59.325 18.011927
59.330 17.796286
59.335 17.99555
59.340 17.880516
59.345 17.498945
59.350 17.914808
59.355 18.473734
59.360 18.924232
59.365 18.916258
59.370 18.358122
59.375 18.703793
59.380 19.445353
59.385 19.822886
59.390 20.4816
59.395 20.764776
59.400 21.31793
59.405 21.169271
59.410 21.106903
59.415 20.949484
59.420 20.662359
59.425 20.660604
59.430 20.294697
59.435 20.592434
59.440 21.466904
59.445 20.836784
59.450 20.157385
59.455 20.05628
59.460 19.863825
59.465 19.613535
59.470 19.537743
59.475 19.161602
59.480 19.345541
59.485 19.717522
59.490 20.042944
59.495 20.209709
59.500 20.269369
59.505 19.938662
59.510 20.09453
59.515 20.0604
59.520 20.075935
59.525 19.859875
59.530 19.458963
59.535 19.347633
59.540 19.120958
59.545 19.018509
59.550 19.573853
59.555 19.491163
59.560 19.583841
59.565 19.942705
59.570 20.445923
59.575 20.316547
59.580 19.932207
59.585 20.120462
59.590 20.036058
59.595 19.71163
59.600 18.917322
59.605 18.992537
59.610 18.919819
59.615 18.353193
59.620 18.028027
59.625 17.88369
59.630 18.303719
59.635 19.320452
59.640 19.674967
59.645 19.536293
59.650 19.738386
59.655 19.722027
59.660 19.979935
59.665 19.542875
59.670 18.511816
59.675 18.228067
59.680 18.527245
59.685 17.882523
59.690 18.007679
59.695 18.049057
59.700 18.807495
59.705 18.804728
59.710 18.861555
59.715 19.435307
59.720 19.963003
59.725 19.721628
59.730 19.764221
59.735 19.061901
59.740 19.184467
59.745 19.038942
59.750 18.738098
59.755 18.582199
59.760 18.61031
59.765 18.358744
59.770 19.244352
59.775 20.290003
59.780 20.385574
59.785 20.568924
59.790 20.943523
59.795 21.192369
59.800 20.927498
59.805 19.556623
59.810 18.722425
59.815 18.595266
59.820 18.202402
59.825 18.135944
59.830 18.06283
59.835 18.183208
59.840 18.769318
59.845 19.269688
59.850 19.330585
59.855 19.583885
59.860 19.277349
59.865 19.437809
59.870 19.688446
59.875 20.038355
59.880 19.537653
59.885 19.343088
59.890 19.675774
59.895 19.487919
59.900 19.345541
59.905 19.626574
59.910 19.344669
59.915 19.479967
59.920 19.810474
59.925 20.287954
59.930 20.934219
59.935 20.792351
59.940 20.821754
59.945 21.030874
59.950 20.583027
59.955 19.456598
59.960 18.732937
59.965 18.43256
59.970 18.030981
59.975 17.27615
59.980 16.444185
59.985 17.563692
59.990 18.808704
59.995 18.950945
60.000 19.280453
60.005 19.371466
60.010 19.4118
60.015 19.263611
60.020 18.223251
60.025 17.291813
60.030 17.063322
60.035 17.174255
60.040 17.843515
60.045 18.733587
60.050 19.871538
60.055 19.902197
60.060 20.22942
60.065 20.239208
60.070 19.997997
60.075 19.72496
60.080 19.202866
60.085 18.971289
60.090 19.117235
60.095 19.217966
60.100 19.324528
60.105 19.434271
60.110 19.232269
60.115 19.366114
60.120 19.920195
60.125 19.977051
60.130 19.85257
60.135 19.863907
60.140 20.322399
60.145 20.614796
60.150 20.13401
60.155 19.472683
60.160 19.490343
60.165 19.246347
60.170 19.066944
60.175 18.267244
60.180 18.755217
60.185 18.643459
60.190 18.864809
60.195 18.777872
60.200 19.062132
60.205 19.293499
60.210 19.517008
60.215 19.622913
60.220 19.796135
60.225 19.705017
60.230 19.836346
60.235 19.473009
60.240 19.431711
60.245 19.300417
60.250 18.946707
60.255 18.875879
60.260 18.161568
60.265 18.467262
60.270 19.013401
60.275 19.242117
60.280 19.506432
60.285 19.412794
60.290 19.19249
60.295 19.373423
60.300 18.808306
60.305 18.198828
60.310 17.772665
60.315 17.231398
60.320 17.166233
60.325 16.593904
60.330 16.226566
60.335 16.521355
60.340 16.342232
60.345 16.864576
60.350 17.246092
60.355 17.048794
60.360 17.113134
60.365 17.194012
60.370 17.052776
60.375 17.068785
60.380 16.542103
60.385 16.494234
60.390 17.036982
60.395 17.914322
60.400 18.215714
60.405 18.5336
60.410 18.815666
60.415 18.741663
60.420 18.943188
60.425 18.634153
60.430 18.593594
60.435 18.597385
60.440 18.389839
60.445 18.246948
60.450 18.174242
60.455 17.736309
60.460 18.049772
60.465 17.811424
60.470 17.635315
60.475 17.735184
60.480 17.738419
60.485 17.761715
60.490 17.812605
60.495 17.897026
60.500 18.224998
60.505 18.391945
60.510 17.950871
60.515 17.670874
60.520 17.387463
60.525 17.685114
60.530 17.626381
60.535 16.850546
60.540 17.07229
60.545 18.066202
60.550 18.079304
60.555 17.833258
60.560 17.059786
60.565 16.877659
60.570 17.049799
60.575 16.771414
60.580 16.199245
60.585 16.738302
60.590 17.444155
60.595 18.195021
60.600 18.379471
60.605 18.354877
60.610 18.533693
60.615 18.615831
60.620 18.179766
60.625 18.012142
60.630 17.945147
60.635 18.154211
60.640 18.071823
60.645 17.299339
60.650 17.051678
60.655 17.190382
60.660 16.702091
60.665 16.278036
60.670 15.912133
60.675 15.786837
60.680 16.03083
60.685 16.038723
60.690 16.130066
60.695 16.480497
60.700 16.798717
60.705 16.91987
60.710 17.01918
60.715 17.244059
60.720 17.304382
60.725 17.400229
60.730 17.681049
60.735 17.38471
60.740 17.499252
60.745 17.420979
60.750 17.733894
60.755 18.249388
60.760 18.334816
60.765 17.710461
60.770 17.528725
60.775 17.420786
60.780 17.682045
60.785 17.56369
60.790 17.184299
60.795 16.825714
60.800 17.031445
60.805 17.758457
60.810 18.295864
60.815 18.112106
60.820 17.736973
60.825 17.510353
60.830 18.293034
60.835 18.656639
60.840 18.169462
60.845 17.56156
60.850 17.721729
60.855 17.986876
60.860 18.342411
60.865 18.115549
60.870 17.757959
60.875 17.889423
60.880 17.762131
60.885 17.757254
60.890 18.206718
60.895 17.947071
60.900 17.483232
60.905 17.260923
60.910 17.301384
60.915 17.460361
60.920 17.282589
60.925 16.822643
60.930 16.836435
60.935 17.134869
60.940 16.854244
60.945 16.929691
60.950 16.802032
60.955 16.11273
60.960 15.983999
60.965 15.82458
60.970 15.688144
60.975 15.847184
60.980 15.616129
60.985 15.783672
60.990 16.383627
60.995 16.519785
61.000 16.334028
61.005 16.251493
61.010 16.460165
61.015 16.936399
61.020 17.218994
61.025 17.527397
61.030 17.248751
61.035 17.537088
61.040 18.339693
61.045 18.900158
61.050 19.071692
61.055 19.253748
61.060 18.922565
61.065 19.065561
61.070 19.26786
61.075 18.817909
61.080 17.561842
61.085 16.428564
61.090 16.008541
61.095 16.158346
61.100 15.96989
61.105 15.384907
61.110 15.127163
61.115 15.306382
61.120 15.933613
61.125 15.620638
61.130 16.078568
61.135 16.633881
61.140 16.564127
61.145 16.761459
61.150 16.324247
61.155 16.241421
61.160 16.818981
61.165 16.424026
61.170 16.422037
61.175 16.480001
61.180 16.825521
61.185 17.943577
61.190 18.051434
61.195 17.408749
61.200 17.17819
61.205 17.215334
61.210 16.787186
61.215 15.985154
61.220 15.338025
61.225 15.629815
61.230 16.421911
61.235 16.797743
61.240 17.045874
61.245 17.489479
61.250 18.027885
61.255 18.299633
61.260 18.204182
61.265 17.938528
61.270 17.848209
61.275 18.055916
61.280 18.101019
61.285 18.156927
61.290 18.388569
61.295 18.031816
61.300 17.779743
61.305 17.283028
61.310 17.135424
61.315 17.309654
61.320 17.397526
61.325 17.091776
61.330 17.205116
61.335 17.115229
61.340 17.34613
61.345 17.182407
61.350 17.011477
61.355 17.004147
61.360 16.923386
61.365 17.010736
61.370 16.913261
61.375 17.012791
61.380 17.075611
61.385 16.756857
61.390 16.175961
61.395 16.372942
61.400 16.182598
61.405 16.157953
61.410 16.120253
61.415 15.767227
61.420 15.920025
61.425 16.456316
61.430 16.710062
61.435 16.667551
61.440 16.813564
61.445 16.607088
61.450 17.248974
61.455 17.509281
61.460 17.117384
61.465 16.451252
61.470 16.568714
61.475 17.10577
61.480 17.130404
61.485 16.468721
61.490 16.248812
61.495 16.279682
61.500 16.143373
61.505 15.87122
61.510 14.893867
61.515 15.211978
61.520 15.539322
61.525 16.219408
61.530 17.069788
61.535 17.037439
61.540 16.599497
61.545 17.055937
61.550 16.979977
61.555 17.098034
61.560 16.410456
61.565 15.784577
61.570 16.228891
61.575 17.445759
61.580 17.700951
61.585 17.543581
61.590 17.228765
61.595 17.564631
61.600 17.659405
61.605 17.915634
61.610 17.706823
61.615 17.359114
61.620 17.383017
61.625 17.791817
61.630 17.591312
61.635 17.530678
61.640 16.921127
61.645 16.508305
61.650 16.452335
61.655 16.155218
61.660 15.950165
61.665 15.50692
61.670 15.459189
61.675 15.807345
61.680 16.191189
61.685 17.028961
61.690 17.609552
61.695 17.726877
61.700 18.382439
61.705 18.799898
61.710 19.242104
61.715 19.207401
61.720 18.607336
61.725 18.196072
61.730 18.008663
61.735 17.965349
61.740 18.086147
61.745 17.222008
61.750 17.085438
61.755 17.410727
61.760 17.836723
61.765 18.040596
61.770 17.758026
61.775 17.975281
61.780 18.491732
61.785 17.966646
61.790 18.064285
61.795 17.885809
61.800 18.382408
61.805 18.761284
61.810 18.696001
61.815 18.589254
61.820 19.361177
61.825 19.196133
61.830 19.391214
61.835 18.996321
61.840 18.720846
61.845 18.219099
61.850 18.247997
61.855 18.070395
61.860 18.004704
61.865 17.751949
61.870 17.540308
61.875 17.500921
61.880 17.873241
61.885 17.683676
61.890 17.515259
61.895 17.352686
61.900 17.451504
61.905 17.722389
61.910 17.73259
61.915 17.512053
61.920 17.545601
61.925 17.429682
61.930 17.286783
61.935 16.936478
61.940 16.532324
61.945 16.236002
61.950 16.647532
61.955 16.657526
61.960 16.593843
61.965 16.844444
61.970 17.065994
61.975 17.474636
61.980 17.632349
61.985 17.634436
61.990 18.148497
61.995 18.569248
62.000 18.367825
62.005 18.31913
62.010 17.787207
62.015 17.412642
62.020 17.071428
62.025 16.545286
62.030 16.274881
62.035 16.252857
62.040 16.202036
62.045 17.025936
62.050 18.109671
62.055 18.484703
62.060 18.425026
62.065 18.267889
62.070 18.27634
62.075 18.134552
62.080 18.133947
62.085 17.268143
62.090 17.242035
62.095 17.620396
62.100 18.127876
62.105 18.012537
62.110 18.22188
62.115 17.555868
62.120 17.226475
62.125 17.014267
62.130 16.676815
62.135 16.328491
62.140 16.706129
62.145 16.652147
62.150 16.821039
62.155 17.213476
62.160 17.860706
62.165 18.884502
62.170 19.346588
62.175 19.336151
62.180 19.656271
62.185 19.920225
62.190 19.459522
62.195 18.689993
62.200 18.166243
62.205 18.054693
62.210 18.528309
62.215 18.656155
62.220 18.61171
62.225 18.93285
62.230 18.757498
62.235 18.190187
62.240 17.669981
62.245 17.048143
62.250 16.306284
62.255 16.371058
62.260 16.501305
62.265 16.947708
62.270 17.265591
62.275 17.020319
62.280 16.875395
62.285 17.205326
62.290 16.987137
62.295 17.1856
62.300 17.688923
62.305 17.537094
62.310 17.877081
62.315 18.198399
62.320 18.049664
62.325 18.116695
62.330 18.120369
62.335 17.671778
62.340 17.629047
62.345 17.33606
62.350 16.575863
62.355 16.605242
62.360 16.649578
62.365 16.173182
62.370 16.255795
62.375 16.780529
62.380 16.641485
62.385 16.771523
62.390 15.952278
62.395 15.36541
62.400 15.092653
62.405 14.951035
62.410 15.437146
62.415 16.424337
62.420 16.657927
62.425 17.028887
62.430 17.806604
62.435 18.631016
62.440 19.02813
62.445 19.228926
62.450 18.844217
62.455 19.070202
62.460 19.887857
62.465 20.09355
62.470 19.784609
62.475 19.618494
62.480 18.930212
62.485 18.900137
62.490 18.672516
62.495 18.481487
62.500 17.908506
62.505 17.804367
62.510 17.398233
62.515 17.061762
62.520 17.227135
62.525 17.58783
62.530 17.603155
62.535 17.590155
62.540 16.879112
62.545 17.095987
62.550 17.438763
62.555 17.56426
62.560 17.103354
62.565 16.646519
62.570 16.935024
62.575 17.167866
62.580 16.61632
62.585 16.484743
62.590 16.006947
62.595 15.63948
62.600 15.86781
62.605 15.696959
62.610 15.883774
62.615 16.41918
62.620 16.442842
62.625 16.907644
62.630 17.28801
62.635 17.546976
62.640 17.732716
62.645 17.356039
62.650 17.792618
62.655 17.886536
62.660 17.646893
62.665 18.131104
62.670 18.461594
62.675 19.140846
62.680 19.278111
62.685 18.744953
62.690 18.811083
62.695 18.880112
62.700 18.385229
62.705 18.099722
62.710 18.028221
62.715 18.310995
62.720 18.79793
62.725 18.713785
62.730 18.526649
62.735 18.966858
62.740 19.017927
62.745 18.899746
62.750 19.0086
62.755 18.759182
62.760 19.343761
62.765 19.911934
62.770 19.674866
62.775 19.19375
62.780 18.877876
62.785 18.379511
62.790 17.840345
62.795 17.624605
62.800 17.206585
62.805 16.859905
62.810 16.731857
62.815 16.600538
62.820 16.969658
62.825 17.376331
62.830 17.379272
62.835 17.843481
62.840 18.511387
62.845 18.666422
62.850 18.829599
62.855 18.626661
62.860 18.469843
62.865 18.213987
62.870 17.83304
62.875 17.563774
62.880 17.669764
62.885 17.859486
62.890 18.139351
62.895 18.32309
62.900 17.811541
62.905 17.340055
62.910 17.100527
62.915 16.707115
62.920 16.489956
62.925 16.338457
62.930 16.154232
62.935 16.61615
62.940 16.928322
62.945 17.122362
62.950 17.512968
62.955 17.718573
62.960 18.398579
62.965 18.630264
62.970 18.580608
62.975 18.686329
62.980 19.344061
62.985 19.517132
62.990 19.381729
62.995 18.823364
63.000 19.163597
63.005 19.158417
63.010 19.091539
63.015 18.592894
63.020 18.317196
63.025 18.183319
63.030 18.190994
63.035 18.059217
63.040 17.822739
63.045 17.380081
63.050 17.245256
63.055 17.735317
63.060 18.05216
63.065 17.876448
63.070 17.61388
63.075 17.614239
63.080 17.822569
63.085 18.051756
63.090 17.270878
63.095 16.635262
63.100 16.823267
63.105 16.745762
63.110 16.612123
63.115 17.188843
63.120 17.742374
63.125 18.287846
63.130 18.743813
63.135 18.257248
63.140 18.314299
63.145 18.48617
63.150 17.793306
63.155 17.048727
63.160 16.781601
63.165 16.086992
63.170 16.427208
63.175 16.513956
63.180 16.970173
63.185 17.117432
63.190 17.120178
63.195 17.187353
63.200 17.570824
63.205 17.551399
63.210 17.750156
63.215 17.43185
63.220 17.102833
63.225 16.363924
63.230 16.819691
63.235 16.853525
63.240 16.824902
63.245 16.862038
63.250 17.55213
63.255 18.402199
63.260 19.229862
63.265 18.726343
63.270 18.430849
63.275 18.23745
63.280 18.081112
63.285 17.960701
63.290 17.296911
63.295 17.01581
63.300 17.232494
63.305 18.001917
63.310 18.224041
63.315 17.892172
63.320 17.298672
63.325 17.804291
63.330 17.917782
63.335 17.6761
63.340 17.923882
63.345 18.017801
63.350 18.651962
63.355 18.985874
63.360 18.758575
63.365 19.002653
63.370 18.77767
63.375 18.070337
63.380 17.73028
63.385 17.181581
63.390 16.887581
63.395 16.859072
63.400 16.701773
63.405 16.850201
63.410 16.963428
63.415 17.2439
63.420 17.969242
63.425 18.357014
63.430 18.22205
63.435 18.381935
63.440 18.75428
63.445 18.965725
63.450 18.712053
63.455 18.073368
63.460 17.85463
63.465 17.963478
63.470 17.73922
63.475 17.748816
63.480 17.971939
63.485 18.173286
63.490 19.00498
63.495 19.37665
63.500 19.471416
63.505 19.729504
63.510 19.555387
63.515 19.364487
63.520 19.089247
63.525 18.36058
63.530 18.182961
63.535 18.668583
63.540 18.357687
63.545 17.93746
63.550 17.8465
63.555 17.736511
63.560 17.32169
63.565 17.135384
63.570 16.666704
63.575 17.332115
63.580 17.542782
63.585 17.184937
63.590 17.339268
63.595 17.825071
63.600 18.139156
63.605 18.125162
63.610 17.825275
63.615 17.844084
63.620 18.241772
63.625 18.642509
63.630 19.273132
63.635 19.759083
63.640 20.00539
63.645 20.191055
63.650 20.434454
63.655 20.339752
63.660 20.431503
63.665 20.425709
63.670 20.956133
63.675 20.818314
63.680 20.880859
63.685 21.141134
63.690 21.297138
63.695 21.498186
63.700 20.949652
63.705 20.123808
63.710 20.198404
63.715 20.62784
63.720 20.494129
63.725 20.794825
63.730 20.50701
63.735 20.640257
63.740 20.468407
63.745 20.719164
63.750 20.198814
63.755 20.4687
63.760 20.209242
63.765 19.949074
63.770 20.020292
63.775 19.786049
63.780 19.883656
63.785 20.30621
63.790 20.476744
63.795 20.729338
63.800 21.091175
63.805 21.622019
63.810 22.067398
63.815 21.901861
63.820 22.646854
63.825 22.313894
63.830 21.939672
63.835 21.699535
63.840 20.776722
63.845 20.202299
63.850 20.072611
63.855 19.442421
63.860 19.444111
63.865 19.874262
63.870 19.348684
63.875 19.426596
63.880 19.994781
63.885 20.221819
63.890 20.197342
63.895 20.755972
63.900 21.484356
63.905 22.399605
63.910 22.927801
63.915 23.019545
63.920 23.425993
63.925 23.460348
63.930 23.310455
63.935 23.169952
63.940 23.084673
63.945 23.038559
63.950 22.838327
63.955 22.966307
63.960 23.286985
63.965 23.429373
63.970 23.515089
63.975 23.92244
63.980 24.597845
63.985 24.893101
63.990 24.69352
63.995 24.644398
64.000 24.720726
64.005 24.751745
64.010 24.335112
64.015 24.170721
64.020 24.22868
64.025 24.942318
64.030 25.085295
64.035 24.685108
64.040 24.506643
64.045 25.542355
64.050 25.865263
64.055 25.232038
64.060 24.705547
64.065 24.358234
64.070 24.249245
64.075 24.167721
64.080 23.611839
64.085 23.753942
64.090 24.048353
64.095 24.150719
64.100 24.29809
64.105 24.639191
64.110 24.853182
64.115 24.677576
64.120 24.050737
64.125 23.803093
64.130 24.118301
64.135 24.016272
64.140 23.81809
64.145 23.159071
64.150 22.607412
64.155 22.500593
64.160 22.249025
64.165 21.663685
64.170 21.26124
64.175 21.483511
64.180 22.258135
64.185 22.847971
64.190 22.872427
64.195 22.740585
64.200 22.615782
64.205 23.483112
64.210 23.143463
64.215 22.407045
64.220 22.618023
64.225 22.936691
64.230 23.221458
64.235 23.476004
64.240 23.030041
64.245 23.399103
64.250 23.849073
64.255 23.983448
64.260 24.071741
64.265 23.718155
64.270 23.721617
64.275 23.630672
64.280 23.008741
64.285 22.886776
64.290 22.389778
64.295 22.288866
64.300 22.590662
64.305 23.22438
64.310 23.080601
64.315 23.901596
64.320 23.538397
64.325 23.820728
64.330 23.903564
64.335 23.599888
64.340 23.356789
64.345 23.527231
64.350 22.78993
64.355 22.638483
64.360 22.597193
64.365 22.510595
64.370 22.316298
64.375 22.09866
64.380 22.663578
64.385 23.447454
64.390 23.691076
64.395 23.832191
64.400 24.107956
64.405 24.116829
64.410 24.033033
64.415 22.976261
64.420 22.777592
64.425 22.998363
64.430 22.334457
64.435 21.997097
64.440 22.112432
64.445 22.208292
64.450 22.439249
64.455 22.154482
64.460 21.318478
64.465 21.665998
64.470 22.042286
64.475 22.617088
64.480 22.909098
64.485 23.268141
64.490 23.214573
64.495 24.571264
64.500 25.374855
64.505 25.527704
64.510 25.563356
64.515 25.289661
64.520 24.915125
64.525 24.776718
64.530 23.529146
64.535 22.458685
64.540 22.088326
64.545 21.440298
64.550 21.463514
64.555 21.903957
64.560 22.243748
64.565 22.558535
64.570 22.481096
64.575 22.216932
64.580 22.640505
64.585 22.334261
64.590 22.15089
64.595 21.567085
64.600 21.82819
64.605 22.50629
64.610 22.768101
64.615 22.429869
64.620 22.758886
64.625 22.273911
64.630 22.889154
64.635 22.220839
64.640 21.927492
64.645 21.311754
64.650 21.031122
64.655 20.726954
64.660 20.999161
64.665 20.769547
64.670 20.827831
64.675 21.064825
64.680 21.364861
64.685 21.438265
64.690 21.070311
64.695 21.16922
64.700 21.672588
64.705 21.996254
64.710 21.955503
64.715 21.769852
64.720 22.25906
64.725 22.756218
64.730 22.795336
64.735 22.472742
64.740 22.473251
64.745 22.837475
64.750 23.615122
64.755 23.432001
64.760 23.340141
64.765 23.889275
64.770 23.798344
64.775 23.662689
64.780 23.144421
64.785 22.773003
64.790 22.576349
64.795 22.520357
64.800 22.512999
64.805 22.660196
64.810 23.141924
64.815 23.563044
64.820 23.902548
64.825 24.319155
64.830 24.755585
64.835 23.985598
64.840 23.603848
64.845 23.364599
64.850 22.715721
64.855 22.477524
64.860 22.411409
64.865 22.433813
64.870 23.055822
64.875 23.007622
64.880 22.516367
64.885 22.143694
64.890 22.065035
64.895 21.903603
64.900 21.160721
64.905 21.522223
64.910 22.218645
64.915 23.284166
64.920 23.685869
64.925 23.730619
64.930 23.938519
64.935 23.737654
64.940 23.177172
64.945 22.658213
64.950 21.821535
64.955 22.451984
64.960 22.501833
64.965 22.588684
64.970 22.756006
64.975 23.093426
64.980 23.795336
64.985 24.548178
64.990 24.366415
64.995 24.65764
65.000 24.814953
65.005 25.219889
65.010 25.357498
65.015 25.46714
65.020 25.688028
65.025 26.403797
65.030 26.685913
65.035 27.142855
65.040 27.754278
65.045 27.103897
65.050 26.380232
65.055 25.263414
65.060 24.880871
65.065 24.824446
65.070 24.420153
65.075 23.934303
65.080 24.163841
65.085 25.169495
65.090 26.547184
65.095 25.758236
65.100 25.479862
65.105 25.154499
65.110 25.132952
65.115 25.23126
65.120 25.034012
65.125 25.010136
65.130 25.343754
65.135 25.273706
65.140 25.77037
65.145 25.433836
65.150 24.818933
65.155 24.394234
65.160 23.469271
65.165 23.601503
65.170 23.679733
65.175 23.633953
65.180 23.825806
65.185 23.956926
65.190 24.290545
65.195 24.937317
65.200 24.755388
65.205 24.763872
65.210 24.806318
65.215 25.324257
65.220 25.278355
65.225 25.274117
65.230 24.448328
65.235 24.03327
65.240 23.603251
65.245 23.511311
65.250 23.285904
65.255 22.702044
65.260 22.692621
65.265 23.978569
65.270 24.618601
65.275 24.569092
65.280 24.213646
65.285 24.261036
65.290 24.877281
65.295 24.583076
65.300 23.998909
65.305 23.760588
65.310 24.282372
65.315 24.599009
65.320 24.402979
65.325 24.20812
65.330 24.089031
65.335 23.83884
65.340 24.532148
65.345 24.272448
65.350 24.524136
65.355 24.296982
65.360 24.195593
65.365 24.25246
65.370 24.295563
65.375 23.429277
65.380 23.183956
65.385 22.873034
65.390 23.070078
65.395 23.450748
65.400 23.309938
65.405 22.963865
65.410 23.102112
65.415 23.355146
65.420 23.000776
65.425 23.082075
65.430 23.402102
65.435 23.67433
65.440 23.439781
65.445 23.196997
65.450 22.340237
65.455 22.466782
65.460 22.511616
65.465 22.278595
65.470 22.248901
65.475 22.078222
65.480 22.58448
65.485 23.077751
65.490 23.499928
65.495 23.515295
65.500 23.65379
65.505 23.652264
65.510 24.02314
65.515 24.013899
65.520 24.613096
65.525 25.026115
65.530 24.793056
65.535 24.648296
65.540 25.438074
65.545 25.613632
65.550 26.510168
65.555 25.518064
65.560 24.98176
65.565 25.433872
65.570 25.131609
65.575 25.779718
65.580 26.245783
65.585 26.130402
65.590 26.704699
65.595 26.637009
65.600 26.587751
65.605 26.379326
65.610 25.806215
65.615 25.650301
65.620 25.121613
65.625 24.875751
65.630 25.417093
65.635 25.768606
65.640 26.221811
65.645 26.826387
65.650 27.42844
65.655 28.153193
65.660 28.991064
65.665 29.139824
65.670 29.224937
65.675 29.310162
65.680 28.553444
65.685 27.974037
65.690 28.359194
65.695 27.60416
65.700 27.182634
65.705 27.520124
65.710 27.12793
65.715 26.997768
65.720 27.044353
65.725 27.084875
65.730 28.229559
65.735 28.719166
65.740 29.171278
65.745 29.762165
65.750 30.492332
65.755 30.793192
65.760 30.667849
65.765 30.391497
65.770 29.831133
65.775 29.32962
65.780 28.566206
65.785 28.480324
65.790 28.19467
65.795 28.120247
65.800 28.930819
65.805 29.529156
65.810 29.836779
65.815 30.377554
65.820 30.38357
65.825 31.403585
65.830 31.615213
65.835 30.546648
65.840 30.681004
65.845 30.47213
65.850 31.014774
65.855 31.623386
65.860 31.670971
65.865 32.265118
65.870 32.491455
65.875 32.025982
65.880 32.095085
65.885 31.897745
65.890 32.404118
65.895 31.533966
65.900 31.395491
65.905 32.24604
65.910 33.049717
65.915 33.620743
65.920 33.481468
65.925 33.124233
65.930 33.376556
65.935 33.066769
65.940 32.836811
65.945 31.732986
65.950 31.668053
65.955 31.821976
65.960 32.285095
65.965 33.02895
65.970 34.129276
65.975 35.072853
65.980 36.374714
65.985 36.759998
65.990 37.087433
65.995 37.176071
66.000 37.588085
66.005 37.333168
66.010 37.544422
66.015 38.280678
66.020 38.029446
66.025 37.772038
66.030 37.990902
66.035 38.317486
66.040 38.272202
66.045 37.70211
66.050 37.131027
66.055 37.314613
66.060 38.149128
66.065 38.849789
66.070 39.195686
66.075 39.905918
66.080 40.674053
66.085 40.594727
66.090 41.026108
66.095 40.785328
66.100 40.357441
66.105 39.512699
66.110 38.855019
66.115 39.00631
66.120 39.420467
66.125 39.7113
66.130 39.615067
66.135 39.854527
66.140 40.318584
66.145 40.579609
66.150 40.419178
66.155 40.395069
66.160 40.567394
66.165 40.773823
66.170 40.83625
66.175 40.991985
66.180 41.010864
66.185 41.312191
66.190 41.516773
66.195 41.887978
66.200 42.037468
66.205 41.433662
66.210 41.277538
66.215 41.293301
66.220 41.438869
66.225 41.090076
66.230 40.532215
66.235 41.014164
66.240 40.639088
66.245 40.59687
66.250 39.802967
66.255 39.316147
66.260 39.240219
66.265 38.350231
66.270 37.92942
66.275 38.168564
66.280 37.979588
66.285 38.320259
66.290 37.929626
66.295 38.070347
66.300 39.05389
66.305 38.170151
66.310 38.279972
66.315 37.766254
66.320 37.945442
66.325 37.930111
66.330 37.913448
66.335 38.089638
66.340 38.125481
66.345 38.286625
66.350 38.686382
66.355 38.714752
66.360 39.135345
66.365 38.347778
66.370 37.82848
66.375 37.678509
66.380 36.955872
66.385 35.741264
66.390 35.534
66.395 34.55003
66.400 35.163723
66.405 35.076817
66.410 34.878635
66.415 34.796829
66.420 35.265957
66.425 35.154888
66.430 34.361237
66.435 33.004341
66.440 32.641834
66.445 32.451481
66.450 32.706303
66.455 32.627056
66.460 32.410404
66.465 32.880299
66.470 33.506039
66.475 33.308418
66.480 33.017746
66.485 32.350185
66.490 31.308556
66.495 30.572483
66.500 30.590012
66.505 30.235296
66.510 30.27297
66.515 29.856638
66.520 29.548599
66.525 29.105265
66.530 28.572855
66.535 28.31846
66.540 27.633156
66.545 27.46402
66.550 27.771412
66.555 28.046921
66.560 28.472038
66.565 29.045954
66.570 29.009302
66.575 29.015766
66.580 28.865604
66.585 28.239456
66.590 28.552143
66.595 28.162964
66.600 27.945898
66.605 27.734543
66.610 27.135748
66.615 26.957567
66.620 26.802238
66.625 26.281809
66.630 26.080685
66.635 25.587835
66.640 25.488289
66.645 25.211744
66.650 24.418034
66.655 23.845844
66.660 23.710718
66.665 23.146845
66.670 22.821651
66.675 22.995632
66.680 23.546751
66.685 23.685398
66.690 23.368443
66.695 23.104958
66.700 23.738766
66.705 23.801521
66.710 22.920071
66.715 22.633883
66.720 23.100336
66.725 23.125774
66.730 23.599392
66.735 24.236038
66.740 24.188795
66.745 24.337851
66.750 24.462055
66.755 24.392607
66.760 23.76383
66.765 23.298101
66.770 22.499098
66.775 22.530325
66.780 22.38216
66.785 21.96916
66.790 21.914978
66.795 22.028385
66.800 21.815285
66.805 21.588036
66.810 21.74094
66.815 21.704689
66.820 21.695383
66.825 21.727289
66.830 21.016085
66.835 20.912386
66.840 21.145506
66.845 21.827291
66.850 21.968573
66.855 21.557985
66.860 21.188229
66.865 21.208515
66.870 21.290546
66.875 20.571648
66.880 19.990644
66.885 19.944736
66.890 20.331631
66.895 20.379896
66.900 20.643112
66.905 20.782314
66.910 20.597815
66.915 20.457644
66.920 20.547981
66.925 20.166201
66.930 20.102753
66.935 20.081068
66.940 20.262337
66.945 21.067602
66.950 21.490353
66.955 21.314018
66.960 21.568939
66.965 22.201057
66.970 22.732599
66.975 21.885265
66.980 20.948511
66.985 20.478582
66.990 20.110418
66.995 20.064844
67.000 19.884333
67.005 19.128069
67.010 19.408401
67.015 19.677183
67.020 19.708279
67.025 20.067783
67.030 19.783501
67.035 20.21937
67.040 20.668503
67.045 21.077055
67.050 21.214153
67.055 21.309635
67.060 21.060524
67.065 20.756145
67.070 20.26391
67.075 20.015856
67.080 19.949501
67.085 19.799118
67.090 20.369604
67.095 21.030622
67.100 21.870596
67.105 21.934671
67.110 21.7792
67.115 21.750891
67.120 22.013155
67.125 21.529247
67.130 21.304628
67.135 20.763403
67.140 20.572451
67.145 21.226324
67.150 21.446302
67.155 21.982103
67.160 22.218803
67.165 22.079569
67.170 21.835688
67.175 21.751005
67.180 20.978001
67.185 20.755342
67.190 20.532576
67.195 20.78727
67.200 21.043596
67.205 21.020775
67.210 21.707775
67.215 21.702538
67.220 22.040625
67.225 21.87261
67.230 21.275103
67.235 21.083542
67.240 21.004763
67.245 19.808844
67.250 19.572351
67.255 18.821346
67.260 18.976627
67.265 19.478621
67.270 19.73435
67.275 20.607525
67.280 21.564409
67.285 22.048296
67.290 22.147532
67.295 21.941126
67.300 21.871593
67.305 22.040293
67.310 21.560062
67.315 21.880491
67.320 22.125416
67.325 22.296043
67.330 22.469133
67.335 22.112461
67.340 21.98094
67.345 22.467779
67.350 22.178522
67.355 22.182636
67.360 22.038239
67.365 21.587112
67.370 21.184948
67.375 20.977579
67.380 21.072124
67.385 21.102896
67.390 20.466217
67.395 20.134737
67.400 20.113375
67.405 20.495552
67.410 20.403898
67.415 20.42816
67.420 20.320936
67.425 20.734081
67.430 20.662544
67.435 21.069023
67.440 21.466307
67.445 21.163912
67.450 20.449848
67.455 20.653706
67.460 20.683193
67.465 21.010609
67.470 20.4443
67.475 20.284206
67.480 20.872602
67.485 21.214031
67.490 21.109592
67.495 21.133038
67.500 21.402225
67.505 22.580864
67.510 22.962179
67.515 22.338234
67.520 22.345251
67.525 22.565718
67.530 22.562384
67.535 21.89411
67.540 20.686617
67.545 20.247337
67.550 20.28758
67.555 19.988333
67.560 19.841812
67.565 19.64991
67.570 20.00032
67.575 20.159067
67.580 19.375357
67.585 19.261032
67.590 19.17856
67.595 19.001728
67.600 19.31741
67.605 19.331703
67.610 19.318764
67.615 19.831974
67.620 19.779718
67.625 19.780714
67.630 19.97625
67.635 19.588486
67.640 19.537207
67.645 19.593906
67.650 19.463924
67.655 19.91909
67.660 19.638561
67.665 19.400904
67.670 19.573198
67.675 19.544636
67.680 19.780207
67.685 20.566887
67.690 20.566479
67.695 20.687206
67.700 21.005529
67.705 21.408895
67.710 21.441599
67.715 21.440104
67.720 20.867224
67.725 21.237238
67.730 22.174501
67.735 22.186321
67.740 21.3134
67.745 20.393967
67.750 19.735399
67.755 19.615484
67.760 18.682358
67.765 18.150427
67.770 18.202557
67.775 18.397549
67.780 19.167818
67.785 19.585396
67.790 19.444956
67.795 19.254412
67.800 18.90097
67.805 18.963432
67.810 18.864883
67.815 18.845272
67.820 18.61771
67.825 18.749687
67.830 18.857464
67.835 18.855391
67.840 18.927593
67.845 19.573895
67.850 19.848896
67.855 20.497778
67.860 21.103025
67.865 21.431303
67.870 22.037411
67.875 21.544008
67.880 21.026737
67.885 20.828764
67.890 20.400566
67.895 20.206367
67.900 20.169775
67.905 20.073372
67.910 20.222618
67.915 20.09952
67.920 20.091091
67.925 20.216764
67.930 19.901749
67.935 19.291571
67.940 19.413734
67.945 19.190023
67.950 19.293777
67.955 19.191645
67.960 18.877281
67.965 18.944668
67.970 18.948137
67.975 19.165005
67.980 19.751503
67.985 19.715218
67.990 19.787388
67.995 19.728853
68.000 19.89768
68.005 19.417576
68.010 19.024265
68.015 19.107634
68.020 19.471092
68.025 19.804178
68.030 20.212526
68.035 21.305664
68.040 22.153767
68.045 22.450113
68.050 22.56942
68.055 22.721361
68.060 22.901709
68.065 22.449419
68.070 21.908245
68.075 21.773855
68.080 21.335257
68.085 21.260433
68.090 21.240206
68.095 20.878845
68.100 21.307714
68.105 21.199852
68.110 21.150509
68.115 21.308958
68.120 21.192204
68.125 20.963667
68.130 20.530319
68.135 19.811922
68.140 19.668961
68.145 19.704626
68.150 19.427561
68.155 19.178312
68.160 19.083601
68.165 19.325874
68.170 20.115044
68.175 20.472561
68.180 20.528004
68.185 20.819904
68.190 21.063936
68.195 21.239338
68.200 21.64242
68.205 21.270664
68.210 20.474422
68.215 20.399532
68.220 20.79563
68.225 20.873055
68.230 21.288849
68.235 21.571152
68.240 21.672113
68.245 22.336926
68.250 21.926556
68.255 21.513351
68.260 20.98258
68.265 20.561937
68.270 19.981691
68.275 19.950008
68.280 19.736244
68.285 20.495987
68.290 20.471722
68.295 20.489927
68.300 20.486307
68.305 20.444073
68.310 20.366856
68.315 20.198788
68.320 19.797333
68.325 19.549683
68.330 19.42115
68.335 19.555532
68.340 19.332621
68.345 18.633579
68.350 18.883535
68.355 19.133322
68.360 19.333988
68.365 19.44083
68.370 19.729029
68.375 20.634121
68.380 21.772703
68.385 21.581953
68.390 21.708567
68.395 22.230789
68.400 22.199743
68.405 21.965019
68.410 21.852819
68.415 21.631371
68.420 21.572962
68.425 21.133842
68.430 21.062141
68.435 21.057623
68.440 20.947657
68.445 20.812719
68.450 20.707552
68.455 20.461025
68.460 20.134417
68.465 20.019224
68.470 20.522678
68.475 20.733416
68.480 20.858559
68.485 21.171412
68.490 22.076387
68.495 22.080975
68.500 22.173264
68.505 22.076637
68.510 21.599129
68.515 21.279518
68.520 21.360849
68.525 21.34984
68.530 21.365696
68.535 21.531172
68.540 21.794554
68.545 21.889641
68.550 21.513128
68.555 21.712948
68.560 21.718212
68.565 21.962645
68.570 21.844856
68.575 21.456299
68.580 21.26321
68.585 21.08984
68.590 20.74547
68.595 20.848116
68.600 21.263433
68.605 21.713608
68.610 21.921047
68.615 22.00596
68.620 21.843941
68.625 21.446539
68.630 21.417015
68.635 20.476379
68.640 20.440228
68.645 21.012421
68.650 21.481913
68.655 22.720137
68.660 23.457821
68.665 23.854343
68.670 24.171289
68.675 23.845646
68.680 23.67082
68.685 23.485325
68.690 22.97163
68.695 22.317518
68.700 21.724905
68.705 21.622465
68.710 21.226143
68.715 20.762077
68.720 20.019823
68.725 19.512197
68.730 19.559898
68.735 19.775099
68.740 19.501522
68.745 19.47444
68.750 19.96365
68.755 20.679562
68.760 21.079802
68.765 21.600761
68.770 22.599016
68.775 22.856977
68.780 22.940552
68.785 23.106817
68.790 23.069237
68.795 23.345284
68.800 23.32621
68.805 22.547411
68.810 22.580973
68.815 22.506025
68.820 22.451889
68.825 22.448488
68.830 22.317423
68.835 22.03541
68.840 21.779619
68.845 21.834696
68.850 22.072193
68.855 22.193953
68.860 22.167513
68.865 21.37767
68.870 21.134085
68.875 21.789818
68.880 22.009861
68.885 21.913082
68.890 21.821392
68.895 21.770475
68.900 22.502781
68.905 23.020779
68.910 22.294262
68.915 21.814724
68.920 21.909842
68.925 22.421566
68.930 22.145538
68.935 21.840857
68.940 21.701424
68.945 22.174929
68.950 22.427908
68.955 21.708443
68.960 21.516525
68.965 22.22368
68.970 22.268793
68.975 22.404831
68.980 22.530243
68.985 22.824497
68.990 23.595564
68.995 23.57555
69.000 23.536669
69.005 23.890984
69.010 23.765633
69.015 23.619654
69.020 23.114555
69.025 22.242395
69.030 21.753372
69.035 22.100651
69.040 22.643742
69.045 23.115385
69.050 23.714714
69.055 24.631411
69.060 25.168974
69.065 25.552204
69.070 25.161594
69.075 25.108475
69.080 25.289387
69.085 25.615595
69.090 25.928316
69.095 26.158516
69.100 26.940643
69.105 27.084721
69.110 26.325008
69.115 26.487871
69.120 25.972359
69.125 25.469501
69.130 25.150774
69.135 24.986586
69.140 26.456123
69.145 26.827526
69.150 26.319286
69.155 26.635065
69.160 27.216743
69.165 27.969597
69.170 27.689789
69.175 27.024391
69.180 27.817923
69.185 28.470032
69.190 29.002886
69.195 29.418386
69.200 29.218866
69.205 29.17193
69.210 28.448345
69.215 28.263783
69.220 28.943411
69.225 29.08572
69.230 28.546719
69.235 28.463427
69.240 28.750814
69.245 29.885727
69.250 30.517956
69.255 29.933552
69.260 29.714823
69.265 29.797791
69.270 30.649385
69.275 31.139162
69.280 30.833641
69.285 30.709011
69.290 31.192219
69.295 31.809385
69.300 31.94261
69.305 31.809561
69.310 31.625612
69.315 31.109158
69.320 29.943674
69.325 29.0275
69.330 29.186838
69.335 29.734999
69.340 29.413151
69.345 29.943823
69.350 31.252342
69.355 32.41341
69.360 32.9254
69.365 32.797089
69.370 33.370533
69.375 33.673748
69.380 33.530182
69.385 33.055546
69.390 33.507946
69.395 33.959221
69.400 34.043602
69.405 33.643898
69.410 34.104675
69.415 34.737759
69.420 35.133366
69.425 34.498512
69.430 34.820103
69.435 34.699005
69.440 34.645248
69.445 34.099022
69.450 33.600075
69.455 33.213665
69.460 32.641373
69.465 32.550011
69.470 32.65757
69.475 32.887714
69.480 32.969349
69.485 33.466022
69.490 33.613495
69.495 33.631748
69.500 33.186687
69.505 33.08429
69.510 33.408066
69.515 33.171844
69.520 32.554741
69.525 32.641415
69.530 33.229321
69.535 33.355911
69.540 33.695736
69.545 33.338772
69.550 33.347435
69.555 33.354424
69.560 32.556248
69.565 32.093613
69.570 32.145245
69.575 31.18721
69.580 30.968334
69.585 30.72345
69.590 31.070377
69.595 32.518089
69.600 32.150551
69.605 31.936754
69.610 32.131882
69.615 32.213531
69.620 32.557518
69.625 32.73975
69.630 32.506046
69.635 32.341412
69.640 32.170258
69.645 31.858551
69.650 32.188503
69.655 32.90844
69.660 32.42831
69.665 31.810312
69.670 31.708296
69.675 31.300837
69.680 31.726534
69.685 31.471085
69.690 30.499546
69.695 30.090712
69.700 30.066162
69.705 30.572241
69.710 30.428017
69.715 30.433279
69.720 29.433319
69.725 29.283518
69.730 29.453718
69.735 29.545702
69.740 29.271048
69.745 29.00495
69.750 28.620584
69.755 28.27511
69.760 28.575521
69.765 28.224897
69.770 28.043406
69.775 28.445179
69.780 28.612322
69.785 28.695747
69.790 28.816174
69.795 28.053474
69.800 27.720787
69.805 26.967199
69.810 26.852669
69.815 26.730978
69.820 26.665524
69.825 25.97506
69.830 26.585161
69.835 27.208525
69.840 27.187393
69.845 26.846956
69.850 26.555017
69.855 27.02154
69.860 27.111244
69.865 26.468285
69.870 26.30979
69.875 26.669035
69.880 26.163084
69.885 25.901419
69.890 25.800529
69.895 25.976419
69.900 25.680656
69.905 25.301876
69.910 25.402573
69.915 24.959042
69.920 25.07762
69.925 24.824074
69.930 24.622705
69.935 24.718288
69.940 24.488119
69.945 24.119837
69.950 24.223686
69.955 23.817112
69.960 23.877142
69.965 23.391251
69.970 22.61722
69.975 22.330528
69.980 22.514133
69.985 22.634722
69.990 22.436287
69.995 22.22237
70.000 22.714769
70.005 22.722782
70.010 22.15963
70.015 22.192606
70.020 22.287861
70.025 22.317225
70.030 22.417828
70.035 22.787243
70.040 22.963646
70.045 22.877089
70.050 22.838457
70.055 23.109486
70.060 22.959215
70.065 22.557438
70.070 22.061396
70.075 22.004343
70.080 21.948999
70.085 22.143505
70.090 22.362329
70.095 22.697397
70.100 22.728905
70.105 22.945528
70.110 23.235081
70.115 22.994741
70.120 22.454359
70.125 21.904993
70.130 21.516642
70.135 21.290859
70.140 21.508699
70.145 20.769125
70.150 21.004957
70.155 20.817726
70.160 20.295181
70.165 19.656357
70.170 19.37928
70.175 19.410109
70.180 20.051081
70.185 20.042685
70.190 20.19623
70.195 21.321028
70.200 22.233316
70.205 21.83502
70.210 21.272341
70.215 20.904448
70.220 21.091887
70.225 20.865505
70.230 19.813917
70.235 19.292444
70.240 19.677114
70.245 20.22949
70.250 20.70849
70.255 20.511494
70.260 20.80892
70.265 20.950226
70.270 20.628429
70.275 20.206972
70.280 18.875076
70.285 18.459084
70.290 17.731026
70.295 17.694939
70.300 17.558481
70.305 17.994396
70.310 18.181822
70.315 18.78546
70.320 19.365705
70.325 19.746017
70.330 19.349146
70.335 19.362967
70.340 19.26626
70.345 19.102158
70.350 18.467609
70.355 17.843014
70.360 18.156031
70.365 18.599358
70.370 18.504107
70.375 18.583252
70.380 19.007
70.385 19.802603
70.390 20.450794
70.395 20.344311
70.400 20.54158
70.405 20.593733
70.410 20.503309
70.415 20.324888
70.420 20.131115
70.425 20.001297
70.430 20.103815
70.435 20.396456
70.440 20.492887
70.445 20.465305
70.450 20.535707
70.455 20.573307
70.460 20.458942
70.465 20.182953
70.470 20.133898
70.475 20.061176
70.480 20.350336
70.485 19.961521
70.490 20.359634
70.495 20.193356
70.500 20.08617
70.505 20.121851
70.510 19.78005
70.515 18.840401
70.520 18.729462
70.525 18.128128
70.530 17.968794
70.535 17.819756
70.540 17.723404
70.545 18.771856
70.550 19.840361
70.555 20.23942
70.560 20.148758
70.565 19.735464
70.570 19.524813
70.575 19.233028
70.580 18.867455
70.585 17.91194
70.590 17.767555
70.595 18.107073
70.600 18.684591
70.605 18.952265
70.610 19.002016
70.615 19.149345
70.620 19.483458
70.625 19.279356
70.630 19.548468
70.635 19.473335
70.640 19.700884
70.645 19.233994
70.650 18.847948
70.655 18.834524
70.660 19.090622
70.665 18.659491
70.670 18.816601
70.675 18.788567
70.680 18.59605
70.685 18.387072
70.690 18.271931
70.695 18.262192
70.700 18.682951
70.705 18.427794
70.710 18.343914
70.715 18.938488
70.720 18.836836
70.725 18.483042
70.730 18.678041
70.735 18.70108
70.740 18.937632
70.745 19.137791
70.750 19.110443
70.755 19.219513
70.760 18.851467
70.765 18.722967
70.770 18.484484
70.775 18.071569
70.780 17.741533
70.785 17.668648
70.790 18.247923
70.795 18.351725
70.800 17.874722
70.805 18.055511
70.810 18.422928
70.815 18.883009
70.820 19.405348
70.825 18.907545
70.830 18.687128
70.835 18.869959
70.840 18.956203
70.845 18.639753
70.850 18.540199
70.855 18.710476
70.860 19.423487
70.865 19.806255
70.870 19.861958
70.875 20.431799
70.880 20.660063
70.885 20.60849
70.890 20.56126
70.895 20.750273
70.900 20.723461
70.905 20.206856
70.910 19.751036
70.915 20.244081
70.920 20.210566
70.925 19.620937
70.930 19.858765
70.935 20.67454
70.940 21.051228
70.945 20.581553
70.950 20.298164
70.955 19.601763
70.960 19.319857
70.965 18.772762
70.970 18.479761
70.975 18.84206
70.980 18.828365
70.985 19.062973
70.990 19.285227
70.995 19.720558
71.000 19.539951
71.005 19.444593
71.010 19.619493
71.015 19.473898
71.020 19.652462
71.025 20.078985
71.030 19.759594
71.035 19.685034
71.040 19.470404
71.045 19.221493
71.050 19.177937
71.055 19.006758
71.060 18.592093
71.065 18.553993
71.070 18.621496
71.075 18.500021
71.080 18.603138
71.085 18.431833
71.090 18.567356
71.095 18.978985
71.100 18.96003
71.105 18.651869
71.110 18.147007
71.115 17.705042
71.120 18.338684
71.125 18.463823
71.130 18.508976
71.135 18.242249
71.140 18.789513
71.145 19.410892
71.150 19.930719
71.155 19.369114
71.160 18.757296
71.165 18.323236
71.170 18.52643
71.175 18.424261
71.180 18.310535
71.185 17.969013
71.190 18.460762
71.195 18.960772
71.200 19.497408
71.205 19.438805
71.210 18.710388
71.215 18.472267
71.220 18.319733
71.225 18.39172
71.230 18.187592
71.235 17.861036
71.240 17.953472
71.245 17.789431
71.250 17.800978
71.255 17.842394
71.260 18.246813
71.265 18.432423
71.270 18.909294
71.275 19.191555
71.280 19.954821
71.285 20.135237
71.290 20.047188
71.295 19.44598
71.300 18.853415
71.305 19.100349
71.310 18.877668
71.315 18.434259
71.320 17.961012
71.325 17.888872
71.330 17.976658
71.335 18.03244
71.340 17.909431
71.345 18.534611
71.350 18.811968
71.355 19.512438
71.360 19.629879
71.365 18.981243
71.370 18.309504
71.375 18.088112
71.380 18.099546
71.385 17.530737
71.390 17.253208
71.395 16.930439
71.400 17.654652
71.405 18.388292
71.410 18.253996
71.415 18.865191
71.420 19.144766
71.425 19.386276
71.430 20.032152
71.435 19.622662
71.440 19.611776
71.445 18.991556
71.450 18.844221
71.455 19.387529
71.460 19.255129
71.465 19.114319
71.470 18.30409
71.475 18.284302
71.480 17.887348
71.485 17.226307
71.490 16.696884
71.495 16.554873
71.500 16.823702
71.505 17.59487
71.510 17.81937
71.515 18.010517
71.520 18.398069
71.525 18.634535
71.530 18.897371
71.535 19.314211
71.540 19.220755
71.545 19.59355
71.550 20.100979
71.555 19.55348
71.560 19.235035
71.565 18.75775
71.570 18.691109
71.575 18.223274
71.580 18.050352
71.585 17.927673
71.590 18.18055
71.595 18.410238
71.600 18.227903
71.605 17.999334
71.610 18.585749
71.615 18.26111
71.620 18.175552
71.625 18.026316
71.630 18.178154
71.635 17.964378
71.640 17.939238
71.645 17.573204
71.650 17.482258
71.655 17.133066
71.660 17.195959
71.665 17.079485
71.670 17.548746
71.675 17.388521
71.680 17.442736
71.685 17.720018
71.690 18.186552
71.695 18.431545
71.700 18.979008
71.705 19.378763
71.710 19.541451
71.715 20.028481
71.720 20.331322
71.725 20.38619
71.730 20.36549
71.735 20.299973
71.740 20.494583
71.745 20.856802
71.750 20.819361
71.755 20.615515
71.760 20.270721
71.765 19.335192
71.770 18.699549
71.775 18.48662
71.780 18.67717
71.785 18.235247
71.790 18.06735
71.795 18.074902
71.800 18.707792
71.805 19.042065
71.810 19.411255
71.815 19.772861
71.820 20.270544
71.825 20.579679
71.830 20.813374
71.835 20.828587
71.840 20.602077
71.845 19.630785
71.850 19.236702
71.855 19.146505
71.860 18.787222
71.865 18.612827
71.870 19.338297
71.875 19.698654
71.880 19.936218
71.885 19.735445
71.890 19.594521
71.895 19.964855
71.900 19.633797
71.905 19.049055
71.910 18.501202
71.915 18.331049
71.920 18.082714
71.925 18.483597
71.930 18.935282
71.935 18.987852
71.940 18.898058
71.945 18.746939
71.950 18.574245
71.955 18.125059
71.960 17.650959
71.965 16.809233
71.970 16.539972
71.975 16.660418
71.980 17.161301
71.985 17.428486
71.990 17.553627
71.995 17.307068
72.000 18.005556
72.005 18.363964
72.010 18.211796
72.015 19.009693
72.020 19.198065
72.025 18.761429
72.030 18.804068
72.035 17.74955
72.040 17.718384
72.045 17.335089
72.050 16.642988
72.055 16.66601
72.060 17.321932
72.065 17.614017
72.070 18.466249
72.075 18.094128
72.080 17.900208
72.085 18.54578
72.090 19.038311
72.095 18.828905
72.100 18.882984
72.105 18.939152
72.110 18.878204
72.115 18.815548
72.120 18.626205
72.125 18.670063
72.130 18.679142
72.135 18.638275
72.140 18.152191
72.145 18.845934
72.150 18.817852
72.155 18.059288
72.160 17.599697
72.165 16.859541
72.170 16.684351
72.175 16.482975
72.180 16.266457
72.185 16.573755
72.190 16.922886
72.195 17.392622
72.200 18.053226
72.205 18.909506
72.210 18.76096
72.215 17.69878
72.220 17.90436
72.225 17.941422
72.230 17.969837
72.235 18.010025
72.240 18.238981
72.245 19.287809
72.250 19.693354
72.255 19.358925
72.260 19.081345
72.265 19.14049
72.270 18.756397
72.275 18.252184
72.280 18.108458
72.285 18.848658
72.290 18.870785
72.295 18.854002
72.300 18.10078
72.305 17.915264
72.310 17.762995
72.315 17.246777
72.320 16.643579
72.325 16.984556
72.330 17.177551
72.335 17.63402
72.340 17.720581
72.345 17.883089
72.350 17.986902
72.355 17.845852
72.360 17.404972
72.365 17.050772
72.370 17.04505
72.375 17.487514
72.380 17.511692
72.385 17.322672
72.390 17.538258
72.395 17.563427
72.400 17.837608
72.405 17.821501
72.410 17.785172
72.415 17.666027
72.420 18.232054
72.425 18.102797
72.430 18.109446
72.435 17.699743
72.440 17.982344
72.445 18.287823
72.450 18.589642
72.455 17.724981
72.460 18.092678
72.465 18.310385
72.470 18.030989
72.475 17.642567
72.480 17.80147
72.485 17.320536
72.490 17.229086
72.495 16.537186
72.500 16.542582
72.505 16.808651
72.510 16.028603
72.515 15.654187
72.520 16.568361
72.525 16.903254
72.530 17.589634
72.535 17.603189
72.540 17.657646
72.545 18.329477
72.550 18.51231
72.555 18.280478
72.560 18.067625
72.565 17.963837
72.570 17.98241
72.575 18.016935
72.580 17.65435
72.585 17.316523
72.590 17.083847
72.595 16.976444
72.600 16.854174
72.605 17.206121
72.610 17.263769
72.615 17.129667
72.620 17.401297
72.625 17.485182
72.630 17.329836
72.635 17.772987
72.640 17.654665
72.645 17.595987
72.650 17.435043
72.655 17.144058
72.660 17.512701
72.665 16.9751
72.670 16.426878
72.675 16.005926
72.680 16.339954
72.685 17.525164
72.690 18.206413
72.695 18.39883
72.700 19.06576
72.705 19.466497
72.710 19.516644
72.715 18.990368
72.720 18.26232
72.725 18.828348
72.730 19.016895
72.735 18.937384
72.740 18.593237
72.745 18.949492
72.750 18.36693
72.755 17.643059
72.760 16.541357
72.765 16.407476
72.770 16.124205
72.775 16.180874
72.780 16.215332
72.785 16.813559
72.790 17.258739
72.795 17.050037
72.800 17.551529
72.805 17.844765
72.810 18.511663
72.815 19.279842
72.820 19.049778
72.825 19.183693
72.830 19.161762
72.835 19.251789
72.840 19.402309
72.845 18.539059
72.850 18.101564
72.855 18.238085
72.860 18.71207
72.865 18.626947
72.870 17.56105
72.875 17.021509
72.880 17.367699
72.885 17.681206
72.890 17.784159
72.895 17.033583
72.900 16.874731
72.905 16.88682
72.910 17.242329
72.915 16.645832
72.920 16.598005
72.925 16.967754
72.930 17.595842
72.935 17.619118
72.940 17.250034
72.945 16.72706
72.950 16.39407
72.955 15.751992
72.960 14.959144
72.965 14.677205
72.970 14.891226
72.975 15.223883
72.980 15.71667
72.985 16.094017
72.990 16.582525
72.995 16.821783
73.000 16.973019
