!@!!GADDS PLOTSO FILE: Chi integration type
!@!!Title/SampleName: map-b4
!@!!Comment: ?
!@!!User: Bruker Instrument Administrator
!@!!Site: University of Illinois Chicago
!@!!Frame: map-b4_01_000.gfrm
!@!!Wavelengths    1.54184   1.54056   1.54439
!@!!Frame angles: 2Theta: 63.000 Omega: 50.000 Phi: 0.000 Chi: 90.000
!@!!Integration range: 2Theta: 53.000 to 73.000  Gamma: -105.000 to -75.000
!@!!Integration method: bin normalized
!@!N
!@!SS
!@!M
!@!L 0.0 0.0 0.0 0.0
!@!XDegrees
!@!YCounts
53.000 9.035815
53.005 9.06102
53.010 9.338895
53.015 9.087782
53.020 8.695211
53.025 8.670341
53.030 8.767957
53.035 8.925806
53.040 8.872679
53.045 8.536429
53.050 8.159309
53.055 8.159633
53.060 8.067759
53.065 7.972085
53.070 7.784928
53.075 7.825967
53.080 8.099929
53.085 8.780464
53.090 8.815372
53.095 8.914469
53.100 8.981277
53.105 9.165433
53.110 9.211132
53.115 9.731343
53.120 9.680929
53.125 9.713227
53.130 9.192728
53.135 8.983843
53.140 9.054277
53.145 8.962916
53.150 8.086181
53.155 7.48893
53.160 7.809897
53.165 8.318957
53.170 8.875246
53.175 8.976045
53.180 8.381545
53.185 8.533048
53.190 8.558661
53.195 8.13737
53.200 7.907384
53.205 7.18091
53.210 7.053478
53.215 7.18692
53.220 7.366481
53.225 7.758186
53.230 8.028035
53.235 8.34683
53.240 8.136393
53.245 8.045553
53.250 8.131145
53.255 8.208226
53.260 8.129823
53.265 7.764939
53.270 7.396117
53.275 7.866334
53.280 8.373169
53.285 8.742534
53.290 8.457371
53.295 8.552477
53.300 8.69387
53.305 8.923103
53.310 8.770649
53.315 8.258667
53.320 8.164423
53.325 8.068335
53.330 7.719808
53.335 7.750057
53.340 7.475336
53.345 7.416812
53.350 7.60934
53.355 7.84265
53.360 8.027214
53.365 8.284456
53.370 8.673681
53.375 9.31865
53.380 9.489577
53.385 9.29348
53.390 9.108905
53.395 8.912446
53.400 9.004054
53.405 8.644007
53.410 8.342047
53.415 8.55051
53.420 8.912007
53.425 9.096039
53.430 9.079109
53.435 8.893144
53.440 9.243073
53.445 9.365504
53.450 8.833485
53.455 8.494552
53.460 8.372309
53.465 8.375777
53.470 8.04598
53.475 7.793186
53.480 7.660737
53.485 8.008148
53.490 8.41114
53.495 8.440093
53.500 8.570657
53.505 8.461763
53.510 8.397684
53.515 8.779665
53.520 8.338621
53.525 8.534374
53.530 8.739375
53.535 9.195794
53.540 9.180918
53.545 8.970055
53.550 8.925601
53.555 9.091858
53.560 8.708889
53.565 8.463975
53.570 8.695065
53.575 9.112789
53.580 9.086301
53.585 8.905816
53.590 9.16923
53.595 9.177413
53.600 8.978892
53.605 8.885767
53.610 9.137365
53.615 9.27605
53.620 9.090724
53.625 8.908674
53.630 8.901579
53.635 8.729018
53.640 8.482628
53.645 8.128328
53.650 8.299489
53.655 8.133764
53.660 8.20759
53.665 8.266879
53.670 8.359133
53.675 8.335747
53.680 8.210809
53.685 8.193525
53.690 8.429303
53.695 8.70883
53.700 8.727955
53.705 8.629644
53.710 8.321404
53.715 8.155938
53.720 7.987456
53.725 7.880591
53.730 7.426993
53.735 7.719775
53.740 8.208929
53.745 8.56375
53.750 8.987947
53.755 9.483279
53.760 9.77267
53.765 10.389157
53.770 10.117055
53.775 10.123972
53.780 10.401084
53.785 9.953425
53.790 10.073577
53.795 9.630177
53.800 9.325356
53.805 9.385746
53.810 8.841721
53.815 8.923028
53.820 8.735311
53.825 8.535278
53.830 8.541259
53.835 8.492674
53.840 8.527872
53.845 8.307432
53.850 8.351537
53.855 8.652692
53.860 8.686852
53.865 8.79614
53.870 8.775744
53.875 8.595979
53.880 8.902367
53.885 8.840533
53.890 8.607952
53.895 8.900392
53.900 8.815811
53.905 8.980044
53.910 9.509058
53.915 9.58292
53.920 10.026217
53.925 10.015638
53.930 10.438196
53.935 10.194076
53.940 9.827256
53.945 9.409722
53.950 9.13181
53.955 8.839598
53.960 9.310262
53.965 9.219869
53.970 9.148312
53.975 9.358942
53.980 9.536734
53.985 9.277351
53.990 8.954774
53.995 8.170805
54.000 7.742016
54.005 7.952974
54.010 8.275257
54.015 8.599365
54.020 9.071306
54.025 9.19214
54.030 9.510283
54.035 9.9132
54.040 10.152477
54.045 9.842983
54.050 9.646642
54.055 9.379116
54.060 9.310553
54.065 9.235763
54.070 9.177623
54.075 9.152981
54.080 9.585943
54.085 9.730708
54.090 9.594421
54.095 9.365355
54.100 9.83449
54.105 9.815453
54.110 9.603576
54.115 9.434039
54.120 9.980297
54.125 10.623055
54.130 11.244112
54.135 11.052209
54.140 11.295115
54.145 11.497758
54.150 11.358792
54.155 10.980476
54.160 10.90853
54.165 10.509477
54.170 10.44334
54.175 10.089522
54.180 9.577975
54.185 9.438375
54.190 9.462174
54.195 9.259902
54.200 8.725818
54.205 8.189773
54.210 8.40755
54.215 8.433327
54.220 8.611575
54.225 9.388846
54.230 9.945278
54.235 10.666481
54.240 11.446581
54.245 11.268963
54.250 11.352664
54.255 10.75484
54.260 10.226336
54.265 10.118965
54.270 9.938228
54.275 9.686432
54.280 9.705298
54.285 10.045239
54.290 10.150367
54.295 9.788502
54.300 9.480741
54.305 10.042083
54.310 10.175899
54.315 10.493972
54.320 10.405879
54.325 10.20335
54.330 10.267503
54.335 10.217946
54.340 9.994398
54.345 9.689635
54.350 9.540786
54.355 9.26953
54.360 9.222755
54.365 9.221866
54.370 8.684793
54.375 8.724557
54.380 8.659796
54.385 8.738115
54.390 8.908507
54.395 8.74931
54.400 8.859805
54.405 9.353765
54.410 9.498608
54.415 9.727059
54.420 9.901668
54.425 10.263762
54.430 10.228036
54.435 10.357752
54.440 9.795005
54.445 9.269169
54.450 8.759783
54.455 8.491036
54.460 8.455347
54.465 9.073494
54.470 9.126547
54.475 9.50783
54.480 9.815405
54.485 10.163485
54.490 10.061247
54.495 10.059518
54.500 9.899705
54.505 9.593283
54.510 9.725707
54.515 9.701413
54.520 9.886595
54.525 10.006169
54.530 9.89066
54.535 9.822136
54.540 10.100494
54.545 10.032278
54.550 10.100098
54.555 10.245345
54.560 10.174112
54.565 10.677929
54.570 10.851202
54.575 10.601639
54.580 10.363815
54.585 10.345729
54.590 10.21796
54.595 10.253496
54.600 9.598351
54.605 9.367143
54.610 9.789099
54.615 9.856339
54.620 9.653634
54.625 9.817741
54.630 10.045691
54.635 10.689151
54.640 10.571657
54.645 10.738141
54.650 10.767151
54.655 10.609846
54.660 10.916327
54.665 10.725094
54.670 10.714766
54.675 10.454638
54.680 10.578456
54.685 10.417653
54.690 10.404155
54.695 9.773551
54.700 9.477546
54.705 9.694227
54.710 9.717043
54.715 9.434307
54.720 9.726858
54.725 9.761966
54.730 10.147985
54.735 10.441505
54.740 10.107563
54.745 9.87542
54.750 9.922868
54.755 9.737177
54.760 9.77716
54.765 9.63981
54.770 9.658203
54.775 9.708375
54.780 10.33057
54.785 10.485206
54.790 10.633481
54.795 10.879977
54.800 10.744759
54.805 10.891633
54.810 11.327665
54.815 11.631131
54.820 11.812895
54.825 11.548533
54.830 11.528357
54.835 11.394676
54.840 11.095693
54.845 10.199735
54.850 9.999851
54.855 10.339696
54.860 10.820247
54.865 11.077888
54.870 11.386745
54.875 11.398613
54.880 11.975851
54.885 11.509467
54.890 11.160325
54.895 10.714272
54.900 9.701513
54.905 9.569333
54.910 9.370485
54.915 9.694589
54.920 9.838801
54.925 9.478663
54.930 9.647577
54.935 10.008214
54.940 10.399428
54.945 10.288302
54.950 10.100062
54.955 9.764277
54.960 9.613755
54.965 10.216067
54.970 10.475268
54.975 10.181299
54.980 10.40897
54.985 10.327758
54.990 10.604901
54.995 10.891767
55.000 10.594906
55.005 11.019082
55.010 11.126176
55.015 11.141724
55.020 11.366566
55.025 11.338962
55.030 11.295299
55.035 11.610253
55.040 11.643119
55.045 11.791205
55.050 11.471999
55.055 11.18147
55.060 11.003064
55.065 10.927024
55.070 10.282632
55.075 10.061703
55.080 10.289035
55.085 10.299808
55.090 10.666456
55.095 10.930265
55.100 10.529428
55.105 10.494163
55.110 10.049562
55.115 9.805458
55.120 9.9171
55.125 9.492855
55.130 9.550611
55.135 9.780749
55.140 9.714385
55.145 9.940949
55.150 10.058704
55.155 10.002873
55.160 10.326471
55.165 10.644427
55.170 11.187583
55.175 11.294187
55.180 11.658771
55.185 12.214163
55.190 12.686068
55.195 12.689216
55.200 12.066629
55.205 11.732699
55.210 11.85506
55.215 11.364782
55.220 11.183244
55.225 10.654054
55.230 10.454103
55.235 10.31996
55.240 10.189391
55.245 10.410263
55.250 10.292826
55.255 9.651963
55.260 10.07759
55.265 10.528775
55.270 11.040099
55.275 11.370819
55.280 11.374753
55.285 11.286736
55.290 11.44905
55.295 11.371696
55.300 11.492363
55.305 11.48856
55.310 10.960923
55.315 10.703305
55.320 11.059229
55.325 11.178201
55.330 10.966596
55.335 10.549698
55.340 10.27712
55.345 10.627456
55.350 10.837602
55.355 11.129158
55.360 11.558055
55.365 11.688913
55.370 11.899773
55.375 11.735111
55.380 11.74206
55.385 11.360185
55.390 10.535144
55.395 9.921748
55.400 9.794148
55.405 9.795345
55.410 10.437407
55.415 10.360958
55.420 10.590259
55.425 10.944697
55.430 10.635313
55.435 10.715425
55.440 10.746335
55.445 10.254369
55.450 10.342399
55.455 10.022363
55.460 9.800097
55.465 10.602295
55.470 10.873855
55.475 10.544077
55.480 10.909616
55.485 11.224963
55.490 12.011315
55.495 12.633139
55.500 12.707855
55.505 12.384339
55.510 12.480479
55.515 12.299647
55.520 12.101428
55.525 11.377958
55.530 10.812592
55.535 10.491345
55.540 10.840885
55.545 11.000998
55.550 11.086661
55.555 11.614804
55.560 12.195545
55.565 12.68425
55.570 12.422536
55.575 12.332688
55.580 12.79406
55.585 12.58789
55.590 11.986997
55.595 12.283163
55.600 12.003192
55.605 12.242143
55.610 12.154193
55.615 11.594246
55.620 11.558751
55.625 11.612088
55.630 10.639678
55.635 10.883097
55.640 10.631283
55.645 10.786483
55.650 10.632651
55.655 10.495377
55.660 10.473555
55.665 10.91983
55.670 10.669678
55.675 10.248937
55.680 9.442339
55.685 9.727803
55.690 9.757859
55.695 9.498636
55.700 9.394279
55.705 9.695524
55.710 10.17357
55.715 11.035776
55.720 11.055747
55.725 11.1289
55.730 10.838923
55.735 11.019601
55.740 11.144334
55.745 11.16275
55.750 10.86611
55.755 10.648521
55.760 10.881149
55.765 11.056187
55.770 10.371529
55.775 10.098728
55.780 9.9978
55.785 9.781817
55.790 10.009139
55.795 10.244895
55.800 10.453816
55.805 10.868997
55.810 10.820027
55.815 10.974087
55.820 11.413799
55.825 10.914922
55.830 10.98254
55.835 11.333845
55.840 11.567814
55.845 11.787068
55.850 12.051188
55.855 12.190599
55.860 12.757328
55.865 12.83997
55.870 12.998137
55.875 13.262558
55.880 13.14824
55.885 12.590522
55.890 12.667467
55.895 12.598364
55.900 12.769819
55.905 12.033709
55.910 11.693421
55.915 11.87105
55.920 11.893514
55.925 11.641777
55.930 11.662105
55.935 11.673517
55.940 11.944732
55.945 12.32169
55.950 12.590045
55.955 12.656237
55.960 12.201649
55.965 11.660909
55.970 11.386831
55.975 11.287259
55.980 10.436635
55.985 9.995243
55.990 9.650124
55.995 9.68259
56.000 9.574918
56.005 9.657396
56.010 9.807321
56.015 10.039987
56.020 10.410108
56.025 10.842972
56.030 10.694461
56.035 10.809036
56.040 11.225124
56.045 11.322917
56.050 11.45834
56.055 11.647209
56.060 11.737847
56.065 11.802962
56.070 11.714307
56.075 11.323639
56.080 11.664136
56.085 11.477885
56.090 11.156322
56.095 11.440143
56.100 11.496107
56.105 11.455943
56.110 11.627983
56.115 11.439405
56.120 11.565391
56.125 11.336553
56.130 11.478229
56.135 11.987329
56.140 11.892607
56.145 11.510038
56.150 11.5234
56.155 11.644244
56.160 11.968424
56.165 11.824845
56.170 11.977227
56.175 11.709068
56.180 11.606752
56.185 11.46909
56.190 11.473545
56.195 11.516198
56.200 11.790882
56.205 11.742229
56.210 12.288965
56.215 12.869648
56.220 12.649997
56.225 12.712381
56.230 13.086767
56.235 12.987725
56.240 13.182524
56.245 13.078873
56.250 12.653029
56.255 12.667302
56.260 12.912774
56.265 12.722794
56.270 12.536984
56.275 12.496696
56.280 12.063292
56.285 12.194721
56.290 12.377147
56.295 12.062772
56.300 12.410973
56.305 12.808293
56.310 12.552202
56.315 12.776471
56.320 12.833858
56.325 12.977856
56.330 12.855078
56.335 12.180336
56.340 11.747564
56.345 11.955854
56.350 12.597851
56.355 12.418694
56.360 11.689005
56.365 11.185955
56.370 11.17986
56.375 11.338597
56.380 10.767942
56.385 10.089024
56.390 10.63174
56.395 11.07352
56.400 11.765119
56.405 11.915094
56.410 11.686688
56.415 11.992675
56.420 12.170118
56.425 12.078462
56.430 12.702182
56.435 12.598463
56.440 12.670104
56.445 12.923814
56.450 13.079124
56.455 12.832885
56.460 12.497476
56.465 11.94241
56.470 11.517715
56.475 11.58442
56.480 11.606819
56.485 11.72082
56.490 12.341829
56.495 12.62421
56.500 13.401354
56.505 14.122237
56.510 13.513551
56.515 13.334535
56.520 13.430766
56.525 13.783893
56.530 13.65576
56.535 13.246335
56.540 12.788358
56.545 12.928424
56.550 13.247712
56.555 13.433534
56.560 13.374352
56.565 12.935363
56.570 12.404806
56.575 12.615008
56.580 12.755304
56.585 12.188266
56.590 11.551576
56.595 11.093637
56.600 11.385979
56.605 11.933847
56.610 11.949359
56.615 11.963059
56.620 12.635384
56.625 13.090794
56.630 12.994421
56.635 12.642067
56.640 12.257586
56.645 12.395464
56.650 12.144431
56.655 11.383167
56.660 11.441897
56.665 11.533334
56.670 12.180894
56.675 12.944239
56.680 13.420967
56.685 14.005564
56.690 14.067903
56.695 14.264241
56.700 14.660765
56.705 14.264167
56.710 13.614986
56.715 13.306735
56.720 13.09676
56.725 13.438659
56.730 13.71749
56.735 13.761095
56.740 13.592739
56.745 13.577896
56.750 13.626214
56.755 13.598475
56.760 13.165854
56.765 12.246062
56.770 12.267241
56.775 12.656713
56.780 12.779357
56.785 12.524995
56.790 12.68401
56.795 12.87106
56.800 13.186264
56.805 12.923923
56.810 12.560369
56.815 12.349312
56.820 12.19528
56.825 12.008743
56.830 12.141656
56.835 12.221055
56.840 12.506349
56.845 12.916522
56.850 13.115564
56.855 13.440677
56.860 13.466573
56.865 13.322112
56.870 13.11831
56.875 12.594957
56.880 12.181956
56.885 12.481563
56.890 12.161083
56.895 11.589876
56.900 11.194315
56.905 11.168633
56.910 11.657924
56.915 11.750063
56.920 11.244503
56.925 11.518015
56.930 11.659251
56.935 11.820536
56.940 12.102204
56.945 12.180381
56.950 12.235965
56.955 12.380673
56.960 12.893057
56.965 13.20169
56.970 13.26895
56.975 13.12651
56.980 12.950077
56.985 12.808946
56.990 13.234494
56.995 13.063601
57.000 13.34803
57.005 13.488351
57.010 13.383589
57.015 14.016595
57.020 14.166444
57.025 13.968015
57.030 13.802181
57.035 13.649007
57.040 13.930563
57.045 13.752664
57.050 13.485368
57.055 13.527033
57.060 13.146155
57.065 13.067537
57.070 13.065032
57.075 13.196275
57.080 12.953868
57.085 13.099503
57.090 12.988219
57.095 13.248389
57.100 13.354407
57.105 13.404082
57.110 13.301879
57.115 13.749885
57.120 13.246766
57.125 13.34826
57.130 13.853973
57.135 13.813432
57.140 13.742823
57.145 13.357285
57.150 13.307053
57.155 13.460821
57.160 13.13804
57.165 13.190691
57.170 13.138005
57.175 12.97121
57.180 12.903993
57.185 12.853303
57.190 13.2415
57.195 13.275721
57.200 13.101617
57.205 12.89212
57.210 12.796374
57.215 12.805925
57.220 12.604363
57.225 12.388586
57.230 12.303499
57.235 12.103541
57.240 12.487072
57.245 12.761741
57.250 12.73358
57.255 13.072215
57.260 13.349576
57.265 13.835082
57.270 14.115104
57.275 14.048129
57.280 14.238145
57.285 14.745619
57.290 14.278954
57.295 14.03263
57.300 13.399688
57.305 13.187915
57.310 13.017302
57.315 12.896783
57.320 12.935273
57.325 13.27199
57.330 12.854012
57.335 12.568769
57.340 12.394233
57.345 12.513995
57.350 12.712431
57.355 12.575459
57.360 12.541824
57.365 13.399348
57.370 13.746076
57.375 13.896389
57.380 13.688464
57.385 13.72915
57.390 14.221713
57.395 14.758317
57.400 14.720519
57.405 14.875349
57.410 15.253313
57.415 15.633284
57.420 15.012418
57.425 14.414479
57.430 13.712701
57.435 13.133516
57.440 12.762337
57.445 12.760017
57.450 12.731228
57.455 13.077171
57.460 13.107598
57.465 13.46164
57.470 13.695484
57.475 13.806926
57.480 13.607332
57.485 13.655434
57.490 13.917408
57.495 13.930881
57.500 13.650964
57.505 13.777803
57.510 13.771251
57.515 13.512762
57.520 13.228565
57.525 13.017757
57.530 12.92262
57.535 13.030803
57.540 12.855764
57.545 12.965775
57.550 12.898245
57.555 13.047428
57.560 13.153826
57.565 13.104719
57.570 12.795353
57.575 12.870929
57.580 12.814943
57.585 12.982938
57.590 12.986614
57.595 13.529509
57.600 14.044132
57.605 14.297409
57.610 14.48581
57.615 14.339752
57.620 14.143767
57.625 13.541756
57.630 12.529411
57.635 12.095349
57.640 12.209119
57.645 12.335104
57.650 12.598222
57.655 13.345403
57.660 13.770669
57.665 14.211899
57.670 14.545897
57.675 14.601166
57.680 14.631004
57.685 14.533843
57.690 14.778373
57.695 15.209269
57.700 15.128001
57.705 15.026625
57.710 14.961848
57.715 15.046632
57.720 14.897623
57.725 14.063836
57.730 13.642349
57.735 13.591858
57.740 13.771498
57.745 13.818845
57.750 13.748315
57.755 13.604318
57.760 13.422337
57.765 13.683053
57.770 13.608109
57.775 13.491948
57.780 13.440354
57.785 13.255511
57.790 13.68373
57.795 14.661814
57.800 14.968702
57.805 14.832603
57.810 14.614218
57.815 14.482345
57.820 14.596368
57.825 14.713291
57.830 14.22037
57.835 13.840142
57.840 13.846025
57.845 13.925786
57.850 14.299247
57.855 14.418085
57.860 13.64676
57.865 13.359012
57.870 13.524246
57.875 14.223558
57.880 14.50007
57.885 14.421198
57.890 14.801527
57.895 15.104994
57.900 15.2184
57.905 15.289253
57.910 14.786304
57.915 14.961236
57.920 14.740885
57.925 14.723648
57.930 15.405068
57.935 15.83772
57.940 15.666759
57.945 15.447049
57.950 15.851269
57.955 15.961896
57.960 15.484653
57.965 15.109212
57.970 15.119803
57.975 15.162828
57.980 15.400439
57.985 14.818391
57.990 14.578266
57.995 15.147584
58.000 15.051098
58.005 14.83919
58.010 15.282102
58.015 15.591872
58.020 15.999918
58.025 16.032251
58.030 16.1541
58.035 16.172243
58.040 16.248367
58.045 16.060312
58.050 15.868953
58.055 15.732167
58.060 15.91734
58.065 15.681981
58.070 15.551785
58.075 15.563915
58.080 15.937328
58.085 15.886004
58.090 15.642189
58.095 15.712107
58.100 15.753174
58.105 16.253994
58.110 16.370665
58.115 15.654941
58.120 15.223698
58.125 15.263756
58.130 15.0511
58.135 15.454916
58.140 15.272399
58.145 15.122341
58.150 15.851459
58.155 16.48702
58.160 16.711143
58.165 16.222137
58.170 15.795844
58.175 15.737332
58.180 16.031668
58.185 15.905772
58.190 15.498209
58.195 15.674
58.200 16.188383
58.205 16.030106
58.210 15.806411
58.215 14.776111
58.220 14.322576
58.225 14.007867
58.230 13.914991
58.235 13.859262
58.240 14.115459
58.245 14.631592
58.250 15.348289
58.255 15.829849
58.260 16.309061
58.265 16.623245
58.270 16.911488
58.275 16.555782
58.280 16.431986
58.285 16.811827
58.290 17.159454
58.295 17.164812
58.300 16.382566
58.305 15.954715
58.310 15.922883
58.315 15.384738
58.320 15.352435
58.325 15.256515
58.330 15.649064
58.335 16.270542
58.340 16.705381
58.345 17.078552
58.350 17.537275
58.355 17.482918
58.360 17.866741
58.365 17.832588
58.370 17.810905
58.375 18.05204
58.380 18.319345
58.385 18.422981
58.390 18.821854
58.395 18.454533
58.400 18.502937
58.405 18.277088
58.410 18.794909
58.415 18.661402
58.420 18.444183
58.425 18.268803
58.430 18.51458
58.435 18.518747
58.440 18.603539
58.445 18.219431
58.450 17.912931
58.455 18.574711
58.460 18.396166
58.465 18.564363
58.470 18.890436
58.475 18.455076
58.480 18.196371
58.485 19.0138
58.490 19.204824
58.495 19.351898
58.500 19.226767
58.505 19.758909
58.510 20.487806
58.515 20.956167
58.520 20.339485
58.525 20.105595
58.530 20.391708
58.535 20.577291
58.540 20.211926
58.545 19.707373
58.550 19.504162
58.555 18.969353
58.560 18.719807
58.565 18.765507
58.570 18.574268
58.575 18.415813
58.580 18.497606
58.585 18.880615
58.590 19.522528
58.595 19.581074
58.600 19.220036
58.605 18.848957
58.610 19.001657
58.615 19.328388
58.620 19.234926
58.625 19.38155
58.630 20.161453
58.635 20.676655
58.640 21.297192
58.645 21.584204
58.650 21.562134
58.655 21.43297
58.660 21.868704
58.665 21.747089
58.670 21.089256
58.675 20.639967
58.680 21.007151
58.685 21.5079
58.690 22.088699
58.695 21.772364
58.700 21.821915
58.705 22.396902
58.710 22.272583
58.715 21.577717
58.720 21.776693
58.725 21.933012
58.730 21.60298
58.735 21.056553
58.740 21.066414
58.745 21.818214
58.750 22.163027
58.755 21.69243
58.760 20.993748
58.765 20.746187
58.770 20.711145
58.775 20.684568
58.780 20.094303
58.785 19.855545
58.790 19.980469
58.795 20.298916
58.800 20.667017
58.805 21.245207
58.810 22.195942
58.815 22.677063
58.820 22.39756
58.825 21.896975
58.830 21.897501
58.835 21.611818
58.840 20.60475
58.845 19.393333
58.850 19.053101
58.855 19.708231
58.860 19.828684
58.865 19.919197
58.870 20.580877
58.875 21.887688
58.880 22.535255
58.885 22.203573
58.890 22.202002
58.895 22.706051
58.900 23.008696
58.905 22.274183
58.910 21.708445
58.915 21.645124
58.920 21.938215
58.925 21.565607
58.930 21.462837
58.935 21.786522
58.940 22.110123
58.945 22.326876
58.950 22.439516
58.955 22.278128
58.960 22.98555
58.965 23.31189
58.970 22.910967
58.975 23.263142
58.980 23.448677
58.985 23.542818
58.990 23.607916
58.995 23.159815
59.000 22.897909
59.005 23.399767
59.010 23.097845
59.015 22.681177
59.020 22.831306
59.025 22.571892
59.030 22.321869
59.035 22.043207
59.040 21.740656
59.045 22.189051
59.050 22.06599
59.055 21.509184
59.060 22.204334
59.065 22.439417
59.070 22.750227
59.075 22.673342
59.080 22.056091
59.085 21.804865
59.090 21.672064
59.095 21.366346
59.100 21.412453
59.105 21.296865
59.110 21.172361
59.115 20.693169
59.120 20.595684
59.125 20.832851
59.130 20.961363
59.135 20.627935
59.140 20.679798
59.145 20.555502
59.150 20.539629
59.155 20.389072
59.160 19.947592
59.165 19.227139
59.170 19.313219
59.175 19.171932
59.180 20.35463
59.185 20.84219
59.190 20.767206
59.195 21.346317
59.200 21.365198
59.205 21.253269
59.210 21.158524
59.215 20.100315
59.220 20.461283
59.225 20.435873
59.230 20.450886
59.235 20.996685
59.240 20.56151
59.245 20.26668
59.250 20.679483
59.255 20.297056
59.260 20.927711
59.265 20.953901
59.270 20.699251
59.275 21.092625
59.280 20.956627
59.285 21.05031
59.290 20.837049
59.295 20.005144
59.300 19.791414
59.305 20.319756
59.310 20.588375
59.315 20.75086
59.320 20.505457
59.325 21.250134
59.330 21.69722
59.335 21.358398
59.340 20.541292
59.345 19.916822
59.350 19.849449
59.355 19.622623
59.360 19.918636
59.365 20.37579
59.370 20.788717
59.375 20.927917
59.380 21.227324
59.385 21.094719
59.390 21.125921
59.395 20.760233
59.400 20.717505
59.405 19.887468
59.410 19.485168
59.415 19.266006
59.420 18.798508
59.425 18.001904
59.430 17.825108
59.435 17.813101
59.440 18.476603
59.445 19.282038
59.450 19.551905
59.455 19.25226
59.460 19.972994
59.465 20.531958
59.470 20.294338
59.475 19.865896
59.480 19.395144
59.485 18.842495
59.490 19.282774
59.495 18.618706
59.500 17.828238
59.505 17.915318
59.510 18.242498
59.515 18.478231
59.520 19.261953
59.525 19.920488
59.530 20.034626
59.535 20.354788
59.540 20.437208
59.545 20.832962
59.550 20.999979
59.555 21.087385
59.560 21.086735
59.565 21.740252
59.570 21.470484
59.575 21.258368
59.580 20.843157
59.585 20.50215
59.590 20.216682
59.595 19.422184
59.600 18.711922
59.605 18.80895
59.610 18.630878
59.615 18.168776
59.620 17.995932
59.625 18.193485
59.630 18.478642
59.635 18.537437
59.640 18.291227
59.645 18.453117
59.650 18.569456
59.655 18.199978
59.660 17.730944
59.665 16.98333
59.670 16.887995
59.675 16.812729
59.680 16.666927
59.685 16.483194
59.690 16.861702
59.695 17.184723
59.700 18.148113
59.705 17.783787
59.710 17.648441
59.715 18.251198
59.720 19.051497
59.725 19.041698
59.730 18.792356
59.735 18.650812
59.740 18.59166
59.745 18.982569
59.750 18.224213
59.755 17.690849
59.760 17.712013
59.765 18.31365
59.770 18.324026
59.775 18.882393
59.780 18.75893
59.785 19.229685
59.790 18.948427
59.795 18.936705
59.800 18.980114
59.805 18.378159
59.810 18.038191
59.815 18.138752
59.820 17.818474
59.825 18.110184
59.830 18.554649
59.835 18.184446
59.840 18.5221
59.845 18.598261
59.850 18.725523
59.855 19.051949
59.860 19.017426
59.865 18.230793
59.870 18.079865
59.875 17.427752
59.880 16.981304
59.885 16.615187
59.890 16.824339
59.895 16.623306
59.900 16.729078
59.905 16.978395
59.910 17.655993
59.915 17.807789
59.920 17.842133
59.925 17.60008
59.930 17.691467
59.935 17.708586
59.940 17.150288
59.945 17.004122
59.950 16.987919
59.955 16.688114
59.960 16.791397
59.965 16.751596
59.970 16.891581
59.975 17.265924
59.980 16.946127
59.985 16.689249
59.990 16.915394
59.995 17.325972
60.000 17.538044
60.005 17.467398
60.010 17.357222
60.015 17.34203
60.020 17.364092
60.025 17.133013
60.030 16.861826
60.035 16.455282
60.040 16.466019
60.045 16.390768
60.050 16.594191
60.055 16.356476
60.060 16.158672
60.065 16.114851
60.070 16.425898
60.075 16.364765
60.080 16.637995
60.085 16.717789
60.090 16.858692
60.095 16.297684
60.100 16.096157
60.105 15.800872
60.110 15.800912
60.115 15.910118
60.120 16.416145
60.125 16.748173
60.130 16.829943
60.135 16.926905
60.140 16.90379
60.145 16.87989
60.150 16.627337
60.155 15.877021
60.160 15.72545
60.165 16.02035
60.170 15.912831
60.175 15.950456
60.180 15.618671
60.185 15.42093
60.190 15.751033
60.195 15.45643
60.200 14.955099
60.205 15.181827
60.210 15.269501
60.215 15.239738
60.220 14.962145
60.225 15.07663
60.230 15.495642
60.235 15.872569
60.240 15.685234
60.245 15.255091
60.250 15.253874
60.255 15.100893
60.260 14.988927
60.265 14.634844
60.270 14.726092
60.275 15.506114
60.280 16.202997
60.285 16.665234
60.290 17.335394
60.295 16.827579
60.300 17.341444
60.305 17.272327
60.310 17.114576
60.315 17.113729
60.320 16.923983
60.325 16.87862
60.330 17.143993
60.335 16.936661
60.340 16.994955
60.345 16.870842
60.350 16.751425
60.355 16.81222
60.360 16.878374
60.365 17.352493
60.370 17.579891
60.375 17.424763
60.380 17.380924
60.385 17.157225
60.390 17.11224
60.395 17.422539
60.400 16.936661
60.405 16.460596
60.410 16.196518
60.415 15.597884
60.420 15.801482
60.425 15.280388
60.430 14.721122
60.435 14.659022
60.440 14.496211
60.445 14.633051
60.450 14.538435
60.455 14.309641
60.460 14.47392
60.465 14.497153
60.470 14.947743
60.475 15.578875
60.480 15.456963
60.485 15.911727
60.490 16.56953
60.495 17.03417
60.500 17.217274
60.505 16.986929
60.510 17.179562
60.515 17.115898
60.520 16.25375
60.525 15.627946
60.530 14.988513
60.535 14.971667
60.540 15.185925
60.545 14.612832
60.550 14.931926
60.555 15.064792
60.560 14.723498
60.565 14.973376
60.570 14.463279
60.575 14.088373
60.580 14.503049
60.585 14.287829
60.590 14.703899
60.595 15.21007
60.600 15.156177
60.605 15.522879
60.610 15.935733
60.615 15.864285
60.620 15.93662
60.625 15.785975
60.630 15.711403
60.635 15.640876
60.640 15.212008
60.645 14.933556
60.650 15.009987
60.655 15.554529
60.660 15.753097
60.665 15.531012
60.670 15.400028
60.675 15.065973
60.680 14.768742
60.685 14.367849
60.690 14.351184
60.695 14.397236
60.700 14.707534
60.705 15.135611
60.710 16.069668
60.715 16.403814
60.720 16.546719
60.725 16.315731
60.730 16.441578
60.735 16.382641
60.740 15.846618
60.745 15.475616
60.750 15.411561
60.755 15.584185
60.760 15.46174
60.765 15.318582
60.770 15.152834
60.775 14.883122
60.780 14.423615
60.785 14.078569
60.790 13.039342
60.795 12.84464
60.800 12.790428
60.805 12.753605
60.810 13.018447
60.815 13.596408
60.820 13.699374
60.825 13.973207
60.830 13.860726
60.835 13.870013
60.840 14.241138
60.845 14.939237
60.850 15.055424
60.855 15.590696
60.860 15.909407
60.865 16.307041
60.870 16.677502
60.875 16.39616
60.880 16.033937
60.885 16.161985
60.890 15.773565
60.895 16.296183
60.900 16.432232
60.905 16.152449
60.910 16.44236
60.915 16.004227
60.920 15.409472
60.925 15.511323
60.930 15.194539
60.935 14.869973
60.940 15.095136
60.945 15.363842
60.950 15.791245
60.955 15.733794
60.960 15.826
60.965 15.575763
60.970 15.691014
60.975 15.3501
60.980 14.604443
60.985 14.868343
60.990 15.491249
60.995 15.204995
61.000 14.737317
61.005 14.677386
61.010 15.040575
61.015 15.782186
61.020 15.980861
61.025 15.661868
61.030 15.978198
61.035 16.642912
61.040 16.558567
61.045 16.214302
61.050 15.718687
61.055 14.832506
61.060 14.774592
61.065 15.035079
61.070 14.844791
61.075 14.883973
61.080 14.91858
61.085 15.230897
61.090 15.56615
61.095 15.60319
61.100 15.189636
61.105 15.615797
61.110 15.976854
61.115 16.062241
61.120 15.826781
61.125 16.132629
61.130 16.462284
61.135 16.529819
61.140 15.939452
61.145 15.224777
61.150 15.019733
61.155 15.47483
61.160 15.103085
61.165 14.998593
61.170 14.837388
61.175 14.910196
61.180 14.991396
61.185 15.084338
61.190 14.884956
61.195 14.79384
61.200 14.716914
61.205 14.754601
61.210 14.891747
61.215 15.117818
61.220 15.370326
61.225 15.396026
61.230 15.371331
61.235 15.302306
61.240 15.586712
61.245 15.999576
61.250 16.044048
61.255 15.949547
61.260 16.302351
61.265 17.047714
61.270 17.431456
61.275 17.211071
61.280 16.927561
61.285 16.931309
61.290 16.669731
61.295 16.398685
61.300 15.381176
61.305 15.126978
61.310 15.24465
61.315 15.333623
61.320 15.301462
61.325 15.357043
61.330 15.217977
61.335 15.226898
61.340 15.207354
61.345 15.306333
61.350 15.192244
61.355 15.432028
61.360 15.838835
61.365 16.562746
61.370 17.25415
61.375 17.386076
61.380 17.185467
61.385 17.058762
61.390 16.542009
61.395 15.949005
61.400 15.630829
61.405 15.829264
61.410 15.888216
61.415 15.893694
61.420 15.986807
61.425 16.42062
61.430 16.347511
61.435 16.09334
61.440 15.594043
61.445 15.616785
61.450 15.747598
61.455 15.374189
61.460 15.224753
61.465 15.427036
61.470 16.147823
61.475 16.153162
61.480 16.332098
61.485 16.085896
61.490 16.064232
61.495 15.90935
61.500 15.138797
61.505 14.366735
61.510 14.225415
61.515 13.591481
61.520 13.817892
61.525 14.213569
61.530 14.524742
61.535 14.871027
61.540 14.744702
61.545 15.221199
61.550 15.76545
61.555 16.406139
61.560 16.552946
61.565 16.828117
61.570 17.243883
61.575 17.436296
61.580 17.04397
61.585 16.850603
61.590 15.982172
61.595 15.997357
61.600 15.834416
61.605 15.858705
61.610 16.121229
61.615 16.633512
61.620 16.782656
61.625 17.016979
61.630 16.821573
61.635 17.074963
61.640 16.707712
61.645 16.61377
61.650 16.342146
61.655 16.273136
61.660 16.778507
61.665 16.986654
61.670 16.640131
61.675 16.82642
61.680 16.376278
61.685 16.167938
61.690 16.463282
61.695 16.063921
61.700 15.608245
61.705 15.717258
61.710 16.134182
61.715 16.673431
61.720 16.60157
61.725 16.657116
61.730 16.507235
61.735 16.948887
61.740 17.166441
61.745 17.234715
61.750 17.397453
61.755 17.531332
61.760 17.581192
61.765 17.695456
61.770 17.688749
61.775 17.313465
61.780 17.162037
61.785 16.629837
61.790 16.733107
61.795 17.358484
61.800 17.206244
61.805 16.74642
61.810 16.444693
61.815 16.312208
61.820 16.945282
61.825 16.619261
61.830 15.260369
61.835 15.162934
61.840 15.640636
61.845 15.996089
61.850 16.127689
61.855 16.304333
61.860 16.653227
61.865 17.211956
61.870 17.593519
61.875 17.443371
61.880 17.772383
61.885 18.047638
61.890 17.965179
61.895 17.663906
61.900 17.753191
61.905 17.660625
61.910 17.528828
61.915 16.971899
61.920 16.524696
61.925 15.804782
61.930 15.819543
61.935 15.601946
61.940 15.305164
61.945 15.370466
61.950 15.540588
61.955 15.497231
61.960 15.308655
61.965 14.917095
61.970 14.953401
61.975 15.05304
61.980 15.262017
61.985 15.342902
61.990 15.739209
61.995 16.157799
62.000 16.553583
62.005 16.849255
62.010 16.900156
62.015 16.335003
62.020 16.081659
62.025 16.392248
62.030 17.207809
62.035 17.854164
62.040 17.521881
62.045 17.466805
62.050 17.779745
62.055 17.780497
62.060 17.200417
62.065 16.150633
62.070 15.465861
62.075 15.852869
62.080 15.9811
62.085 16.597101
62.090 16.97821
62.095 16.829058
62.100 16.716185
62.105 17.088528
62.110 17.100138
62.115 16.869564
62.120 16.131079
62.125 15.898857
62.130 16.18713
62.135 16.350998
62.140 15.798913
62.145 15.748672
62.150 16.08749
62.155 16.15576
62.160 16.029053
62.165 16.373919
62.170 16.548912
62.175 16.975431
62.180 16.668999
62.185 16.273767
62.190 16.767637
62.195 16.875788
62.200 16.741953
62.205 16.661366
62.210 16.999487
62.215 17.078148
62.220 16.931089
62.225 16.291403
62.230 16.387943
62.235 16.271664
62.240 15.825898
62.245 15.274759
62.250 15.109848
62.255 15.065253
62.260 14.748844
62.265 15.226713
62.270 15.527841
62.275 16.515835
62.280 16.451189
62.285 16.649445
62.290 17.318697
62.295 18.299524
62.300 17.803505
62.305 17.517767
62.310 17.10787
62.315 17.153652
62.320 17.281223
62.325 16.932386
62.330 16.886442
62.335 16.970556
62.340 17.215706
62.345 16.998985
62.350 17.203863
62.355 17.099451
62.360 16.600782
62.365 16.396807
62.370 16.069407
62.375 15.86278
62.380 16.218317
62.385 16.159634
62.390 15.971712
62.395 16.229082
62.400 15.901547
62.405 16.093857
62.410 16.304941
62.415 16.194414
62.420 16.307247
62.425 16.915308
62.430 17.189152
62.435 17.873383
62.440 18.245159
62.445 18.429968
62.450 18.358498
62.455 18.583977
62.460 18.299782
62.465 18.627272
62.470 18.406586
62.475 18.243189
62.480 18.222439
62.485 18.264715
62.490 18.631046
62.495 18.504553
62.500 17.256433
62.505 16.56094
62.510 16.073042
62.515 15.764069
62.520 15.933882
62.525 15.340992
62.530 15.326701
62.535 15.687403
62.540 16.20483
62.545 16.798815
62.550 16.797888
62.555 16.656004
62.560 16.593279
62.565 16.323946
62.570 16.200748
62.575 16.125366
62.580 15.988764
62.585 16.07402
62.590 15.60652
62.595 15.279216
62.600 15.662051
62.605 15.61427
62.610 15.14584
62.615 15.153433
62.620 14.901246
62.625 15.201682
62.630 15.686926
62.635 15.915991
62.640 15.937345
62.645 15.594278
62.650 15.099072
62.655 14.987001
62.660 14.805797
62.665 14.978717
62.670 15.034937
62.675 15.721143
62.680 16.127981
62.685 16.643257
62.690 17.098602
62.695 17.242117
62.700 16.669788
62.705 16.513948
62.710 16.228106
62.715 16.57135
62.720 16.37347
62.725 15.741631
62.730 15.574521
62.735 16.20118
62.740 16.138597
62.745 15.8859
62.750 15.745692
62.755 15.813777
62.760 16.777924
62.765 17.308926
62.770 17.466219
62.775 17.636131
62.780 17.669926
62.785 17.555168
62.790 17.11063
62.795 17.041321
62.800 16.587084
62.805 16.333797
62.810 16.22142
62.815 16.387051
62.820 16.390451
62.825 16.618322
62.830 16.073067
62.835 15.751272
62.840 15.835915
62.845 16.000563
62.850 16.14447
62.855 16.721504
62.860 16.766201
62.865 17.208773
62.870 17.107925
62.875 17.533419
62.880 17.828541
62.885 17.561987
62.890 16.685055
62.895 16.581648
62.900 16.606329
62.905 16.527218
62.910 15.967057
62.915 15.766907
62.920 15.797291
62.925 16.202026
62.930 15.93968
62.935 15.994802
62.940 16.430138
62.945 16.533125
62.950 15.88169
62.955 16.079226
62.960 16.134439
62.965 16.659979
62.970 16.563046
62.975 16.640896
62.980 16.961512
62.985 17.623573
62.990 17.648874
62.995 17.938177
63.000 17.626652
63.005 18.153275
63.010 18.081871
63.015 17.955412
63.020 17.966156
63.025 18.134434
63.030 18.273666
63.035 18.533451
63.040 18.780981
63.045 18.514042
63.050 17.861958
63.055 17.720001
63.060 17.468704
63.065 17.682251
63.070 17.574257
63.075 16.995443
63.080 17.086317
63.085 17.747469
63.090 17.77277
63.095 18.03299
63.100 17.957983
63.105 17.687103
63.110 17.398294
63.115 18.001696
63.120 17.89397
63.125 17.659388
63.130 17.193254
63.135 16.555798
63.140 16.345276
63.145 16.322323
63.150 15.768476
63.155 15.833794
63.160 16.476267
63.165 16.678335
63.170 17.340174
63.175 18.127827
63.180 18.891407
63.185 19.103914
63.190 18.771915
63.195 18.196476
63.200 17.747429
63.205 17.255602
63.210 16.61182
63.215 16.168119
63.220 15.91186
63.225 15.772646
63.230 15.454718
63.235 15.659431
63.240 16.3235
63.245 16.471041
63.250 16.719257
63.255 16.930441
63.260 17.023115
63.265 17.52363
63.270 18.186419
63.275 17.661467
63.280 17.591057
63.285 17.680668
63.290 17.916306
63.295 18.043364
63.300 18.022379
63.305 17.921532
63.310 18.097383
63.315 18.034119
63.320 17.470177
63.325 17.421711
63.330 17.68091
63.335 17.684433
63.340 17.495373
63.345 17.319706
63.350 17.565475
63.355 17.809071
63.360 17.618549
63.365 17.200054
63.370 17.573757
63.375 17.794533
63.380 18.043772
63.385 17.794197
63.390 17.551285
63.395 16.953127
63.400 16.643429
63.405 16.300251
63.410 16.264915
63.415 16.318747
63.420 16.662354
63.425 16.95443
63.430 17.417772
63.435 17.932877
63.440 17.620342
63.445 17.168989
63.450 17.391674
63.455 17.48978
63.460 17.459297
63.465 17.622253
63.470 17.081907
63.475 17.043367
63.480 17.195995
63.485 17.002142
63.490 16.899069
63.495 17.148441
63.500 17.310455
63.505 17.344152
63.510 17.440134
63.515 17.610094
63.520 17.252552
63.525 17.188084
63.530 16.540213
63.535 16.812363
63.540 17.449179
63.545 17.935823
63.550 17.731119
63.555 18.080812
63.560 18.326706
63.565 19.204527
63.570 18.955606
63.575 18.696922
63.580 18.509274
63.585 18.890926
63.590 18.435642
63.595 18.666271
63.600 17.95446
63.605 18.103426
63.610 18.231924
63.615 17.481703
63.620 17.07893
63.625 17.450363
63.630 17.00474
63.635 17.431437
63.640 17.762667
63.645 17.664536
63.650 17.785578
63.655 17.953829
63.660 17.671844
63.665 17.765976
63.670 17.995741
63.675 17.801239
63.680 17.767925
63.685 18.182404
63.690 17.956289
63.695 18.446917
63.700 18.67074
63.705 18.236681
63.710 17.779955
63.715 17.808754
63.720 17.804642
63.725 17.7896
63.730 17.361919
63.735 17.271351
63.740 17.48876
63.745 17.409826
63.750 17.604509
63.755 17.651505
63.760 18.046047
63.765 18.269049
63.770 18.112476
63.775 18.179316
63.780 18.629446
63.785 18.915241
63.790 18.928705
63.795 18.680635
63.800 18.645525
63.805 18.41045
63.810 18.47957
63.815 18.571224
63.820 18.469814
63.825 18.7145
63.830 18.262348
63.835 18.194708
63.840 18.876545
63.845 18.511028
63.850 18.594051
63.855 18.962605
63.860 18.695482
63.865 19.005058
63.870 18.908813
63.875 18.697382
63.880 18.866207
63.885 18.506727
63.890 18.091881
63.895 18.332153
63.900 18.225147
63.905 18.708651
63.910 18.726284
63.915 18.843224
63.920 18.840721
63.925 18.599197
63.930 18.568733
63.935 18.637726
63.940 18.519253
63.945 19.033457
63.950 19.243994
63.955 19.395855
63.960 20.057085
63.965 20.344749
63.970 20.914635
63.975 20.679462
63.980 20.590021
63.985 20.888552
63.990 21.344358
63.995 21.138952
64.000 21.206829
64.005 21.501802
64.010 22.310436
64.015 22.439072
64.020 22.016716
64.025 22.250143
64.030 22.257092
64.035 22.037848
64.040 21.424192
64.045 21.163597
64.050 21.175287
64.055 21.325392
64.060 21.141773
64.065 21.420593
64.070 21.613955
64.075 21.666626
64.080 21.71714
64.085 22.354467
64.090 22.783482
64.095 22.922958
64.100 23.263332
64.105 23.440414
64.110 23.412249
64.115 23.216969
64.120 22.547375
64.125 22.154146
64.130 21.991762
64.135 21.809969
64.140 21.706326
64.145 22.053822
64.150 22.217825
64.155 22.111456
64.160 21.947096
64.165 22.288191
64.170 22.162241
64.175 22.022238
64.180 21.91703
64.185 22.027605
64.190 23.012651
64.195 22.810917
64.200 22.257195
64.205 22.099148
64.210 22.656332
64.215 22.833097
64.220 22.633968
64.225 22.027903
64.230 22.25354
64.235 22.765875
64.240 23.222433
64.245 22.841345
64.250 22.404007
64.255 21.700094
64.260 22.305851
64.265 22.977898
64.270 22.983414
64.275 22.995394
64.280 23.178493
64.285 24.300201
64.290 25.01259
64.295 24.328266
64.300 24.1451
64.305 24.052961
64.310 23.908796
64.315 23.591898
64.320 22.86755
64.325 22.033987
64.330 22.096712
64.335 21.692427
64.340 21.981468
64.345 22.271122
64.350 22.322695
64.355 22.352478
64.360 23.264292
64.365 23.639385
64.370 23.998238
64.375 24.208025
64.380 25.001932
64.385 25.827513
64.390 25.99229
64.395 26.206488
64.400 25.800699
64.405 25.276848
64.410 25.017488
64.415 24.160139
64.420 23.786009
64.425 23.473232
64.430 23.372547
64.435 23.88493
64.440 24.323553
64.445 24.441044
64.450 24.573418
64.455 24.650089
64.460 24.792105
64.465 24.438972
64.470 24.078224
64.475 23.913099
64.480 23.645361
64.485 23.518898
64.490 23.404903
64.495 23.912947
64.500 24.451677
64.505 24.586866
64.510 24.674421
64.515 24.936598
64.520 26.055515
64.525 26.214708
64.530 26.253704
64.535 27.015505
64.540 27.297312
64.545 26.572489
64.550 26.221066
64.555 25.611963
64.560 25.247391
64.565 24.863428
64.570 23.938725
64.575 23.858999
64.580 23.583149
64.585 23.168291
64.590 22.738718
64.595 22.665178
64.600 22.75399
64.605 22.904963
64.610 23.158955
64.615 23.250303
64.620 23.272215
64.625 23.932739
64.630 24.439062
64.635 24.397446
64.640 24.465197
64.645 24.681915
64.650 25.275963
64.655 25.623075
64.660 25.649902
64.665 24.982975
64.670 24.716429
64.675 23.685778
64.680 23.713116
64.685 23.527836
64.690 23.346977
64.695 23.28969
64.700 23.439415
64.705 23.479439
64.710 24.884188
64.715 25.068676
64.720 24.73914
64.725 24.924372
64.730 24.66444
64.735 25.050201
64.740 25.175362
64.745 24.243366
64.750 23.270708
64.755 23.455881
64.760 23.212931
64.765 23.132511
64.770 23.234478
64.775 22.944626
64.780 22.809235
64.785 23.912056
64.790 24.471649
64.795 24.223322
64.800 24.221428
64.805 23.785831
64.810 23.803015
64.815 23.782019
64.820 23.734949
64.825 23.559742
64.830 23.46862
64.835 23.683084
64.840 23.800838
64.845 23.987535
64.850 24.294085
64.855 23.893137
64.860 23.502783
64.865 23.892046
64.870 23.673555
64.875 23.315634
64.880 22.423542
64.885 22.268444
64.890 22.771236
64.895 23.324312
64.900 23.572098
64.905 23.425993
64.910 24.227634
64.915 24.329948
64.920 24.153942
64.925 23.96143
64.930 23.563688
64.935 23.253201
64.940 23.712915
64.945 23.790201
64.950 23.934515
64.955 24.018881
64.960 23.606277
64.965 23.598274
64.970 24.274565
64.975 24.570425
64.980 24.963799
64.985 25.054266
64.990 24.634264
64.995 25.064365
65.000 25.280266
65.005 24.914829
65.010 24.878757
65.015 25.008337
65.020 25.520033
65.025 25.708403
65.030 25.005524
65.035 24.884392
65.040 24.99156
65.045 25.250757
65.050 25.368988
65.055 25.076906
65.060 24.972937
65.065 25.252153
65.070 25.161533
65.075 24.607662
65.080 24.417433
65.085 24.145729
65.090 25.028879
65.095 25.723724
65.100 25.886755
65.105 25.792696
65.110 26.460918
65.115 26.320541
65.120 26.290705
65.125 25.523573
65.130 25.318794
65.135 25.77858
65.140 26.608143
65.145 26.015333
65.150 26.02597
65.155 26.417883
65.160 26.101238
65.165 25.510246
65.170 25.227747
65.175 24.315996
65.180 24.198343
65.185 24.162941
65.190 24.191643
65.195 24.427021
65.200 24.693293
65.205 24.45339
65.210 24.810993
65.215 24.799204
65.220 25.200487
65.225 25.746258
65.230 26.06143
65.235 26.300245
65.240 26.20093
65.245 26.041845
65.250 25.895584
65.255 25.152266
65.260 24.529928
65.265 23.932089
65.270 23.289255
65.275 23.327396
65.280 23.09861
65.285 22.86764
65.290 22.768852
65.295 22.856255
65.300 22.544926
65.305 22.57806
65.310 23.305311
65.315 23.42638
65.320 23.353115
65.325 23.495314
65.330 23.388905
65.335 23.270412
65.340 22.723955
65.345 22.039406
65.350 22.870949
65.355 23.145056
65.360 23.305162
65.365 23.392254
65.370 23.817579
65.375 23.969244
65.380 24.006962
65.385 23.347288
65.390 23.577133
65.395 23.484303
65.400 23.475508
65.405 23.824553
65.410 24.675419
65.415 23.987068
65.420 23.556324
65.425 23.344809
65.430 23.50639
65.435 23.655195
65.440 23.878969
65.445 23.649759
65.450 23.801706
65.455 23.758139
65.460 23.305845
65.465 22.720232
65.470 22.310892
65.475 21.556681
65.480 21.46954
65.485 22.578333
65.490 23.091328
65.495 23.198896
65.500 23.082985
65.505 23.546938
65.510 24.483469
65.515 24.709433
65.520 24.668476
65.525 24.497047
65.530 24.708818
65.535 24.761005
65.540 24.692514
65.545 24.545929
65.550 24.474859
65.555 24.171547
65.560 24.531256
65.565 25.053364
65.570 25.944044
65.575 25.431553
65.580 25.086037
65.585 25.2472
65.590 25.545431
65.595 25.138891
65.600 24.760597
65.605 24.346827
65.610 24.47385
65.615 24.633781
65.620 24.271582
65.625 24.12299
65.630 24.100281
65.635 23.969885
65.640 24.313601
65.645 25.051418
65.650 25.654646
65.655 25.768047
65.660 25.937263
65.665 25.915012
65.670 25.567978
65.675 25.452038
65.680 25.626776
65.685 25.182985
65.690 25.478235
65.695 25.247671
65.700 25.613115
65.705 26.535234
65.710 26.524073
65.715 25.69989
65.720 25.223373
65.725 24.732117
65.730 24.63133
65.735 25.135998
65.740 24.542822
65.745 24.3685
65.750 24.618227
65.755 25.869698
65.760 26.457674
65.765 26.426895
65.770 26.292101
65.775 26.06081
65.780 26.541306
65.785 27.610119
65.790 27.435829
65.795 26.971069
65.800 26.875902
65.805 26.563049
65.810 27.033892
65.815 26.549175
65.820 25.325705
65.825 24.431356
65.830 24.549742
65.835 24.878212
65.840 25.189003
65.845 25.261202
65.850 25.767555
65.855 26.344681
65.860 27.042324
65.865 27.939426
65.870 28.388416
65.875 27.944443
65.880 28.136055
65.885 28.587723
65.890 28.95245
65.895 29.916079
65.900 29.834076
65.905 30.046032
65.910 31.098238
65.915 31.173834
65.920 30.516026
65.925 29.882717
65.930 30.045237
65.935 29.843779
65.940 29.865179
65.945 29.775101
65.950 30.126345
65.955 31.185617
65.960 31.964727
65.965 31.78372
65.970 32.606922
65.975 33.006348
65.980 33.034542
65.985 32.906796
65.990 32.419296
65.995 32.780746
66.000 33.235302
66.005 33.108944
66.010 32.846664
66.015 32.909554
66.020 32.950661
66.025 33.184311
66.030 33.544025
66.035 33.306652
66.040 33.506763
66.045 34.184895
66.050 34.683853
66.055 34.941547
66.060 35.025051
66.065 34.607933
66.070 35.134888
66.075 34.84034
66.080 34.258003
66.085 33.9398
66.090 33.707001
66.095 34.568604
66.100 36.112423
66.105 36.410675
66.110 36.456749
66.115 36.552765
66.120 36.999046
66.125 38.147278
66.130 38.513077
66.135 38.51886
66.140 38.634598
66.145 39.369553
66.150 39.821999
66.155 39.818253
66.160 39.602993
66.165 39.11805
66.170 38.331749
66.175 38.176941
66.180 38.324207
66.185 38.531925
66.190 39.11377
66.195 38.98357
66.200 39.575871
66.205 39.711678
66.210 40.612156
66.215 41.273148
66.220 41.306995
66.225 42.102448
66.230 42.736359
66.235 42.733181
66.240 42.426357
66.245 41.52816
66.250 40.633499
66.255 39.871033
66.260 39.066589
66.265 38.71587
66.270 38.717957
66.275 39.09222
66.280 39.125118
66.285 40.140484
66.290 40.188572
66.295 40.235985
66.300 39.574112
66.305 39.752949
66.310 40.032036
66.315 40.7197
66.320 40.719181
66.325 41.223808
66.330 41.301266
66.335 41.923527
66.340 41.660507
66.345 41.862179
66.350 41.555035
66.355 40.764328
66.360 40.719223
66.365 40.569515
66.370 39.801296
66.375 38.653511
66.380 37.381325
66.385 36.853554
66.390 36.884109
66.395 36.886097
66.400 36.815014
66.405 37.249046
66.410 37.523281
66.415 37.566406
66.420 36.841091
66.425 35.539188
66.430 34.607067
66.435 33.383888
66.440 33.069836
66.445 32.596783
66.450 32.58371
66.455 32.924019
66.460 33.405533
66.465 33.807873
66.470 34.305622
66.475 34.386429
66.480 34.94236
66.485 35.006836
66.490 34.153908
66.495 33.19825
66.500 32.231285
66.505 32.203995
66.510 31.705669
66.515 30.893518
66.520 30.055336
66.525 30.358839
66.530 31.149992
66.535 31.315729
66.540 30.750542
66.545 30.612228
66.550 30.332602
66.555 30.35206
66.560 30.478203
66.565 29.786818
66.570 28.883907
66.575 27.929596
66.580 27.133968
66.585 27.089825
66.590 27.017965
66.595 26.092169
66.600 25.774935
66.605 25.41861
66.610 25.620764
66.615 26.317951
66.620 26.061962
66.625 25.826412
66.630 25.982292
66.635 26.043785
66.640 26.610506
66.645 26.520185
66.650 25.557287
66.655 25.405115
66.660 25.206314
66.665 24.448332
66.670 23.677013
66.675 23.039015
66.680 22.604965
66.685 22.266504
66.690 21.785549
66.695 21.135248
66.700 21.419498
66.705 21.65502
66.710 21.706161
66.715 21.553091
66.720 20.861362
66.725 20.225433
66.730 19.744268
66.735 19.341991
66.740 19.212156
66.745 19.037643
66.750 19.244932
66.755 19.465303
66.760 19.917551
66.765 20.896759
66.770 21.276945
66.775 21.384102
66.780 21.565624
66.785 22.044613
66.790 22.434683
66.795 22.188354
66.800 21.969847
66.805 21.92465
66.810 21.847723
66.815 22.106161
66.820 21.469797
66.825 21.653912
66.830 21.731771
66.835 21.602219
66.840 21.941973
66.845 21.728292
66.850 21.265028
66.855 21.522503
66.860 20.460268
66.865 20.119633
66.870 19.260469
66.875 18.569719
66.880 18.60504
66.885 18.731745
66.890 18.421993
66.895 18.953176
66.900 18.842556
66.905 19.379974
66.910 19.592813
66.915 19.325094
66.920 19.076515
66.925 18.925774
66.930 18.805004
66.935 19.015741
66.940 19.418922
66.945 19.771498
66.950 20.399651
66.955 20.718489
66.960 20.742516
66.965 20.38324
66.970 20.13011
66.975 20.452448
66.980 20.421206
66.985 20.225731
66.990 20.153761
66.995 20.206722
67.000 20.191608
67.005 20.029171
67.010 19.293306
67.015 19.077188
67.020 18.926809
67.025 18.828846
67.030 18.841187
67.035 18.876858
67.040 18.956587
67.045 19.184113
67.050 18.749754
67.055 18.59058
67.060 18.068676
67.065 18.299776
67.070 18.653608
67.075 18.907242
67.080 18.389721
67.085 18.491899
67.090 18.827993
67.095 19.068312
67.100 19.409403
67.105 19.741581
67.110 20.171553
67.115 21.150961
67.120 21.44422
67.125 21.853073
67.130 22.14443
67.135 21.823862
67.140 21.155172
67.145 20.865028
67.150 20.525232
67.155 20.332947
67.160 19.809189
67.165 19.474354
67.170 19.367579
67.175 19.433401
67.180 19.753906
67.185 20.113556
67.190 20.221849
67.195 20.273453
67.200 20.576017
67.205 20.521341
67.210 20.832712
67.215 20.88122
67.220 20.660601
67.225 20.573278
67.230 20.844225
67.235 20.525606
67.240 20.588526
67.245 20.396362
67.250 19.883629
67.255 19.774427
67.260 19.497717
67.265 19.033165
67.270 19.020071
67.275 18.812002
67.280 18.665949
67.285 18.391123
67.290 18.925795
67.295 19.116663
67.300 19.305971
67.305 19.105833
67.310 19.325617
67.315 19.199604
67.320 19.477392
67.325 19.498339
67.330 20.128378
67.335 20.286896
67.340 20.154194
67.345 20.620581
67.350 21.017939
67.355 20.995478
67.360 20.614336
67.365 20.106524
67.370 19.593266
67.375 19.46237
67.380 18.189188
67.385 17.829823
67.390 17.886703
67.395 17.664331
67.400 17.839865
67.405 18.318121
67.410 18.901014
67.415 19.914478
67.420 19.839621
67.425 19.256733
67.430 18.701124
67.435 18.319864
67.440 18.411797
67.445 18.547981
67.450 18.980188
67.455 19.699333
67.460 19.779272
67.465 20.138926
67.470 19.832256
67.475 19.26432
67.480 18.948334
67.485 17.752953
67.490 17.582283
67.495 18.616159
67.500 19.173574
67.505 19.57691
67.510 19.972496
67.515 20.24349
67.520 21.337351
67.525 21.519812
67.530 20.753107
67.535 20.610241
67.540 20.376007
67.545 20.045618
67.550 19.59136
67.555 18.65329
67.560 18.042261
67.565 17.720919
67.570 17.372761
67.575 17.375448
67.580 17.304077
67.585 17.219685
67.590 17.166477
67.595 17.694693
67.600 18.396042
67.605 18.983276
67.610 19.294521
67.615 19.863737
67.620 20.822422
67.625 21.219063
67.630 21.34712
67.635 21.229214
67.640 20.72818
67.645 20.184071
67.650 19.953236
67.655 20.266634
67.660 20.037533
67.665 19.847221
67.670 20.064478
67.675 20.561863
67.680 20.833288
67.685 20.128426
67.690 18.569881
67.695 18.18819
67.700 17.515383
67.705 17.20685
67.710 16.597435
67.715 16.351078
67.720 17.161352
67.725 17.988251
67.730 18.089905
67.735 18.314697
67.740 18.603596
67.745 18.986177
67.750 19.124968
67.755 18.628603
67.760 19.160427
67.765 19.008684
67.770 18.833658
67.775 18.521542
67.780 18.555706
67.785 18.68269
67.790 18.211288
67.795 17.645807
67.800 17.563793
67.805 18.142382
67.810 18.266268
67.815 18.121445
67.820 17.650743
67.825 18.162687
67.830 18.819403
67.835 19.048716
67.840 18.831535
67.845 18.694695
67.850 18.876326
67.855 19.143217
67.860 19.297272
67.865 19.18335
67.870 19.155035
67.875 19.42926
67.880 20.010309
67.885 20.674398
67.890 21.157309
67.895 20.845022
67.900 20.509539
67.905 20.579056
67.910 20.400116
67.915 19.580555
67.920 19.026546
67.925 18.949966
67.930 18.880692
67.935 19.089445
67.940 19.696554
67.945 19.663143
67.950 19.201187
67.955 19.169378
67.960 18.501183
67.965 18.362057
67.970 18.185904
67.975 17.217346
67.980 17.934614
67.985 18.80612
67.990 19.014572
67.995 19.556242
68.000 19.588299
68.005 20.304768
68.010 21.034864
68.015 20.82329
68.020 20.679998
68.025 20.525808
68.030 20.28301
68.035 20.065418
68.040 19.287243
68.045 18.637001
68.050 18.319557
68.055 18.634396
68.060 18.551497
68.065 19.057323
68.070 19.064619
68.075 19.350542
68.080 19.807863
68.085 20.152166
68.090 19.708288
68.095 19.709961
68.100 19.905771
68.105 20.235607
68.110 20.052671
68.115 20.198721
68.120 20.264797
68.125 20.897625
68.130 20.817072
68.135 20.131416
68.140 19.090782
68.145 18.852861
68.150 18.594107
68.155 18.310789
68.160 17.842005
68.165 18.070141
68.170 18.008564
68.175 18.782875
68.180 18.477718
68.185 18.446814
68.190 18.564882
68.195 19.000904
68.200 18.814095
68.205 19.65741
68.210 19.708675
68.215 19.961733
68.220 19.00358
68.225 18.845507
68.230 18.393909
68.235 18.291006
68.240 17.74884
68.245 17.703222
68.250 17.55748
68.255 17.777731
68.260 17.875233
68.265 18.084421
68.270 18.30752
68.275 18.554544
68.280 18.406422
68.285 19.447212
68.290 19.76029
68.295 19.524927
68.300 19.626667
68.305 19.768858
68.310 19.851755
68.315 20.228428
68.320 19.863886
68.325 19.54286
68.330 19.735823
68.335 19.698801
68.340 18.980751
68.345 18.621031
68.350 18.565083
68.355 18.651777
68.360 19.068338
68.365 19.087158
68.370 18.316324
68.375 18.570919
68.380 19.097755
68.385 19.289536
68.390 19.072426
68.395 18.909702
68.400 19.218426
68.405 19.176105
68.410 19.86924
68.415 19.493248
68.420 18.953232
68.425 19.268221
68.430 19.002642
68.435 19.147888
68.440 19.428507
68.445 19.297337
68.450 19.238199
68.455 19.435089
68.460 19.423719
68.465 20.17572
68.470 20.729076
68.475 20.75841
68.480 20.839439
68.485 20.361454
68.490 20.177734
68.495 20.317978
68.500 20.266336
68.505 20.169426
68.510 20.394115
68.515 20.648218
68.520 21.39443
68.525 21.74435
68.530 21.937685
68.535 21.24748
68.540 20.815027
68.545 20.450348
68.550 20.431812
68.555 19.865253
68.560 19.873146
68.565 19.775187
68.570 19.679287
68.575 19.782637
68.580 19.766088
68.585 19.282782
68.590 19.626593
68.595 19.249525
68.600 18.949184
68.605 19.053305
68.610 18.938736
68.615 18.960838
68.620 18.67926
68.625 18.798557
68.630 19.15892
68.635 19.661587
68.640 19.972338
68.645 19.235909
68.650 19.089745
68.655 19.811483
68.660 19.763857
68.665 19.286161
68.670 19.282431
68.675 19.233473
68.680 19.70645
68.685 20.238558
68.690 19.964211
68.695 20.373219
68.700 20.503351
68.705 19.881596
68.710 20.630352
68.715 20.966696
68.720 20.576715
68.725 21.038202
68.730 21.039774
68.735 20.817616
68.740 21.180866
68.745 20.887537
68.750 20.678276
68.755 20.6623
68.760 19.777695
68.765 19.862356
68.770 19.920729
68.775 19.714996
68.780 19.717751
68.785 20.025465
68.790 19.8624
68.795 20.388399
68.800 20.790634
68.805 20.808647
68.810 20.773901
68.815 20.799538
68.820 20.704117
68.825 20.856655
68.830 21.255207
68.835 21.061541
68.840 21.315977
68.845 21.877665
68.850 22.275455
68.855 22.650255
68.860 22.816187
68.865 22.268698
68.870 22.130096
68.875 22.387251
68.880 22.15288
68.885 21.843569
68.890 22.045746
68.895 22.719183
68.900 23.021832
68.905 22.741795
68.910 22.063755
68.915 21.739334
68.920 21.431465
68.925 21.257986
68.930 20.892797
68.935 21.725956
68.940 21.812775
68.945 22.853104
68.950 22.93845
68.955 23.129911
68.960 22.921232
68.965 22.390566
68.970 22.03056
68.975 22.640471
68.980 22.340992
68.985 22.856482
68.990 22.906624
68.995 23.289583
69.000 22.629166
69.005 22.240788
69.010 21.89521
69.015 21.91728
69.020 21.999147
69.025 22.468681
69.030 22.520727
69.035 23.545515
69.040 24.343002
69.045 24.316982
69.050 24.858929
69.055 24.919941
69.060 24.636568
69.065 25.211744
69.070 25.113506
69.075 25.049955
69.080 25.190073
69.085 24.489347
69.090 25.139877
69.095 25.10203
69.100 24.495476
69.105 25.251953
69.110 25.142189
69.115 25.306824
69.120 25.354959
69.125 25.20822
69.130 25.59215
69.135 25.937857
69.140 25.635563
69.145 26.481667
69.150 26.5998
69.155 26.869072
69.160 26.739355
69.165 27.193745
69.170 27.740686
69.175 28.101427
69.180 28.235493
69.185 28.695644
69.190 28.387812
69.195 27.98768
69.200 28.191212
69.205 28.267729
69.210 28.37628
69.215 27.937151
69.220 27.668051
69.225 27.693287
69.230 27.570877
69.235 27.113668
69.240 26.527636
69.245 26.754631
69.250 27.459423
69.255 28.056679
69.260 28.673502
69.265 29.391197
69.270 29.687897
69.275 30.580496
69.280 30.740477
69.285 30.599543
69.290 30.919815
69.295 31.34767
69.300 31.287428
69.305 31.511356
69.310 31.551041
69.315 31.550444
69.320 31.53027
69.325 31.079527
69.330 31.047148
69.335 31.012115
69.340 31.5107
69.345 31.982084
69.350 32.769417
69.355 32.974957
69.360 33.196938
69.365 33.020416
69.370 33.060577
69.375 33.569485
69.380 33.732216
69.385 34.600815
69.390 35.454395
69.395 35.577667
69.400 36.755466
69.405 36.767799
69.410 36.079033
69.415 35.327
69.420 34.104717
69.425 34.337177
69.430 34.469013
69.435 34.161064
69.440 35.039845
69.445 35.042309
69.450 35.543739
69.455 35.242508
69.460 34.483463
69.465 33.768288
69.470 33.318871
69.475 32.755352
69.480 33.048862
69.485 32.868282
69.490 32.973785
69.495 33.325569
69.500 34.711018
69.505 35.480186
69.510 35.994587
69.515 36.419159
69.520 37.263378
69.525 37.761898
69.530 37.552967
69.535 36.842594
69.540 36.151779
69.545 35.094925
69.550 34.51236
69.555 33.990295
69.560 34.015213
69.565 34.325951
69.570 34.726917
69.575 35.676868
69.580 36.264256
69.585 36.612534
69.590 36.450871
69.595 36.055832
69.600 35.352612
69.605 35.123203
69.610 34.458775
69.615 33.411369
69.620 32.648483
69.625 32.722408
69.630 32.716618
69.635 32.59166
69.640 32.652588
69.645 32.826584
69.650 33.322227
69.655 33.208542
69.660 32.940647
69.665 33.228031
69.670 32.803879
69.675 31.626236
69.680 30.969721
69.685 31.073475
69.690 30.874655
69.695 31.336914
69.700 31.33576
69.705 31.450546
69.710 31.833763
69.715 31.174023
69.720 30.50569
69.725 30.503548
69.730 30.430107
69.735 30.272293
69.740 30.195465
69.745 30.107742
69.750 30.936497
69.755 31.793205
69.760 31.744951
69.765 30.352127
69.770 29.409626
69.775 28.659967
69.780 28.681028
69.785 28.305349
69.790 27.755468
69.795 27.127333
69.800 27.808933
69.805 28.338722
69.810 28.645596
69.815 28.366583
69.820 28.484243
69.825 28.089455
69.830 27.783911
69.835 28.178068
69.840 28.453241
69.845 29.209974
69.850 29.623608
69.855 29.842079
69.860 28.686584
69.865 28.445059
69.870 28.034044
69.875 27.684317
69.880 26.984964
69.885 26.792019
69.890 26.178371
69.895 25.899048
69.900 25.341118
69.905 24.722448
69.910 23.674002
69.915 22.70171
69.920 22.219238
69.925 22.873245
69.930 22.606049
69.935 22.119331
69.940 21.768774
69.945 21.909691
69.950 22.043001
69.955 21.850639
69.960 22.133194
69.965 22.279623
69.970 22.614569
69.975 22.719948
69.980 22.444391
69.985 21.684599
69.990 21.463848
69.995 20.782358
70.000 21.433279
70.005 21.192476
70.010 21.291357
70.015 21.907419
70.020 22.507008
70.025 22.469021
70.030 22.703316
70.035 22.334341
70.040 22.252464
70.045 22.301676
70.050 21.799524
70.055 21.439526
70.060 21.042641
70.065 20.848356
70.070 20.846958
70.075 21.473019
70.080 21.572857
70.085 21.515385
70.090 21.765635
70.095 21.578451
70.100 21.355602
70.105 21.298487
70.110 21.073462
70.115 21.091173
70.120 21.045984
70.125 21.308516
70.130 21.737206
70.135 21.316364
70.140 21.740135
70.145 21.602491
70.150 20.94721
70.155 20.853683
70.160 20.933519
70.165 21.122227
70.170 20.945326
70.175 20.328182
70.180 20.239979
70.185 20.54402
70.190 20.234774
70.195 19.855095
70.200 19.294418
70.205 18.93248
70.210 18.344433
70.215 18.102728
70.220 18.385805
70.225 18.499046
70.230 18.470848
70.235 18.656984
70.240 18.993856
70.245 19.156012
70.250 19.726851
70.255 19.99551
70.260 19.607153
70.265 19.378983
70.270 19.996889
70.275 20.17565
70.280 20.253031
70.285 19.652567
70.290 18.975058
70.295 19.157785
70.300 19.164331
70.305 18.565407
70.310 18.243191
70.315 17.884346
70.320 17.623838
70.325 17.526495
70.330 17.588352
70.335 17.843328
70.340 18.400223
70.345 18.002975
70.350 18.301142
70.355 19.142965
70.360 19.190742
70.365 19.133856
70.370 19.296396
70.375 19.217201
70.380 20.464399
70.385 20.845264
70.390 20.61974
70.395 20.869614
70.400 20.853546
70.405 20.999584
70.410 21.130119
70.415 20.410761
70.420 20.28175
70.425 19.947342
70.430 19.853365
70.435 19.673115
70.440 19.412489
70.445 19.188957
70.450 19.401873
70.455 19.237413
70.460 19.165762
70.465 19.216845
70.470 18.919386
70.475 18.637352
70.480 18.47006
70.485 18.027912
70.490 17.766773
70.495 17.293606
70.500 17.462269
70.505 17.608313
70.510 17.81847
70.515 18.329868
70.520 18.692423
70.525 19.068335
70.530 19.429625
70.535 19.443947
70.540 19.471313
70.545 18.910418
70.550 18.2309
70.555 18.072367
70.560 17.555153
70.565 17.545858
70.570 17.532215
70.575 17.558424
70.580 17.803598
70.585 18.136414
70.590 18.157661
70.595 18.788906
70.600 18.231682
70.605 18.21999
70.610 18.692848
70.615 18.541122
70.620 18.285763
70.625 18.142298
70.630 18.073177
70.635 18.300667
70.640 18.413464
70.645 18.32556
70.650 18.692141
70.655 19.699375
70.660 20.270151
70.665 20.503307
70.670 20.853502
70.675 20.270123
70.680 19.911114
70.685 19.713173
70.690 19.707317
70.695 19.524958
70.700 19.550976
70.705 19.411705
70.710 19.647024
70.715 19.5641
70.720 19.254673
70.725 18.860842
70.730 18.812
70.735 18.775085
70.740 18.944077
70.745 18.929747
70.750 18.353586
70.755 18.358639
70.760 18.193634
70.765 18.009844
70.770 18.142439
70.775 17.846317
70.780 17.921255
70.785 18.285761
70.790 18.04603
70.795 18.010862
70.800 18.05777
70.805 17.753403
70.810 17.892794
70.815 17.93787
70.820 18.371119
70.825 18.076536
70.830 18.058455
70.835 17.565392
70.840 17.865122
70.845 18.328344
70.850 18.787695
70.855 18.285288
70.860 18.153421
70.865 18.244686
70.870 18.448788
70.875 18.527271
70.880 17.97191
70.885 17.65028
70.890 17.821541
70.895 17.93992
70.900 17.981575
70.905 18.247858
70.910 17.89282
70.915 17.707022
70.920 17.872561
70.925 18.064352
70.930 18.288389
70.935 18.484766
70.940 18.319803
70.945 18.472116
70.950 18.590416
70.955 18.878708
70.960 18.540331
70.965 17.463467
70.970 17.28602
70.975 17.251404
70.980 17.252213
70.985 17.421915
70.990 17.231976
70.995 17.459705
71.000 18.167501
71.005 18.591055
71.010 18.14625
71.015 17.698435
71.020 17.304661
71.025 17.405495
71.030 17.739843
71.035 17.610691
71.040 17.700474
71.045 18.140207
71.050 18.099312
71.055 18.49971
71.060 18.972599
71.065 19.303297
71.070 19.107277
71.075 18.778814
71.080 18.917318
71.085 18.926989
71.090 18.538172
71.095 18.837097
71.100 18.593763
71.105 18.819447
71.110 19.208591
71.115 19.158909
71.120 19.945847
71.125 20.167862
71.130 19.618628
71.135 19.093815
71.140 18.785187
71.145 18.92597
71.150 19.176819
71.155 18.751951
71.160 18.758825
71.165 19.299433
71.170 19.924738
71.175 20.084532
71.180 19.374102
71.185 19.04793
71.190 18.462847
71.195 17.270462
71.200 16.410345
71.205 16.334044
71.210 16.66502
71.215 17.233711
71.220 17.518024
71.225 18.435993
71.230 18.85202
71.235 19.777252
71.240 19.628153
71.245 19.390772
71.250 19.24349
71.255 18.426847
71.260 17.737936
71.265 17.977812
71.270 17.331936
71.275 16.663446
71.280 16.415958
71.285 16.19943
71.290 16.802998
71.295 16.641848
71.300 16.01232
71.305 16.336605
71.310 16.433611
71.315 16.656183
71.320 17.029915
71.325 17.218246
71.330 18.074127
71.335 18.466091
71.340 18.708025
71.345 18.968836
71.350 18.742332
71.355 18.023054
71.360 18.481829
71.365 18.433409
71.370 18.339458
71.375 18.376526
71.380 18.282654
71.385 18.127016
71.390 18.175606
71.395 17.4405
71.400 17.855814
71.405 17.910299
71.410 17.953533
71.415 18.01726
71.420 18.045162
71.425 18.122589
71.430 18.079725
71.435 17.797531
71.440 17.875734
71.445 18.431969
71.450 18.59516
71.455 18.782339
71.460 18.637968
71.465 18.774288
71.470 19.203907
71.475 18.965387
71.480 18.521206
71.485 18.708986
71.490 19.13385
71.495 19.061525
71.500 18.889585
71.505 18.675852
71.510 18.589539
71.515 18.207661
71.520 18.061398
71.525 17.76466
71.530 17.548119
71.535 17.23711
71.540 16.709091
71.545 17.445412
71.550 17.980452
71.555 17.622383
71.560 17.569056
71.565 17.758102
71.570 17.716595
71.575 17.561346
71.580 17.034195
71.585 17.225172
71.590 17.599386
71.595 17.700191
71.600 17.696217
71.605 17.976763
71.610 17.873058
71.615 17.864895
71.620 17.927568
71.625 18.283487
71.630 18.445816
71.635 18.042252
71.640 17.862526
71.645 17.678673
71.650 18.225559
71.655 18.192186
71.660 17.669424
71.665 17.778135
71.670 18.224619
71.675 18.161104
71.680 18.168566
71.685 17.120821
71.690 16.963789
71.695 17.092075
71.700 17.178822
71.705 17.101593
71.710 17.055244
71.715 17.264437
71.720 17.963171
71.725 18.62784
71.730 19.056213
71.735 18.861717
71.740 19.177116
71.745 19.284828
71.750 19.100729
71.755 18.581713
71.760 17.814226
71.765 17.384991
71.770 17.370888
71.775 17.483219
71.780 17.559187
71.785 17.314295
71.790 17.546309
71.795 17.685074
71.800 17.552797
71.805 17.712158
71.810 17.477085
71.815 17.532547
71.820 17.808031
71.825 17.784338
71.830 17.731176
71.835 18.169449
71.840 18.520849
71.845 18.476994
71.850 18.830622
71.855 18.694298
71.860 18.828251
71.865 18.914085
71.870 18.350769
71.875 17.950628
71.880 17.550877
71.885 17.372046
71.890 17.396355
71.895 18.121519
71.900 18.452118
71.905 17.960386
71.910 18.155333
71.915 18.454159
71.920 18.335604
71.925 18.429192
71.930 17.993
71.935 18.236719
71.940 18.728279
71.945 18.582945
71.950 18.82184
71.955 18.59201
71.960 17.830973
71.965 17.602951
71.970 17.928572
71.975 18.146837
71.980 18.113323
71.985 18.210947
71.990 18.473118
71.995 18.496643
72.000 17.866556
72.005 17.573633
72.010 17.701376
72.015 17.505201
72.020 17.22823
72.025 17.070316
72.030 17.403366
72.035 17.412226
72.040 17.337215
72.045 16.949064
72.050 16.500647
72.055 16.636625
72.060 16.761257
72.065 17.031115
72.070 17.149719
72.075 17.127348
72.080 17.457699
72.085 17.507072
72.090 17.301762
72.095 17.196445
72.100 17.16853
72.105 16.847748
72.110 16.634811
72.115 16.49403
72.120 16.804033
72.125 16.677334
72.130 16.287943
72.135 15.973667
72.140 16.557741
72.145 16.896469
72.150 17.289749
72.155 17.724283
72.160 17.88777
72.165 18.126396
72.170 17.930117
72.175 18.015522
72.180 17.571278
72.185 16.912956
72.190 16.58919
72.195 16.473171
72.200 16.683283
72.205 17.136078
72.210 17.292871
72.215 17.738525
72.220 17.937815
72.225 18.043221
72.230 19.295734
72.235 19.428762
72.240 19.423344
72.245 19.377604
72.250 19.432228
72.255 19.254894
72.260 19.055403
72.265 18.624016
72.270 18.424742
72.275 18.759184
72.280 18.690681
72.285 18.673124
72.290 18.73959
72.295 18.850677
72.300 18.75771
72.305 18.537294
72.310 18.149281
72.315 18.286211
72.320 18.941887
72.325 18.921972
72.330 19.063318
72.335 19.703571
72.340 20.04225
72.345 19.911131
72.350 19.646318
72.355 19.383009
72.360 19.689198
72.365 18.730633
72.370 18.005941
72.375 18.301008
72.380 18.496403
72.385 18.451466
72.390 18.278315
72.395 17.800058
72.400 17.478788
72.405 17.065613
72.410 16.762676
72.415 16.513447
72.420 16.361006
72.425 16.482224
72.430 16.724554
72.435 16.949821
72.440 16.800699
72.445 16.710314
72.450 17.448961
72.455 17.906525
72.460 17.642574
72.465 17.995607
72.470 17.778864
72.475 18.180889
72.480 18.680233
72.485 18.392157
72.490 17.965111
72.495 17.754585
72.500 18.174828
72.505 18.728586
72.510 18.571993
72.515 18.132494
72.520 18.580919
72.525 19.375988
72.530 19.59391
72.535 19.19976
72.540 19.037296
72.545 18.71174
72.550 18.53195
72.555 18.00679
72.560 17.671225
72.565 17.3573
72.570 16.821342
72.575 16.559355
72.580 16.782799
72.585 16.805088
72.590 16.926277
72.595 17.164537
72.600 17.778248
72.605 18.880547
72.610 18.997683
72.615 18.752272
72.620 17.844509
72.625 17.237179
72.630 16.8298
72.635 16.360119
72.640 15.944609
72.645 16.053049
72.650 15.880822
72.655 16.082548
72.660 16.233669
72.665 16.374083
72.670 16.434187
72.675 16.475201
72.680 16.179501
72.685 16.574177
72.690 17.288412
72.695 17.163488
72.700 17.419037
72.705 17.773252
72.710 17.791115
72.715 18.012129
72.720 17.902225
72.725 17.300577
72.730 17.256615
72.735 16.678511
72.740 16.49169
72.745 15.960506
72.750 15.991415
72.755 16.752972
72.760 17.214355
72.765 17.668251
72.770 18.104122
72.775 18.528641
72.780 18.766375
72.785 18.732105
72.790 18.111498
72.795 17.838999
72.800 17.51412
72.805 17.110643
72.810 16.809496
72.815 16.70853
72.820 16.595682
72.825 16.799473
72.830 16.750023
72.835 17.080135
72.840 16.820211
72.845 16.953005
72.850 17.580498
72.855 16.965645
72.860 16.407831
72.865 16.162987
72.870 16.148106
72.875 15.930395
72.880 15.582655
72.885 15.433483
72.890 15.554697
72.895 15.862268
72.900 16.356339
72.905 16.063211
72.910 16.595137
72.915 16.572086
72.920 16.416866
72.925 16.649122
72.930 16.490351
72.935 16.177231
72.940 16.607924
72.945 16.66987
72.950 16.78734
72.955 16.797541
72.960 17.040907
72.965 16.691252
72.970 16.311216
72.975 15.604507
72.980 15.542701
72.985 15.859877
72.990 16.120758
72.995 16.462128
73.000 17.141989
