!@!!GADDS PLOTSO FILE: Chi integration type
!@!!Title/SampleName: map-d9
!@!!Comment: ?
!@!!User: Bruker Instrument Administrator
!@!!Site: University of Illinois Chicago
!@!!Frame: map-d9_01_000.gfrm
!@!!Wavelengths    1.54184   1.54056   1.54439
!@!!Frame angles: 2Theta: 63.000 Omega: 50.000 Phi: 0.000 Chi: 90.000
!@!!Integration range: 2Theta: 53.000 to 73.000  Gamma: -105.000 to -75.000
!@!!Integration method: bin normalized
!@!N
!@!SS
!@!M
!@!L 0.0 0.0 0.0 0.0
!@!XDegrees
!@!YCounts
53.000 6.740259
53.005 6.499778
53.010 6.778028
53.015 7.016432
53.020 6.938465
53.025 7.030673
53.030 7.252214
53.035 7.22001
53.040 7.529195
53.045 7.402557
53.050 7.068927
53.055 7.008057
53.060 6.873758
53.065 7.086308
53.070 7.065273
53.075 6.671505
53.080 6.789162
53.085 7.424139
53.090 7.404688
53.095 7.151466
53.100 7.282069
53.105 7.644907
53.110 8.092613
53.115 8.386776
53.120 8.307819
53.125 8.688417
53.130 8.877507
53.135 8.677413
53.140 8.706179
53.145 8.755073
53.150 8.594497
53.155 8.364579
53.160 8.025362
53.165 7.901016
53.170 7.953921
53.175 8.226142
53.180 8.263129
53.185 8.05433
53.190 8.934073
53.195 9.478625
53.200 9.555101
53.205 9.174177
53.210 8.717528
53.215 8.810005
53.220 9.406476
53.225 8.856962
53.230 8.786058
53.235 8.865294
53.240 9.035549
53.245 8.88363
53.250 8.34898
53.255 7.781688
53.260 7.916097
53.265 7.744425
53.270 7.520096
53.275 7.620811
53.280 7.851518
53.285 8.129124
53.290 8.408757
53.295 8.36551
53.300 8.956243
53.305 9.055
53.310 9.339827
53.315 9.880962
53.320 9.773916
53.325 9.569061
53.330 9.50151
53.335 8.989217
53.340 8.825725
53.345 8.548192
53.350 8.131305
53.355 7.873255
53.360 8.001849
53.365 8.162993
53.370 8.159665
53.375 8.289003
53.380 8.300238
53.385 8.357237
53.390 8.688451
53.395 8.626519
53.400 8.758225
53.405 9.173699
53.410 9.166607
53.415 8.751518
53.420 8.867132
53.425 8.683443
53.430 8.387226
53.435 8.295916
53.440 8.137613
53.445 8.501835
53.450 9.284731
53.455 9.54133
53.460 9.700801
53.465 10.036139
53.470 10.170061
53.475 10.254161
53.480 9.785282
53.485 8.706322
53.490 7.888651
53.495 7.777581
53.500 7.88816
53.505 8.071115
53.510 7.791399
53.515 7.863329
53.520 8.587442
53.525 8.651557
53.530 8.360436
53.535 8.014186
53.540 7.689375
53.545 8.106614
53.550 8.151193
53.555 7.92418
53.560 8.348933
53.565 8.606201
53.570 8.403369
53.575 8.836166
53.580 8.471225
53.585 8.973978
53.590 9.318267
53.595 9.05799
53.600 9.097104
53.605 9.261351
53.610 9.196507
53.615 9.496679
53.620 9.405662
53.625 9.737638
53.630 9.689104
53.635 9.191787
53.640 8.996012
53.645 9.089975
53.650 8.983297
53.655 8.231997
53.660 7.828859
53.665 8.128579
53.670 8.822289
53.675 8.84931
53.680 8.557297
53.685 8.827822
53.690 9.78142
53.695 10.212228
53.700 10.229707
53.705 10.359147
53.710 10.587854
53.715 10.834826
53.720 10.713418
53.725 9.914518
53.730 9.617575
53.735 9.181437
53.740 8.937618
53.745 8.759022
53.750 8.251814
53.755 8.490915
53.760 9.016718
53.765 9.169443
53.770 9.16523
53.775 9.027771
53.780 9.054008
53.785 9.009458
53.790 8.991835
53.795 8.665057
53.800 8.730083
53.805 8.71887
53.810 8.860997
53.815 9.208731
53.820 9.453805
53.825 9.939341
53.830 9.978029
53.835 10.28294
53.840 10.698251
53.845 10.326162
53.850 9.810947
53.855 9.293841
53.860 9.187078
53.865 9.63334
53.870 9.292607
53.875 8.917266
53.880 9.344084
53.885 9.551706
53.890 9.736943
53.895 9.113995
53.900 8.409893
53.905 8.468216
53.910 8.852043
53.915 8.644254
53.920 8.480271
53.925 8.396802
53.930 8.916496
53.935 8.905557
53.940 8.610056
53.945 8.487633
53.950 8.727821
53.955 9.088546
53.960 9.099353
53.965 8.857581
53.970 8.766765
53.975 8.654266
53.980 8.70563
53.985 9.17947
53.990 9.619177
53.995 9.227266
54.000 9.36053
54.005 9.880525
54.010 9.910275
54.015 9.834783
54.020 9.103914
54.025 8.716453
54.030 9.056797
54.035 9.076364
54.040 8.837543
54.045 8.948844
54.050 9.037566
54.055 8.939336
54.060 9.741895
54.065 10.424035
54.070 10.530305
54.075 10.518497
54.080 10.519361
54.085 10.647986
54.090 10.825164
54.095 10.331042
54.100 10.052161
54.105 10.111459
54.110 10.194989
54.115 10.228344
54.120 10.372232
54.125 9.954746
54.130 9.56291
54.135 9.226998
54.140 9.546875
54.145 9.579771
54.150 9.385871
54.155 9.087849
54.160 9.260891
54.165 9.914975
54.170 10.014894
54.175 9.689035
54.180 9.628438
54.185 9.593026
54.190 9.960443
54.195 10.14131
54.200 10.533123
54.205 10.498973
54.210 10.639955
54.215 10.815681
54.220 10.622865
54.225 10.423196
54.230 9.934568
54.235 9.718195
54.240 9.765078
54.245 9.503305
54.250 9.440835
54.255 9.50007
54.260 9.687957
54.265 9.607624
54.270 9.353455
54.275 9.595847
54.280 9.969218
54.285 10.074878
54.290 10.687929
54.295 10.942469
54.300 10.963572
54.305 11.361284
54.310 11.001641
54.315 10.554638
54.320 10.41826
54.325 9.804053
54.330 9.699702
54.335 9.28833
54.340 9.106163
54.345 9.3405
54.350 9.826033
54.355 9.738598
54.360 9.827419
54.365 10.0206
54.370 10.478833
54.375 10.465266
54.380 10.317227
54.385 9.997629
54.390 10.07781
54.395 9.991302
54.400 10.080416
54.405 10.587033
54.410 10.530685
54.415 10.524208
54.420 10.670877
54.425 10.877133
54.430 11.543807
54.435 11.016275
54.440 10.112564
54.445 9.973074
54.450 10.363857
54.455 10.418352
54.460 10.270571
54.465 9.69392
54.470 9.971885
54.475 10.508828
54.480 10.489047
54.485 10.642162
54.490 10.924882
54.495 10.298102
54.500 10.143107
54.505 10.553532
54.510 10.488135
54.515 10.090885
54.520 9.625364
54.525 9.786854
54.530 9.898305
54.535 9.852779
54.540 9.626307
54.545 10.175975
54.550 10.49861
54.555 10.713101
54.560 10.789162
54.565 10.782975
54.570 10.683999
54.575 10.390693
54.580 9.652032
54.585 9.542233
54.590 9.291998
54.595 9.059868
54.600 9.180921
54.605 9.233494
54.610 9.319039
54.615 9.634424
54.620 9.684307
54.625 9.379273
54.630 9.318005
54.635 9.100288
54.640 9.42407
54.645 9.676529
54.650 9.544932
54.655 9.641305
54.660 9.879643
54.665 10.291392
54.670 10.379388
54.675 10.219569
54.680 9.987422
54.685 9.929443
54.690 10.086672
54.695 10.068952
54.700 10.045063
54.705 9.95123
54.710 9.633193
54.715 9.728815
54.720 9.638824
54.725 9.788143
54.730 9.647458
54.735 9.626038
54.740 9.946766
54.745 10.178572
54.750 10.186763
54.755 9.778278
54.760 9.502405
54.765 9.387419
54.770 9.207594
54.775 9.479261
54.780 9.347337
54.785 9.979426
54.790 10.217517
54.795 10.209214
54.800 10.306007
54.805 10.104333
54.810 9.536302
54.815 9.439577
54.820 9.453352
54.825 9.558738
54.830 9.896861
54.835 10.273314
54.840 10.531932
54.845 11.124052
54.850 11.367824
54.855 11.555134
54.860 11.627333
54.865 11.312846
54.870 11.558401
54.875 11.796348
54.880 11.875638
54.885 11.619554
54.890 11.346277
54.895 11.634432
54.900 11.699963
54.905 11.039768
54.910 10.908723
54.915 10.263556
54.920 10.398403
54.925 10.580284
54.930 10.495196
54.935 10.284181
54.940 10.448572
54.945 10.681163
54.950 11.257977
54.955 11.374728
54.960 11.378668
54.965 11.096569
54.970 11.094136
54.975 11.048854
54.980 11.317879
54.985 11.118168
54.990 10.468655
54.995 10.707651
55.000 11.149265
55.005 11.32353
55.010 11.155087
55.015 10.817973
55.020 11.276928
55.025 11.600487
55.030 10.842394
55.035 10.886869
55.040 10.876892
55.045 10.997441
55.050 10.605082
55.055 10.122562
55.060 10.063106
55.065 10.417627
55.070 10.529194
55.075 10.376492
55.080 10.243669
55.085 10.448831
55.090 10.876903
55.095 11.158782
55.100 11.15357
55.105 11.166288
55.110 11.293689
55.115 11.2697
55.120 11.094929
55.125 10.853136
55.130 10.873646
55.135 10.999803
55.140 11.004198
55.145 10.994777
55.150 10.419971
55.155 9.995245
55.160 9.715473
55.165 9.260834
55.170 9.105096
55.175 8.894023
55.180 9.130919
55.185 9.931999
55.190 10.481024
55.195 10.468204
55.200 10.671796
55.205 10.690151
55.210 10.744986
55.215 10.841598
55.220 10.615677
55.225 10.322483
55.230 10.53346
55.235 10.439617
55.240 10.298432
55.245 10.583391
55.250 10.481278
55.255 10.208647
55.260 10.245527
55.265 9.957908
55.270 10.404742
55.275 10.78528
55.280 10.788407
55.285 10.963665
55.290 11.497376
55.295 11.789971
55.300 11.919561
55.305 11.18257
55.310 10.715459
55.315 10.143674
55.320 10.255579
55.325 10.496177
55.330 10.69733
55.335 11.147278
55.340 11.195444
55.345 11.429406
55.350 11.541097
55.355 11.498881
55.360 11.152669
55.365 10.942938
55.370 10.960565
55.375 11.053932
55.380 11.045824
55.385 11.272857
55.390 11.433586
55.395 11.723836
55.400 11.482942
55.405 11.148545
55.410 11.310863
55.415 11.766156
55.420 11.66258
55.425 11.634214
55.430 11.959496
55.435 12.253361
55.440 12.244406
55.445 12.494588
55.450 12.583681
55.455 12.621719
55.460 12.268118
55.465 12.063308
55.470 12.423469
55.475 12.332783
55.480 11.80739
55.485 11.266935
55.490 10.961876
55.495 11.093143
55.500 11.181923
55.505 11.827126
55.510 12.088474
55.515 12.186289
55.520 12.581086
55.525 12.748007
55.530 12.647869
55.535 11.959103
55.540 10.805802
55.545 10.71368
55.550 10.900382
55.555 11.142682
55.560 11.179191
55.565 11.237504
55.570 11.105026
55.575 11.481758
55.580 11.549235
55.585 11.48654
55.590 10.975842
55.595 10.571378
55.600 10.392768
55.605 10.408179
55.610 10.221741
55.615 10.393038
55.620 10.41655
55.625 10.360516
55.630 10.513939
55.635 11.295962
55.640 12.256023
55.645 12.231714
55.650 11.705966
55.655 11.412644
55.660 11.594383
55.665 11.544678
55.670 11.141448
55.675 10.854102
55.680 11.106339
55.685 11.494222
55.690 11.722375
55.695 11.981066
55.700 11.845098
55.705 11.94545
55.710 11.973413
55.715 12.063693
55.720 12.233122
55.725 12.553862
55.730 12.719912
55.735 12.954897
55.740 12.465031
55.745 12.064365
55.750 11.859071
55.755 11.819145
55.760 11.246045
55.765 11.191912
55.770 11.429425
55.775 11.991688
55.780 12.500238
55.785 12.777966
55.790 13.09773
55.795 12.961716
55.800 12.845851
55.805 12.56995
55.810 12.381104
55.815 12.389782
55.820 12.60901
55.825 12.7118
55.830 12.876873
55.835 13.083267
55.840 13.097555
55.845 13.071746
55.850 12.34313
55.855 11.832747
55.860 12.03252
55.865 12.221421
55.870 12.012476
55.875 12.165551
55.880 12.505551
55.885 13.129346
55.890 13.392408
55.895 13.142168
55.900 13.298565
55.905 13.361265
55.910 12.853777
55.915 12.379215
55.920 12.156592
55.925 12.319944
55.930 12.232576
55.935 12.223978
55.940 12.385201
55.945 12.919806
55.950 13.171737
55.955 12.665161
55.960 12.115597
55.965 12.31531
55.970 12.356033
55.975 12.295404
55.980 11.8628
55.985 11.753799
55.990 11.587507
55.995 11.524104
56.000 11.690336
56.005 11.358336
56.010 11.485801
56.015 11.939394
56.020 12.304116
56.025 12.370833
56.030 12.11666
56.035 12.090098
56.040 12.233477
56.045 12.659356
56.050 12.362737
56.055 12.30163
56.060 12.479404
56.065 12.447091
56.070 12.024173
56.075 12.062659
56.080 11.520142
56.085 11.225442
56.090 11.839136
56.095 12.122913
56.100 12.230444
56.105 12.623672
56.110 12.203679
56.115 12.201125
56.120 12.501566
56.125 12.435173
56.130 12.462943
56.135 12.611854
56.140 12.559107
56.145 12.510191
56.150 12.532109
56.155 12.248138
56.160 11.987073
56.165 11.449806
56.170 11.285189
56.175 11.180763
56.180 11.06479
56.185 11.181086
56.190 11.661114
56.195 11.822324
56.200 12.52164
56.205 12.715532
56.210 12.959367
56.215 13.448671
56.220 13.289114
56.225 13.251624
56.230 13.639976
56.235 13.308649
56.240 13.775066
56.245 14.347353
56.250 14.24105
56.255 14.222695
56.260 13.729899
56.265 13.485886
56.270 13.608384
56.275 13.150429
56.280 12.443651
56.285 12.32796
56.290 12.32772
56.295 12.529762
56.300 12.401468
56.305 12.292547
56.310 12.564217
56.315 12.829597
56.320 12.627031
56.325 13.08285
56.330 12.903049
56.335 12.505825
56.340 12.197512
56.345 12.18025
56.350 12.368931
56.355 12.144965
56.360 11.461805
56.365 11.957261
56.370 12.290751
56.375 11.730126
56.380 11.499613
56.385 11.373297
56.390 11.629999
56.395 11.57979
56.400 11.427243
56.405 11.666848
56.410 11.783408
56.415 11.809745
56.420 12.038003
56.425 12.415708
56.430 13.182507
56.435 12.89067
56.440 13.122923
56.445 13.856607
56.450 14.010377
56.455 13.982798
56.460 13.999323
56.465 13.687634
56.470 13.56768
56.475 13.529666
56.480 13.169471
56.485 13.289845
56.490 14.174461
56.495 14.225964
56.500 14.305821
56.505 14.635135
56.510 14.309101
56.515 14.651067
56.520 14.752448
56.525 14.544378
56.530 14.551799
56.535 14.518927
56.540 14.157548
56.545 14.078795
56.550 13.612697
56.555 13.043256
56.560 12.064982
56.565 11.680129
56.570 11.197743
56.575 12.246254
56.580 13.015041
56.585 13.661929
56.590 13.837441
56.595 14.209745
56.600 14.38707
56.605 14.384397
56.610 13.739069
56.615 13.0742
56.620 12.671223
56.625 12.167309
56.630 12.290659
56.635 12.626531
56.640 12.826431
56.645 12.223786
56.650 12.319178
56.655 12.428357
56.660 12.648697
56.665 12.250733
56.670 12.492209
56.675 12.947374
56.680 13.175041
56.685 13.413116
56.690 13.439072
56.695 13.724528
56.700 14.179363
56.705 13.906192
56.710 14.038609
56.715 14.236417
56.720 14.23581
56.725 14.162053
56.730 13.965956
56.735 13.630506
56.740 13.363718
56.745 13.018432
56.750 13.011386
56.755 12.744766
56.760 12.688808
56.765 12.349015
56.770 12.196299
56.775 12.29128
56.780 12.321776
56.785 12.130793
56.790 12.529725
56.795 12.876362
56.800 13.663115
56.805 13.8008
56.810 13.862795
56.815 13.819741
56.820 14.42498
56.825 14.634644
56.830 14.341558
56.835 13.956241
56.840 13.952682
56.845 13.857101
56.850 14.026974
56.855 13.564572
56.860 13.351027
56.865 13.475695
56.870 13.957018
56.875 13.78684
56.880 13.595516
56.885 13.528126
56.890 13.384802
56.895 13.333812
56.900 13.422861
56.905 13.248733
56.910 13.24386
56.915 13.005254
56.920 12.739712
56.925 12.938001
56.930 12.851913
56.935 12.568073
56.940 12.842568
56.945 13.063053
56.950 13.326825
56.955 13.256797
56.960 13.244021
56.965 13.269154
56.970 13.144717
56.975 12.867029
56.980 12.867534
56.985 13.244377
56.990 13.7727
56.995 13.579049
57.000 13.556195
57.005 13.593351
57.010 13.45171
57.015 13.138464
57.020 12.3017
57.025 11.952395
57.030 11.871449
57.035 11.880219
57.040 12.132137
57.045 12.638819
57.050 12.865169
57.055 13.316045
57.060 13.259399
57.065 13.512213
57.070 13.723956
57.075 13.601621
57.080 13.282402
57.085 13.430208
57.090 13.542903
57.095 13.608507
57.100 13.282139
57.105 13.187878
57.110 13.307601
57.115 14.095387
57.120 13.745998
57.125 13.558893
57.130 13.856733
57.135 13.802573
57.140 13.984779
57.145 14.220727
57.150 14.241527
57.155 14.604045
57.160 14.877976
57.165 14.737801
57.170 14.603973
57.175 14.200216
57.180 13.289362
57.185 12.522411
57.190 12.29475
57.195 12.299727
57.200 12.795592
57.205 13.307563
57.210 13.4688
57.215 13.720208
57.220 13.61887
57.225 13.612184
57.230 13.263745
57.235 13.133397
57.240 13.441096
57.245 13.77262
57.250 13.985373
57.255 14.39794
57.260 14.492034
57.265 14.958178
57.270 14.578785
57.275 14.178733
57.280 13.782243
57.285 13.721146
57.290 13.72716
57.295 13.907871
57.300 13.584978
57.305 13.489886
57.310 13.605346
57.315 14.036365
57.320 13.88947
57.325 13.614202
57.330 13.54257
57.335 13.781154
57.340 13.670437
57.345 13.328727
57.350 13.202303
57.355 13.212755
57.360 13.16929
57.365 12.824123
57.370 12.537451
57.375 13.239343
57.380 13.547626
57.385 13.621362
57.390 14.024031
57.395 14.112213
57.400 14.449732
57.405 14.594133
57.410 14.793232
57.415 14.366452
57.420 14.386211
57.425 14.61349
57.430 15.034012
57.435 15.153429
57.440 14.853418
57.445 14.657623
57.450 14.856717
57.455 14.532848
57.460 14.019074
57.465 13.889207
57.470 13.875002
57.475 14.260727
57.480 14.510969
57.485 14.903666
57.490 15.141287
57.495 15.18607
57.500 14.829594
57.505 14.900089
57.510 14.730908
57.515 14.222301
57.520 14.467547
57.525 14.737159
57.530 14.834216
57.535 14.994307
57.540 14.776977
57.545 14.681545
57.550 14.576178
57.555 14.4197
57.560 14.996041
57.565 14.920753
57.570 14.822453
57.575 14.929382
57.580 15.145773
57.585 15.258379
57.590 14.933396
57.595 14.631314
57.600 15.303717
57.605 15.764345
57.610 16.250942
57.615 16.556307
57.620 16.661432
57.625 17.033709
57.630 16.866459
57.635 16.567356
57.640 16.13652
57.645 15.075198
57.650 14.743666
57.655 14.352581
57.660 13.855289
57.665 13.885631
57.670 13.671836
57.675 14.241212
57.680 14.489382
57.685 15.013332
57.690 15.241808
57.695 15.151851
57.700 15.052247
57.705 15.122232
57.710 15.147578
57.715 15.237114
57.720 15.174943
57.725 14.648032
57.730 14.441473
57.735 14.631908
57.740 14.645151
57.745 14.243393
57.750 13.58378
57.755 13.279035
57.760 13.554291
57.765 13.575399
57.770 13.474576
57.775 13.415392
57.780 12.988281
57.785 13.078212
57.790 12.988889
57.795 13.30936
57.800 13.873268
57.805 13.609189
57.810 14.248643
57.815 15.032277
57.820 15.233953
57.825 15.372767
57.830 15.358725
57.835 14.98021
57.840 15.432033
57.845 15.757942
57.850 15.752448
57.855 15.563643
57.860 15.544445
57.865 15.505617
57.870 15.55665
57.875 14.41717
57.880 13.228854
57.885 12.820002
57.890 13.194162
57.895 13.56848
57.900 13.560744
57.905 13.586606
57.910 14.350964
57.915 14.770808
57.920 14.783721
57.925 14.145675
57.930 13.641858
57.935 13.888835
57.940 13.349783
57.945 13.367133
57.950 13.578519
57.955 13.874685
57.960 14.069424
57.965 13.740717
57.970 13.794913
57.975 14.672283
57.980 14.456144
57.985 14.17551
57.990 13.60877
57.995 13.847952
58.000 13.885521
58.005 13.999028
58.010 13.826488
58.015 14.459865
58.020 14.876301
58.025 15.48161
58.030 15.730913
58.035 16.012646
58.040 15.583999
58.045 15.337368
58.050 14.905173
58.055 15.057477
58.060 14.934809
58.065 14.871482
58.070 14.457839
58.075 14.293173
58.080 14.545552
58.085 14.467761
58.090 14.454419
58.095 14.656912
58.100 14.169877
58.105 14.095926
58.110 14.171043
58.115 13.185813
58.120 13.077801
58.125 12.755692
58.130 12.48931
58.135 12.620677
58.140 12.797318
58.145 12.855032
58.150 12.999861
58.155 13.215214
58.160 13.477668
58.165 13.796412
58.170 14.397122
58.175 14.40087
58.180 14.404418
58.185 15.075377
58.190 15.094296
58.195 14.837047
58.200 14.751773
58.205 14.584253
58.210 14.13007
58.215 13.891824
58.220 14.195581
58.225 14.360785
58.230 14.775571
58.235 14.592618
58.240 14.938199
58.245 15.112744
58.250 15.063446
58.255 14.963775
58.260 14.669673
58.265 14.867818
58.270 14.818563
58.275 14.30127
58.280 14.58077
58.285 14.843138
58.290 14.915728
58.295 14.999443
58.300 14.796434
58.305 15.318466
58.310 15.408958
58.315 15.454671
58.320 15.571239
58.325 15.615149
58.330 15.140857
58.335 15.048281
58.340 14.544307
58.345 14.766138
58.350 14.725417
58.355 14.364247
58.360 13.807991
58.365 14.383539
58.370 14.363536
58.375 14.215614
58.380 14.494259
58.385 14.857571
58.390 15.363231
58.395 15.457298
58.400 15.044605
58.405 14.804029
58.410 15.056279
58.415 15.182457
58.420 14.850126
58.425 14.403021
58.430 14.871895
58.435 15.313894
58.440 15.681628
58.445 16.00864
58.450 16.101862
58.455 16.522129
58.460 16.820807
58.465 16.332094
58.470 16.23057
58.475 15.704762
58.480 15.361795
58.485 14.826205
58.490 14.921392
58.495 15.512574
58.500 15.593999
58.505 15.873727
58.510 16.506199
58.515 16.362576
58.520 16.48201
58.525 16.158335
58.530 15.656826
58.535 15.164938
58.540 14.880029
58.545 14.559158
58.550 14.730259
58.555 14.804657
58.560 15.108287
58.565 15.964078
58.570 16.459579
58.575 16.629272
58.580 16.562077
58.585 16.283175
58.590 15.92029
58.595 16.079313
58.600 15.502336
58.605 15.434272
58.610 15.588801
58.615 15.507736
58.620 15.560612
58.625 15.745073
58.630 15.378477
58.635 15.783391
58.640 15.513463
58.645 15.887812
58.650 16.332741
58.655 17.334826
58.660 17.524277
58.665 16.789568
58.670 16.565649
58.675 16.794153
58.680 16.474348
58.685 16.615887
58.690 16.341599
58.695 16.966005
58.700 17.264423
58.705 17.080519
58.710 16.604906
58.715 15.842096
58.720 15.736261
58.725 15.407996
58.730 15.054766
58.735 14.879545
58.740 14.652127
58.745 14.919906
58.750 15.40685
58.755 14.916689
58.760 14.966467
58.765 14.878306
58.770 15.381221
58.775 15.794601
58.780 16.00004
58.785 15.610775
58.790 15.633797
58.795 15.556695
58.800 15.066278
58.805 14.526858
58.810 14.486579
58.815 14.822131
58.820 15.617986
58.825 16.125694
58.830 16.503098
58.835 16.657906
58.840 17.063282
58.845 16.946089
58.850 16.807947
58.855 16.152908
58.860 16.126713
58.865 16.331854
58.870 16.407425
58.875 16.539862
58.880 16.568779
58.885 16.2997
58.890 16.592924
58.895 16.28433
58.900 16.118713
58.905 16.236427
58.910 16.189453
58.915 16.29035
58.920 16.80307
58.925 16.6094
58.930 16.595579
58.935 16.27351
58.940 16.33992
58.945 16.500671
58.950 16.559462
58.955 16.005262
58.960 16.033108
58.965 15.392189
58.970 15.611159
58.975 15.625166
58.980 15.608096
58.985 15.832488
58.990 15.817264
58.995 16.621639
59.000 17.153284
59.005 17.735239
59.010 18.295599
59.015 18.298359
59.020 18.000824
59.025 18.225664
59.030 17.99585
59.035 18.170197
59.040 17.121437
59.045 16.591908
59.050 16.489553
59.055 16.44875
59.060 16.245041
59.065 15.846553
59.070 15.992398
59.075 16.733814
59.080 16.673347
59.085 16.674063
59.090 16.692461
59.095 17.13109
59.100 17.190622
59.105 17.06633
59.110 17.274328
59.115 16.884497
59.120 17.36364
59.125 17.339586
59.130 17.364792
59.135 17.088724
59.140 16.5784
59.145 16.400238
59.150 16.516949
59.155 15.718067
59.160 15.32244
59.165 14.871191
59.170 15.132257
59.175 15.5122
59.180 15.914456
59.185 15.97967
59.190 16.874676
59.195 17.21221
59.200 17.416779
59.205 17.06786
59.210 17.293896
59.215 16.870861
59.220 16.997999
59.225 16.279335
59.230 16.464584
59.235 16.226051
59.240 16.440805
59.245 16.078886
59.250 15.685239
59.255 15.781664
59.260 16.273285
59.265 15.941307
59.270 15.993338
59.275 16.361128
59.280 16.240677
59.285 16.742746
59.290 16.542118
59.295 16.654432
59.300 16.947216
59.305 17.242687
59.310 16.624561
59.315 16.540287
59.320 15.984955
59.325 15.738451
59.330 15.414543
59.335 15.289254
59.340 15.111938
59.345 15.362714
59.350 15.725014
59.355 16.143351
59.360 16.294876
59.365 16.742512
59.370 16.914402
59.375 17.196957
59.380 17.301792
59.385 17.757612
59.390 18.316584
59.395 18.578928
59.400 19.068354
59.405 19.154572
59.410 19.084034
59.415 18.950024
59.420 18.479986
59.425 17.901474
59.430 17.791389
59.435 16.905006
59.440 16.993536
59.445 17.150667
59.450 17.187294
59.455 17.057934
59.460 17.015074
59.465 17.051826
59.470 16.891275
59.475 16.540874
59.480 16.917841
59.485 16.903957
59.490 16.896477
59.495 16.956667
59.500 17.262609
59.505 17.737623
59.510 17.716558
59.515 17.731705
59.520 17.771122
59.525 17.444715
59.530 17.591402
59.535 17.882563
59.540 17.93656
59.545 17.813538
59.550 17.714031
59.555 18.194576
59.560 18.765841
59.565 18.634077
59.570 18.216043
59.575 17.943991
59.580 18.001833
59.585 17.80522
59.590 17.508411
59.595 17.581259
59.600 17.717033
59.605 18.030279
59.610 18.172054
59.615 18.824205
59.620 19.330458
59.625 19.290394
59.630 19.029324
59.635 18.196966
59.640 18.095276
59.645 18.15546
59.650 17.616613
59.655 17.397667
59.660 17.296894
59.665 17.241791
59.670 17.4825
59.675 18.435225
59.680 18.988554
59.685 19.483368
59.690 20.19603
59.695 20.557009
59.700 20.835657
59.705 20.901377
59.710 20.212164
59.715 19.643814
59.720 18.947218
59.725 18.384594
59.730 18.806999
59.735 19.341253
59.740 19.717415
59.745 19.84149
59.750 20.846109
59.755 21.588978
59.760 21.691986
59.765 21.542984
59.770 21.97333
59.775 22.031942
59.780 21.900108
59.785 21.407055
59.790 21.429222
59.795 21.284195
59.800 20.943666
59.805 20.173616
59.810 19.575787
59.815 19.418667
59.820 18.828856
59.825 18.3113
59.830 18.972528
59.835 19.749054
59.840 20.344904
59.845 20.601778
59.850 20.636368
59.855 20.919201
59.860 21.435598
59.865 21.384172
59.870 21.197538
59.875 21.237638
59.880 21.943302
59.885 22.294733
59.890 22.222155
59.895 22.45223
59.900 22.71537
59.905 23.01516
59.910 23.011805
59.915 22.399094
59.920 22.29847
59.925 22.126364
59.930 22.134497
59.935 21.797146
59.940 21.351923
59.945 21.466293
59.950 21.719374
59.955 21.965347
59.960 21.683847
59.965 20.963793
59.970 21.267309
59.975 21.803551
59.980 21.92094
59.985 21.335844
59.990 21.34326
59.995 21.811079
60.000 21.653725
60.005 21.013485
60.010 20.942593
60.015 20.703362
60.020 21.497972
60.025 21.271521
60.030 21.278412
60.035 21.201159
60.040 21.131067
60.045 20.707104
60.050 21.367485
60.055 21.735771
60.060 22.187925
60.065 22.290794
60.070 22.151417
60.075 22.267879
60.080 22.195736
60.085 22.179876
60.090 22.495504
60.095 22.938257
60.100 22.690819
60.105 22.954685
60.110 23.044329
60.115 23.761057
60.120 23.072012
60.125 22.072496
60.130 21.4977
60.135 21.870415
60.140 21.862431
60.145 21.674767
60.150 21.301332
60.155 21.977222
60.160 22.486729
60.165 22.665888
60.170 23.436489
60.175 23.751818
60.180 23.589792
60.185 23.58769
60.190 23.572979
60.195 23.609852
60.200 23.066593
60.205 22.425785
60.210 22.360039
60.215 22.436087
60.220 21.400204
60.225 21.036074
60.230 20.611897
60.235 20.469297
60.240 19.911974
60.245 19.962568
60.250 20.40863
60.255 21.090145
60.260 20.611549
60.265 20.983805
60.270 21.58955
60.275 21.845966
60.280 21.863632
60.285 21.489084
60.290 21.575399
60.295 21.740499
60.300 21.298872
60.305 20.926048
60.310 21.200518
60.315 21.277035
60.320 21.606125
60.325 21.830189
60.330 22.264086
60.335 22.478722
60.340 22.696459
60.345 22.75083
60.350 22.484575
60.355 22.157673
60.360 21.583019
60.365 21.231382
60.370 21.483267
60.375 21.572847
60.380 21.387402
60.385 21.730415
60.390 21.601278
60.395 21.364752
60.400 21.241867
60.405 21.212025
60.410 21.279222
60.415 21.310827
60.420 20.860201
60.425 20.748186
60.430 21.128899
60.435 20.961927
60.440 20.012096
60.445 19.383078
60.450 19.421301
60.455 19.865898
60.460 19.837423
60.465 19.526978
60.470 19.681032
60.475 20.369911
60.480 21.126289
60.485 20.715137
60.490 20.419443
60.495 20.622509
60.500 20.340784
60.505 20.678829
60.510 19.869247
60.515 18.845873
60.520 18.540766
60.525 18.692255
60.530 19.026382
60.535 19.616068
60.540 19.17271
60.545 19.548565
60.550 20.118843
60.555 20.84123
60.560 21.177359
60.565 20.824818
60.570 20.372433
60.575 20.717991
60.580 21.156574
60.585 20.735813
60.590 19.637718
60.595 19.251753
60.600 19.185965
60.605 19.136374
60.610 18.623302
60.615 17.966938
60.620 18.698475
60.625 19.087772
60.630 18.743383
60.635 18.435661
60.640 18.896978
60.645 20.137638
60.650 20.781933
60.655 20.53269
60.660 20.901693
60.665 20.863861
60.670 20.773407
60.675 20.344521
60.680 19.574217
60.685 19.459906
60.690 19.269251
60.695 19.005114
60.700 19.111917
60.705 19.335737
60.710 19.494108
60.715 19.020281
60.720 18.433666
60.725 18.332777
60.730 18.056078
60.735 18.273729
60.740 18.261442
60.745 18.258411
60.750 18.674547
60.755 18.855644
60.760 18.629093
60.765 18.768127
60.770 18.490023
60.775 18.189774
60.780 17.712086
60.785 17.513626
60.790 16.905712
60.795 16.81741
60.800 16.73863
60.805 16.405937
60.810 16.627785
60.815 16.771072
60.820 16.751209
60.825 16.774942
60.830 16.828058
60.835 17.192358
60.840 17.339241
60.845 17.314425
60.850 17.416206
60.855 17.611004
60.860 18.265059
60.865 18.607468
60.870 18.310047
60.875 18.256971
60.880 17.992723
60.885 17.738388
60.890 17.429913
60.895 17.132238
60.900 17.17901
60.905 17.411201
60.910 17.446648
60.915 16.643732
60.920 16.629202
60.925 16.84009
60.930 16.913849
60.935 17.359276
60.940 17.314928
60.945 17.29686
60.950 18.530539
60.955 18.072908
60.960 17.787455
60.965 17.669205
60.970 16.843842
60.975 16.414845
60.980 16.281502
60.985 15.763585
60.990 16.769093
60.995 17.063349
61.000 17.361317
61.005 17.798227
61.010 18.53957
61.015 18.671694
61.020 19.047031
61.025 18.456673
61.030 17.681486
61.035 17.251593
61.040 16.858334
61.045 16.810392
61.050 17.054586
61.055 16.582552
61.060 16.672449
61.065 17.12233
61.070 17.765791
61.075 17.889584
61.080 17.865028
61.085 17.983963
61.090 17.754984
61.095 18.204218
61.100 18.519497
61.105 17.630091
61.110 16.921158
61.115 16.094275
61.120 15.977826
61.125 15.989614
61.130 15.728862
61.135 15.788532
61.140 16.346241
61.145 17.167345
61.150 18.116161
61.155 18.374298
61.160 18.478056
61.165 18.219481
61.170 17.532949
61.175 17.474527
61.180 17.14382
61.185 16.846684
61.190 16.639509
61.195 16.533686
61.200 17.114126
61.205 17.861126
61.210 17.88863
61.215 17.882389
61.220 18.165956
61.225 18.586258
61.230 18.748838
61.235 18.480703
61.240 18.554281
61.245 18.222052
61.250 17.750036
61.255 17.482157
61.260 17.503504
61.265 17.8873
61.270 17.367682
61.275 17.289606
61.280 17.90415
61.285 18.237221
61.290 17.983818
61.295 17.028959
61.300 16.544991
61.305 16.83139
61.310 16.361153
61.315 16.485716
61.320 16.732578
61.325 17.066885
61.330 17.528412
61.335 17.257593
61.340 17.309177
61.345 17.287342
61.350 16.914906
61.355 17.050077
61.360 17.069752
61.365 17.325325
61.370 17.37467
61.375 16.854609
61.380 16.909321
61.385 16.83886
61.390 16.809113
61.395 16.820055
61.400 16.540649
61.405 16.903059
61.410 17.017078
61.415 16.746532
61.420 16.689564
61.425 16.030151
61.430 15.711167
61.435 15.741862
61.440 15.800149
61.445 16.164732
61.450 16.475437
61.455 16.758978
61.460 16.621986
61.465 16.391775
61.470 16.070227
61.475 15.554048
61.480 15.814756
61.485 15.86782
61.490 15.971535
61.495 16.044979
61.500 16.429167
61.505 16.845352
61.510 17.021627
61.515 16.740778
61.520 16.432081
61.525 16.341698
61.530 16.288048
61.535 16.388971
61.540 16.295898
61.545 16.671549
61.550 16.839972
61.555 17.237133
61.560 17.378279
61.565 16.995817
61.570 16.853289
61.575 16.79244
61.580 16.529243
61.585 16.798285
61.590 16.829147
61.595 17.232061
61.600 18.17942
61.605 17.796011
61.610 17.593889
61.615 17.677094
61.620 17.296099
61.625 16.827572
61.630 16.606529
61.635 16.146627
61.640 16.561708
61.645 17.092932
61.650 16.489944
61.655 16.14996
61.660 16.190212
61.665 16.439732
61.670 16.574774
61.675 16.505138
61.680 16.231791
61.685 16.312599
61.690 16.323191
61.695 16.82019
61.700 16.364523
61.705 16.075045
61.710 16.037251
61.715 16.072445
61.720 16.184879
61.725 16.045261
61.730 16.028902
61.735 15.949191
61.740 16.190914
61.745 16.588713
61.750 16.842089
61.755 17.621244
61.760 17.603909
61.765 17.392139
61.770 17.651361
61.775 17.500313
61.780 17.154102
61.785 17.269447
61.790 16.984901
61.795 17.146656
61.800 17.739922
61.805 17.631836
61.810 17.760731
61.815 17.630991
61.820 17.250559
61.825 17.296715
61.830 17.24231
61.835 16.48045
61.840 16.837547
61.845 17.463818
61.850 17.361694
61.855 17.688473
61.860 17.942476
61.865 17.974489
61.870 18.297092
61.875 18.180374
61.880 18.424454
61.885 18.658875
61.890 18.110941
61.895 17.89423
61.900 18.48171
61.905 18.395515
61.910 18.085993
61.915 17.068338
61.920 16.808828
61.925 17.246487
61.930 16.878397
61.935 16.77029
61.940 17.349478
61.945 17.822186
61.950 18.261518
61.955 18.369671
61.960 18.316198
61.965 18.499477
61.970 18.428541
61.975 18.209812
61.980 18.272039
61.985 18.008381
61.990 18.303473
61.995 18.464661
62.000 18.827839
62.005 18.560238
62.010 17.873581
62.015 17.82266
62.020 18.082098
62.025 17.506317
62.030 17.147989
62.035 16.913105
62.040 16.750439
62.045 16.937277
62.050 16.845758
62.055 17.012951
62.060 16.867594
62.065 16.548828
62.070 16.487007
62.075 16.454052
62.080 16.497665
62.085 16.270531
62.090 16.894423
62.095 17.899532
62.100 18.707218
62.105 18.888266
62.110 19.491364
62.115 19.285486
62.120 19.135277
62.125 18.73082
62.130 18.138491
62.135 17.819387
62.140 17.82527
62.145 17.462498
62.150 17.35688
62.155 17.476095
62.160 17.823099
62.165 18.204967
62.170 18.494112
62.175 18.397106
62.180 18.666637
62.185 19.156738
62.190 19.468636
62.195 18.866455
62.200 18.519117
62.205 17.881599
62.210 17.294268
62.215 17.56642
62.220 17.06065
62.225 16.732866
62.230 16.278069
62.235 16.493904
62.240 16.681032
62.245 16.949772
62.250 16.584736
62.255 16.730989
62.260 16.547226
62.265 16.743187
62.270 16.967905
62.275 17.86668
62.280 18.004824
62.285 17.48983
62.290 17.65893
62.295 18.097162
62.300 18.274475
62.305 18.06031
62.310 17.264864
62.315 17.295181
62.320 17.660381
62.325 17.225412
62.330 17.420305
62.335 17.141624
62.340 16.665892
62.345 16.702375
62.350 16.383959
62.355 16.337317
62.360 16.542427
62.365 16.2721
62.370 16.180161
62.375 16.447929
62.380 16.687057
62.385 17.153692
62.390 17.227621
62.395 17.361109
62.400 17.571922
62.405 18.060537
62.410 18.288797
62.415 18.317051
62.420 18.30611
62.425 17.852329
62.430 17.428383
62.435 17.382778
62.440 17.468216
62.445 17.405779
62.450 17.353701
62.455 17.736788
62.460 18.605001
62.465 18.930742
62.470 18.850496
62.475 18.638096
62.480 18.595915
62.485 18.391809
62.490 18.348795
62.495 17.895281
62.500 17.54217
62.505 17.325956
62.510 17.078707
62.515 17.567213
62.520 18.033714
62.525 17.938562
62.530 18.185411
62.535 18.644833
62.540 18.557028
62.545 18.862
62.550 18.46508
62.555 17.863062
62.560 17.664986
62.565 17.424324
62.570 16.777704
62.575 16.309982
62.580 16.204567
62.585 16.611292
62.590 16.824162
62.595 16.39612
62.600 16.251978
62.605 17.36417
62.610 17.679918
62.615 17.730841
62.620 17.428736
62.625 17.504627
62.630 17.955013
62.635 17.91654
62.640 17.754158
62.645 17.915958
62.650 17.499739
62.655 17.696112
62.660 17.774765
62.665 17.663525
62.670 17.552616
62.675 17.005293
62.680 17.099058
62.685 17.367189
62.690 16.893427
62.695 16.60688
62.700 16.519751
62.705 17.146301
62.710 17.503086
62.715 17.729546
62.720 17.810434
62.725 17.404793
62.730 17.810429
62.735 18.141546
62.740 18.45093
62.745 19.083948
62.750 19.048872
62.755 19.21043
62.760 19.457306
62.765 19.34853
62.770 19.637306
62.775 18.707903
62.780 17.633638
62.785 17.575914
62.790 18.040733
62.795 18.653275
62.800 18.52416
62.805 18.592463
62.810 18.82139
62.815 19.673666
62.820 20.017704
62.825 19.442942
62.830 20.076601
62.835 20.961704
62.840 21.051382
62.845 20.762337
62.850 20.312031
62.855 19.872173
62.860 19.409134
62.865 18.462976
62.870 17.524622
62.875 17.139517
62.880 17.6427
62.885 17.518984
62.890 17.499804
62.895 17.834372
62.900 18.23126
62.905 18.23036
62.910 18.102356
62.915 17.732098
62.920 17.294413
62.925 17.243017
62.930 17.294128
62.935 16.927427
62.940 16.740782
62.945 16.670893
62.950 16.513315
62.955 16.4408
62.960 16.662867
62.965 17.281607
62.970 17.255058
62.975 17.66082
62.980 18.094349
62.985 18.234728
62.990 19.052868
62.995 19.528017
63.000 19.345398
63.005 19.49194
63.010 19.331947
63.015 19.131575
63.020 19.12509
63.025 18.775236
63.030 18.19767
63.035 18.179539
63.040 17.910215
63.045 17.817677
63.050 18.111483
63.055 18.564739
63.060 18.8554
63.065 19.026194
63.070 18.500435
63.075 18.71957
63.080 18.518152
63.085 18.118029
63.090 17.839218
63.095 17.199835
63.100 16.784718
63.105 17.09712
63.110 17.201828
63.115 18.036163
63.120 18.324526
63.125 18.17346
63.130 18.214209
63.135 18.197399
63.140 18.323202
63.145 18.044352
63.150 17.653683
63.155 17.710157
63.160 17.526562
63.165 17.994766
63.170 18.181705
63.175 18.085642
63.180 18.094385
63.185 17.80657
63.190 18.176584
63.195 18.219282
63.200 17.511557
63.205 17.228706
63.210 17.275194
63.215 17.346855
63.220 17.374502
63.225 16.87244
63.230 17.138351
63.235 17.650063
63.240 17.631287
63.245 17.965536
63.250 18.401421
63.255 18.705399
63.260 19.387758
63.265 19.712229
63.270 19.438791
63.275 19.655373
63.280 19.146124
63.285 18.919647
63.290 18.572704
63.295 18.140203
63.300 17.95871
63.305 18.358971
63.310 18.454382
63.315 19.080706
63.320 19.208302
63.325 19.354664
63.330 18.74172
63.335 18.64069
63.340 18.247751
63.345 18.277008
63.350 17.32132
63.355 16.653984
63.360 16.71163
63.365 17.236801
63.370 17.397276
63.375 17.706352
63.380 17.7897
63.385 18.232512
63.390 17.954926
63.395 18.018467
63.400 17.927835
63.405 17.446836
63.410 16.959288
63.415 16.498056
63.420 16.802576
63.425 17.529453
63.430 17.748587
63.435 17.845007
63.440 18.030916
63.445 18.621283
63.450 19.648605
63.455 19.936611
63.460 19.492693
63.465 19.174583
63.470 19.384258
63.475 19.245516
63.480 18.887814
63.485 18.458
63.490 18.102005
63.495 17.955566
63.500 17.44216
63.505 17.420778
63.510 17.423988
63.515 17.375254
63.520 17.059689
63.525 17.14835
63.530 17.621002
63.535 18.28367
63.540 18.648773
63.545 18.651299
63.550 18.397152
63.555 18.324423
63.560 18.135994
63.565 17.856966
63.570 17.385769
63.575 16.840376
63.580 16.947775
63.585 16.605415
63.590 16.556847
63.595 15.902886
63.600 15.780669
63.605 15.340598
63.610 15.352435
63.615 15.185399
63.620 15.853354
63.625 16.197239
63.630 17.173426
63.635 17.345497
63.640 17.860312
63.645 17.897976
63.650 18.216219
63.655 17.850412
63.660 17.503431
63.665 17.144739
63.670 17.444374
63.675 17.976862
63.680 17.756598
63.685 17.857929
63.690 18.268028
63.695 18.068356
63.700 18.101606
63.705 18.247452
63.710 18.066874
63.715 18.448565
63.720 18.17103
63.725 17.84601
63.730 18.295559
63.735 18.783928
63.740 18.382023
63.745 18.166683
63.750 17.690594
63.755 17.211678
63.760 17.056551
63.765 16.844091
63.770 15.837933
63.775 15.737211
63.780 16.204145
63.785 16.459028
63.790 16.838339
63.795 16.884197
63.800 17.205847
63.805 17.574556
63.810 17.407564
63.815 16.830225
63.820 16.615704
63.825 16.757406
63.830 16.893999
63.835 16.584892
63.840 16.659645
63.845 16.629749
63.850 16.822855
63.855 16.581003
63.860 16.36656
63.865 16.860361
63.870 17.094446
63.875 17.245451
63.880 17.179672
63.885 17.029478
63.890 17.385647
63.895 17.362692
63.900 16.941172
63.905 16.747894
63.910 16.5406
63.915 16.350168
63.920 16.621307
63.925 16.514992
63.930 16.573778
63.935 16.863106
63.940 16.652508
63.945 17.037174
63.950 17.098293
63.955 17.474014
63.960 18.539879
63.965 18.597511
63.970 18.192314
63.975 18.494892
63.980 18.34812
63.985 18.966728
63.990 18.990013
63.995 18.750578
64.000 18.865532
64.005 19.04603
64.010 19.342314
64.015 19.577225
64.020 19.612583
64.025 19.342073
64.030 19.271893
64.035 20.09256
64.040 20.531048
64.045 20.564352
64.050 20.700935
64.055 20.575089
64.060 20.115404
64.065 19.960688
64.070 19.745388
64.075 20.064863
64.080 19.627277
64.085 19.23357
64.090 18.983232
64.095 19.25107
64.100 18.987841
64.105 18.69286
64.110 18.136789
64.115 18.521032
64.120 18.815796
64.125 18.735783
64.130 18.538286
64.135 18.661207
64.140 18.560608
64.145 18.668188
64.150 18.430489
64.155 18.525366
64.160 19.199018
64.165 19.65827
64.170 19.387699
64.175 18.998558
64.180 19.286253
64.185 19.293503
64.190 19.084272
64.195 18.61249
64.200 18.219406
64.205 18.399788
64.210 18.56012
64.215 18.299559
64.220 18.156309
64.225 18.083599
64.230 18.484371
64.235 18.443956
64.240 18.999733
64.245 18.708796
64.250 18.66753
64.255 19.115982
64.260 19.669958
64.265 19.232771
64.270 19.383421
64.275 18.67815
64.280 18.585232
64.285 18.472202
64.290 17.328074
64.295 16.751169
64.300 16.72394
64.305 16.288973
64.310 16.58062
64.315 16.984428
64.320 16.946457
64.325 17.472843
64.330 18.278704
64.335 18.773006
64.340 19.242254
64.345 19.441721
64.350 19.205818
64.355 19.482012
64.360 19.794535
64.365 19.185564
64.370 19.096376
64.375 19.284349
64.380 19.211966
64.385 19.687946
64.390 19.596611
64.395 19.048754
64.400 18.845242
64.405 18.857887
64.410 18.766224
64.415 19.305994
64.420 19.619774
64.425 20.028429
64.430 20.672796
64.435 21.098686
64.440 20.880829
64.445 20.942944
64.450 20.83054
64.455 20.360832
64.460 19.989214
64.465 20.242065
64.470 19.930407
64.475 20.32542
64.480 20.09951
64.485 19.810198
64.490 20.045641
64.495 20.61841
64.500 20.642879
64.505 20.499527
64.510 20.356066
64.515 20.453733
64.520 20.399969
64.525 20.566366
64.530 19.774424
64.535 18.914959
64.540 19.281298
64.545 19.459642
64.550 20.071379
64.555 20.040913
64.560 19.643856
64.565 19.885611
64.570 20.840721
64.575 21.116261
64.580 20.578701
64.585 19.911707
64.590 19.459349
64.595 19.712893
64.600 19.706293
64.605 19.524233
64.610 19.715168
64.615 20.348421
64.620 20.331564
64.625 20.474119
64.630 20.476053
64.635 20.380846
64.640 19.972668
64.645 19.319818
64.650 18.746469
64.655 18.836699
64.660 19.0963
64.665 19.027555
64.670 19.438358
64.675 19.39164
64.680 20.010328
64.685 20.07122
64.690 20.404049
64.695 20.429926
64.700 19.784094
64.705 19.697453
64.710 19.864418
64.715 19.993704
64.720 20.171001
64.725 19.948265
64.730 20.054056
64.735 20.648239
64.740 20.766695
64.745 21.198196
64.750 21.009373
64.755 21.048866
64.760 21.227423
64.765 21.24975
64.770 21.374891
64.775 21.377148
64.780 21.121893
64.785 20.842819
64.790 20.373432
64.795 20.435669
64.800 20.442274
64.805 20.484146
64.810 20.269836
64.815 20.700865
64.820 20.953424
64.825 21.011986
64.830 20.225872
64.835 19.594154
64.840 19.168291
64.845 18.701605
64.850 18.241673
64.855 18.081596
64.860 18.966333
64.865 19.390055
64.870 19.824404
64.875 20.455534
64.880 20.844172
64.885 20.69668
64.890 20.749615
64.895 20.343597
64.900 21.144791
64.905 21.847424
64.910 21.806019
64.915 21.910601
64.920 21.891802
64.925 21.910313
64.930 21.92721
64.935 22.2936
64.940 22.397844
64.945 22.852148
64.950 22.972515
64.955 23.246113
64.960 23.24922
64.965 23.414251
64.970 23.184299
64.975 23.197035
64.980 22.93935
64.985 22.984377
64.990 23.155483
64.995 23.611685
65.000 23.568338
65.005 23.375881
65.010 24.059635
65.015 24.297647
65.020 25.150394
65.025 25.138582
65.030 24.836994
65.035 24.723381
65.040 24.270491
65.045 23.672461
65.050 23.464731
65.055 23.131603
65.060 24.22765
65.065 24.8545
65.070 25.32061
65.075 25.398714
65.080 25.224159
65.085 25.12674
65.090 24.880566
65.095 24.234415
65.100 24.506943
65.105 24.71114
65.110 25.365433
65.115 25.672295
65.120 25.843319
65.125 25.422352
65.130 25.598219
65.135 25.351051
65.140 25.600428
65.145 25.104424
65.150 25.189358
65.155 25.178648
65.160 25.533255
65.165 25.236494
65.170 24.591833
65.175 23.809177
65.180 23.873772
65.185 23.833801
65.190 23.790213
65.195 23.349396
65.200 23.477377
65.205 24.179884
65.210 24.763161
65.215 24.7285
65.220 24.688709
65.225 24.520058
65.230 25.023483
65.235 24.755619
65.240 24.934324
65.245 24.92013
65.250 24.686068
65.255 24.533142
65.260 24.797289
65.265 24.363604
65.270 24.721718
65.275 24.631348
65.280 24.354637
65.285 24.293116
65.290 24.349745
65.295 24.785866
65.300 25.780128
65.305 25.186626
65.310 24.672035
65.315 24.852549
65.320 25.193871
65.325 25.138369
65.330 24.887079
65.335 24.277861
65.340 24.494816
65.345 24.686089
65.350 24.686069
65.355 24.351912
65.360 24.212759
65.365 24.179356
65.370 23.728823
65.375 23.746031
65.380 23.221745
65.385 22.86956
65.390 22.957941
65.395 23.110493
65.400 23.075792
65.405 23.906851
65.410 23.586466
65.415 23.616945
65.420 23.661352
65.425 23.747658
65.430 23.530012
65.435 23.642397
65.440 23.495602
65.445 23.778263
65.450 24.289797
65.455 24.516464
65.460 24.566429
65.465 24.532885
65.470 23.888557
65.475 24.149771
65.480 24.569067
65.485 24.438997
65.490 24.334049
65.495 24.465792
65.500 24.988817
65.505 25.692968
65.510 26.11257
65.515 26.312302
65.520 25.905575
65.525 26.119755
65.530 26.359585
65.535 25.953398
65.540 25.731176
65.545 26.113226
65.550 26.261623
65.555 27.235025
65.560 27.981298
65.565 28.179361
65.570 28.891768
65.575 29.48357
65.580 30.021338
65.585 30.16148
65.590 30.054153
65.595 30.041348
65.600 30.197374
65.605 30.328186
65.610 30.411673
65.615 30.650839
65.620 30.944368
65.625 31.574362
65.630 31.420441
65.635 31.758917
65.640 32.153145
65.645 32.32811
65.650 31.599867
65.655 31.600628
65.660 31.123833
65.665 31.174253
65.670 32.134022
65.675 32.492031
65.680 32.893856
65.685 33.636547
65.690 34.225082
65.695 34.538139
65.700 34.146679
65.705 33.102833
65.710 32.561218
65.715 32.723049
65.720 32.996719
65.725 33.547863
65.730 33.878624
65.735 34.15052
65.740 34.616058
65.745 34.302414
65.750 33.923912
65.755 33.78281
65.760 33.394806
65.765 34.543755
65.770 35.146019
65.775 35.449425
65.780 35.784897
65.785 36.730999
65.790 37.638229
65.795 37.278717
65.800 36.505341
65.805 36.137207
65.810 36.434296
65.815 36.804504
65.820 36.489788
65.825 35.310452
65.830 35.341057
65.835 35.840694
65.840 35.841335
65.845 35.095764
65.850 34.924614
65.855 35.171581
65.860 35.5816
65.865 36.180374
65.870 36.655136
65.875 37.332642
65.880 37.851284
65.885 38.093678
65.890 38.1157
65.895 39.007038
65.900 39.518883
65.905 39.228989
65.910 38.901997
65.915 39.103283
65.920 38.922466
65.925 38.582363
65.930 38.14732
65.935 38.15778
65.940 37.841602
65.945 38.520554
65.950 38.728577
65.955 39.108063
65.960 39.412201
65.965 38.919151
65.970 38.311981
65.975 39.065929
65.980 39.197643
65.985 39.125153
65.990 39.593864
65.995 39.100266
66.000 38.882488
66.005 38.544674
66.010 38.300259
66.015 38.107895
66.020 37.659866
66.025 36.62122
66.030 36.023022
66.035 36.420925
66.040 37.030766
66.045 36.561905
66.050 36.528538
66.055 36.839649
66.060 37.422199
66.065 38.562931
66.070 39.070297
66.075 39.515739
66.080 39.850487
66.085 39.677662
66.090 39.220947
66.095 38.873451
66.100 38.298405
66.105 37.670486
66.110 37.173782
66.115 37.506886
66.120 37.006767
66.125 36.708759
66.130 36.629509
66.135 37.247829
66.140 37.829453
66.145 37.781937
66.150 37.219547
66.155 37.411091
66.160 38.186497
66.165 38.946323
66.170 38.877625
66.175 38.086536
66.180 37.509678
66.185 37.253162
66.190 37.121078
66.195 36.607288
66.200 35.864761
66.205 35.932247
66.210 35.402374
66.215 35.237812
66.220 35.819118
66.225 35.781883
66.230 35.220394
66.235 34.776237
66.240 34.12516
66.245 34.237816
66.250 34.538399
66.255 34.298901
66.260 34.49176
66.265 35.030396
66.270 35.34864
66.275 35.91169
66.280 36.144897
66.285 36.413933
66.290 36.594109
66.295 36.815372
66.300 36.639603
66.305 35.115406
66.310 34.22406
66.315 34.345188
66.320 34.192989
66.325 33.4109
66.330 33.506798
66.335 33.726604
66.340 34.283836
66.345 33.856564
66.350 32.228191
66.355 30.977085
66.360 31.084625
66.365 30.981308
66.370 30.083843
66.375 28.833834
66.380 28.196455
66.385 28.602783
66.390 29.151394
66.395 29.118879
66.400 28.58815
66.405 29.426807
66.410 30.436819
66.415 31.012039
66.420 31.614119
66.425 31.759001
66.430 31.629166
66.435 31.244318
66.440 30.331129
66.445 29.731682
66.450 29.446754
66.455 28.566504
66.460 28.319496
66.465 28.030058
66.470 28.558949
66.475 29.603163
66.480 30.799868
66.485 31.296129
66.490 31.742319
66.495 31.782499
66.500 31.154984
66.505 30.500219
66.510 29.573719
66.515 27.911741
66.520 27.014477
66.525 26.6119
66.530 26.275894
66.535 26.639471
66.540 26.651066
66.545 26.352251
66.550 26.824257
66.555 27.595339
66.560 27.690748
66.565 27.328289
66.570 27.167376
66.575 26.905655
66.580 27.298729
66.585 27.099518
66.590 26.612774
66.595 26.7334
66.600 26.688513
66.605 26.533522
66.610 26.551317
66.615 26.875463
66.620 26.467447
66.625 25.500643
66.630 25.365501
66.635 25.408207
66.640 25.521299
66.645 25.160681
66.650 24.903152
66.655 25.155746
66.660 25.762106
66.665 26.042946
66.670 26.331659
66.675 25.985138
66.680 26.048075
66.685 25.963268
66.690 25.638721
66.695 25.420109
66.700 24.861609
66.705 24.308464
66.710 24.359055
66.715 24.390127
66.720 24.609592
66.725 24.772963
66.730 24.271345
66.735 24.22406
66.740 24.603914
66.745 24.96249
66.750 25.194971
66.755 24.8486
66.760 25.378807
66.765 26.087648
66.770 26.025547
66.775 26.021112
66.780 26.055918
66.785 25.876123
66.790 25.719158
66.795 24.63789
66.800 24.25456
66.805 24.684835
66.810 24.590679
66.815 24.445805
66.820 23.950771
66.825 24.323746
66.830 24.517218
66.835 23.804106
66.840 23.406139
66.845 23.158459
66.850 23.025059
66.855 22.672638
66.860 22.044708
66.865 22.242521
66.870 22.623135
66.875 21.970047
66.880 21.92868
66.885 20.931759
66.890 21.094572
66.895 20.487373
66.900 19.967039
66.905 20.082634
66.910 20.71685
66.915 21.018463
66.920 21.420231
66.925 21.219093
66.930 21.960375
66.935 22.493345
66.940 21.885029
66.945 21.408789
66.950 21.766283
66.955 22.770386
66.960 23.573275
66.965 23.810045
66.970 23.349586
66.975 23.481186
66.980 23.930929
66.985 23.612549
66.990 23.083017
66.995 22.831911
67.000 23.075182
67.005 23.473484
67.010 23.558622
67.015 23.518702
67.020 23.202921
67.025 22.796711
67.030 22.398258
67.035 22.627123
67.040 22.670065
67.045 22.837267
67.050 23.129335
67.055 23.40081
67.060 23.458218
67.065 23.174019
67.070 22.548836
67.075 22.038059
67.080 21.439102
67.085 21.168064
67.090 21.028036
67.095 20.943264
67.100 20.911079
67.105 21.034359
67.110 21.654377
67.115 22.379044
67.120 22.02216
67.125 22.04369
67.130 22.281082
67.135 22.250935
67.140 22.545574
67.145 22.082304
67.150 21.728489
67.155 21.99827
67.160 22.413218
67.165 22.704853
67.170 22.744568
67.175 22.501497
67.180 22.397808
67.185 22.003265
67.190 22.475126
67.195 21.978645
67.200 21.661911
67.205 21.466846
67.210 21.894053
67.215 22.199766
67.220 22.548834
67.225 22.136379
67.230 22.284912
67.235 22.203835
67.240 22.002859
67.245 21.322233
67.250 20.36813
67.255 19.569647
67.260 19.217451
67.265 19.279005
67.270 19.762409
67.275 20.391079
67.280 20.364775
67.285 21.174059
67.290 21.233419
67.295 21.113918
67.300 20.974581
67.305 21.291296
67.310 21.37228
67.315 21.772888
67.320 21.742025
67.325 22.382664
67.330 22.956169
67.335 23.001368
67.340 22.6751
67.345 22.062132
67.350 22.249258
67.355 22.739349
67.360 22.589087
67.365 22.462276
67.370 22.518099
67.375 22.523174
67.380 23.459578
67.385 23.242083
67.390 23.024179
67.395 23.108135
67.400 22.951429
67.405 22.527895
67.410 22.200338
67.415 21.066929
67.420 20.527927
67.425 20.402567
67.430 20.239038
67.435 20.395967
67.440 20.815388
67.445 21.099834
67.450 21.650311
67.455 21.896502
67.460 21.856426
67.465 21.730198
67.470 21.78599
67.475 21.340136
67.480 21.189312
67.485 21.283854
67.490 21.614979
67.495 21.566711
67.500 21.84355
67.505 21.566734
67.510 22.218851
67.515 22.381742
67.520 22.261631
67.525 22.107687
67.530 22.224051
67.535 22.421871
67.540 22.374489
67.545 22.429432
67.550 21.856842
67.555 21.696869
67.560 22.183384
67.565 22.184191
67.570 21.427855
67.575 20.879374
67.580 20.712767
67.585 21.302393
67.590 21.593576
67.595 21.267944
67.600 21.723003
67.605 22.02656
67.610 22.637901
67.615 22.648058
67.620 22.816349
67.625 23.174528
67.630 23.340673
67.635 23.329136
67.640 23.086756
67.645 22.492659
67.650 22.342363
67.655 22.57748
67.660 22.379229
67.665 22.284756
67.670 22.194975
67.675 22.852489
67.680 23.200941
67.685 23.085224
67.690 22.805939
67.695 22.652073
67.700 22.091455
67.705 21.958202
67.710 21.640781
67.715 21.371401
67.720 21.211479
67.725 21.033659
67.730 21.217186
67.735 21.804611
67.740 21.477142
67.745 21.155403
67.750 21.015903
67.755 21.184607
67.760 21.446196
67.765 21.118288
67.770 21.005398
67.775 20.900568
67.780 20.925663
67.785 20.728027
67.790 20.678305
67.795 20.295725
67.800 19.913031
67.805 19.997902
67.810 20.337284
67.815 21.005611
67.820 21.726849
67.825 22.080767
67.830 22.51767
67.835 22.696272
67.840 22.906908
67.845 23.13172
67.850 23.1485
67.855 22.470648
67.860 21.698168
67.865 21.658186
67.870 21.993195
67.875 21.751043
67.880 21.526957
67.885 21.80707
67.890 22.288528
67.895 22.51878
67.900 22.315659
67.905 22.02037
67.910 21.693857
67.915 21.576401
67.920 21.013552
67.925 21.101852
67.930 21.146544
67.935 21.017008
67.940 21.569601
67.945 21.674385
67.950 21.601818
67.955 21.664894
67.960 21.405384
67.965 21.36404
67.970 20.730608
67.975 20.517832
67.980 20.789585
67.985 21.075033
67.990 21.413839
67.995 21.291975
68.000 21.233711
68.005 21.606749
68.010 21.873632
68.015 21.847036
68.020 22.024385
68.025 22.151806
68.030 22.619173
68.035 22.573547
68.040 22.082581
68.045 21.735863
68.050 22.04043
68.055 22.340691
68.060 22.215141
68.065 21.758375
68.070 22.304453
68.075 22.906551
68.080 22.827103
68.085 22.183039
68.090 21.452078
68.095 21.523336
68.100 21.416409
68.105 21.440762
68.110 20.88348
68.115 20.93605
68.120 21.060654
68.125 20.954161
68.130 20.922934
68.135 20.744644
68.140 20.475777
68.145 20.890429
68.150 21.058016
68.155 21.077715
68.160 20.839548
68.165 20.811298
68.170 21.055538
68.175 21.613487
68.180 21.408754
68.185 21.112082
68.190 20.973433
68.195 20.689667
68.200 20.743416
68.205 20.776945
68.210 20.069687
68.215 20.143673
68.220 20.582983
68.225 21.006132
68.230 21.117632
68.235 20.653605
68.240 20.573954
68.245 20.963316
68.250 21.192961
68.255 20.713839
68.260 19.96138
68.265 20.206484
68.270 20.653725
68.275 20.636208
68.280 20.645342
68.285 20.626867
68.290 21.161957
68.295 21.568115
68.300 21.663074
68.305 21.31851
68.310 21.212803
68.315 21.058064
68.320 21.057861
68.325 21.032642
68.330 20.894493
68.335 20.832485
68.340 21.046474
68.345 20.743416
68.350 20.724615
68.355 20.723963
68.360 20.510931
68.365 20.607773
68.370 20.44264
68.375 20.53961
68.380 20.306303
68.385 20.593906
68.390 20.558477
68.395 20.940861
68.400 21.119078
68.405 21.735811
68.410 22.241261
68.415 22.267925
68.420 22.339329
68.425 22.277756
68.430 22.624088
68.435 22.622547
68.440 22.718382
68.445 22.227503
68.450 22.556541
68.455 22.392691
68.460 22.472551
68.465 22.695776
68.470 22.827682
68.475 22.824242
68.480 22.934309
68.485 22.507776
68.490 22.153955
68.495 21.979609
68.500 21.981861
68.505 21.873857
68.510 21.668947
68.515 21.858696
68.520 22.656986
68.525 22.254572
68.530 21.691521
68.535 20.752975
68.540 20.465012
68.545 20.167692
68.550 19.889688
68.555 19.634439
68.560 20.345171
68.565 20.646692
68.570 21.040108
68.575 21.225651
68.580 21.678299
68.585 22.100595
68.590 21.906281
68.595 21.257702
68.600 20.763037
68.605 20.8155
68.610 21.272329
68.615 21.129042
68.620 21.098118
68.625 21.664211
68.630 21.423126
68.635 22.395775
68.640 22.243031
68.645 21.801174
68.650 21.675545
68.655 21.403952
68.660 21.579105
68.665 22.436092
68.670 21.95204
68.675 22.345163
68.680 22.380232
68.685 22.511541
68.690 22.210377
68.695 21.7724
68.700 21.633373
68.705 21.690746
68.710 21.50423
68.715 21.489511
68.720 21.918716
68.725 22.439589
68.730 23.287252
68.735 23.438791
68.740 23.375631
68.745 23.361973
68.750 23.338554
68.755 23.35021
68.760 23.398386
68.765 22.948956
68.770 23.449038
68.775 24.014696
68.780 24.084375
68.785 23.695887
68.790 23.26692
68.795 23.111168
68.800 23.46129
68.805 23.409372
68.810 23.447193
68.815 23.457336
68.820 23.47888
68.825 24.190981
68.830 23.964098
68.835 23.528582
68.840 23.259848
68.845 23.140997
68.850 22.573936
68.855 23.098232
68.860 22.892473
68.865 22.695547
68.870 22.650352
68.875 22.446312
68.880 22.308372
68.885 23.102192
68.890 22.593281
68.895 22.627312
68.900 22.971653
68.905 23.350645
68.910 23.827868
68.915 24.41848
68.920 24.397028
68.925 24.312441
68.930 24.547508
68.935 24.457327
68.940 23.775137
68.945 23.313795
68.950 22.643385
68.955 22.613585
68.960 23.284063
68.965 23.312679
68.970 23.447134
68.975 23.863424
68.980 23.720547
68.985 24.051699
68.990 23.930042
68.995 23.365688
69.000 23.115499
69.005 23.72039
69.010 24.460579
69.015 25.153435
69.020 25.1618
69.025 24.634409
69.030 25.12158
69.035 25.565067
69.040 25.050812
69.045 24.942852
69.050 24.931742
69.055 25.628803
69.060 26.664711
69.065 26.813627
69.070 27.081213
69.075 27.581955
69.080 26.721548
69.085 26.638317
69.090 26.433071
69.095 25.71027
69.100 25.976967
69.105 25.619919
69.110 25.595667
69.115 25.851809
69.120 25.152216
69.125 25.417721
69.130 25.965427
69.135 25.67551
69.140 26.364714
69.145 26.974072
69.150 27.424433
69.155 28.010139
69.160 27.678165
69.165 27.1322
69.170 27.110266
69.175 25.93375
69.180 25.707157
69.185 26.336033
69.190 26.949383
69.195 27.016981
69.200 26.991873
69.205 27.505373
69.210 28.019974
69.215 27.519089
69.220 26.723454
69.225 25.901741
69.230 26.031765
69.235 26.212458
69.240 25.516092
69.245 24.815434
69.250 25.416464
69.255 25.456573
69.260 25.824116
69.265 26.008596
69.270 26.211744
69.275 26.786133
69.280 27.373154
69.285 27.377052
69.290 28.015429
69.295 27.929354
69.300 28.008837
69.305 28.199957
69.310 28.379189
69.315 28.473696
69.320 28.36998
69.325 27.908476
69.330 28.038996
69.335 27.460657
69.340 26.759703
69.345 26.466673
69.350 26.979374
69.355 27.527657
69.360 27.821255
69.365 27.962898
69.370 28.397516
69.375 28.448227
69.380 28.265936
69.385 27.006025
69.390 26.517656
69.395 26.67359
69.400 26.515444
69.405 26.603922
69.410 26.65279
69.415 28.173328
69.420 28.46093
69.425 28.417828
69.430 28.900311
69.435 29.842506
69.440 30.270206
69.445 30.758682
69.450 30.357361
69.455 31.101345
69.460 30.530264
69.465 29.718393
69.470 29.571053
69.475 29.503517
69.480 29.457676
69.485 29.756992
69.490 29.610033
69.495 30.394438
69.500 30.514282
69.505 29.773808
69.510 29.455547
69.515 29.052893
69.520 28.410936
69.525 28.616774
69.530 29.001764
69.535 29.044107
69.540 29.585833
69.545 30.012018
69.550 30.186205
69.555 30.516083
69.560 30.345194
69.565 29.808651
69.570 29.926727
69.575 29.542425
69.580 29.391769
69.585 29.173738
69.590 28.453596
69.595 28.106943
69.600 28.021
69.605 27.851112
69.610 27.494808
69.615 27.640381
69.620 27.105396
69.625 27.167824
69.630 27.762465
69.635 27.547779
69.640 27.56057
69.645 28.109907
69.650 27.762318
69.655 28.299997
69.660 28.530201
69.665 28.126568
69.670 28.134346
69.675 27.949152
69.680 27.594442
69.685 27.710442
69.690 27.465183
69.695 28.188229
69.700 28.786915
69.705 28.836473
69.710 29.187513
69.715 29.239414
69.720 28.935547
69.725 28.489328
69.730 27.942518
69.735 27.919361
69.740 28.049648
69.745 28.519001
69.750 28.781532
69.755 28.923508
69.760 29.693171
69.765 29.701727
69.770 29.214508
69.775 29.407598
69.780 29.279547
69.785 29.257109
69.790 29.201204
69.795 29.028748
69.800 28.749283
69.805 28.861868
69.810 27.735739
69.815 27.096676
69.820 26.909683
69.825 26.661404
69.830 26.878004
69.835 26.840357
69.840 26.298815
69.845 26.347675
69.850 26.205875
69.855 26.827383
69.860 26.611818
69.865 26.165369
69.870 25.974237
69.875 26.881834
69.880 27.099806
69.885 27.801186
69.890 27.708994
69.895 26.531652
69.900 25.88751
69.905 25.78249
69.910 25.702606
69.915 25.523348
69.920 24.78936
69.925 24.342999
69.930 24.819042
69.935 25.091631
69.940 24.830868
69.945 24.378893
69.950 24.285686
69.955 24.45653
69.960 24.464796
69.965 24.28627
69.970 23.463081
69.975 23.17584
69.980 22.944
69.985 22.946985
69.990 22.678505
69.995 22.728474
70.000 23.383802
70.005 23.615837
70.010 23.68574
70.015 23.713724
70.020 23.378389
70.025 23.452305
70.030 23.395954
70.035 23.603952
70.040 23.669012
70.045 23.730032
70.050 23.206757
70.055 22.874344
70.060 22.370838
70.065 22.475815
70.070 22.396578
70.075 22.469221
70.080 22.054104
70.085 21.879751
70.090 21.690268
70.095 21.435053
70.100 20.817793
70.105 20.758503
70.110 20.490246
70.115 20.972775
70.120 20.606951
70.125 21.458525
70.130 21.823673
70.135 21.718903
70.140 21.511856
70.145 21.928165
70.150 22.326859
70.155 23.155701
70.160 23.088305
70.165 22.517235
70.170 22.075436
70.175 21.413372
70.180 20.790789
70.185 20.913668
70.190 20.577276
70.195 20.671137
70.200 21.470341
70.205 21.985401
70.210 23.103632
70.215 23.400158
70.220 23.173174
70.225 23.01746
70.230 22.634624
70.235 22.105923
70.240 21.677708
70.245 21.316271
70.250 21.137676
70.255 21.595179
70.260 22.218134
70.265 22.849905
70.270 23.028673
70.275 22.940348
70.280 22.504885
70.285 22.418169
70.290 21.431496
70.295 20.874487
70.300 20.897329
70.305 20.975546
70.310 20.866116
70.315 20.971449
70.320 20.958838
70.325 21.092333
70.330 20.593893
70.335 19.503014
70.340 18.951143
70.345 19.240719
70.350 19.323559
70.355 19.243738
70.360 19.962502
70.365 20.360727
70.370 20.881592
70.375 20.944086
70.380 20.722099
70.385 20.768478
70.390 20.277006
70.395 19.759178
70.400 19.961937
70.405 20.063505
70.410 20.04554
70.415 20.003799
70.420 19.743019
70.425 19.969366
70.430 19.826538
70.435 19.295542
70.440 18.874151
70.445 18.641775
70.450 19.24725
70.455 19.379408
70.460 19.199554
70.465 19.092672
70.470 19.515844
70.475 19.774164
70.480 20.023806
70.485 19.564205
70.490 19.493963
70.495 20.291918
70.500 20.507648
70.505 20.680021
70.510 21.205524
70.515 20.81428
70.520 21.398508
70.525 21.193007
70.530 20.942141
70.535 20.634499
70.540 20.42782
70.545 20.408871
70.550 20.702095
70.555 20.646769
70.560 20.709505
70.565 21.069485
70.570 20.929594
70.575 20.696321
70.580 20.386343
70.585 20.543068
70.590 20.124092
70.595 19.929245
70.600 20.124645
70.605 20.448168
70.610 20.711258
70.615 20.934916
70.620 20.433537
70.625 20.216137
70.630 19.393494
70.635 19.120239
70.640 18.84383
70.645 18.591139
70.650 18.706589
70.655 19.721495
70.660 20.460852
70.665 21.37005
70.670 21.471128
70.675 21.779669
70.680 22.088398
70.685 22.018318
70.690 21.055784
70.695 20.397413
70.700 20.115753
70.705 20.604031
70.710 20.410427
70.715 19.843412
70.720 19.379988
70.725 19.622719
70.730 20.114567
70.735 19.696899
70.740 18.641245
70.745 18.511076
70.750 18.324596
70.755 17.872414
70.760 17.233406
70.765 16.886478
70.770 16.943937
70.775 17.557594
70.780 17.51383
70.785 18.330873
70.790 19.031458
70.795 18.763966
70.800 18.651016
70.805 18.329443
70.810 18.224117
70.815 18.089561
70.820 18.838797
70.825 18.685122
70.830 19.289068
70.835 19.224848
70.840 19.197861
70.845 18.974239
70.850 19.231018
70.855 18.581001
70.860 18.303728
70.865 18.514027
70.870 18.43321
70.875 18.659487
70.880 18.642891
70.885 18.113676
70.890 18.186016
70.895 19.172146
70.900 19.263521
70.905 19.640696
70.910 19.954542
70.915 19.805374
70.920 19.854086
70.925 19.758018
70.930 19.279043
70.935 19.28936
70.940 18.946934
70.945 18.605696
70.950 18.843641
70.955 19.203373
70.960 19.1803
70.965 19.064711
70.970 19.329636
70.975 19.502882
70.980 19.712467
70.985 19.504128
70.990 19.111509
70.995 19.094069
71.000 19.198494
71.005 18.841249
71.010 19.289576
71.015 19.401413
71.020 19.262669
71.025 19.573925
71.030 19.903353
71.035 20.21287
71.040 20.990635
71.045 20.313431
71.050 20.073662
71.055 19.964642
71.060 19.603668
71.065 19.371666
71.070 19.138327
71.075 18.602772
71.080 18.553675
71.085 18.600626
71.090 19.232204
71.095 19.814486
71.100 19.490417
71.105 19.418362
71.110 19.681801
71.115 20.210451
71.120 20.052006
71.125 19.366634
71.130 19.34461
71.135 19.551388
71.140 19.527496
71.145 19.283997
71.150 18.891441
71.155 19.01782
71.160 19.258566
71.165 19.303925
71.170 19.088152
71.175 19.254173
71.180 19.508774
71.185 19.355713
71.190 19.155632
71.195 19.060465
71.200 18.902151
71.205 18.858208
71.210 18.423212
71.215 18.394697
71.220 18.546589
71.225 18.614317
71.230 18.304342
71.235 18.107492
71.240 18.326763
71.245 18.720936
71.250 19.032944
71.255 19.452856
71.260 19.089415
71.265 19.334757
71.270 20.002127
71.275 19.964823
71.280 19.562387
71.285 19.256294
71.290 19.017736
71.295 19.275455
71.300 18.353807
71.305 17.205912
71.310 17.024679
71.315 16.926109
71.320 17.362076
71.325 17.697559
71.330 17.784452
71.335 18.555122
71.340 19.145775
71.345 19.346701
71.350 19.159864
71.355 18.419834
71.360 18.233099
71.365 18.569437
71.370 18.510633
71.375 18.373552
71.380 17.981787
71.385 18.468893
71.390 19.0453
71.395 19.553303
71.400 19.770323
71.405 19.654526
71.410 20.454344
71.415 20.269814
71.420 19.866995
71.425 19.437962
71.430 18.474133
71.435 18.058727
71.440 17.599106
71.445 17.311846
71.450 17.903421
71.455 18.35257
71.460 18.382395
71.465 18.731516
71.470 19.196596
71.475 19.722126
71.480 19.77887
71.485 19.509117
71.490 19.526773
71.495 20.014835
71.500 20.706154
71.505 20.225893
71.510 19.501581
71.515 19.9503
71.520 19.882885
71.525 19.360113
71.530 18.760443
71.535 18.439749
71.540 18.383358
71.545 18.907587
71.550 18.489399
71.555 18.546959
71.560 19.245766
71.565 19.290985
71.570 19.168489
71.575 18.902887
71.580 18.456659
71.585 18.797178
71.590 18.895185
71.595 19.029037
71.600 19.138819
71.605 18.902603
71.610 19.178869
71.615 19.011017
71.620 18.702158
71.625 18.718195
71.630 19.106306
71.635 19.351524
71.640 19.706453
71.645 19.731188
71.650 20.058851
71.655 19.904049
71.660 19.458662
71.665 18.770168
71.670 19.227806
71.675 19.735531
71.680 20.169615
71.685 20.055872
71.690 20.165737
71.695 20.409847
71.700 20.44294
71.705 20.466955
71.710 20.288813
71.715 20.148218
71.720 20.20689
71.725 19.975458
71.730 20.096077
71.735 19.842258
71.740 19.467642
71.745 19.731983
71.750 19.439068
71.755 19.907757
71.760 19.482479
71.765 19.630993
71.770 19.60998
71.775 18.893251
71.780 18.535288
71.785 18.710253
71.790 18.840981
71.795 18.592209
71.800 17.902037
71.805 18.491585
71.810 19.383398
71.815 19.47986
71.820 19.315342
71.825 18.982004
71.830 19.061413
71.835 18.716763
71.840 18.732141
71.845 18.309244
71.850 17.985723
71.855 17.778442
71.860 17.801497
71.865 18.043819
71.870 18.199957
71.875 18.443935
71.880 19.360409
71.885 20.646467
71.890 21.004683
71.895 21.47612
71.900 21.445246
71.905 21.107489
71.910 20.196978
71.915 19.040691
71.920 18.242939
71.925 17.981987
71.930 17.716585
71.935 17.835783
71.940 17.725681
71.945 18.083998
71.950 17.985928
71.955 18.251272
71.960 18.232653
71.965 18.126057
71.970 18.711813
71.975 18.82081
71.980 18.767252
71.985 19.03842
71.990 18.965046
71.995 18.76989
72.000 18.411222
72.005 18.329632
72.010 17.790859
72.015 17.537241
72.020 17.602707
72.025 17.329327
72.030 17.20516
72.035 17.105986
72.040 16.69763
72.045 16.828648
72.050 16.607077
72.055 16.714382
72.060 17.572369
72.065 17.921122
72.070 17.72064
72.075 17.913437
72.080 19.272501
72.085 19.643085
72.090 19.370676
72.095 18.961866
72.100 19.425247
72.105 19.876936
72.110 20.178307
72.115 19.489496
72.120 19.515074
72.125 19.717621
72.130 19.726299
72.135 20.168371
72.140 19.903543
72.145 19.17116
72.150 18.575487
72.155 18.142721
72.160 18.601603
72.165 18.515793
72.170 17.342749
72.175 17.310442
72.180 17.572689
72.185 17.572767
72.190 16.992844
72.195 16.429537
72.200 16.650696
72.205 17.297541
72.210 17.660337
72.215 18.660904
72.220 19.157711
72.225 19.767235
72.230 20.080242
72.235 20.108427
72.240 19.825466
72.245 19.585772
72.250 19.256287
72.255 18.936428
72.260 18.490236
72.265 18.598194
72.270 18.828863
72.275 19.475409
72.280 19.689611
72.285 20.413187
72.290 20.90308
72.295 21.174061
72.300 21.200233
72.305 20.719341
72.310 20.191637
72.315 20.140093
72.320 19.563393
72.325 19.56283
72.330 19.308008
72.335 18.888857
72.340 18.928616
72.345 19.031567
72.350 19.162975
72.355 19.317125
72.360 18.485628
72.365 18.753323
72.370 18.781179
72.375 18.79813
72.380 18.412416
72.385 18.287394
72.390 18.267645
72.395 18.468773
72.400 18.598204
72.405 18.734241
72.410 18.653105
72.415 19.200657
72.420 18.977043
72.425 19.244499
72.430 19.706285
72.435 20.032904
72.440 19.885374
72.445 19.713625
72.450 19.226564
72.455 19.054525
72.460 19.399498
72.465 18.764112
72.470 18.277842
72.475 18.330009
72.480 18.119967
72.485 18.460009
72.490 18.471254
72.495 17.769516
72.500 18.108198
72.505 17.849176
72.510 18.121881
72.515 18.265831
72.520 18.274378
72.525 18.155672
72.530 18.636534
72.535 18.81016
72.540 19.080257
72.545 18.6604
72.550 18.976875
72.555 19.181255
72.560 19.138046
72.565 18.63475
72.570 18.509321
72.575 18.500031
72.580 18.881651
72.585 18.445297
72.590 18.685423
72.595 18.87273
72.600 19.135487
72.605 19.545214
72.610 19.337221
72.615 19.060152
72.620 18.731079
72.625 18.821682
72.630 18.294857
72.635 18.046104
72.640 18.002602
72.645 18.138672
72.650 18.330956
72.655 17.833879
72.660 17.385397
72.665 17.792591
72.670 18.151104
72.675 17.701126
72.680 17.534685
72.685 17.774166
72.690 17.899569
72.695 18.243614
72.700 18.450914
72.705 18.084717
72.710 18.316946
72.715 18.698437
72.720 18.849495
72.725 19.492762
72.730 19.464724
72.735 19.653206
72.740 20.553925
72.745 20.613892
72.750 20.134487
72.755 19.268679
72.760 18.813166
72.765 17.87299
72.770 17.26454
72.775 16.545456
72.780 15.821175
72.785 16.04093
72.790 16.282431
72.795 15.798985
72.800 16.04623
72.805 15.600632
72.810 16.090403
72.815 17.008339
72.820 16.836916
72.825 17.72118
72.830 18.182026
72.835 19.018238
72.840 19.455692
72.845 18.747007
72.850 18.514309
72.855 17.664751
72.860 16.606703
72.865 16.260572
72.870 15.673758
72.875 16.511173
72.880 16.903652
72.885 17.447796
72.890 17.922613
72.895 17.958344
72.900 18.459932
72.905 18.019291
72.910 17.269642
72.915 17.258915
72.920 16.996084
72.925 17.321747
72.930 17.302868
72.935 17.432737
72.940 17.706326
72.945 17.689816
72.950 17.291016
72.955 16.640512
72.960 16.168312
72.965 16.032024
72.970 15.748836
72.975 15.903431
72.980 16.006336
72.985 16.030504
72.990 16.357479
72.995 16.322777
73.000 16.591743
