!@!!GADDS PLOTSO FILE: Chi integration type
!@!!Title/SampleName: map-77
!@!!Comment: ?
!@!!User: Bruker Instrument Administrator
!@!!Site: University of Illinois Chicago
!@!!Frame: map-77_01_000.gfrm
!@!!Wavelengths    1.54184   1.54056   1.54439
!@!!Frame angles: 2Theta: 63.000 Omega: 50.000 Phi: 0.000 Chi: 90.000
!@!!Integration range: 2Theta: 53.000 to 73.000  Gamma: -105.000 to -75.000
!@!!Integration method: bin normalized
!@!N
!@!SS
!@!M
!@!L 0.0 0.0 0.0 0.0
!@!XDegrees
!@!YCounts
53.000 8.133539
53.005 8.34818
53.010 8.360546
53.015 9.253226
53.020 9.364927
53.025 9.536989
53.030 9.548036
53.035 9.544113
53.040 9.820136
53.045 9.74137
53.050 9.029118
53.055 8.809167
53.060 8.303288
53.065 7.967326
53.070 7.428835
53.075 6.93201
53.080 6.942769
53.085 6.929515
53.090 6.900539
53.095 7.419181
53.100 7.887441
53.105 8.281848
53.110 8.495843
53.115 8.92002
53.120 9.255049
53.125 9.462311
53.130 9.494962
53.135 9.307528
53.140 9.036372
53.145 8.667977
53.150 8.354642
53.155 8.391802
53.160 8.33125
53.165 8.100866
53.170 7.992206
53.175 8.295122
53.180 8.375957
53.185 8.467984
53.190 8.442171
53.195 8.657815
53.200 9.106995
53.205 9.643044
53.210 9.602298
53.215 9.956766
53.220 10.007236
53.225 9.84648
53.230 9.323436
53.235 9.163301
53.240 8.952827
53.245 8.849163
53.250 9.022787
53.255 8.983324
53.260 8.875739
53.265 8.840748
53.270 8.413683
53.275 8.236202
53.280 7.884643
53.285 7.596709
53.290 7.286963
53.295 7.358153
53.300 7.536228
53.305 7.743485
53.310 7.927708
53.315 7.904361
53.320 7.961269
53.325 8.140165
53.330 8.083038
53.335 8.193954
53.340 8.515301
53.345 8.755681
53.350 8.879695
53.355 8.807006
53.360 9.401041
53.365 9.853739
53.370 9.689198
53.375 9.354003
53.380 9.349135
53.385 9.57512
53.390 9.846903
53.395 9.51585
53.400 9.394039
53.405 9.833715
53.410 9.957186
53.415 9.53198
53.420 9.195891
53.425 8.717281
53.430 8.439498
53.435 8.071862
53.440 7.676582
53.445 7.916474
53.450 8.363241
53.455 8.210991
53.460 8.343897
53.465 8.380744
53.470 8.144161
53.475 8.258763
53.480 8.103504
53.485 7.90713
53.490 7.911736
53.495 7.901085
53.500 8.067904
53.505 8.40891
53.510 8.684351
53.515 9.077972
53.520 9.378035
53.525 9.402658
53.530 9.716523
53.535 10.061382
53.540 9.583807
53.545 9.144757
53.550 9.186657
53.555 9.30542
53.560 9.137186
53.565 8.598552
53.570 8.45565
53.575 9.224376
53.580 9.269158
53.585 8.944832
53.590 9.243393
53.595 9.641152
53.600 10.092899
53.605 9.797308
53.610 9.363156
53.615 9.451291
53.620 9.606614
53.625 9.785168
53.630 10.042569
53.635 10.155583
53.640 10.191358
53.645 9.986778
53.650 9.793991
53.655 9.25759
53.660 8.960903
53.665 8.493346
53.670 8.139194
53.675 8.208258
53.680 8.271927
53.685 8.457745
53.690 8.608594
53.695 8.530102
53.700 8.831306
53.705 9.220432
53.710 9.343259
53.715 9.399884
53.720 9.209687
53.725 9.387173
53.730 9.206585
53.735 8.789753
53.740 8.593446
53.745 8.499894
53.750 8.217956
53.755 8.702971
53.760 9.109252
53.765 9.589578
53.770 9.962067
53.775 9.85732
53.780 10.079215
53.785 10.256794
53.790 9.927709
53.795 9.475959
53.800 9.305855
53.805 9.192338
53.810 8.852357
53.815 8.646567
53.820 8.662784
53.825 9.194546
53.830 9.227453
53.835 8.961763
53.840 9.425888
53.845 9.807388
53.850 9.793989
53.855 9.405543
53.860 8.852717
53.865 8.857265
53.870 8.797035
53.875 8.661366
53.880 8.902407
53.885 9.057421
53.890 9.271195
53.895 9.58571
53.900 9.876265
53.905 10.004477
53.910 9.917437
53.915 9.863096
53.920 10.23704
53.925 10.137523
53.930 9.790197
53.935 9.621544
53.940 9.697739
53.945 9.781263
53.950 9.892204
53.955 9.661695
53.960 9.66319
53.965 9.972217
53.970 10.17402
53.975 10.210281
53.980 10.063281
53.985 9.650248
53.990 9.135546
53.995 8.944377
54.000 8.778546
54.005 8.728633
54.010 8.604354
54.015 8.748186
54.020 8.972822
54.025 9.617213
54.030 9.737807
54.035 9.952646
54.040 9.703463
54.045 9.582758
54.050 9.362784
54.055 9.16361
54.060 9.119351
54.065 9.452508
54.070 9.557491
54.075 9.887931
54.080 10.233382
54.085 10.526124
54.090 10.484766
54.095 10.027422
54.100 9.653905
54.105 9.645483
54.110 9.250694
54.115 9.318149
54.120 9.198845
54.125 9.163276
54.130 9.610614
54.135 9.519088
54.140 9.487241
54.145 9.66153
54.150 9.36273
54.155 9.567133
54.160 9.814284
54.165 10.14815
54.170 10.386774
54.175 10.414041
54.180 10.552029
54.185 10.520411
54.190 10.475412
54.195 10.587345
54.200 10.294966
54.205 10.013886
54.210 9.800065
54.215 9.681392
54.220 10.086633
54.225 9.905685
54.230 9.515014
54.235 9.817172
54.240 10.076985
54.245 10.210533
54.250 10.307766
54.255 9.974483
54.260 9.968253
54.265 9.910823
54.270 9.751096
54.275 9.794972
54.280 10.067801
54.285 10.172105
54.290 10.675703
54.295 10.941397
54.300 11.472057
54.305 11.688978
54.310 11.588356
54.315 11.497955
54.320 11.302677
54.325 11.007981
54.330 11.062151
54.335 11.13901
54.340 10.739766
54.345 10.393892
54.350 10.715431
54.355 10.788173
54.360 10.758012
54.365 10.423162
54.370 10.395337
54.375 10.798163
54.380 10.951084
54.385 10.655804
54.390 10.724167
54.395 11.300995
54.400 10.955403
54.405 10.565751
54.410 10.14089
54.415 10.143753
54.420 10.056767
54.425 9.728339
54.430 9.184621
54.435 9.485682
54.440 9.221952
54.445 9.04428
54.450 8.840621
54.455 9.101169
54.460 9.455635
54.465 8.954114
54.470 9.112304
54.475 9.533473
54.480 9.698668
54.485 9.649529
54.490 9.014388
54.495 8.495283
54.500 8.693499
54.505 8.121231
54.510 8.213329
54.515 8.250689
54.520 8.662459
54.525 9.123543
54.530 9.214499
54.535 9.44536
54.540 10.047397
54.545 9.811269
54.550 9.694866
54.555 9.632107
54.560 10.176277
54.565 10.618711
54.570 10.156054
54.575 9.652651
54.580 9.43067
54.585 9.617447
54.590 9.480907
54.595 9.206786
54.600 8.876619
54.605 9.015766
54.610 9.422353
54.615 9.678686
54.620 9.458055
54.625 9.554449
54.630 9.519292
54.635 9.576324
54.640 9.574672
54.645 9.186045
54.650 8.939278
54.655 9.027273
54.660 8.861111
54.665 8.744746
54.670 9.025908
54.675 8.892294
54.680 9.222862
54.685 9.552616
54.690 9.880001
54.695 10.14029
54.700 10.114382
54.705 10.045835
54.710 10.292203
54.715 10.132386
54.720 9.751714
54.725 9.240557
54.730 9.063808
54.735 9.23895
54.740 9.381703
54.745 9.531077
54.750 9.620646
54.755 10.177608
54.760 10.112157
54.765 10.115537
54.770 10.179623
54.775 9.99109
54.780 9.899975
54.785 10.127364
54.790 9.773472
54.795 10.036104
54.800 10.505962
54.805 10.401525
54.810 10.706351
54.815 10.489001
54.820 10.359569
54.825 10.713329
54.830 11.172154
54.835 11.182342
54.840 10.871226
54.845 11.164344
54.850 11.365278
54.855 11.273277
54.860 11.088238
54.865 10.521634
54.870 10.235049
54.875 10.466399
54.880 10.233529
54.885 10.303858
54.890 10.298344
54.895 9.871257
54.900 10.065234
54.905 10.019971
54.910 9.657516
54.915 9.54597
54.920 9.897099
54.925 10.38594
54.930 10.856394
54.935 10.955968
54.940 11.111388
54.945 11.697099
54.950 11.892195
54.955 11.790453
54.960 11.983038
54.965 11.864481
54.970 11.654677
54.975 11.62254
54.980 11.162724
54.985 10.879915
54.990 10.649645
54.995 10.312904
55.000 10.20948
55.005 10.107963
55.010 10.195093
55.015 10.151635
55.020 9.929175
55.025 9.730378
55.030 9.600646
55.035 9.463642
55.040 9.556964
55.045 9.627461
55.050 9.716132
55.055 10.036065
55.060 10.284279
55.065 10.317654
55.070 10.542162
55.075 10.825966
55.080 10.901757
55.085 11.109494
55.090 11.082347
55.095 10.885048
55.100 11.121699
55.105 11.221639
55.110 10.856886
55.115 10.330089
55.120 10.525298
55.125 10.684594
55.130 10.602786
55.135 10.836186
55.140 10.490609
55.145 10.768188
55.150 10.57443
55.155 9.9158
55.160 9.344755
55.165 9.517667
55.170 9.630001
55.175 9.808329
55.180 9.914768
55.185 10.539501
55.190 11.022037
55.195 11.434541
55.200 11.122912
55.205 10.905087
55.210 10.916046
55.215 10.728369
55.220 10.600696
55.225 10.609819
55.230 10.352122
55.235 10.216423
55.240 10.105022
55.245 10.226823
55.250 10.618132
55.255 10.608894
55.260 9.997
55.265 10.415614
55.270 10.727461
55.275 11.02974
55.280 11.104061
55.285 10.854496
55.290 10.917883
55.295 10.941836
55.300 10.616739
55.305 10.635498
55.310 10.32586
55.315 10.161141
55.320 10.164586
55.325 10.565616
55.330 11.133007
55.335 11.322317
55.340 11.173926
55.345 11.038202
55.350 11.422116
55.355 11.687511
55.360 11.532593
55.365 10.952731
55.370 11.010859
55.375 11.18793
55.380 11.254281
55.385 10.703219
55.390 10.442784
55.395 10.694493
55.400 10.841247
55.405 10.865849
55.410 10.936013
55.415 11.366158
55.420 11.826486
55.425 11.810923
55.430 11.56213
55.435 10.976187
55.440 10.704077
55.445 10.616847
55.450 9.751212
55.455 9.720293
55.460 9.443645
55.465 9.869222
55.470 10.206638
55.475 9.746084
55.480 10.174391
55.485 10.74282
55.490 11.046021
55.495 11.24021
55.500 11.143738
55.505 11.729781
55.510 12.177974
55.515 11.750093
55.520 11.561416
55.525 11.343825
55.530 11.003238
55.535 11.110579
55.540 10.766126
55.545 9.959007
55.550 10.143927
55.555 9.878141
55.560 9.608225
55.565 9.789652
55.570 9.60366
55.575 10.207234
55.580 10.627213
55.585 10.622284
55.590 10.989802
55.595 11.031074
55.600 10.40147
55.605 9.983182
55.610 9.927117
55.615 9.90116
55.620 9.921268
55.625 9.593022
55.630 10.337556
55.635 10.977018
55.640 11.332561
55.645 11.606812
55.650 12.098432
55.655 12.015102
55.660 12.253895
55.665 11.616947
55.670 11.823131
55.675 11.28498
55.680 11.104091
55.685 11.210185
55.690 11.22216
55.695 11.079498
55.700 10.965701
55.705 10.652924
55.710 11.090203
55.715 10.835664
55.720 11.014658
55.725 11.698131
55.730 11.566509
55.735 11.261338
55.740 11.491179
55.745 11.500361
55.750 11.531643
55.755 10.782232
55.760 10.252867
55.765 10.826649
55.770 11.699409
55.775 11.866282
55.780 11.770458
55.785 11.482679
55.790 11.601461
55.795 11.441017
55.800 11.114361
55.805 10.519972
55.810 10.49434
55.815 10.989102
55.820 11.401179
55.825 11.858756
55.830 11.756774
55.835 12.141459
55.840 12.682479
55.845 12.526011
55.850 12.115221
55.855 11.722631
55.860 11.650741
55.865 12.03275
55.870 11.543525
55.875 11.032148
55.880 11.620305
55.885 11.86186
55.890 11.906592
55.895 11.682382
55.900 11.370395
55.905 11.361281
55.910 11.414056
55.915 10.714577
55.920 10.479695
55.925 10.661729
55.930 10.926924
55.935 11.441409
55.940 12.11892
55.945 12.535477
55.950 13.021039
55.955 13.577098
55.960 13.409385
55.965 12.763099
55.970 12.623108
55.975 12.617671
55.980 12.421849
55.985 12.038604
55.990 11.521996
55.995 11.293156
56.000 11.37198
56.005 11.119272
56.010 10.757881
56.015 10.661195
56.020 10.54754
56.025 10.917685
56.030 11.405892
56.035 11.57886
56.040 11.630404
56.045 11.36694
56.050 11.289107
56.055 11.418161
56.060 11.224145
56.065 11.27845
56.070 10.960752
56.075 11.114002
56.080 11.397274
56.085 11.34184
56.090 11.8329
56.095 12.721952
56.100 13.308239
56.105 14.011859
56.110 13.885291
56.115 13.88407
56.120 14.10428
56.125 13.729379
56.130 12.875096
56.135 12.298251
56.140 11.588969
56.145 11.965205
56.150 12.275812
56.155 12.469312
56.160 12.322995
56.165 12.722066
56.170 13.25979
56.175 13.185997
56.180 12.701687
56.185 12.568623
56.190 12.417555
56.195 12.385097
56.200 12.30147
56.205 12.013945
56.210 11.837932
56.215 11.832095
56.220 11.972175
56.225 12.463573
56.230 12.601601
56.235 12.628272
56.240 13.064913
56.245 13.656418
56.250 14.572662
56.255 14.096076
56.260 13.734387
56.265 13.45342
56.270 12.959166
56.275 12.513969
56.280 11.910304
56.285 11.185249
56.290 11.497569
56.295 12.01279
56.300 11.94241
56.305 12.017502
56.310 12.394135
56.315 12.634965
56.320 12.589661
56.325 12.064436
56.330 11.921308
56.335 12.323366
56.340 12.517546
56.345 12.633565
56.350 12.418917
56.355 12.138505
56.360 12.365284
56.365 12.241639
56.370 12.062561
56.375 11.768316
56.380 11.653607
56.385 11.644585
56.390 11.532262
56.395 11.326952
56.400 11.348275
56.405 11.673485
56.410 11.847791
56.415 11.703994
56.420 11.887921
56.425 12.095286
56.430 12.570348
56.435 12.429253
56.440 12.180521
56.445 12.012272
56.450 12.138212
56.455 12.044043
56.460 11.861718
56.465 11.439766
56.470 11.450442
56.475 11.496839
56.480 11.827497
56.485 12.059151
56.490 12.45668
56.495 12.61725
56.500 12.443002
56.505 12.729641
56.510 13.036609
56.515 12.720872
56.520 12.422542
56.525 12.173382
56.530 11.933815
56.535 11.947414
56.540 11.900121
56.545 11.687871
56.550 11.817342
56.555 12.153521
56.560 12.122715
56.565 12.309781
56.570 12.45242
56.575 12.538719
56.580 12.835038
56.585 12.534839
56.590 12.223631
56.595 12.476804
56.600 12.996832
56.605 12.727165
56.610 11.949021
56.615 12.252731
56.620 12.662739
56.625 12.403855
56.630 12.489692
56.635 11.717983
56.640 11.824993
56.645 12.121363
56.650 11.605896
56.655 11.733232
56.660 12.010537
56.665 11.736906
56.670 11.910161
56.675 12.204836
56.680 12.994055
56.685 13.192006
56.690 12.672298
56.695 13.129496
56.700 13.702628
56.705 14.130582
56.710 13.875202
56.715 13.140879
56.720 13.293596
56.725 13.566455
56.730 13.564359
56.735 13.373578
56.740 13.336373
56.745 13.136314
56.750 13.366207
56.755 13.506755
56.760 13.574235
56.765 13.288292
56.770 13.340998
56.775 13.312782
56.780 13.668284
56.785 13.763611
56.790 13.525198
56.795 13.496083
56.800 13.65273
56.805 13.66859
56.810 13.42551
56.815 13.402575
56.820 13.098577
56.825 13.510618
56.830 13.780449
56.835 13.598295
56.840 13.623617
56.845 13.525178
56.850 13.046545
56.855 13.297626
56.860 13.140964
56.865 12.825482
56.870 12.941891
56.875 13.152717
56.880 13.822564
56.885 14.048836
56.890 13.359654
56.895 12.926289
56.900 12.981544
56.905 12.511176
56.910 12.176947
56.915 11.963261
56.920 11.699227
56.925 11.811255
56.930 12.035738
56.935 12.095847
56.940 12.609953
56.945 13.364303
56.950 13.521873
56.955 13.991632
56.960 14.575687
56.965 14.782631
56.970 14.618418
56.975 14.428994
56.980 13.210826
56.985 13.079116
56.990 12.804873
56.995 12.078115
57.000 11.978272
57.005 12.13321
57.010 11.802482
57.015 12.393806
57.020 12.600043
57.025 12.696372
57.030 12.825945
57.035 12.709427
57.040 12.874903
57.045 13.109118
57.050 12.99117
57.055 12.30436
57.060 11.672579
57.065 11.8006
57.070 12.22072
57.075 12.776829
57.080 13.16146
57.085 13.845153
57.090 14.580518
57.095 15.215108
57.100 15.166701
57.105 14.677754
57.110 14.192778
57.115 14.183586
57.120 13.505186
57.125 13.884188
57.130 13.930251
57.135 14.222644
57.140 14.261955
57.145 14.094953
57.150 13.528371
57.155 13.451176
57.160 13.065349
57.165 12.889958
57.170 13.278126
57.175 13.391388
57.180 13.134678
57.185 13.080695
57.190 13.104048
57.195 13.138366
57.200 13.062778
57.205 12.540073
57.210 12.751015
57.215 12.729108
57.220 12.912898
57.225 12.718966
57.230 12.518355
57.235 12.378513
57.240 12.494767
57.245 12.379793
57.250 12.576569
57.255 12.350351
57.260 12.149223
57.265 12.687769
57.270 12.832658
57.275 12.307624
57.280 12.309041
57.285 12.28777
57.290 12.465821
57.295 13.055327
57.300 12.88111
57.305 12.869819
57.310 13.034769
57.315 13.079265
57.320 13.60524
57.325 13.761444
57.330 13.315243
57.335 13.084695
57.340 13.402141
57.345 13.959595
57.350 14.559027
57.355 14.13341
57.360 14.057355
57.365 14.837088
57.370 15.071524
57.375 14.853517
57.380 14.206065
57.385 13.969753
57.390 13.925036
57.395 14.195618
57.400 14.209149
57.405 14.185998
57.410 14.24239
57.415 14.254341
57.420 13.914021
57.425 14.405729
57.430 13.866181
57.435 13.307648
57.440 13.296196
57.445 13.478213
57.450 13.946193
57.455 14.263063
57.460 14.057336
57.465 14.057109
57.470 14.261158
57.475 13.972587
57.480 14.07423
57.485 13.80841
57.490 13.755921
57.495 13.76808
57.500 14.040877
57.505 14.691191
57.510 14.869835
57.515 14.914227
57.520 14.753857
57.525 14.795335
57.530 14.877554
57.535 14.607408
57.540 13.973323
57.545 13.888939
57.550 14.168979
57.555 14.377535
57.560 14.508361
57.565 14.738661
57.570 14.972358
57.575 14.807702
57.580 14.913163
57.585 14.606255
57.590 14.823723
57.595 14.939496
57.600 14.579038
57.605 14.68762
57.610 14.895243
57.615 14.535743
57.620 14.645389
57.625 14.332057
57.630 13.846113
57.635 13.911954
57.640 13.591976
57.645 13.629493
57.650 13.700508
57.655 13.329545
57.660 12.916368
57.665 13.071798
57.670 12.846822
57.675 12.671178
57.680 12.674318
57.685 12.623406
57.690 13.092453
57.695 13.862905
57.700 13.997329
57.705 14.075397
57.710 14.421704
57.715 15.01088
57.720 15.817995
57.725 15.711555
57.730 15.348281
57.735 15.316061
57.740 15.100184
57.745 14.629866
57.750 13.980726
57.755 13.409931
57.760 13.39799
57.765 13.228799
57.770 12.950818
57.775 13.335982
57.780 13.958834
57.785 14.230585
57.790 13.884584
57.795 13.88468
57.800 14.263174
57.805 15.086353
57.810 15.308661
57.815 14.654404
57.820 14.263613
57.825 14.488527
57.830 14.254696
57.835 13.754528
57.840 12.850571
57.845 12.641246
57.850 13.149126
57.855 13.782476
57.860 13.865966
57.865 13.991763
57.870 13.773337
57.875 13.890725
57.880 13.47266
57.885 13.163517
57.890 12.712426
57.895 12.754546
57.900 12.544515
57.905 12.410577
57.910 12.647264
57.915 13.254773
57.920 12.994254
57.925 13.600768
57.930 14.067601
57.935 14.730022
57.940 15.325316
57.945 15.099496
57.950 14.909319
57.955 14.967845
57.960 14.567661
57.965 14.202627
57.970 13.833774
57.975 13.722438
57.980 13.758947
57.985 13.969486
57.990 13.884272
57.995 13.999424
58.000 14.175981
58.005 14.219032
58.010 14.304891
58.015 14.50226
58.020 14.347372
58.025 14.469037
58.030 14.651745
58.035 14.766484
58.040 15.46029
58.045 15.583418
58.050 15.217674
58.055 15.554563
58.060 15.486259
58.065 15.164083
58.070 15.14725
58.075 15.209188
58.080 15.132769
58.085 15.456774
58.090 15.391351
58.095 15.465747
58.100 15.416807
58.105 15.222466
58.110 14.267965
58.115 14.438766
58.120 14.259444
58.125 14.278749
58.130 13.826064
58.135 13.507331
58.140 13.804226
58.145 14.232092
58.150 14.240667
58.155 14.209423
58.160 13.943127
58.165 14.3381
58.170 14.499346
58.175 14.251365
58.180 14.053319
58.185 13.51989
58.190 13.50688
58.195 13.671257
58.200 13.91898
58.205 13.880108
58.210 14.190187
58.215 14.34852
58.220 14.536442
58.225 14.39136
58.230 14.117706
58.235 13.752382
58.240 13.917933
58.245 13.287508
58.250 12.994423
58.255 12.94259
58.260 12.909005
58.265 12.890397
58.270 13.076361
58.275 12.772079
58.280 13.405798
58.285 14.30631
58.290 14.751631
58.295 15.060329
58.300 15.021548
58.305 14.900223
58.310 15.260416
58.315 15.012295
58.320 14.46467
58.325 14.671049
58.330 14.424587
58.335 14.548366
58.340 14.333572
58.345 14.717148
58.350 15.195292
58.355 14.77386
58.360 14.40824
58.365 14.761745
58.370 14.883674
58.375 14.821716
58.380 14.102592
58.385 13.451062
58.390 13.463538
58.395 13.004074
58.400 12.600778
58.405 13.097538
58.410 13.608013
58.415 13.854608
58.420 14.290149
58.425 14.546679
58.430 15.235424
58.435 15.734449
58.440 15.136616
58.445 14.99609
58.450 14.968821
58.455 14.858925
58.460 14.8833
58.465 14.961027
58.470 14.915424
58.475 14.694949
58.480 14.682301
58.485 14.878613
58.490 14.870418
58.495 14.679677
58.500 14.528439
58.505 14.317191
58.510 14.324606
58.515 14.041938
58.520 13.565897
58.525 13.454346
58.530 13.477459
58.535 13.086072
58.540 12.953749
58.545 13.004766
58.550 13.115464
58.555 13.685806
58.560 13.903245
58.565 14.205652
58.570 14.4401
58.575 14.896006
58.580 15.01894
58.585 15.208477
58.590 14.626665
58.595 14.029947
58.600 14.079957
58.605 14.123939
58.610 14.220621
58.615 14.204594
58.620 14.380075
58.625 14.540705
58.630 15.223684
58.635 14.911737
58.640 14.790299
58.645 14.548925
58.650 14.82384
58.655 14.570115
58.660 15.409107
58.665 15.214531
58.670 14.975419
58.675 14.849944
58.680 14.844537
58.685 14.980773
58.690 15.514987
58.695 15.638252
58.700 16.173098
58.705 16.411674
58.710 16.450935
58.715 16.252249
58.720 16.140894
58.725 15.962257
58.730 14.951295
58.735 14.46755
58.740 14.801589
58.745 14.398566
58.750 14.299061
58.755 13.664909
58.760 13.394623
58.765 13.557531
58.770 13.414677
58.775 13.103505
58.780 13.768245
58.785 13.645619
58.790 13.702987
58.795 13.479476
58.800 13.699076
58.805 14.091627
58.810 14.243036
58.815 13.964764
58.820 14.003004
58.825 13.8955
58.830 13.918585
58.835 14.224064
58.840 14.128776
58.845 13.966663
58.850 13.795453
58.855 14.183592
58.860 14.735202
58.865 14.791043
58.870 14.563389
58.875 14.160302
58.880 14.012994
58.885 13.997362
58.890 13.941716
58.895 14.047621
58.900 14.115675
58.905 14.418039
58.910 15.143792
58.915 15.526013
58.920 15.58676
58.925 15.413188
58.930 15.152942
58.935 15.013874
58.940 14.481468
58.945 14.305297
58.950 14.410755
58.955 14.358557
58.960 14.312039
58.965 14.332857
58.970 14.632537
58.975 14.856991
58.980 15.018703
58.985 14.876547
58.990 15.118038
58.995 15.294001
59.000 14.98379
59.005 14.717866
59.010 14.309195
59.015 14.307079
59.020 14.953144
59.025 14.864116
59.030 14.982045
59.035 14.958602
59.040 14.880297
59.045 15.353999
59.050 14.889262
59.055 14.64521
59.060 14.286217
59.065 14.006593
59.070 14.632879
59.075 14.747111
59.080 14.718121
59.085 14.549147
59.090 14.549455
59.095 15.009106
59.100 15.552873
59.105 15.525808
59.110 15.622287
59.115 15.149375
59.120 15.368507
59.125 15.756713
59.130 15.711953
59.135 15.356024
59.140 14.829642
59.145 14.738966
59.150 14.805717
59.155 14.528782
59.160 14.060209
59.165 14.375617
59.170 14.093292
59.175 14.698497
59.180 14.74955
59.185 15.032021
59.190 15.16364
59.195 15.077237
59.200 14.775867
59.205 14.92784
59.210 15.064253
59.215 15.566369
59.220 15.771391
59.225 15.980924
59.230 15.721408
59.235 15.770685
59.240 15.865974
59.245 15.743783
59.250 15.670326
59.255 15.251637
59.260 15.264931
59.265 15.547615
59.270 15.441987
59.275 15.344354
59.280 15.738177
59.285 16.115204
59.290 16.30271
59.295 16.673328
59.300 16.562485
59.305 17.150822
59.310 17.303972
59.315 16.771849
59.320 16.601995
59.325 16.209002
59.330 15.859111
59.335 16.059669
59.340 15.579938
59.345 15.600601
59.350 15.701019
59.355 15.56421
59.360 15.676126
59.365 15.107522
59.370 15.132813
59.375 15.538013
59.380 14.997097
59.385 14.63054
59.390 15.224988
59.395 15.817505
59.400 16.049553
59.405 15.6539
59.410 16.021931
59.415 16.979639
59.420 17.46343
59.425 17.157675
59.430 17.489786
59.435 17.878525
59.440 18.219172
59.445 17.633535
59.450 16.78116
59.455 16.593863
59.460 17.121634
59.465 17.035469
59.470 17.151752
59.475 16.881907
59.480 17.25444
59.485 17.630846
59.490 17.577452
59.495 17.586031
59.500 17.449961
59.505 17.176914
59.510 17.301052
59.515 16.898624
59.520 17.062197
59.525 16.869125
59.530 15.935143
59.535 15.57845
59.540 15.52307
59.545 15.307957
59.550 14.868677
59.555 14.767811
59.560 14.27829
59.565 14.763454
59.570 15.257017
59.575 15.043207
59.580 15.301447
59.585 15.401255
59.590 15.609711
59.595 16.174906
59.600 15.874307
59.605 16.643133
59.610 16.85199
59.615 17.161287
59.620 17.662481
59.625 17.856136
59.630 18.722143
59.635 18.952305
59.640 18.397985
59.645 18.891327
59.650 18.898769
59.655 18.968521
59.660 19.081057
59.665 18.757786
59.670 18.316971
59.675 18.534338
59.680 18.325516
59.685 18.11455
59.690 17.880299
59.695 17.608885
59.700 18.108252
59.705 18.313332
59.710 18.339424
59.715 17.966938
59.720 18.161425
59.725 18.661386
59.730 18.814014
59.735 18.978319
59.740 19.030701
59.745 19.316828
59.750 20.120842
59.755 20.37005
59.760 20.405748
59.765 20.650816
59.770 20.40481
59.775 20.589264
59.780 20.805
59.785 20.951187
59.790 20.944431
59.795 20.69722
59.800 19.95919
59.805 19.31283
59.810 19.522406
59.815 19.766132
59.820 19.776663
59.825 19.249575
59.830 18.569145
59.835 18.706013
59.840 18.641491
59.845 18.264503
59.850 17.6297
59.855 17.50271
59.860 17.404356
59.865 17.855879
59.870 18.145012
59.875 18.725613
59.880 18.84671
59.885 18.739315
59.890 18.456194
59.895 18.821491
59.900 19.783619
59.905 20.152029
59.910 19.540777
59.915 19.580513
59.920 19.803209
59.925 19.86587
59.930 20.367289
59.935 20.191751
59.940 20.117033
59.945 20.236526
59.950 20.146404
59.955 20.058783
59.960 19.866838
59.965 19.669245
59.970 19.637003
59.975 19.660362
59.980 20.414417
59.985 20.798286
59.990 21.271957
59.995 21.403549
60.000 20.807104
60.005 20.458967
60.010 20.594639
60.015 20.796837
60.020 20.909712
60.025 20.819229
60.030 21.204372
60.035 21.658621
60.040 22.098328
60.045 22.531319
60.050 22.580389
60.055 22.288618
60.060 21.983347
60.065 21.304901
60.070 20.30233
60.075 19.912632
60.080 19.449358
60.085 19.57099
60.090 19.735355
60.095 19.678514
60.100 20.273073
60.105 21.033854
60.110 21.453947
60.115 21.442284
60.120 21.194551
60.125 20.914965
60.130 21.209986
60.135 21.27721
60.140 21.324579
60.145 21.401278
60.150 21.819569
60.155 21.676435
60.160 21.518717
60.165 21.03911
60.170 20.645935
60.175 20.647938
60.180 20.345823
60.185 20.058958
60.190 20.157856
60.195 20.637054
60.200 21.474501
60.205 22.05002
60.210 21.792168
60.215 21.440504
60.220 21.3957
60.225 21.944178
60.230 22.388607
60.235 22.249399
60.240 22.157335
60.245 22.888683
60.250 23.333509
60.255 23.254532
60.260 22.776241
60.265 22.468464
60.270 22.39119
60.275 22.148151
60.280 22.225855
60.285 22.366976
60.290 22.141464
60.295 21.867876
60.300 21.394985
60.305 20.905928
60.310 20.709543
60.315 20.284197
60.320 20.121769
60.325 20.142862
60.330 20.259357
60.335 20.998692
60.340 21.460836
60.345 21.732
60.350 21.616392
60.355 21.526512
60.360 20.601536
60.365 19.841349
60.370 19.153872
60.375 18.804001
60.380 18.800453
60.385 18.935709
60.390 19.177662
60.395 19.834318
60.400 20.438431
60.405 21.105749
60.410 20.833416
60.415 20.119526
60.420 19.709024
60.425 19.509218
60.430 19.437054
60.435 19.428366
60.440 19.360987
60.445 19.573816
60.450 19.679506
60.455 19.689238
60.460 19.631102
60.465 20.18902
60.470 20.204414
60.475 19.958292
60.480 20.551336
60.485 20.667667
60.490 20.25786
60.495 19.86227
60.500 19.161261
60.505 19.210781
60.510 18.950197
60.515 18.926073
60.520 18.613358
60.525 18.51112
60.530 18.807796
60.535 18.989962
60.540 18.598732
60.545 18.832405
60.550 18.275385
60.555 18.783318
60.560 19.319654
60.565 19.400383
60.570 19.705084
60.575 20.06963
60.580 19.820356
60.585 19.434946
60.590 19.258892
60.595 19.598083
60.600 19.401072
60.605 19.327885
60.610 19.308205
60.615 19.70355
60.620 20.30245
60.625 20.944599
60.630 20.574043
60.635 20.820395
60.640 20.359165
60.645 20.384075
60.650 20.903511
60.655 20.136114
60.660 19.405487
60.665 19.079268
60.670 18.780195
60.675 18.465063
60.680 17.848902
60.685 17.04689
60.690 17.419456
60.695 17.221779
60.700 17.219778
60.705 17.4266
60.710 17.778912
60.715 18.014996
60.720 18.245396
60.725 18.234547
60.730 18.591394
60.735 18.883982
60.740 18.819279
60.745 18.710356
60.750 18.477819
60.755 18.372482
60.760 18.109926
60.765 17.945829
60.770 17.584015
60.775 17.143435
60.780 16.846682
60.785 16.424772
60.790 16.838879
60.795 16.975096
60.800 17.192404
60.805 17.419882
60.810 17.798086
60.815 17.69846
60.820 17.979118
60.825 17.864952
60.830 18.323124
60.835 18.450575
60.840 18.618509
60.845 18.411663
60.850 18.731766
60.855 19.242729
60.860 18.930391
60.865 18.7637
60.870 18.334345
60.875 18.503378
60.880 18.442987
60.885 18.38378
60.890 17.647995
60.895 17.710024
60.900 17.490128
60.905 17.574051
60.910 16.986568
60.915 17.377783
60.920 17.666876
60.925 17.906019
60.930 17.662058
60.935 17.362312
60.940 17.333279
60.945 18.378662
60.950 19.265032
60.955 19.394953
60.960 19.573948
60.965 19.600456
60.970 19.352762
60.975 19.335917
60.980 17.882
60.985 16.663937
60.990 16.451479
60.995 16.489727
61.000 16.511425
61.005 16.723358
61.010 16.546808
61.015 17.110094
61.020 16.974928
61.025 16.753918
61.030 17.11853
61.035 16.802408
61.040 16.553282
61.045 16.453104
61.050 16.280218
61.055 16.62118
61.060 16.324467
61.065 16.109138
61.070 16.416533
61.075 16.668299
61.080 17.131786
61.085 17.373114
61.090 16.890793
61.095 16.77783
61.100 16.535074
61.105 16.92071
61.110 16.585325
61.115 16.308172
61.120 15.994061
61.125 16.235926
61.130 16.045931
61.135 15.939837
61.140 15.29003
61.145 15.337832
61.150 15.142307
61.155 14.653394
61.160 14.613656
61.165 15.333692
61.170 15.963712
61.175 16.888481
61.180 17.219519
61.185 17.128736
61.190 17.660786
61.195 17.956865
61.200 18.09927
61.205 18.011642
61.210 17.337505
61.215 17.330341
61.220 17.697611
61.225 17.279547
61.230 17.205368
61.235 16.520113
61.240 16.101688
61.245 16.094364
61.250 15.882743
61.255 16.125631
61.260 16.566698
61.265 17.038223
61.270 16.799009
61.275 16.723904
61.280 16.703377
61.285 16.216661
61.290 15.549479
61.295 15.312549
61.300 15.114548
61.305 15.735814
61.310 15.502687
61.315 15.977917
61.320 16.899536
61.325 17.206638
61.330 17.200811
61.335 17.310392
61.340 17.614216
61.345 17.697077
61.350 18.208298
61.355 18.036867
61.360 17.688671
61.365 17.58399
61.370 17.413157
61.375 17.285372
61.380 17.152115
61.385 16.369959
61.390 16.451519
61.395 16.719624
61.400 16.093506
61.405 15.303386
61.410 14.891893
61.415 14.787042
61.420 14.748551
61.425 14.540668
61.430 15.188662
61.435 16.315134
61.440 17.084473
61.445 17.99283
61.450 18.385324
61.455 18.29155
61.460 18.099369
61.465 17.424667
61.470 16.874489
61.475 16.722357
61.480 16.244692
61.485 16.402205
61.490 16.219307
61.495 16.478872
61.500 16.745068
61.505 16.845892
61.510 15.84201
61.515 15.661915
61.520 15.639409
61.525 15.891131
61.530 15.9091
61.535 15.826112
61.540 15.849276
61.545 17.058804
61.550 17.378988
61.555 17.350267
61.560 17.375591
61.565 17.697699
61.570 17.54985
61.575 17.273506
61.580 17.082962
61.585 16.999212
61.590 16.576288
61.595 16.405811
61.600 15.878592
61.605 16.247381
61.610 16.469839
61.615 15.61443
61.620 15.692013
61.625 16.098511
61.630 16.217688
61.635 16.401072
61.640 16.427322
61.645 16.80657
61.650 17.278738
61.655 17.424397
61.660 17.057766
61.665 16.54735
61.670 16.580833
61.675 16.246923
61.680 15.985017
61.685 15.783119
61.690 15.448153
61.695 15.307502
61.700 15.676113
61.705 15.638239
61.710 16.237476
61.715 15.945642
61.720 16.229923
61.725 15.965153
61.730 16.152117
61.735 16.120045
61.740 16.434004
61.745 15.783664
61.750 15.37236
61.755 14.735906
61.760 15.340781
61.765 15.625096
61.770 16.051003
61.775 15.983818
61.780 16.320982
61.785 17.03973
61.790 17.518299
61.795 17.335632
61.800 16.753929
61.805 16.050182
61.810 16.217272
61.815 16.19355
61.820 16.347721
61.825 16.482347
61.830 16.38706
61.835 16.212536
61.840 16.02223
61.845 15.758923
61.850 15.824266
61.855 15.562131
61.860 15.913261
61.865 16.470161
61.870 17.31415
61.875 17.897625
61.880 17.969637
61.885 18.026752
61.890 17.976704
61.895 17.079088
61.900 16.720425
61.905 16.818186
61.910 17.000793
61.915 17.085842
61.920 17.362141
61.925 17.58087
61.930 17.443104
61.935 17.417721
61.940 17.177116
61.945 16.748127
61.950 16.700365
61.955 16.780546
61.960 16.462486
61.965 16.607883
61.970 16.57712
61.975 16.536112
61.980 16.264526
61.985 16.108236
61.990 15.958678
61.995 16.055019
62.000 16.475994
62.005 16.695452
62.010 16.951374
62.015 17.003765
62.020 16.887848
62.025 16.620874
62.030 16.441685
62.035 16.116085
62.040 15.696687
62.045 15.380425
62.050 15.466905
62.055 15.670837
62.060 16.209881
62.065 16.536737
62.070 16.267111
62.075 15.883761
62.080 15.502123
62.085 15.460856
62.090 15.376062
62.095 15.511363
62.100 15.440078
62.105 16.016336
62.110 16.729218
62.115 17.219046
62.120 17.534021
62.125 17.420776
62.130 17.21974
62.135 17.635582
62.140 17.815954
62.145 17.897757
62.150 17.885679
62.155 17.703547
62.160 17.646561
62.165 17.918209
62.170 17.955215
62.175 18.634298
62.180 18.891186
62.185 19.276426
62.190 19.107674
62.195 19.01742
62.200 18.416348
62.205 17.777441
62.210 17.047455
62.215 16.535334
62.220 16.034986
62.225 15.834184
62.230 15.605177
62.235 15.910345
62.240 16.24814
62.245 16.323595
62.250 16.656115
62.255 16.665583
62.260 16.722832
62.265 16.614687
62.270 15.955358
62.275 15.999483
62.280 15.574267
62.285 15.200863
62.290 15.723229
62.295 16.266476
62.300 16.485565
62.305 17.011555
62.310 16.25453
62.315 15.987284
62.320 16.019373
62.325 15.313524
62.330 15.120717
62.335 15.281785
62.340 14.922314
62.345 15.401741
62.350 15.864598
62.355 16.053932
62.360 16.178728
62.365 15.817608
62.370 15.77076
62.375 15.656947
62.380 15.412239
62.385 15.023967
62.390 15.33601
62.395 15.992728
62.400 16.824581
62.405 16.928492
62.410 17.426968
62.415 17.630192
62.420 18.020798
62.425 17.953159
62.430 17.047037
62.435 16.679649
62.440 16.773087
62.445 17.063549
62.450 18.024591
62.455 18.562836
62.460 18.342976
62.465 19.183102
62.470 19.469831
62.475 19.602074
62.480 19.311977
62.485 17.743513
62.490 16.427198
62.495 16.487358
62.500 15.84908
62.505 15.144456
62.510 14.670663
62.515 14.804174
62.520 15.114224
62.525 15.232368
62.530 15.001152
62.535 15.148215
62.540 15.767313
62.545 16.099297
62.550 16.026854
62.555 16.411533
62.560 16.536158
62.565 16.487312
62.570 16.506971
62.575 16.164871
62.580 15.939789
62.585 15.401852
62.590 15.341866
62.595 15.880314
62.600 16.352259
62.605 16.651136
62.610 16.321407
62.615 16.501068
62.620 16.832399
62.625 16.632109
62.630 16.265852
62.635 15.962255
62.640 15.869053
62.645 16.033747
62.650 16.123737
62.655 15.990685
62.660 16.488037
62.665 16.752535
62.670 17.195002
62.675 16.808044
62.680 16.948387
62.685 16.456841
62.690 16.659599
62.695 16.469364
62.700 16.235794
62.705 16.000648
62.710 16.188198
62.715 16.261883
62.720 16.965485
62.725 17.173906
62.730 17.415331
62.735 17.686337
62.740 17.839516
62.745 18.029903
62.750 17.442913
62.755 17.670404
62.760 17.236137
62.765 16.845638
62.770 15.942625
62.775 15.734269
62.780 15.243367
62.785 15.280843
62.790 14.653527
62.795 15.085023
62.800 15.768234
62.805 16.627958
62.810 16.45278
62.815 17.052351
62.820 17.600664
62.825 18.055361
62.830 17.384541
62.835 16.918816
62.840 16.698889
62.845 16.926105
62.850 17.073824
62.855 16.946333
62.860 16.920126
62.865 17.450756
62.870 17.206783
62.875 17.723019
62.880 17.724283
62.885 17.005354
62.890 16.39156
62.895 16.173719
62.900 15.745238
62.905 15.774732
62.910 15.284393
62.915 14.897449
62.920 15.091295
62.925 15.454392
62.930 15.125839
62.935 14.857366
62.940 14.665248
62.945 14.758313
62.950 14.885182
62.955 15.585437
62.960 15.880046
62.965 15.785214
62.970 15.785822
62.975 15.422593
62.980 15.50946
62.985 15.518123
62.990 15.202418
62.995 15.588165
63.000 16.153051
63.005 16.456402
63.010 16.890554
63.015 16.634886
63.020 16.685156
63.025 16.449097
63.030 15.525082
63.035 15.227247
63.040 15.56631
63.045 15.778194
63.050 16.597446
63.055 16.899097
63.060 16.701431
63.065 16.930998
63.070 16.844564
63.075 16.902395
63.080 17.18692
63.085 16.254103
63.090 16.125263
63.095 16.30921
63.100 16.730747
63.105 17.653044
63.110 17.767256
63.115 17.585739
63.120 17.966616
63.125 18.248655
63.130 18.147291
63.135 17.662266
63.140 17.251225
63.145 17.522635
63.150 17.89143
63.155 17.665459
63.160 17.372124
63.165 17.7932
63.170 18.046354
63.175 17.880808
63.180 17.321625
63.185 17.020588
63.190 17.171259
63.195 17.238766
63.200 16.743589
63.205 16.344429
63.210 16.20071
63.215 16.516344
63.220 16.598915
63.225 16.441401
63.230 16.316319
63.235 16.383837
63.240 16.704889
63.245 16.596174
63.250 16.490028
63.255 16.765905
63.260 16.393511
63.265 16.419748
63.270 16.402016
63.275 16.797466
63.280 16.834749
63.285 16.504114
63.290 16.072079
63.295 16.330444
63.300 16.503263
63.305 17.076344
63.310 17.121136
63.315 17.340174
63.320 17.289494
63.325 17.067476
63.330 17.350925
63.335 17.275805
63.340 16.513441
63.345 16.193985
63.350 15.707977
63.355 16.230761
63.360 16.347277
63.365 16.106281
63.370 16.28882
63.375 16.567617
63.380 16.381004
63.385 16.592253
63.390 16.74346
63.395 17.041142
63.400 17.031487
63.405 17.173193
63.410 17.305477
63.415 17.473211
63.420 17.364449
63.425 17.554537
63.430 17.814192
63.435 18.240082
63.440 17.850725
63.445 17.920088
63.450 18.344208
63.455 18.479427
63.460 18.775623
63.465 18.958017
63.470 19.028015
63.475 19.656055
63.480 19.323318
63.485 19.079847
63.490 18.856548
63.495 18.756582
63.500 18.632828
63.505 18.209982
63.510 17.691763
63.515 17.982336
63.520 17.891142
63.525 17.718868
63.530 17.059017
63.535 16.545034
63.540 16.136238
63.545 16.173702
63.550 16.178263
63.555 16.573372
63.560 16.692827
63.565 16.796137
63.570 17.650532
63.575 18.20487
63.580 18.287563
63.585 18.125572
63.590 17.581135
63.595 17.865559
63.600 17.998838
63.605 17.678608
63.610 17.226746
63.615 17.173023
63.620 17.312536
63.625 17.568138
63.630 17.530645
63.635 17.466034
63.640 17.187099
63.645 17.536045
63.650 17.587389
63.655 17.69245
63.660 17.812641
63.665 17.752571
63.670 17.817009
63.675 18.557709
63.680 18.376444
63.685 18.651903
63.690 18.689676
63.695 19.02124
63.700 19.197397
63.705 19.162994
63.710 18.565186
63.715 18.530491
63.720 18.015566
63.725 17.456718
63.730 16.873125
63.735 16.172264
63.740 16.067511
63.745 16.09025
63.750 16.06971
63.755 16.107742
63.760 16.398396
63.765 16.551895
63.770 16.836252
63.775 16.51663
63.780 17.060858
63.785 17.364807
63.790 18.128752
63.795 18.430153
63.800 18.431515
63.805 18.442493
63.810 18.387512
63.815 17.854492
63.820 17.630056
63.825 16.81068
63.830 16.408974
63.835 17.032986
63.840 17.654564
63.845 17.9251
63.850 17.881199
63.855 17.769239
63.860 18.031239
63.865 17.797857
63.870 17.489664
63.875 16.994009
63.880 16.94997
63.885 17.108471
63.890 17.658398
63.895 18.163534
63.900 18.493969
63.905 18.686384
63.910 18.783821
63.915 18.748165
63.920 18.707396
63.925 18.14271
63.930 17.646662
63.935 17.492599
63.940 17.054295
63.945 16.924084
63.950 17.313992
63.955 17.317858
63.960 17.416996
63.965 17.74202
63.970 17.951004
63.975 18.216061
63.980 18.18022
63.985 18.167049
63.990 18.383013
63.995 18.90148
64.000 18.74581
64.005 19.173794
64.010 19.564594
64.015 20.572525
64.020 20.643749
64.025 20.615927
64.030 20.561356
64.035 20.987492
64.040 20.407822
64.045 19.435774
64.050 18.793034
64.055 18.678932
64.060 18.732529
64.065 18.480204
64.070 18.140705
64.075 18.419643
64.080 18.876926
64.085 18.620813
64.090 18.188467
64.095 17.247232
64.100 17.081417
64.105 17.416336
64.110 17.335627
64.115 17.308184
64.120 17.788725
64.125 18.15354
64.130 18.517923
64.135 18.472984
64.140 18.192104
64.145 18.087303
64.150 17.961174
64.155 17.394127
64.160 18.037125
64.165 17.999866
64.170 17.64797
64.175 17.341507
64.180 17.401215
64.185 17.434734
64.190 17.676046
64.195 17.089502
64.200 17.197182
64.205 17.493505
64.210 17.900143
64.215 17.850517
64.220 18.176542
64.225 18.323341
64.230 18.833794
64.235 18.792511
64.240 19.062698
64.245 18.852694
64.250 19.088867
64.255 18.765572
64.260 18.583502
64.265 18.64842
64.270 18.635077
64.275 18.793993
64.280 18.772703
64.285 18.549017
64.290 18.45307
64.295 17.968363
64.300 17.67058
64.305 17.741121
64.310 17.811142
64.315 18.009537
64.320 18.762684
64.325 19.12841
64.330 19.547943
64.335 18.992001
64.340 19.014389
64.345 19.102371
64.350 19.244928
64.355 18.48748
64.360 17.577579
64.365 17.490246
64.370 18.273537
64.375 18.212227
64.380 17.617813
64.385 17.459417
64.390 17.990446
64.395 18.969629
64.400 19.169308
64.405 19.145702
64.410 19.683119
64.415 19.690441
64.420 19.21718
64.425 19.175055
64.430 18.764755
64.435 19.111578
64.440 19.534935
64.445 19.400923
64.450 19.835135
64.455 19.907549
64.460 19.865467
64.465 19.901939
64.470 19.409389
64.475 19.078371
64.480 19.105179
64.485 19.270285
64.490 19.947063
64.495 20.290356
64.500 21.401989
64.505 21.292141
64.510 20.997503
64.515 21.075123
64.520 21.105938
64.525 20.254299
64.530 19.797371
64.535 19.477819
64.540 19.980957
64.545 20.194796
64.550 20.44335
64.555 20.970583
64.560 21.139187
64.565 20.588278
64.570 20.091566
64.575 19.599604
64.580 19.797676
64.585 19.550797
64.590 18.689104
64.595 18.14147
64.600 18.284065
64.605 18.142427
64.610 18.426884
64.615 18.153196
64.620 18.184776
64.625 18.81271
64.630 19.432026
64.635 19.966423
64.640 20.222448
64.645 20.234127
64.650 19.728598
64.655 19.033432
64.660 18.595161
64.665 18.336929
64.670 18.328291
64.675 18.359308
64.680 18.087072
64.685 18.136776
64.690 18.470036
64.695 19.052399
64.700 19.194788
64.705 18.675253
64.710 18.548807
64.715 18.398945
64.720 18.749846
64.725 18.641087
64.730 18.553961
64.735 19.077562
64.740 18.591639
64.745 17.937653
64.750 18.178802
64.755 18.439516
64.760 18.516083
64.765 18.24288
64.770 18.346346
64.775 19.639439
64.780 20.656183
64.785 20.777142
64.790 20.270103
64.795 19.669315
64.800 19.764618
64.805 19.860186
64.810 19.978933
64.815 19.756828
64.820 19.739189
64.825 20.693424
64.830 21.278107
64.835 21.229643
64.840 20.943075
64.845 19.997889
64.850 20.338631
64.855 20.165958
64.860 19.916862
64.865 19.397331
64.870 19.284185
64.875 19.521305
64.880 19.680111
64.885 19.35668
64.890 19.433262
64.895 19.751402
64.900 20.297581
64.905 20.698275
64.910 20.441568
64.915 20.957525
64.920 21.312046
64.925 20.963514
64.930 20.183849
64.935 19.836285
64.940 19.956913
64.945 20.481911
64.950 20.790005
64.955 20.979158
64.960 21.144087
64.965 21.201736
64.970 21.544474
64.975 21.141781
64.980 20.630812
64.985 20.091194
64.990 20.384924
64.995 20.420759
65.000 20.248808
65.005 20.194517
65.010 20.327021
65.015 20.615259
65.020 20.67181
65.025 20.08503
65.030 20.326046
65.035 20.625168
65.040 20.807737
65.045 21.222933
65.050 21.731871
65.055 21.611696
65.060 22.003559
65.065 22.56077
65.070 22.378281
65.075 22.164736
65.080 22.065708
65.085 21.915604
65.090 22.301798
65.095 22.142439
65.100 21.818829
65.105 22.212778
65.110 22.492725
65.115 22.223492
65.120 22.446283
65.125 22.528637
65.130 22.957983
65.135 23.278917
65.140 23.257603
65.145 22.951227
65.150 23.377153
65.155 22.986469
65.160 22.49975
65.165 22.466406
65.170 22.863678
65.175 23.023678
65.180 23.064461
65.185 22.476896
65.190 22.119099
65.195 22.179848
65.200 21.91544
65.205 21.520956
65.210 21.615305
65.215 21.903513
65.220 22.65694
65.225 22.996609
65.230 22.868708
65.235 23.144749
65.240 23.166336
65.245 22.481188
65.250 22.153549
65.255 21.923208
65.260 22.170803
65.265 22.293734
65.270 22.502476
65.275 22.158085
65.280 22.133188
65.285 21.988791
65.290 22.16209
65.295 22.644232
65.300 22.747072
65.305 22.688332
65.310 23.456112
65.315 23.686087
65.320 23.899536
65.325 23.346998
65.330 22.975235
65.335 22.699522
65.340 22.332455
65.345 22.67267
65.350 23.171804
65.355 23.444368
65.360 23.709551
65.365 23.940063
65.370 24.225584
65.375 24.619753
65.380 24.932253
65.385 24.716017
65.390 24.195234
65.395 23.498022
65.400 23.018291
65.405 22.635965
65.410 22.105782
65.415 21.703854
65.420 22.330553
65.425 22.720856
65.430 22.596329
65.435 22.750462
65.440 23.732584
65.445 23.860943
65.450 23.412279
65.455 23.356216
65.460 24.226336
65.465 25.416681
65.470 26.271269
65.475 25.710295
65.480 26.24802
65.485 26.130264
65.490 25.634489
65.495 25.958136
65.500 25.708563
65.505 25.388163
65.510 25.426081
65.515 25.438284
65.520 25.724855
65.525 25.541264
65.530 24.993822
65.535 25.64559
65.540 26.162628
65.545 26.752438
65.550 26.995651
65.555 27.60276
65.560 28.083448
65.565 28.162849
65.570 27.958927
65.575 27.90048
65.580 28.063299
65.585 28.018606
65.590 28.141951
65.595 27.9499
65.600 27.60239
65.605 27.217449
65.610 27.630116
65.615 27.939791
65.620 28.185154
65.625 28.387686
65.630 28.740883
65.635 29.280752
65.640 29.778761
65.645 30.100847
65.650 30.609045
65.655 30.858595
65.660 32.067242
65.665 32.936413
65.670 32.872253
65.675 33.19471
65.680 32.951488
65.685 32.566299
65.690 31.960154
65.695 30.977272
65.700 30.662249
65.705 31.071512
65.710 31.375168
65.715 31.841833
65.720 32.367626
65.725 33.337574
65.730 33.471966
65.735 33.528244
65.740 33.46006
65.745 33.416283
65.750 33.317966
65.755 33.997658
65.760 33.891396
65.765 34.226646
65.770 34.398712
65.775 34.231735
65.780 34.216278
65.785 34.613228
65.790 34.368225
65.795 33.891502
65.800 34.880089
65.805 35.703484
65.810 35.921021
65.815 36.755798
65.820 37.22728
65.825 37.164433
65.830 38.301914
65.835 37.744625
65.840 37.51358
65.845 37.789986
65.850 37.451477
65.855 36.824852
65.860 37.112976
65.865 36.725533
65.870 36.266102
65.875 35.68573
65.880 35.526398
65.885 34.591953
65.890 34.898716
65.895 35.399281
65.900 35.621117
65.905 36.207138
65.910 36.808327
65.915 37.19471
65.920 37.830948
65.925 37.865986
65.930 36.905899
65.935 36.781708
65.940 37.027481
65.945 38.184734
65.950 38.487957
65.955 38.398022
65.960 38.455692
65.965 39.640217
65.970 39.629147
65.975 38.987797
65.980 38.295418
65.985 38.233704
65.990 38.757725
65.995 38.456379
66.000 38.264915
66.005 37.807083
66.010 37.922962
66.015 38.127342
66.020 38.104877
66.025 38.038521
66.030 38.186413
66.035 38.45686
66.040 38.354309
66.045 38.50684
66.050 38.373642
66.055 38.201599
66.060 37.673046
66.065 36.623276
66.070 36.315659
66.075 36.446445
66.080 36.092243
66.085 35.899769
66.090 36.323669
66.095 36.601021
66.100 36.28035
66.105 36.51025
66.110 36.351822
66.115 36.212135
66.120 36.629692
66.125 36.525986
66.130 36.375317
66.135 37.277302
66.140 37.346844
66.145 38.304348
66.150 38.711647
66.155 37.386505
66.160 36.700603
66.165 37.408211
66.170 37.232998
66.175 36.788399
66.180 35.598942
66.185 35.047653
66.190 34.460972
66.195 33.987514
66.200 33.620438
66.205 33.243431
66.210 32.930656
66.215 32.901196
66.220 32.883995
66.225 33.28231
66.230 33.684139
66.235 34.005379
66.240 34.318691
66.245 33.985947
66.250 34.021076
66.255 34.226017
66.260 34.963318
66.265 34.756981
66.270 34.576328
66.275 33.981453
66.280 33.842899
66.285 34.210361
66.290 33.485588
66.295 32.961452
66.300 32.802132
66.305 33.099697
66.310 33.501659
66.315 33.769684
66.320 33.132488
66.325 33.560181
66.330 33.728104
66.335 33.518848
66.340 31.682396
66.345 30.539549
66.350 30.033009
66.355 30.040787
66.360 29.834665
66.365 29.402592
66.370 29.761749
66.375 30.406767
66.380 32.024265
66.385 32.166691
66.390 31.733156
66.395 32.509892
66.400 32.959251
66.405 32.883713
66.410 32.874805
66.415 31.401665
66.420 31.57938
66.425 31.660362
66.430 31.005842
66.435 30.541594
66.440 30.263021
66.445 29.907377
66.450 29.41147
66.455 28.275261
66.460 27.694841
66.465 27.060127
66.470 27.303488
66.475 27.009655
66.480 27.361773
66.485 27.844507
66.490 29.052423
66.495 29.056881
66.500 29.123373
66.505 28.59016
66.510 27.87063
66.515 26.960781
66.520 26.568584
66.525 26.060661
66.530 25.63426
66.535 25.062536
66.540 25.452608
66.545 25.287964
66.550 25.526978
66.555 25.434996
66.560 25.962532
66.565 26.973917
66.570 27.530426
66.575 27.686853
66.580 27.872875
66.585 27.844233
66.590 27.827883
66.595 27.62715
66.600 27.809795
66.605 27.568354
66.610 27.276934
66.615 26.97636
66.620 26.475416
66.625 26.436699
66.630 25.712971
66.635 25.371021
66.640 25.144819
66.645 25.185301
66.650 24.830482
66.655 25.51178
66.660 25.49367
66.665 24.709311
66.670 24.651154
66.675 24.648472
66.680 24.462252
66.685 24.437754
66.690 23.821669
66.695 23.474812
66.700 23.11648
66.705 22.598347
66.710 22.816793
66.715 23.240761
66.720 24.018627
66.725 23.964508
66.730 24.29468
66.735 24.746622
66.740 25.179024
66.745 24.908871
66.750 24.737053
66.755 24.043631
66.760 23.568443
66.765 23.571842
66.770 23.73983
66.775 23.29674
66.780 24.205175
66.785 24.481285
66.790 24.250256
66.795 24.981092
66.800 25.050787
66.805 25.329756
66.810 24.738424
66.815 23.724056
66.820 23.30258
66.825 24.359221
66.830 23.867186
66.835 23.678873
66.840 23.358551
66.845 23.602236
66.850 23.624537
66.855 23.059723
66.860 22.4198
66.865 22.817726
66.870 23.124155
66.875 22.66717
66.880 22.570524
66.885 22.852757
66.890 23.36315
66.895 23.494667
66.900 22.635324
66.905 21.81481
66.910 21.930279
66.915 21.147852
66.920 21.187037
66.925 21.034304
66.930 20.641581
66.935 20.518911
66.940 20.822922
66.945 21.214371
66.950 21.621176
66.955 21.216671
66.960 21.343456
66.965 21.467203
66.970 22.054558
66.975 22.02038
66.980 21.781193
66.985 21.509264
66.990 21.576185
66.995 21.428158
67.000 21.898859
67.005 22.554543
67.010 23.288973
67.015 23.363504
67.020 23.594292
67.025 23.855804
67.030 23.717285
67.035 23.591015
67.040 22.952461
67.045 22.757053
67.050 23.075859
67.055 23.115179
67.060 23.207512
67.065 23.377943
67.070 22.612879
67.075 22.425095
67.080 22.699678
67.085 22.575512
67.090 22.82588
67.095 22.444468
67.100 21.950449
67.105 22.005817
67.110 21.498732
67.115 21.002794
67.120 21.264763
67.125 20.766567
67.130 20.913998
67.135 21.242861
67.140 21.615585
67.145 21.929106
67.150 22.296501
67.155 22.057364
67.160 22.048489
67.165 21.507999
67.170 22.117741
67.175 22.099865
67.180 22.18227
67.185 21.102503
67.190 20.608145
67.195 20.709297
67.200 21.405392
67.205 21.114254
67.210 21.332762
67.215 21.054672
67.220 21.405357
67.225 21.51063
67.230 21.094622
67.235 20.494001
67.240 20.059744
67.245 19.465368
67.250 19.591862
67.255 20.505539
67.260 20.933151
67.265 21.400928
67.270 21.534788
67.275 22.131229
67.280 22.154377
67.285 22.322117
67.290 21.512072
67.295 21.762177
67.300 21.317261
67.305 21.273964
67.310 20.964006
67.315 20.634943
67.320 20.079477
67.325 20.16785
67.330 19.901783
67.335 20.329803
67.340 20.422606
67.345 20.606703
67.350 21.192276
67.355 21.553164
67.360 21.807528
67.365 21.449535
67.370 21.613144
67.375 21.856535
67.380 22.1119
67.385 22.029718
67.390 22.31011
67.395 22.169811
67.400 22.010286
67.405 21.630632
67.410 21.234043
67.415 21.639418
67.420 21.810234
67.425 21.248587
67.430 21.272406
67.435 21.72941
67.440 21.878483
67.445 21.48959
67.450 20.971752
67.455 21.032421
67.460 21.347065
67.465 21.284975
67.470 21.027721
67.475 20.474586
67.480 21.067087
67.485 21.239248
67.490 21.730888
67.495 21.931654
67.500 22.106485
67.505 22.862061
67.510 23.26757
67.515 22.727774
67.520 22.227684
67.525 22.0832
67.530 22.015759
67.535 22.012829
67.540 21.734753
67.545 21.866604
67.550 22.166538
67.555 22.068605
67.560 21.044926
67.565 20.681486
67.570 20.43074
67.575 20.737816
67.580 21.312878
67.585 21.265997
67.590 21.189608
67.595 21.537834
67.600 21.739742
67.605 22.022408
67.610 21.534563
67.615 20.686085
67.620 20.885431
67.625 21.270193
67.630 21.700809
67.635 21.904398
67.640 21.189949
67.645 21.155087
67.650 21.603678
67.655 22.045826
67.660 21.818569
67.665 21.474739
67.670 21.272882
67.675 21.72266
67.680 22.008667
67.685 22.187662
67.690 21.822863
67.695 21.638903
67.700 21.532293
67.705 21.607504
67.710 21.920521
67.715 21.633995
67.720 21.390532
67.725 21.200529
67.730 21.321753
67.735 21.635122
67.740 21.234192
67.745 20.895779
67.750 20.779306
67.755 20.579777
67.760 20.843969
67.765 20.923126
67.770 21.585413
67.775 21.581659
67.780 21.481667
67.785 21.597538
67.790 21.883654
67.795 21.614801
67.800 21.597225
67.805 20.707848
67.810 20.720192
67.815 20.589394
67.820 20.305986
67.825 19.697906
67.830 20.087067
67.835 19.637526
67.840 20.031464
67.845 20.074295
67.850 19.99856
67.855 20.696199
67.860 20.732353
67.865 20.360458
67.870 20.289488
67.875 20.184168
67.880 20.022486
67.885 19.349085
67.890 18.907526
67.895 19.312029
67.900 19.197187
67.905 20.052162
67.910 20.070156
67.915 20.609612
67.920 20.344805
67.925 20.054138
67.930 19.478617
67.935 19.636724
67.940 18.587559
67.945 17.783142
67.950 17.107533
67.955 17.550447
67.960 17.002972
67.965 17.768177
67.970 18.502382
67.975 19.068754
67.980 19.849531
67.985 20.321383
67.990 20.61702
67.995 21.518736
68.000 21.160276
68.005 20.781454
68.010 20.692217
68.015 20.649668
68.020 21.54575
68.025 21.933874
68.030 22.398384
68.035 22.455574
68.040 22.610792
68.045 22.543215
68.050 21.947634
68.055 21.277412
68.060 20.608213
68.065 19.836329
68.070 19.64786
68.075 19.501947
68.080 19.302286
68.085 19.606472
68.090 20.398149
68.095 21.469038
68.100 21.991011
68.105 21.896152
68.110 22.698328
68.115 23.0336
68.120 23.365442
68.125 22.52039
68.130 22.202339
68.135 21.365204
68.140 21.01424
68.145 20.675226
68.150 20.884701
68.155 20.558142
68.160 19.929062
68.165 20.380188
68.170 21.270454
68.175 20.918879
68.180 20.849619
68.185 20.237761
68.190 20.660984
68.195 21.082685
68.200 20.6341
68.205 20.976353
68.210 21.986435
68.215 22.180155
68.220 22.710064
68.225 22.319244
68.230 22.480507
68.235 22.057577
68.240 21.503231
68.245 21.305481
68.250 20.657759
68.255 20.039402
68.260 20.08268
68.265 20.325405
68.270 20.156618
68.275 20.304983
68.280 20.453703
68.285 20.987207
68.290 21.125462
68.295 20.923296
68.300 20.932743
68.305 21.351748
68.310 21.150488
68.315 20.690096
68.320 20.758204
68.325 20.994997
68.330 20.627253
68.335 20.397102
68.340 20.226038
68.345 19.985424
68.350 19.683685
68.355 18.991266
68.360 18.647827
68.365 19.053799
68.370 19.61389
68.375 19.705765
68.380 19.449209
68.385 19.145948
68.390 19.217571
68.395 19.258129
68.400 18.763609
68.405 18.503075
68.410 18.806149
68.415 19.774456
68.420 20.499073
68.425 21.123613
68.430 21.090143
68.435 20.325502
68.440 19.55311
68.445 18.894625
68.450 18.080597
68.455 18.484587
68.460 17.992374
68.465 18.403427
68.470 19.137894
68.475 19.649817
68.480 20.072716
68.485 20.534565
68.490 20.199762
68.495 20.675362
68.500 20.504793
68.505 20.897259
68.510 21.035084
68.515 20.730618
68.520 20.549273
68.525 21.041775
68.530 20.472227
68.535 20.535191
68.540 20.264162
68.545 20.634844
68.550 20.766142
68.555 20.793505
68.560 21.065729
68.565 22.05481
68.570 22.689951
68.575 22.544136
68.580 21.747427
68.585 22.187424
68.590 22.424671
68.595 21.718758
68.600 21.918955
68.605 22.348961
68.610 22.663727
68.615 22.613735
68.620 21.819414
68.625 22.153517
68.630 22.259357
68.635 21.954729
68.640 21.879618
68.645 22.174212
68.650 22.945486
68.655 23.899744
68.660 23.658165
68.665 23.660698
68.670 22.955193
68.675 22.639923
68.680 22.651541
68.685 22.063124
68.690 21.397671
68.695 21.468439
68.700 21.429934
68.705 21.335115
68.710 21.245506
68.715 20.841694
68.720 20.884592
68.725 21.712847
68.730 21.805273
68.735 22.029608
68.740 21.783936
68.745 21.89772
68.750 22.275978
68.755 22.145926
68.760 21.196703
68.765 21.286789
68.770 21.443798
68.775 22.011189
68.780 21.408365
68.785 21.512304
68.790 21.656315
68.795 21.320009
68.800 20.584373
68.805 20.088018
68.810 19.89061
68.815 20.053791
68.820 20.246532
68.825 20.316027
68.830 20.351791
68.835 21.690853
68.840 21.947615
68.845 21.815283
68.850 22.316378
68.855 21.884998
68.860 21.725134
68.865 21.946672
68.870 21.417728
68.875 21.624668
68.880 22.105345
68.885 21.817646
68.890 22.117727
68.895 22.507061
68.900 23.27607
68.905 22.504963
68.910 22.077417
68.915 21.777758
68.920 20.937229
68.925 20.976721
68.930 20.542948
68.935 19.90427
68.940 21.285553
68.945 21.513231
68.950 21.617805
68.955 22.377237
68.960 23.280193
68.965 23.444683
68.970 23.568237
68.975 23.010214
68.980 23.296562
68.985 23.90687
68.990 24.032707
68.995 23.376341
69.000 23.526709
69.005 23.400848
69.010 23.326817
69.015 22.687729
69.020 21.810768
69.025 21.51716
69.030 21.783796
69.035 21.391535
69.040 21.498981
69.045 21.914871
69.050 22.489664
69.055 22.936357
69.060 23.24905
69.065 23.173422
69.070 24.00704
69.075 24.32015
69.080 24.418869
69.085 24.472445
69.090 24.483179
69.095 24.136255
69.100 24.89739
69.105 24.699753
69.110 24.479687
69.115 24.249249
69.120 24.416822
69.125 24.473354
69.130 24.948891
69.135 24.507618
69.140 24.862965
69.145 25.716715
69.150 26.075027
69.155 26.000267
69.160 25.211349
69.165 25.119993
69.170 25.130703
69.175 24.712212
69.180 24.169245
69.185 24.367643
69.190 24.830757
69.195 25.201887
69.200 25.019783
69.205 25.46134
69.210 25.761011
69.215 26.028996
69.220 25.921381
69.225 26.06068
69.230 26.03302
69.235 25.916241
69.240 26.245398
69.245 26.505411
69.250 26.589397
69.255 26.623861
69.260 27.209536
69.265 28.299967
69.270 28.55146
69.275 28.423742
69.280 28.179674
69.285 28.006109
69.290 28.484385
69.295 27.696566
69.300 26.725405
69.305 26.606956
69.310 26.854511
69.315 26.634743
69.320 26.001238
69.325 26.193819
69.330 26.620644
69.335 27.124334
69.340 27.377018
69.345 27.62701
69.350 28.275761
69.355 28.348824
69.360 27.981827
69.365 28.198294
69.370 28.820358
69.375 28.398188
69.380 27.72077
69.385 27.66967
69.390 28.321978
69.395 28.632637
69.400 29.101686
69.405 28.70886
69.410 28.792089
69.415 29.318129
69.420 29.218731
69.425 29.02696
69.430 28.927273
69.435 28.665298
69.440 28.628187
69.445 28.629932
69.450 29.168629
69.455 29.209742
69.460 28.962173
69.465 27.897814
69.470 27.31484
69.475 27.541441
69.480 28.095095
69.485 28.272835
69.490 28.699629
69.495 29.284117
69.500 29.963854
69.505 30.219303
69.510 30.070726
69.515 29.200346
69.520 28.501162
69.525 28.242699
69.530 28.260813
69.535 28.617464
69.540 28.71739
69.545 28.511322
69.550 28.84219
69.555 28.987497
69.560 29.4559
69.565 29.322233
69.570 29.885742
69.575 30.296194
69.580 30.942802
69.585 30.528006
69.590 30.290947
69.595 30.363819
69.600 30.312943
69.605 29.769293
69.610 29.866697
69.615 28.949432
69.620 29.227329
69.625 29.247889
69.630 28.885683
69.635 28.740376
69.640 28.564808
69.645 28.213123
69.650 29.083687
69.655 29.271412
69.660 29.031292
69.665 29.391172
69.670 29.583427
69.675 29.323139
69.680 29.559277
69.685 29.552872
69.690 29.479465
69.695 29.320587
69.700 29.207918
69.705 29.066751
69.710 29.157736
69.715 29.033846
69.720 29.006573
69.725 28.419691
69.730 28.400976
69.735 28.214905
69.740 27.920597
69.745 27.678404
69.750 27.554609
69.755 27.340351
69.760 27.649305
69.765 27.519058
69.770 27.443373
69.775 27.527887
69.780 27.600811
69.785 27.88653
69.790 28.014524
69.795 27.523169
69.800 26.926781
69.805 26.449213
69.810 26.389954
69.815 26.171473
69.820 25.374165
69.825 25.296722
69.830 25.617058
69.835 25.883013
69.840 25.648624
69.845 25.004129
69.850 24.51
69.855 24.507971
69.860 24.316042
69.865 24.358326
69.870 25.075241
69.875 25.364998
69.880 25.854656
69.885 25.912807
69.890 25.960165
69.895 25.71591
69.900 25.81818
69.905 25.051319
69.910 24.16284
69.915 23.401941
69.920 23.535509
69.925 23.567213
69.930 23.238842
69.935 22.573042
69.940 22.845722
69.945 23.5326
69.950 23.68499
69.955 23.072556
69.960 22.770723
69.965 23.043844
69.970 22.709326
69.975 22.486532
69.980 22.080725
69.985 22.054459
69.990 22.38574
69.995 22.036459
70.000 21.944828
70.005 21.882444
70.010 21.707903
70.015 22.065241
70.020 22.546425
70.025 23.13847
70.030 23.394762
70.035 22.706579
70.040 22.671171
70.045 22.453114
70.050 21.929237
70.055 21.358847
70.060 20.833685
70.065 20.232883
70.070 20.738382
70.075 21.295988
70.080 21.261528
70.085 21.147999
70.090 21.476168
70.095 21.904551
70.100 21.689856
70.105 21.142414
70.110 20.033474
70.115 19.616449
70.120 19.220398
70.125 18.94319
70.130 18.712547
70.135 18.646818
70.140 18.84963
70.145 19.297869
70.150 19.66786
70.155 19.616169
70.160 18.96117
70.165 19.012587
70.170 19.306234
70.175 19.66832
70.180 19.729597
70.185 19.600187
70.190 19.939205
70.195 20.124516
70.200 19.980221
70.205 19.713053
70.210 19.353165
70.215 19.157431
70.220 19.487005
70.225 19.424683
70.230 19.022467
70.235 18.728991
70.240 18.62738
70.245 18.719511
70.250 19.506058
70.255 19.658546
70.260 19.803799
70.265 20.412022
70.270 20.81184
70.275 20.888708
70.280 20.415205
70.285 20.098301
70.290 19.824692
70.295 19.741152
70.300 19.867447
70.305 20.185165
70.310 20.328556
70.315 20.854296
70.320 20.675262
70.325 20.738775
70.330 20.41197
70.335 20.656603
70.340 21.039236
70.345 21.070301
70.350 20.650076
70.355 20.494535
70.360 20.732805
70.365 20.654823
70.370 20.009432
70.375 19.229963
70.380 19.238592
70.385 19.637054
70.390 19.611023
70.395 19.652407
70.400 19.429106
70.405 20.095243
70.410 20.299429
70.415 19.481085
70.420 19.402643
70.425 19.137032
70.430 18.945879
70.435 19.306286
70.440 19.077175
70.445 19.671207
70.450 20.445625
70.455 20.747847
70.460 21.281248
70.465 21.506126
70.470 20.905163
70.475 20.538969
70.480 20.098129
70.485 19.638067
70.490 19.081049
70.495 17.884684
70.500 17.980045
70.505 18.71566
70.510 18.478388
70.515 18.62903
70.520 18.864826
70.525 19.048574
70.530 19.752846
70.535 19.843214
70.540 19.48522
70.545 20.298624
70.550 20.145441
70.555 19.96221
70.560 19.965157
70.565 19.721409
70.570 19.780569
70.575 19.823967
70.580 19.303684
70.585 19.256006
70.590 19.43775
70.595 19.837267
70.600 19.144283
70.605 18.67734
70.610 18.460878
70.615 18.454607
70.620 18.579285
70.625 18.22401
70.630 17.967581
70.635 18.153496
70.640 18.038639
70.645 18.312693
70.650 18.432911
70.655 18.96348
70.660 18.972385
70.665 19.50493
70.670 19.966084
70.675 20.684069
70.680 20.799284
70.685 20.677427
70.690 20.893881
70.695 20.779202
70.700 20.283812
70.705 20.156727
70.710 19.834972
70.715 19.812868
70.720 19.645044
70.725 18.932043
70.730 18.849581
70.735 18.732609
70.740 18.848625
70.745 18.459394
70.750 17.998993
70.755 18.268557
70.760 18.597895
70.765 19.069162
70.770 19.259983
70.775 19.290148
70.780 19.458193
70.785 19.662254
70.790 19.543352
70.795 19.698421
70.800 19.205837
70.805 18.871841
70.810 18.879013
70.815 18.541975
70.820 18.675543
70.825 18.117506
70.830 17.795111
70.835 18.390921
70.840 18.502647
70.845 18.221218
70.850 18.698378
70.855 18.983692
70.860 19.84421
70.865 20.298634
70.870 20.626204
70.875 21.254263
70.880 21.222357
70.885 20.643105
70.890 20.531116
70.895 20.516016
70.900 20.197245
70.905 19.684555
70.910 19.355488
70.915 19.492628
70.920 19.499611
70.925 19.074736
70.930 18.369295
70.935 18.247377
70.940 17.848755
70.945 17.452589
70.950 17.226013
70.955 16.725746
70.960 17.164236
70.965 17.600204
70.970 17.808083
70.975 18.14349
70.980 18.449568
70.985 19.235611
70.990 19.483549
70.995 19.106527
71.000 18.984413
71.005 19.082224
71.010 18.794205
71.015 18.465391
71.020 18.100447
71.025 18.605433
71.030 18.469196
71.035 18.522081
71.040 18.717604
71.045 18.874338
71.050 19.229233
71.055 19.107977
71.060 19.157486
71.065 19.56212
71.070 19.408361
71.075 18.948177
71.080 18.697838
71.085 18.127346
71.090 17.712793
71.095 17.467653
71.100 17.517006
71.105 17.639845
71.110 17.830133
71.115 18.222551
71.120 18.427612
71.125 18.362181
71.130 18.015514
71.135 17.714128
71.140 18.06904
71.145 18.011688
71.150 17.744463
71.155 18.054085
71.160 18.558563
71.165 18.9513
71.170 18.539421
71.175 18.141165
71.180 18.154821
71.185 17.790434
71.190 17.618107
71.195 17.001419
71.200 17.020054
71.205 17.528198
71.210 17.641987
71.215 18.379766
71.220 18.715229
71.225 19.245071
71.230 19.423435
71.235 18.720131
71.240 18.913378
71.245 19.015812
71.250 19.427927
71.255 19.372702
71.260 19.220211
71.265 19.714424
71.270 19.735933
71.275 19.370106
71.280 18.682697
71.285 18.029211
71.290 18.490234
71.295 18.655928
71.300 18.645254
71.305 18.652603
71.310 18.799387
71.315 19.125416
71.320 19.219849
71.325 19.021389
71.330 18.652882
71.335 18.476439
71.340 18.538057
71.345 18.320076
71.350 18.170408
71.355 17.825687
71.360 17.845911
71.365 17.746403
71.370 18.029411
71.375 18.527212
71.380 18.850033
71.385 19.337416
71.390 19.828756
71.395 20.240946
71.400 20.677015
71.405 21.151815
71.410 21.325758
71.415 21.17111
71.420 20.286356
71.425 19.501951
71.430 19.198847
71.435 19.204748
71.440 18.879166
71.445 18.830282
71.450 18.990049
71.455 19.15612
71.460 19.136566
71.465 19.279917
71.470 19.394539
71.475 19.404572
71.480 18.846113
71.485 19.183052
71.490 18.742817
71.495 18.863501
71.500 18.320978
71.505 18.153131
71.510 18.248035
71.515 17.956177
71.520 18.241188
71.525 18.538437
71.530 18.415197
71.535 17.944754
71.540 17.395721
71.545 17.272028
71.550 16.710424
71.555 16.097347
71.560 16.16321
71.565 16.772171
71.570 17.420116
71.575 18.308889
71.580 18.582497
71.585 18.880398
71.590 18.903946
71.595 18.874058
71.600 18.766373
71.605 18.169807
71.610 17.296228
71.615 17.864601
71.620 18.80953
71.625 19.603983
71.630 20.127331
71.635 19.816387
71.640 20.06201
71.645 20.376368
71.650 20.395138
71.655 20.08383
71.660 19.275164
71.665 18.902658
71.670 19.010035
71.675 19.799074
71.680 19.181704
71.685 18.733118
71.690 18.692947
71.695 18.601671
71.700 19.021032
71.705 18.909546
71.710 18.411076
71.715 18.606064
71.720 18.548176
71.725 18.189451
71.730 17.40864
71.735 17.074488
71.740 16.873674
71.745 16.727545
71.750 16.388605
71.755 16.557638
71.760 16.884113
71.765 17.647793
71.770 17.752728
71.775 18.076593
71.780 18.333319
71.785 18.725075
71.790 18.682386
71.795 18.46957
71.800 18.178358
71.805 17.176676
71.810 16.946198
71.815 17.406693
71.820 17.447718
71.825 17.576689
71.830 17.711514
71.835 18.100353
71.840 18.758022
71.845 18.672874
71.850 17.714293
71.855 17.662188
71.860 17.772717
71.865 17.969595
71.870 17.572428
71.875 17.745897
71.880 17.67045
71.885 18.017744
71.890 17.956844
71.895 17.754812
71.900 17.798393
71.905 18.350691
71.910 19.038368
71.915 19.621428
71.920 19.698372
71.925 19.960829
71.930 19.955828
71.935 19.961958
71.940 19.75642
71.945 19.595915
71.950 19.492525
71.955 19.002388
71.960 18.151716
71.965 17.835115
71.970 17.288378
71.975 16.697165
71.980 16.597565
71.985 17.140062
71.990 17.969994
71.995 19.050714
72.000 19.320717
72.005 19.96315
72.010 20.046225
72.015 19.987806
72.020 20.085089
72.025 19.628973
72.030 19.720644
72.035 19.750174
72.040 20.119175
72.045 19.536171
72.050 18.903336
72.055 18.271852
72.060 18.476151
72.065 18.099636
72.070 17.473362
72.075 17.396706
72.080 18.719452
72.085 19.00214
72.090 18.974228
72.095 19.203709
72.100 19.339636
72.105 19.481077
72.110 19.844723
72.115 19.907509
72.120 20.144125
72.125 19.845953
72.130 19.784224
72.135 20.403809
72.140 20.898609
72.145 20.425402
72.150 20.448183
72.155 21.164785
72.160 21.77173
72.165 21.152393
72.170 21.027672
72.175 20.722111
72.180 20.224649
72.185 19.551497
72.190 18.942934
72.195 18.653345
72.200 18.501818
72.205 18.623117
72.210 18.961946
72.215 19.593315
72.220 19.565073
72.225 19.521563
72.230 19.624973
72.235 19.727016
72.240 19.26162
72.245 18.890934
72.250 18.613367
72.255 18.612236
72.260 18.497992
72.265 18.473593
72.270 18.301323
72.275 18.068817
72.280 17.729403
72.285 17.690613
72.290 18.201231
72.295 18.106291
72.300 18.558601
72.305 18.466942
72.310 18.574768
72.315 18.484453
72.320 18.159067
72.325 17.722408
72.330 17.261633
72.335 17.081913
72.340 17.702208
72.345 18.353214
72.350 18.729904
72.355 19.05555
72.360 19.103052
72.365 19.506666
72.370 19.550207
72.375 18.879307
72.380 18.341579
72.385 18.256758
72.390 18.479107
72.395 18.4286
72.400 18.495197
72.405 18.842577
72.410 18.956932
72.415 19.030132
72.420 18.587702
72.425 18.068554
72.430 18.085777
72.435 17.892141
72.440 17.536993
72.445 18.001646
72.450 18.446066
72.455 18.62838
72.460 19.046886
72.465 19.20351
72.470 19.082863
72.475 19.306892
72.480 19.221807
72.485 19.242617
72.490 19.567623
72.495 19.432549
72.500 19.418135
72.505 19.666569
72.510 19.656443
72.515 19.553455
72.520 19.541428
72.525 18.737431
72.530 18.588566
72.535 18.400469
72.540 18.532848
72.545 18.396856
72.550 18.601971
72.555 18.944555
72.560 19.085039
72.565 18.803585
72.570 18.670307
72.575 18.945229
72.580 19.307348
72.585 18.705799
72.590 18.254591
72.595 18.132832
72.600 18.079483
72.605 17.484442
72.610 16.267378
72.615 15.545644
72.620 15.742829
72.625 16.374331
72.630 16.674829
72.635 16.724802
72.640 16.277298
72.645 16.336288
72.650 16.160009
72.655 16.135674
72.660 16.395472
72.665 16.359959
72.670 16.827848
72.675 17.982283
72.680 18.542868
72.685 18.469841
72.690 18.594172
72.695 18.586805
72.700 18.624859
72.705 18.592192
72.710 18.371996
72.715 18.139349
72.720 18.145372
72.725 17.832132
72.730 17.940531
72.735 18.055275
72.740 17.806639
72.745 17.79174
72.750 17.879932
72.755 17.671307
72.760 17.031916
72.765 17.03569
72.770 16.956903
72.775 16.628805
72.780 16.737635
72.785 16.560085
72.790 16.949133
72.795 16.800678
72.800 16.33325
72.805 16.666496
72.810 16.062767
72.815 15.718741
72.820 15.774986
72.825 16.063103
72.830 16.083408
72.835 16.339851
72.840 16.257738
72.845 16.62396
72.850 16.741831
72.855 16.176016
72.860 16.471508
72.865 16.880718
72.870 16.940254
72.875 17.237173
72.880 17.548103
72.885 17.594105
72.890 17.866814
72.895 17.488472
72.900 17.587105
72.905 17.382757
72.910 16.856867
72.915 16.904186
72.920 17.051117
72.925 16.576387
72.930 15.874009
72.935 15.954742
72.940 16.375206
72.945 16.722897
72.950 16.493484
72.955 16.899181
72.960 17.39749
72.965 18.291887
72.970 18.245142
72.975 18.352425
72.980 18.343611
72.985 18.153589
72.990 17.81728
72.995 17.058477
73.000 16.231258
