!@!!GADDS PLOTSO FILE: Chi integration type
!@!!Title/SampleName: map-8e
!@!!Comment: ?
!@!!User: Bruker Instrument Administrator
!@!!Site: University of Illinois Chicago
!@!!Frame: map-8e_01_000.gfrm
!@!!Wavelengths    1.54184   1.54056   1.54439
!@!!Frame angles: 2Theta: 63.000 Omega: 50.000 Phi: 0.000 Chi: 90.000
!@!!Integration range: 2Theta: 53.000 to 73.000  Gamma: -105.000 to -75.000
!@!!Integration method: bin normalized
!@!N
!@!SS
!@!M
!@!L 0.0 0.0 0.0 0.0
!@!XDegrees
!@!YCounts
53.000 8.894837
53.005 8.933828
53.010 9.228637
53.015 9.102641
53.020 8.602307
53.025 8.432549
53.030 8.36077
53.035 7.981863
53.040 8.125066
53.045 7.960223
53.050 7.755882
53.055 7.792425
53.060 8.03601
53.065 8.190304
53.070 8.148404
53.075 7.957537
53.080 8.090318
53.085 8.410255
53.090 8.449877
53.095 8.034862
53.100 8.004848
53.105 8.382642
53.110 8.917548
53.115 8.695326
53.120 8.454473
53.125 8.588099
53.130 9.057739
53.135 9.130565
53.140 8.63813
53.145 8.821481
53.150 8.961825
53.155 9.020406
53.160 9.036934
53.165 9.162905
53.170 9.668696
53.175 10.057425
53.180 9.86692
53.185 9.83746
53.190 10.073023
53.195 10.385649
53.200 10.081199
53.205 9.512283
53.210 9.552279
53.215 10.223588
53.220 10.271433
53.225 9.910448
53.230 9.305021
53.235 9.166029
53.240 9.068124
53.245 8.478728
53.250 8.001935
53.255 7.858418
53.260 7.898704
53.265 7.741569
53.270 7.775385
53.275 7.722078
53.280 7.497821
53.285 7.58413
53.290 7.611931
53.295 7.692978
53.300 7.723252
53.305 7.997792
53.310 8.625519
53.315 8.760401
53.320 8.699973
53.325 8.843129
53.330 8.764266
53.335 8.662698
53.340 8.343946
53.345 8.216125
53.350 8.371731
53.355 8.530045
53.360 8.431369
53.365 8.396382
53.370 8.497386
53.375 8.324823
53.380 8.441101
53.385 8.850012
53.390 8.630457
53.395 8.80069
53.400 8.853253
53.405 9.184616
53.410 9.491701
53.415 9.752147
53.420 9.728454
53.425 10.027965
53.430 10.01019
53.435 9.854918
53.440 9.772419
53.445 9.564356
53.450 9.426057
53.455 9.544285
53.460 9.782657
53.465 9.796566
53.470 9.882504
53.475 9.596404
53.480 9.597104
53.485 9.531227
53.490 8.929155
53.495 8.901542
53.500 9.124886
53.505 9.205579
53.510 9.133896
53.515 9.206575
53.520 9.554199
53.525 9.561808
53.530 9.926846
53.535 10.040525
53.540 10.047885
53.545 10.256973
53.550 9.940055
53.555 10.324796
53.560 10.160445
53.565 9.787683
53.570 10.012435
53.575 9.720676
53.580 9.562116
53.585 9.407971
53.590 8.931195
53.595 9.210583
53.600 8.875413
53.605 8.558422
53.610 8.680432
53.615 8.536328
53.620 8.390134
53.625 8.583117
53.630 8.928268
53.635 9.255361
53.640 9.649435
53.645 9.769217
53.650 10.064486
53.655 9.915156
53.660 9.76819
53.665 9.340615
53.670 9.128752
53.675 9.193426
53.680 9.209281
53.685 8.88477
53.690 8.655537
53.695 8.290163
53.700 8.37941
53.705 8.139335
53.710 7.584674
53.715 7.295773
53.720 7.896235
53.725 8.231466
53.730 8.164578
53.735 8.404144
53.740 8.804242
53.745 9.153313
53.750 9.501532
53.755 9.489401
53.760 10.029937
53.765 10.439752
53.770 10.374109
53.775 10.285673
53.780 10.143884
53.785 9.574281
53.790 9.338918
53.795 8.943975
53.800 8.682673
53.805 8.777785
53.810 8.608331
53.815 8.51147
53.820 8.906263
53.825 9.439782
53.830 9.511546
53.835 9.712013
53.840 9.606108
53.845 9.812876
53.850 9.917793
53.855 9.755974
53.860 9.249508
53.865 9.263501
53.870 8.990616
53.875 9.028414
53.880 9.500188
53.885 9.238596
53.890 8.931463
53.895 8.680904
53.900 8.225928
53.905 8.500401
53.910 8.598506
53.915 8.548841
53.920 8.61852
53.925 8.854465
53.930 9.083231
53.935 9.493695
53.940 9.099683
53.945 8.622631
53.950 8.561843
53.955 8.66332
53.960 8.973909
53.965 9.399098
53.970 9.182392
53.975 9.230171
53.980 9.325004
53.985 9.345846
53.990 9.480012
53.995 9.345305
54.000 9.183331
54.005 9.276526
54.010 10.027144
54.015 10.477375
54.020 10.524725
54.025 10.488267
54.030 10.554175
54.035 10.699946
54.040 10.678393
54.045 10.257476
54.050 9.683841
54.055 9.597767
54.060 9.493367
54.065 9.101469
54.070 9.156584
54.075 9.128005
54.080 9.250602
54.085 9.484427
54.090 9.78989
54.095 9.838031
54.100 9.978282
54.105 9.62775
54.110 9.335016
54.115 9.630435
54.120 9.42084
54.125 8.897253
54.130 8.923212
54.135 9.124199
54.140 9.686549
54.145 10.008027
54.150 9.737374
54.155 9.904419
54.160 10.034071
54.165 9.504262
54.170 9.446979
54.175 9.013637
54.180 8.601744
54.185 8.881678
54.190 8.954545
54.195 9.428538
54.200 9.74036
54.205 9.42221
54.210 9.100255
54.215 9.117588
54.220 9.111065
54.225 9.396161
54.230 9.392163
54.235 9.494752
54.240 9.602285
54.245 9.889714
54.250 9.567759
54.255 9.127051
54.260 8.880804
54.265 8.708435
54.270 9.362329
54.275 9.419804
54.280 9.569137
54.285 9.667795
54.290 9.510382
54.295 9.071522
54.300 8.686651
54.305 8.462987
54.310 8.797558
54.315 8.882479
54.320 9.315428
54.325 9.714135
54.330 10.28021
54.335 10.930051
54.340 10.9546
54.345 11.089374
54.350 10.920904
54.355 10.929589
54.360 10.689839
54.365 10.471539
54.370 9.836618
54.375 9.623735
54.380 9.52051
54.385 9.41603
54.390 9.223415
54.395 9.042353
54.400 8.938542
54.405 9.129098
54.410 9.428297
54.415 9.912632
54.420 10.061922
54.425 9.805345
54.430 9.623368
54.435 9.674598
54.440 9.014836
54.445 9.040844
54.450 8.925231
54.455 9.253882
54.460 9.782782
54.465 9.912408
54.470 10.036294
54.475 10.261255
54.480 10.140314
54.485 10.216003
54.490 9.947656
54.495 10.254111
54.500 10.191153
54.505 9.823105
54.510 9.714231
54.515 9.363098
54.520 9.329248
54.525 9.851176
54.530 9.707773
54.535 9.922528
54.540 10.320536
54.545 10.27572
54.550 10.434632
54.555 9.897517
54.560 10.095726
54.565 10.234426
54.570 10.298589
54.575 10.129665
54.580 10.183428
54.585 10.224147
54.590 10.656976
54.595 10.550475
54.600 10.46062
54.605 10.326829
54.610 10.289994
54.615 10.256659
54.620 10.440338
54.625 10.02037
54.630 9.639304
54.635 10.250418
54.640 10.362885
54.645 10.744278
54.650 11.117985
54.655 11.432797
54.660 11.617122
54.665 11.660556
54.670 11.555632
54.675 11.42139
54.680 11.394397
54.685 11.028549
54.690 10.562487
54.695 11.024803
54.700 11.053122
54.705 10.652108
54.710 10.520472
54.715 10.330576
54.720 9.910813
54.725 9.318551
54.730 9.029439
54.735 9.249998
54.740 9.761873
54.745 9.937012
54.750 9.848899
54.755 10.02117
54.760 10.142804
54.765 10.001578
54.770 9.684697
54.775 9.470915
54.780 8.811185
54.785 8.845253
54.790 9.420329
54.795 9.327208
54.800 8.850067
54.805 9.092232
54.810 9.528818
54.815 10.749394
54.820 10.442963
54.825 10.082264
54.830 10.348248
54.835 10.791791
54.840 10.816183
54.845 10.510508
54.850 10.436196
54.855 10.798528
54.860 11.122225
54.865 11.278319
54.870 11.097895
54.875 11.464593
54.880 11.137751
54.885 10.731562
54.890 10.822047
54.895 10.816795
54.900 11.052958
54.905 11.019538
54.910 10.864513
54.915 11.027761
54.920 11.092752
54.925 10.59814
54.930 10.592382
54.935 10.09402
54.940 10.210961
54.945 10.393209
54.950 10.549366
54.955 10.875216
54.960 11.294095
54.965 10.949623
54.970 11.295182
54.975 11.145676
54.980 10.861101
54.985 10.922333
54.990 10.744287
54.995 10.790773
55.000 11.049832
55.005 10.836559
55.010 10.612577
55.015 10.625385
55.020 10.292786
55.025 10.664355
55.030 10.713837
55.035 10.394984
55.040 10.612965
55.045 10.72483
55.050 10.810684
55.055 11.037997
55.060 10.913875
55.065 10.783637
55.070 10.994294
55.075 10.892201
55.080 10.911235
55.085 10.90922
55.090 10.462132
55.095 10.535657
55.100 10.713822
55.105 10.487877
55.110 10.366083
55.115 10.643485
55.120 10.983619
55.125 11.163958
55.130 10.74858
55.135 10.447334
55.140 10.723749
55.145 10.961008
55.150 10.753255
55.155 10.675161
55.160 10.579191
55.165 10.787651
55.170 11.047056
55.175 11.304708
55.180 11.493163
55.185 11.654047
55.190 11.46944
55.195 11.412178
55.200 11.944897
55.205 11.674549
55.210 11.216641
55.215 10.873176
55.220 10.903025
55.225 11.237944
55.230 10.859048
55.235 9.804566
55.240 9.838006
55.245 10.100105
55.250 9.990331
55.255 9.834463
55.260 9.554134
55.265 10.268071
55.270 10.79906
55.275 11.007277
55.280 11.002702
55.285 11.170896
55.290 11.030373
55.295 11.242543
55.300 11.037801
55.305 11.298862
55.310 11.118458
55.315 11.007982
55.320 11.156265
55.325 11.140693
55.330 10.827873
55.335 10.858989
55.340 10.292968
55.345 10.382589
55.350 10.378129
55.355 10.233222
55.360 10.260213
55.365 9.857094
55.370 9.558784
55.375 9.519753
55.380 9.315929
55.385 8.880922
55.390 8.449197
55.395 9.035376
55.400 9.649709
55.405 9.617058
55.410 9.534795
55.415 9.773686
55.420 10.037915
55.425 10.748631
55.430 10.163806
55.435 10.193941
55.440 10.654429
55.445 11.253358
55.450 11.470813
55.455 11.787134
55.460 11.067397
55.465 11.165987
55.470 11.130892
55.475 10.740813
55.480 10.465779
55.485 10.041812
55.490 10.042455
55.495 10.367995
55.500 10.173342
55.505 10.20627
55.510 10.382983
55.515 10.400471
55.520 10.565485
55.525 10.235776
55.530 10.550205
55.535 10.62732
55.540 10.472902
55.545 10.245989
55.550 10.552392
55.555 10.528775
55.560 10.39543
55.565 10.418161
55.570 10.399291
55.575 10.430409
55.580 10.11819
55.585 10.025137
55.590 10.413779
55.595 10.734896
55.600 10.905097
55.605 10.912047
55.610 11.131392
55.615 11.431099
55.620 10.786496
55.625 10.225233
55.630 10.176887
55.635 10.175625
55.640 10.311265
55.645 10.159109
55.650 10.427451
55.655 10.788949
55.660 10.819912
55.665 10.234232
55.670 10.128794
55.675 10.261928
55.680 10.342574
55.685 10.53397
55.690 10.917054
55.695 11.513023
55.700 12.405675
55.705 12.807188
55.710 12.857133
55.715 12.848113
55.720 12.829453
55.725 12.651733
55.730 12.427479
55.735 12.303273
55.740 11.983385
55.745 11.980633
55.750 11.59084
55.755 11.211278
55.760 11.078684
55.765 10.740797
55.770 10.067157
55.775 10.306538
55.780 10.691768
55.785 10.875804
55.790 11.082605
55.795 11.155279
55.800 11.181004
55.805 11.568085
55.810 11.079741
55.815 10.744979
55.820 11.104863
55.825 11.263638
55.830 11.233747
55.835 11.838187
55.840 11.944134
55.845 12.411909
55.850 12.20669
55.855 12.193395
55.860 12.060305
55.865 12.668701
55.870 12.644063
55.875 12.373256
55.880 12.407522
55.885 12.681515
55.890 12.507668
55.895 12.590902
55.900 12.16581
55.905 11.992479
55.910 12.214995
55.915 12.28964
55.920 11.771967
55.925 11.682528
55.930 11.739451
55.935 11.891276
55.940 12.270157
55.945 12.344766
55.950 12.221458
55.955 12.724681
55.960 12.714182
55.965 12.126084
55.970 11.6631
55.975 11.272898
55.980 11.223425
55.985 10.740903
55.990 10.44838
55.995 10.625627
56.000 10.792321
56.005 10.902669
56.010 11.283831
56.015 11.236563
56.020 11.586644
56.025 11.69115
56.030 11.696939
56.035 11.860591
56.040 11.605892
56.045 11.263935
56.050 11.448817
56.055 11.662721
56.060 11.312915
56.065 11.354268
56.070 11.810513
56.075 12.401902
56.080 12.768849
56.085 12.456017
56.090 12.349635
56.095 12.895461
56.100 12.989609
56.105 12.778966
56.110 12.131905
56.115 11.785986
56.120 11.631919
56.125 11.744147
56.130 11.456329
56.135 11.089005
56.140 10.806007
56.145 11.381432
56.150 11.294741
56.155 11.833529
56.160 11.990949
56.165 11.866242
56.170 12.12166
56.175 12.600183
56.180 12.432859
56.185 12.34242
56.190 11.902891
56.195 11.69127
56.200 12.001663
56.205 11.926631
56.210 11.53451
56.215 11.315813
56.220 11.522273
56.225 11.550149
56.230 12.006085
56.235 12.489355
56.240 12.603692
56.245 13.213464
56.250 13.782933
56.255 13.937979
56.260 13.724892
56.265 13.414123
56.270 13.02102
56.275 12.736534
56.280 11.991439
56.285 11.328249
56.290 11.641293
56.295 12.115715
56.300 12.256177
56.305 12.439789
56.310 12.215875
56.315 12.192716
56.320 12.058385
56.325 12.02033
56.330 12.071855
56.335 12.031999
56.340 12.228783
56.345 12.569865
56.350 12.870944
56.355 13.245884
56.360 12.625603
56.365 12.182728
56.370 11.896294
56.375 11.598368
56.380 11.736556
56.385 12.173535
56.390 11.816159
56.395 12.054401
56.400 12.066773
56.405 12.057656
56.410 11.958401
56.415 11.833712
56.420 11.611864
56.425 11.932416
56.430 11.828477
56.435 11.934841
56.440 11.753448
56.445 11.458425
56.450 11.306646
56.455 10.703866
56.460 10.653095
56.465 10.97829
56.470 10.51869
56.475 10.388469
56.480 10.235281
56.485 10.756333
56.490 11.636252
56.495 11.83148
56.500 11.090715
56.505 11.240334
56.510 12.044481
56.515 12.544589
56.520 12.309756
56.525 12.10141
56.530 12.199134
56.535 12.482426
56.540 12.496319
56.545 12.146952
56.550 12.22854
56.555 12.254115
56.560 11.953646
56.565 12.192416
56.570 12.395653
56.575 12.441617
56.580 12.697017
56.585 12.441664
56.590 12.15789
56.595 12.294619
56.600 11.975033
56.605 11.924755
56.610 11.966821
56.615 11.696565
56.620 11.931846
56.625 11.980459
56.630 12.303172
56.635 12.594772
56.640 12.728082
56.645 12.831965
56.650 12.947167
56.655 13.017386
56.660 12.881559
56.665 12.581195
56.670 12.452311
56.675 12.614074
56.680 12.779681
56.685 13.117245
56.690 13.387728
56.695 13.023961
56.700 12.872526
56.705 13.153378
56.710 13.2607
56.715 12.902846
56.720 12.989057
56.725 12.800284
56.730 13.128705
56.735 13.12114
56.740 12.956256
56.745 12.541062
56.750 12.416138
56.755 12.247901
56.760 12.802762
56.765 13.249058
56.770 13.490769
56.775 13.553144
56.780 13.14175
56.785 12.953509
56.790 12.550446
56.795 12.432526
56.800 12.478521
56.805 12.8763
56.810 12.897529
56.815 13.490987
56.820 13.638136
56.825 13.927939
56.830 13.115774
56.835 12.443023
56.840 11.817418
56.845 12.243041
56.850 12.469875
56.855 12.566693
56.860 13.128666
56.865 13.765338
56.870 14.951067
56.875 14.94109
56.880 14.829587
56.885 14.788609
56.890 14.303076
56.895 13.632777
56.900 13.18542
56.905 12.098373
56.910 12.136792
56.915 11.643834
56.920 12.123869
56.925 12.660804
56.930 13.389956
56.935 13.599545
56.940 13.78309
56.945 13.58696
56.950 13.461898
56.955 13.142101
56.960 12.369439
56.965 11.739613
56.970 12.084102
56.975 12.567556
56.980 13.26539
56.985 13.470263
56.990 13.492783
56.995 13.79094
57.000 13.781963
57.005 13.421506
57.010 13.646293
57.015 13.287077
57.020 13.120018
57.025 13.208532
57.030 13.148942
57.035 13.183139
57.040 13.129821
57.045 12.898128
57.050 13.503511
57.055 13.253304
57.060 13.003107
57.065 13.024697
57.070 13.171988
57.075 13.671071
57.080 13.584762
57.085 13.175919
57.090 14.097799
57.095 14.414086
57.100 14.372536
57.105 14.484771
57.110 13.946055
57.115 13.794605
57.120 13.756302
57.125 13.410778
57.130 13.432776
57.135 13.146985
57.140 12.899914
57.145 12.893042
57.150 12.703998
57.155 11.946768
57.160 11.508763
57.165 11.00457
57.170 11.207915
57.175 11.314976
57.180 11.521663
57.185 11.792085
57.190 11.969126
57.195 12.032246
57.200 12.287116
57.205 12.242163
57.210 12.499456
57.215 12.401237
57.220 12.856128
57.225 13.308021
57.230 13.679178
57.235 14.231685
57.240 14.399597
57.245 14.0195
57.250 14.397186
57.255 14.561145
57.260 14.992688
57.265 15.079316
57.270 15.04355
57.275 14.813632
57.280 14.82617
57.285 14.125808
57.290 13.766487
57.295 13.550889
57.300 12.942336
57.305 12.466082
57.310 12.702303
57.315 12.182234
57.320 12.297687
57.325 12.211113
57.330 12.56039
57.335 12.910552
57.340 12.906754
57.345 13.14033
57.350 14.060855
57.355 14.388487
57.360 14.707649
57.365 14.680584
57.370 15.061947
57.375 15.375693
57.380 15.382351
57.385 14.871486
57.390 14.474379
57.395 14.137152
57.400 13.828275
57.405 13.904071
57.410 13.566691
57.415 13.172832
57.420 13.323438
57.425 13.571054
57.430 13.130204
57.435 13.160365
57.440 12.819104
57.445 12.669213
57.450 13.135442
57.455 12.973533
57.460 12.641416
57.465 12.994246
57.470 12.782052
57.475 12.627711
57.480 12.651382
57.485 12.619948
57.490 12.857568
57.495 12.592083
57.500 12.101571
57.505 12.013911
57.510 12.172591
57.515 12.445622
57.520 11.886102
57.525 11.855299
57.530 12.719378
57.535 13.315888
57.540 13.622309
57.545 13.691204
57.550 13.609303
57.555 14.136789
57.560 14.025697
57.565 13.939007
57.570 13.986498
57.575 13.833494
57.580 13.855134
57.585 13.889648
57.590 14.176629
57.595 14.126032
57.600 13.652395
57.605 13.668297
57.610 13.674129
57.615 13.744915
57.620 13.938537
57.625 13.90132
57.630 14.447936
57.635 14.796057
57.640 15.018138
57.645 14.990321
57.650 14.905872
57.655 14.576465
57.660 14.239746
57.665 13.630597
57.670 13.118811
57.675 13.346067
57.680 13.970592
57.685 13.837576
57.690 13.556777
57.695 13.55254
57.700 13.694322
57.705 13.58569
57.710 13.207295
57.715 12.840467
57.720 13.187965
57.725 13.552587
57.730 13.922085
57.735 14.038198
57.740 14.329046
57.745 14.242011
57.750 14.245121
57.755 14.436754
57.760 14.604224
57.765 14.488622
57.770 14.155427
57.775 14.218768
57.780 14.736607
57.785 14.943678
57.790 15.183678
57.795 14.890957
57.800 15.289473
57.805 15.735355
57.810 15.356096
57.815 14.787902
57.820 14.316645
57.825 14.206006
57.830 15.089659
57.835 15.605014
57.840 15.839244
57.845 16.249294
57.850 16.062147
57.855 15.516564
57.860 15.765407
57.865 15.177617
57.870 14.440057
57.875 14.002846
57.880 14.057578
57.885 14.675427
57.890 15.41687
57.895 15.029372
57.900 15.75247
57.905 16.272072
57.910 16.556337
57.915 16.439478
57.920 16.42021
57.925 16.35915
57.930 15.99696
57.935 15.422528
57.940 15.242082
57.945 15.027343
57.950 15.144591
57.955 15.256025
57.960 15.023705
57.965 15.17706
57.970 14.743478
57.975 14.650407
57.980 14.690505
57.985 14.633812
57.990 14.330053
57.995 14.775422
58.000 15.169968
58.005 15.392625
58.010 15.775351
58.015 16.111698
58.020 15.939078
58.025 15.685593
58.030 15.431274
58.035 15.253345
58.040 15.165487
58.045 15.151981
58.050 15.130964
58.055 15.218199
58.060 15.348114
58.065 15.354756
58.070 15.553859
58.075 15.72064
58.080 15.20404
58.085 14.921265
58.090 14.950406
58.095 14.669656
58.100 14.640059
58.105 14.278125
58.110 14.38709
58.115 14.189789
58.120 14.240404
58.125 14.476079
58.130 14.99929
58.135 15.06397
58.140 15.435217
58.145 16.113394
58.150 16.627953
58.155 16.895731
58.160 17.242102
58.165 17.415558
58.170 17.823778
58.175 17.728823
58.180 17.17288
58.185 16.81217
58.190 16.407116
58.195 16.124428
58.200 15.702327
58.205 15.284292
58.210 15.162878
58.215 15.060204
58.220 15.071074
58.225 15.437531
58.230 15.455391
58.235 15.546071
58.240 15.411363
58.245 15.186934
58.250 15.979239
58.255 16.675512
58.260 16.40243
58.265 16.432461
58.270 16.648914
58.275 16.919224
58.280 17.489164
58.285 17.446703
58.290 17.5641
58.295 17.529058
58.300 17.959082
58.305 18.192934
58.310 18.476849
58.315 18.563459
58.320 18.167315
58.325 18.250633
58.330 18.848238
58.335 18.810287
58.340 18.66946
58.345 18.440929
58.350 18.085688
58.355 18.388195
58.360 18.659834
58.365 19.269297
58.370 19.949316
58.375 20.485601
58.380 21.197084
58.385 22.029873
58.390 22.718559
58.395 22.769171
58.400 21.850105
58.405 21.514814
58.410 21.847015
58.415 22.058914
58.420 21.673103
58.425 21.673676
58.430 21.814308
58.435 21.941595
58.440 22.101013
58.445 21.810045
58.450 21.875572
58.455 22.319899
58.460 22.539928
58.465 22.96036
58.470 23.567616
58.475 24.335505
58.480 24.492449
58.485 24.795433
58.490 25.110224
58.495 25.526567
58.500 25.781935
58.505 26.034918
58.510 26.696539
58.515 27.236761
58.520 27.322199
58.525 28.28277
58.530 29.123985
58.535 29.906107
58.540 30.27746
58.545 30.163374
58.550 30.384651
58.555 30.692736
58.560 30.333721
58.565 30.391815
58.570 30.796713
58.575 30.562349
58.580 30.326321
58.585 30.946779
58.590 31.561916
58.595 31.89259
58.600 32.262817
58.605 32.072239
58.610 32.422665
58.615 32.842022
58.620 32.914272
58.625 33.337124
58.630 32.98838
58.635 32.632904
58.640 32.975689
58.645 33.57925
58.650 33.873611
58.655 33.680004
58.660 34.255947
58.665 34.677765
58.670 34.86935
58.675 35.698936
58.680 36.195465
58.685 36.566402
58.690 36.846447
58.695 36.997704
58.700 37.053688
58.705 36.756603
58.710 36.525887
58.715 36.039822
58.720 35.953003
58.725 36.51033
58.730 35.277798
58.735 35.481743
58.740 36.039249
58.745 36.016857
58.750 35.651566
58.755 34.864513
58.760 33.749695
58.765 33.150963
58.770 32.863117
58.775 31.898233
58.780 31.168888
58.785 31.012072
58.790 30.988699
58.795 31.072685
58.800 30.872568
58.805 30.826296
58.810 30.693007
58.815 30.258499
58.820 29.437841
58.825 28.96048
58.830 28.355896
58.835 28.603786
58.840 27.807215
58.845 27.201403
58.850 27.192032
58.855 27.141073
58.860 27.087088
58.865 27.285831
58.870 26.512447
58.875 25.973909
58.880 25.508453
58.885 25.281837
58.890 24.765129
58.895 23.673307
58.900 22.627361
58.905 21.842684
58.910 21.560343
58.915 21.211905
58.920 20.35589
58.925 20.21056
58.930 20.515839
58.935 20.603525
58.940 20.887749
58.945 21.05073
58.950 20.390074
58.955 19.730743
58.960 19.630632
58.965 19.899658
58.970 19.819588
58.975 19.533186
58.980 19.092766
58.985 19.47294
58.990 19.592026
58.995 19.072851
59.000 17.894711
59.005 17.412746
59.010 16.601355
59.015 16.377296
59.020 15.677414
59.025 15.526446
59.030 15.607171
59.035 15.808882
59.040 16.172087
59.045 15.936167
59.050 15.841846
59.055 15.944757
59.060 16.191343
59.065 16.275621
59.070 15.698984
59.075 15.100436
59.080 15.782398
59.085 15.469624
59.090 15.478104
59.095 15.553092
59.100 15.68
59.105 16.026829
59.110 15.88961
59.115 15.380662
59.120 15.759634
59.125 15.90266
59.130 15.778823
59.135 15.820499
59.140 16.017076
59.145 16.359217
59.150 16.075712
59.155 15.276459
59.160 14.801691
59.165 14.496649
59.170 14.40922
59.175 14.750539
59.180 14.94856
59.185 15.172369
59.190 15.886147
59.195 16.202497
59.200 16.019773
59.205 15.939589
59.210 15.426642
59.215 14.948356
59.220 14.909975
59.225 14.400951
59.230 14.04846
59.235 14.53776
59.240 14.403113
59.245 14.366546
59.250 14.958117
59.255 15.389196
59.260 15.852653
59.265 15.698806
59.270 15.395491
59.275 15.58211
59.280 15.5636
59.285 15.406089
59.290 14.929732
59.295 14.743237
59.300 14.808736
59.305 14.462736
59.310 14.449614
59.315 14.484749
59.320 14.092365
59.325 14.349861
59.330 14.505793
59.335 14.717134
59.340 14.843567
59.345 14.363605
59.350 14.533617
59.355 14.487828
59.360 14.690407
59.365 14.769649
59.370 14.807412
59.375 15.310816
59.380 15.668875
59.385 15.612678
59.390 16.271105
59.395 16.108267
59.400 16.42251
59.405 16.516687
59.410 16.390726
59.415 16.416363
59.420 16.043535
59.425 16.157139
59.430 16.181295
59.435 15.947041
59.440 15.923086
59.445 15.782686
59.450 15.46632
59.455 15.525343
59.460 15.201823
59.465 16.053478
59.470 15.802361
59.475 15.754845
59.480 15.931044
59.485 16.038187
59.490 15.951266
59.495 15.465309
59.500 14.800464
59.505 15.484019
59.510 15.061657
59.515 14.772233
59.520 15.067066
59.525 15.499108
59.530 15.508936
59.535 15.117066
59.540 14.604447
59.545 14.739133
59.550 14.842513
59.555 14.666289
59.560 14.442507
59.565 15.071568
59.570 15.466139
59.575 15.535845
59.580 15.288939
59.585 14.998984
59.590 14.537957
59.595 13.985213
59.600 12.999742
59.605 12.536575
59.610 12.640195
59.615 12.566986
59.620 12.651568
59.625 13.276034
59.630 13.992922
59.635 14.512155
59.640 14.274856
59.645 14.100825
59.650 14.561029
59.655 14.20926
59.660 14.240656
59.665 14.463714
59.670 14.374119
59.675 15.435461
59.680 15.754792
59.685 15.554477
59.690 16.415319
59.695 16.660856
59.700 16.812424
59.705 16.447445
59.710 15.260299
59.715 14.625226
59.720 14.786595
59.725 14.355318
59.730 13.876213
59.735 13.432179
59.740 13.909258
59.745 14.603866
59.750 15.363988
59.755 15.589864
59.760 15.418396
59.765 15.520756
59.770 15.681289
59.775 15.552154
59.780 15.402565
59.785 15.280834
59.790 15.015832
59.795 15.469528
59.800 15.722044
59.805 15.440393
59.810 15.523895
59.815 15.644112
59.820 15.735973
59.825 16.029346
59.830 15.642174
59.835 15.731575
59.840 15.722655
59.845 15.781085
59.850 15.527201
59.855 15.174121
59.860 14.921618
59.865 15.074615
59.870 14.864379
59.875 14.612704
59.880 14.959564
59.885 14.746364
59.890 14.829328
59.895 14.920943
59.900 15.172113
59.905 15.167853
59.910 15.644683
59.915 15.361491
59.920 15.553941
59.925 15.239242
59.930 15.130095
59.935 14.557259
59.940 14.584555
59.945 14.374513
59.950 14.47443
59.955 14.689707
59.960 15.117185
59.965 15.466612
59.970 15.752071
59.975 15.209131
59.980 14.953072
59.985 15.166406
59.990 15.448489
59.995 15.041661
60.000 14.633915
60.005 14.738091
60.010 15.292737
60.015 15.493191
60.020 14.978904
60.025 15.065189
60.030 15.366572
60.035 15.400318
60.040 15.407567
60.045 15.05092
60.050 15.194431
60.055 15.730309
60.060 15.536861
60.065 15.831184
60.070 16.141609
60.075 16.22607
60.080 16.335087
60.085 16.08618
60.090 15.614243
60.095 15.506763
60.100 15.264851
60.105 15.429936
60.110 15.365681
60.115 15.585072
60.120 16.017788
60.125 15.925575
60.130 16.023373
60.135 15.892939
60.140 15.370025
60.145 15.345168
60.150 15.559406
60.155 15.945788
60.160 16.456839
60.165 16.886761
60.170 17.047453
60.175 17.313383
60.180 17.458588
60.185 17.403791
60.190 16.962776
60.195 16.452284
60.200 16.008219
60.205 15.780413
60.210 15.859864
60.215 16.048532
60.220 15.487906
60.225 15.20927
60.230 14.889715
60.235 14.750568
60.240 14.621959
60.245 14.470364
60.250 14.251831
60.255 14.320411
60.260 14.775543
60.265 15.289678
60.270 15.570974
60.275 15.82549
60.280 16.148977
60.285 16.109434
60.290 16.558548
60.295 16.665424
60.300 16.605925
60.305 16.547195
60.310 15.980011
60.315 15.687106
60.320 15.315412
60.325 14.748318
60.330 14.003842
60.335 13.949585
60.340 13.471104
60.345 13.801672
60.350 14.214189
60.355 14.282075
60.360 14.566867
60.365 14.797458
60.370 14.942061
60.375 14.948349
60.380 14.890995
60.385 14.702038
60.390 14.881195
60.395 15.344811
60.400 15.385819
60.405 15.416157
60.410 15.914221
60.415 15.988079
60.420 15.902955
60.425 15.925653
60.430 15.413548
60.435 15.47562
60.440 15.425638
60.445 15.286371
60.450 15.406654
60.455 15.719178
60.460 15.771791
60.465 16.279039
60.470 16.359846
60.475 16.467108
60.480 16.917156
60.485 16.713371
60.490 16.743713
60.495 16.14826
60.500 15.549644
60.505 15.756434
60.510 15.784284
60.515 15.613173
60.520 15.548996
60.525 15.256189
60.530 15.519548
60.535 15.408238
60.540 14.837562
60.545 14.795422
60.550 14.910072
60.555 15.325087
60.560 15.272205
60.565 15.2545
60.570 15.660337
60.575 15.926294
60.580 16.159168
60.585 15.92551
60.590 15.528113
60.595 15.925095
60.600 15.661904
60.605 15.718506
60.610 15.636779
60.615 15.273491
60.620 15.390601
60.625 15.356566
60.630 14.824639
60.635 14.718401
60.640 14.34482
60.645 14.550768
60.650 14.441344
60.655 13.967385
60.660 14.137717
60.665 15.001554
60.670 15.71533
60.675 16.200798
60.680 15.466471
60.685 15.293257
60.690 15.056149
60.695 15.298431
60.700 15.125981
60.705 15.169149
60.710 14.906091
60.715 15.220964
60.720 15.303884
60.725 15.82056
60.730 15.032495
60.735 14.816052
60.740 14.535089
60.745 14.296799
60.750 14.562859
60.755 14.835493
60.760 15.206769
60.765 15.89608
60.770 15.636778
60.775 15.322891
60.780 15.7774
60.785 15.365486
60.790 15.067139
60.795 14.719342
60.800 14.333838
60.805 14.223785
60.810 14.777815
60.815 14.5371
60.820 14.580909
60.825 14.428517
60.830 14.494102
60.835 14.397202
60.840 14.495961
60.845 13.826677
60.850 14.407314
60.855 15.02216
60.860 15.44256
60.865 15.320163
60.870 15.673509
60.875 15.610181
60.880 15.724208
60.885 15.306052
60.890 14.552176
60.895 14.489833
60.900 14.687536
60.905 14.672403
60.910 14.916907
60.915 14.774297
60.920 14.703058
60.925 15.325314
60.930 15.37253
60.935 15.355474
60.940 15.907928
60.945 16.157644
60.950 16.487051
60.955 16.783047
60.960 16.685535
60.965 16.767433
60.970 16.640741
60.975 15.841456
60.980 15.563111
60.985 14.650101
60.990 14.661271
60.995 14.211267
61.000 13.99335
61.005 13.998077
61.010 14.16223
61.015 14.33462
61.020 14.659169
61.025 14.877833
61.030 15.203717
61.035 14.911734
61.040 15.189866
61.045 15.135229
61.050 14.869698
61.055 15.535326
61.060 15.6628
61.065 16.077364
61.070 16.867931
61.075 16.624205
61.080 17.034815
61.085 17.284559
61.090 16.43236
61.095 15.411247
61.100 15.220356
61.105 15.259291
61.110 15.034829
61.115 14.792368
61.120 14.456611
61.125 14.706882
61.130 15.465604
61.135 15.324176
61.140 15.099941
61.145 15.741851
61.150 15.924113
61.155 16.287344
61.160 16.548487
61.165 16.261684
61.170 16.092855
61.175 15.910779
61.180 15.119848
61.185 14.867111
61.190 14.602924
61.195 15.172103
61.200 15.939447
61.205 16.315958
61.210 16.634125
61.215 16.45105
61.220 16.841698
61.225 17.480047
61.230 17.281733
61.235 16.502823
61.240 16.029913
61.245 16.535461
61.250 17.385548
61.255 17.65489
61.260 17.18615
61.265 16.218826
61.270 16.262672
61.275 16.697657
61.280 16.792578
61.285 16.21578
61.290 15.495198
61.295 15.333941
61.300 15.985597
61.305 16.046505
61.310 15.782735
61.315 15.478377
61.320 15.938047
61.325 16.045002
61.330 15.867182
61.335 15.72573
61.340 15.801856
61.345 15.973035
61.350 15.880797
61.355 15.416782
61.360 15.401707
61.365 15.924506
61.370 16.11026
61.375 15.448821
61.380 14.744997
61.385 14.309368
61.390 14.261715
61.395 14.172855
61.400 14.419939
61.405 14.584135
61.410 15.35866
61.415 15.698367
61.420 15.595836
61.425 15.644599
61.430 15.861664
61.435 15.575512
61.440 15.143261
61.445 15.125454
61.450 15.403933
61.455 16.041658
61.460 16.347437
61.465 16.23863
61.470 15.933936
61.475 15.841679
61.480 15.647425
61.485 14.907162
61.490 13.91195
61.495 13.633172
61.500 13.932444
61.505 13.694054
61.510 13.948975
61.515 13.762239
61.520 14.38787
61.525 15.259027
61.530 15.467189
61.535 15.121881
61.540 15.27834
61.545 15.319292
61.550 16.019663
61.555 15.936018
61.560 15.717796
61.565 15.700046
61.570 15.875084
61.575 15.98652
61.580 16.102039
61.585 16.003124
61.590 16.310305
61.595 16.26573
61.600 16.025633
61.605 16.048187
61.610 16.198851
61.615 15.848622
61.620 15.579251
61.625 15.675111
61.630 15.885628
61.635 15.884667
61.640 16.169949
61.645 16.208435
61.650 16.30036
61.655 16.141048
61.660 16.263439
61.665 15.864338
61.670 16.261105
61.675 15.616389
61.680 15.823752
61.685 15.983561
61.690 15.816518
61.695 15.750227
61.700 16.061943
61.705 16.256454
61.710 16.244473
61.715 15.459192
61.720 15.106753
61.725 15.146744
61.730 15.135619
61.735 14.745436
61.740 14.461362
61.745 14.824156
61.750 14.932362
61.755 14.854697
61.760 14.632474
61.765 14.458208
61.770 14.77906
61.775 14.778486
61.780 15.101667
61.785 16.007973
61.790 16.365059
61.795 17.142046
61.800 17.063078
61.805 17.329288
61.810 17.446241
61.815 17.404842
61.820 17.28083
61.825 16.917505
61.830 16.424084
61.835 16.396782
61.840 15.922806
61.845 15.689405
61.850 15.397279
61.855 15.752954
61.860 16.611334
61.865 17.033331
61.870 17.542215
61.875 17.672918
61.880 17.954693
61.885 18.17835
61.890 17.9002
61.895 17.995197
61.900 18.481113
61.905 18.664085
61.910 18.774326
61.915 18.391644
61.920 17.94784
61.925 17.827284
61.930 17.643284
61.935 17.157511
61.940 16.451136
61.945 16.478134
61.950 16.873104
61.955 17.034134
61.960 16.395456
61.965 16.090057
61.970 16.079168
61.975 16.536016
61.980 16.380243
61.985 15.861416
61.990 15.933707
61.995 16.337822
62.000 16.482925
62.005 16.103992
62.010 15.913216
62.015 15.792144
62.020 15.772388
62.025 15.873856
62.030 15.884188
62.035 16.074221
62.040 16.400169
62.045 15.933414
62.050 16.322479
62.055 16.471624
62.060 16.094877
62.065 15.969052
62.070 15.718961
62.075 15.616988
62.080 16.087473
62.085 16.095554
62.090 16.255703
62.095 16.228312
62.100 16.304359
62.105 16.35417
62.110 17.053986
62.115 17.058582
62.120 16.478899
62.125 16.892073
62.130 17.388697
62.135 17.303623
62.140 17.246632
62.145 16.880552
62.150 16.44578
62.155 17.054382
62.160 16.789837
62.165 16.729671
62.170 16.924515
62.175 16.537594
62.180 16.058771
62.185 16.32095
62.190 16.406101
62.195 16.495909
62.200 15.966984
62.205 15.546485
62.210 15.528547
62.215 15.55855
62.220 15.242039
62.225 14.655021
62.230 14.330009
62.235 14.022067
62.240 13.983134
62.245 14.02251
62.250 13.926617
62.255 14.546954
62.260 14.602735
62.265 14.394792
62.270 14.280659
62.275 14.366314
62.280 14.613626
62.285 15.264338
62.290 14.468883
62.295 14.790286
62.300 15.01021
62.305 15.179752
62.310 15.203657
62.315 15.105997
62.320 15.141938
62.325 15.354342
62.330 15.313028
62.335 15.814686
62.340 15.958491
62.345 15.946155
62.350 15.310872
62.355 15.226675
62.360 15.702347
62.365 15.669671
62.370 15.579458
62.375 15.994336
62.380 15.780093
62.385 15.633953
62.390 15.278342
62.395 15.021811
62.400 15.200627
62.405 14.926138
62.410 15.303492
62.415 15.905887
62.420 16.588844
62.425 16.551563
62.430 16.184368
62.435 15.57599
62.440 15.673809
62.445 15.832051
62.450 16.360052
62.455 16.667107
62.460 17.032194
62.465 17.646013
62.470 17.91995
62.475 18.105043
62.480 17.425404
62.485 16.600269
62.490 16.191492
62.495 15.64885
62.500 15.415118
62.505 15.253569
62.510 15.42278
62.515 15.66608
62.520 15.867229
62.525 16.325993
62.530 16.792269
62.535 16.813204
62.540 16.890879
62.545 16.611429
62.550 16.325592
62.555 16.234003
62.560 16.482534
62.565 16.201635
62.570 16.164831
62.575 16.582335
62.580 16.776012
62.585 16.613348
62.590 16.04421
62.595 15.537001
62.600 15.7116
62.605 15.842853
62.610 15.533075
62.615 15.979287
62.620 16.5935
62.625 17.015919
62.630 17.106876
62.635 17.276117
62.640 17.180819
62.645 17.166363
62.650 16.760071
62.655 16.653847
62.660 16.128101
62.665 15.820078
62.670 16.064247
62.675 16.419769
62.680 16.491749
62.685 16.466881
62.690 16.620697
62.695 16.882408
62.700 16.969027
62.705 17.123447
62.710 17.208323
62.715 17.409155
62.720 17.820488
62.725 18.062298
62.730 18.449898
62.735 18.547163
62.740 18.542702
62.745 18.221106
62.750 17.652655
62.755 17.523603
62.760 17.675205
62.765 17.698183
62.770 17.681927
62.775 16.921896
62.780 16.899309
62.785 16.993139
62.790 16.730829
62.795 16.166399
62.800 15.67851
62.805 15.115892
62.810 14.938733
62.815 14.760607
62.820 14.734943
62.825 14.535976
62.830 14.780821
62.835 15.542845
62.840 16.343863
62.845 16.873363
62.850 17.410702
62.855 17.454039
62.860 17.681026
62.865 17.509678
62.870 16.604328
62.875 16.599829
62.880 16.73315
62.885 16.750034
62.890 17.028555
62.895 17.026175
62.900 16.967903
62.905 17.186274
62.910 16.998924
62.915 16.136568
62.920 15.847071
62.925 15.445631
62.930 15.370564
62.935 15.30672
62.940 15.411243
62.945 16.040068
62.950 16.790298
62.955 16.55237
62.960 16.440201
62.965 16.470364
62.970 17.413374
62.975 17.505449
62.980 17.144011
62.985 17.005106
62.990 17.457319
62.995 17.988947
63.000 18.232826
63.005 17.392065
63.010 16.9757
63.015 17.147926
63.020 17.274406
63.025 17.516829
63.030 17.613783
63.035 17.706139
63.040 18.087019
63.045 18.23234
63.050 17.900452
63.055 17.951454
63.060 17.334501
63.065 16.7724
63.070 16.513699
63.075 16.472771
63.080 16.583189
63.085 16.533279
63.090 16.289564
63.095 16.334641
63.100 16.363602
63.105 16.88608
63.110 16.982649
63.115 16.921711
63.120 16.702951
63.125 16.963106
63.130 17.30665
63.135 17.001951
63.140 15.997884
63.145 16.312147
63.150 16.461662
63.155 16.183088
63.160 15.948967
63.165 15.785425
63.170 16.086315
63.175 16.292925
63.180 15.920292
63.185 16.225035
63.190 16.835194
63.195 16.410221
63.200 16.606857
63.205 16.676384
63.210 16.995928
63.215 17.27429
63.220 16.987131
63.225 17.210939
63.230 17.539886
63.235 17.301064
63.240 17.524515
63.245 17.442865
63.250 17.189209
63.255 17.118496
63.260 16.93688
63.265 16.909918
63.270 17.230179
63.275 16.901964
63.280 16.76528
63.285 17.18676
63.290 16.801901
63.295 16.748499
63.300 17.045616
63.305 17.408949
63.310 17.595316
63.315 17.884874
63.320 17.686399
63.325 18.039276
63.330 18.216896
63.335 18.582581
63.340 18.287462
63.345 18.167318
63.350 17.929739
63.355 17.706268
63.360 18.009624
63.365 17.950203
63.370 17.553204
63.375 17.469744
63.380 17.537498
63.385 17.47263
63.390 17.308485
63.395 17.340748
63.400 17.25704
63.405 16.63715
63.410 16.450247
63.415 16.71785
63.420 16.388079
63.425 17.065004
63.430 16.950611
63.435 16.721046
63.440 16.9037
63.445 17.023247
63.450 17.086456
63.455 17.905725
63.460 17.383507
63.465 17.169786
63.470 17.255383
63.475 17.680309
63.480 18.153427
63.485 18.477503
63.490 18.503469
63.495 18.510265
63.500 18.588829
63.505 18.573154
63.510 18.667509
63.515 18.50313
63.520 17.801714
63.525 17.341879
63.530 17.611797
63.535 17.574968
63.540 17.985006
63.545 17.948809
63.550 17.579863
63.555 17.829197
63.560 18.253057
63.565 18.152658
63.570 18.108225
63.575 18.093962
63.580 18.111303
63.585 18.882671
63.590 18.896326
63.595 18.214201
63.600 18.677509
63.605 18.713352
63.610 18.241886
63.615 18.242649
63.620 18.27854
63.625 18.655193
63.630 19.039722
63.635 18.287298
63.640 18.225727
63.645 18.38764
63.650 18.136789
63.655 17.373276
63.660 17.323463
63.665 17.969721
63.670 18.784147
63.675 19.37484
63.680 19.584629
63.685 19.998468
63.690 20.382431
63.695 20.151556
63.700 19.913441
63.705 19.456926
63.710 18.990229
63.715 18.386419
63.720 17.865902
63.725 17.747107
63.730 17.706408
63.735 18.037712
63.740 18.084764
63.745 17.470943
63.750 17.595943
63.755 17.253641
63.760 16.917656
63.765 16.883783
63.770 15.949205
63.775 15.598794
63.780 15.766432
63.785 15.601965
63.790 15.970759
63.795 16.126328
63.800 15.971501
63.805 15.868538
63.810 16.543604
63.815 17.111485
63.820 17.722534
63.825 17.791342
63.830 18.049593
63.835 18.467993
63.840 18.988699
63.845 18.58013
63.850 18.587154
63.855 18.22666
63.860 17.505295
63.865 17.200644
63.870 17.290667
63.875 17.313957
63.880 17.326756
63.885 17.455969
63.890 17.945644
63.895 18.669127
63.900 18.986328
63.905 18.947292
63.910 19.06389
63.915 18.970036
63.920 18.817522
63.925 18.195166
63.930 18.303377
63.935 18.116745
63.940 18.420052
63.945 18.743139
63.950 19.27673
63.955 19.496069
63.960 20.224651
63.965 20.311985
63.970 20.254787
63.975 19.99638
63.980 20.109732
63.985 19.983788
63.990 20.40815
63.995 20.770384
64.000 21.188116
64.005 21.388161
64.010 21.81427
64.015 22.045109
64.020 22.242474
64.025 22.179581
64.030 22.312742
64.035 22.460806
64.040 22.521242
64.045 22.081392
64.050 22.089092
64.055 21.83182
64.060 21.710447
64.065 21.578941
64.070 21.689426
64.075 22.213451
64.080 22.684217
64.085 22.990196
64.090 23.327522
64.095 23.083981
64.100 22.759151
64.105 22.545168
64.110 22.558491
64.115 22.717615
64.120 23.227829
64.125 23.612417
64.130 24.407515
64.135 24.571743
64.140 24.914181
64.145 25.326218
64.150 25.950888
64.155 26.447212
64.160 27.077053
64.165 28.356462
64.170 29.955217
64.175 30.406275
64.180 30.84938
64.185 31.001532
64.190 31.616659
64.195 31.469975
64.200 31.274019
64.205 31.178778
64.210 31.640627
64.215 32.093075
64.220 32.579357
64.225 33.333168
64.230 34.050228
64.235 33.544773
64.240 34.278385
64.245 35.032433
64.250 36.015987
64.255 37.259197
64.260 38.045704
64.265 39.108685
64.270 40.560646
64.275 40.875542
64.280 40.699093
64.285 40.489513
64.290 41.152679
64.295 41.795563
64.300 42.756634
64.305 42.868999
64.310 43.81942
64.315 44.305424
64.320 45.315727
64.325 45.932354
64.330 45.509159
64.335 45.25956
64.340 45.971043
64.345 45.404129
64.350 45.549438
64.355 45.263844
64.360 45.618279
64.365 46.352333
64.370 47.063931
64.375 47.02858
64.380 47.681122
64.385 47.764874
64.390 47.894314
64.395 48.221416
64.400 48.293396
64.405 46.90493
64.410 47.158226
64.415 47.274887
64.420 47.16531
64.425 47.35994
64.430 46.803944
64.435 46.893681
64.440 47.513733
64.445 47.522186
64.450 46.393204
64.455 46.444073
64.460 46.242947
64.465 45.883816
64.470 44.876163
64.475 44.362572
64.480 44.653332
64.485 45.235603
64.490 44.755684
64.495 44.598564
64.500 44.999786
64.505 45.87093
64.510 46.21516
64.515 45.515079
64.520 45.410744
64.525 44.632618
64.530 44.579288
64.535 45.065205
64.540 44.652344
64.545 44.013813
64.550 43.436314
64.555 42.84103
64.560 42.415516
64.565 41.339195
64.570 39.549732
64.575 38.832966
64.580 37.43158
64.585 36.618599
64.590 36.608265
64.595 36.771816
64.600 36.336544
64.605 34.625561
64.610 33.587654
64.615 33.939438
64.620 34.098385
64.625 34.386688
64.630 34.232552
64.635 33.921207
64.640 34.542404
64.645 33.843834
64.650 33.512051
64.655 32.585434
64.660 31.521835
64.665 30.858519
64.670 30.572775
64.675 29.654007
64.680 29.853233
64.685 29.64514
64.690 29.52228
64.695 29.291759
64.700 28.651041
64.705 27.554966
64.710 27.16312
64.715 26.665558
64.720 26.045609
64.725 26.058842
64.730 26.162804
64.735 26.237555
64.740 26.11408
64.745 25.516094
64.750 24.444393
64.755 23.322866
64.760 22.757292
64.765 22.34116
64.770 22.036768
64.775 21.727613
64.780 21.862232
64.785 21.924028
64.790 22.229147
64.795 21.973722
64.800 21.504606
64.805 21.271896
64.810 21.080769
64.815 21.343498
64.820 21.980419
64.825 21.734041
64.830 21.830437
64.835 22.60095
64.840 23.015017
64.845 23.635359
64.850 23.584663
64.855 23.562029
64.860 23.348619
64.865 22.780436
64.870 21.872055
64.875 21.860559
64.880 21.254704
64.885 20.820671
64.890 20.762718
64.895 20.906055
64.900 21.133806
64.905 20.985151
64.910 21.242887
64.915 21.52919
64.920 22.07966
64.925 22.556635
64.930 22.864246
64.935 22.872091
64.940 23.499205
64.945 23.297655
64.950 23.150394
64.955 22.525211
64.960 22.56444
64.965 22.8034
64.970 22.825665
64.975 23.492535
64.980 23.952286
64.985 24.226772
64.990 24.634804
64.995 24.541496
65.000 24.407448
65.005 25.123623
65.010 25.144924
65.015 25.410568
65.020 26.433855
65.025 27.365505
65.030 28.15831
65.035 28.781813
65.040 29.073738
65.045 29.297743
65.050 29.976421
65.055 29.782288
65.060 30.322218
65.065 30.787508
65.070 31.181715
65.075 31.302183
65.080 31.318779
65.085 30.876785
65.090 31.102085
65.095 31.212856
65.100 32.029095
65.105 32.793903
65.110 32.550766
65.115 32.78336
65.120 33.128006
65.125 33.011902
65.130 32.571117
65.135 32.12693
65.140 32.537422
65.145 32.877163
65.150 32.668011
65.155 32.82058
65.160 33.582382
65.165 33.946423
65.170 33.799263
65.175 33.814224
65.180 35.004543
65.185 35.989548
65.190 36.82272
65.195 37.294395
65.200 36.899479
65.205 36.500492
65.210 36.126263
65.215 35.462803
65.220 35.36739
65.225 35.743893
65.230 36.036301
65.235 37.193718
65.240 37.841736
65.245 38.336357
65.250 38.136719
65.255 37.974094
65.260 37.473911
65.265 36.887539
65.270 37.403385
65.275 37.555061
65.280 37.724598
65.285 38.215168
65.290 38.710804
65.295 38.477715
65.300 39.137638
65.305 38.943634
65.310 39.291084
65.315 39.011967
65.320 38.862938
65.325 37.863121
65.330 37.980679
65.335 37.53006
65.340 37.786205
65.345 37.893673
65.350 38.123775
65.355 38.018482
65.360 38.84026
65.365 39.905354
65.370 39.950146
65.375 39.472271
65.380 38.851604
65.385 39.150753
65.390 39.297493
65.395 38.797523
65.400 37.904091
65.405 38.366726
65.410 38.358383
65.415 38.577206
65.420 38.278343
65.425 38.305035
65.430 39.292786
65.435 39.050278
65.440 37.865974
65.445 37.564022
65.450 37.380447
65.455 37.19088
65.460 36.903004
65.465 36.330647
65.470 36.61108
65.475 37.386787
65.480 37.919003
65.485 38.16909
65.490 38.909283
65.495 39.027077
65.500 38.835747
65.505 38.772316
65.510 38.148407
65.515 37.757599
65.520 37.646034
65.525 37.596668
65.530 38.327911
65.535 38.589924
65.540 37.977955
65.545 39.160725
65.550 39.484459
65.555 38.901257
65.560 37.712933
65.565 36.43819
65.570 36.213646
65.575 36.408112
65.580 36.288105
65.585 36.761642
65.590 36.991234
65.595 37.781628
65.600 38.508572
65.605 38.991028
65.610 39.621021
65.615 40.203522
65.620 39.506687
65.625 39.716167
65.630 39.627209
65.635 39.272381
65.640 38.454655
65.645 38.012672
65.650 36.596313
65.655 36.92831
65.660 36.924847
65.665 36.394897
65.670 35.905064
65.675 35.549419
65.680 34.770401
65.685 35.242001
65.690 35.097801
65.695 34.68689
65.700 34.678959
65.705 34.304203
65.710 34.526749
65.715 34.415218
65.720 32.991756
65.725 32.251514
65.730 31.886604
65.735 32.046974
65.740 31.914152
65.745 31.366198
65.750 30.763065
65.755 30.928555
65.760 31.138765
65.765 31.412113
65.770 30.851824
65.775 31.02865
65.780 31.969069
65.785 32.746559
65.790 32.979343
65.795 32.180069
65.800 31.810892
65.805 31.904173
65.810 31.47315
65.815 31.046442
65.820 30.508747
65.825 29.887072
65.830 29.34086
65.835 28.391123
65.840 27.956295
65.845 27.47135
65.850 26.663504
65.855 26.393522
65.860 26.474215
65.865 26.724209
65.870 26.421494
65.875 26.342871
65.880 26.952896
65.885 27.120485
65.890 26.669533
65.895 26.236876
65.900 26.299597
65.905 26.917633
65.910 26.730555
65.915 26.232424
65.920 25.693426
65.925 25.446526
65.930 25.289381
65.935 24.583403
65.940 23.671204
65.945 23.427221
65.950 22.863174
65.955 22.902449
65.960 22.921419
65.965 22.288111
65.970 22.220737
65.975 22.597807
65.980 22.725601
65.985 22.886059
65.990 22.283796
65.995 22.176041
66.000 22.265829
66.005 22.638456
66.010 22.493305
66.015 22.588154
66.020 22.550737
66.025 22.739868
66.030 21.658655
66.035 21.507246
66.040 21.018955
66.045 20.984493
66.050 20.617924
66.055 20.43572
66.060 19.420425
66.065 19.183395
66.070 18.802048
66.075 18.658827
66.080 18.094721
66.085 17.841995
66.090 17.799946
66.095 18.067638
66.100 18.631046
66.105 18.420691
66.110 18.194698
66.115 17.968168
66.120 18.055706
66.125 17.951311
66.130 18.310215
66.135 18.209852
66.140 18.535885
66.145 18.548244
66.150 18.521982
66.155 18.172935
66.160 18.501587
66.165 18.71904
66.170 18.618549
66.175 18.934343
66.180 19.64658
66.185 19.835398
66.190 20.391994
66.195 20.334528
66.200 19.742718
66.205 19.586721
66.210 19.261486
66.215 18.481274
66.220 18.180809
66.225 17.85486
66.230 17.951588
66.235 18.162399
66.240 17.998264
66.245 18.037285
66.250 18.309668
66.255 18.803911
66.260 18.19766
66.265 17.364302
66.270 17.325565
66.275 17.087553
66.280 17.512644
66.285 17.784672
66.290 17.825443
66.295 18.304874
66.300 18.886246
66.305 18.675686
66.310 19.086042
66.315 18.678572
66.320 18.333485
66.325 17.823706
66.330 17.993994
66.335 17.954794
66.340 18.004658
66.345 18.213768
66.350 18.204887
66.355 17.949591
66.360 17.924009
66.365 18.049887
66.370 17.934624
66.375 17.421764
66.380 17.024813
66.385 17.25334
66.390 17.658493
66.395 17.635298
66.400 17.99958
66.405 18.730726
66.410 19.17248
66.415 18.911102
66.420 18.450567
66.425 18.266434
66.430 18.358227
66.435 17.29793
66.440 16.757215
66.445 16.883213
66.450 16.760704
66.455 16.924902
66.460 17.099606
66.465 17.209921
66.470 18.010691
66.475 18.620947
66.480 18.855762
66.485 19.650709
66.490 20.457233
66.495 20.333261
66.500 20.440746
66.505 19.902811
66.510 19.645147
66.515 19.275043
66.520 19.513639
66.525 19.220669
66.530 18.955273
66.535 19.129604
66.540 19.113878
66.545 19.411091
66.550 19.721512
66.555 18.801449
66.560 18.860966
66.565 19.232273
66.570 19.197027
66.575 19.572151
66.580 19.605965
66.585 19.23148
66.590 19.302141
66.595 19.515585
66.600 19.510225
66.605 19.321421
66.610 18.933624
66.615 18.267563
66.620 19.320873
66.625 20.172529
66.630 19.576746
66.635 18.823746
66.640 18.911669
66.645 19.178904
66.650 19.63822
66.655 19.450132
66.660 18.910851
66.665 19.26671
66.670 19.450933
66.675 19.311268
66.680 19.199913
66.685 18.469212
66.690 18.087414
66.695 18.230629
66.700 18.060743
66.705 18.611784
66.710 18.599438
66.715 18.335623
66.720 18.922216
66.725 19.0289
66.730 18.403532
66.735 18.299419
66.740 18.095987
66.745 18.042027
66.750 17.8419
66.755 17.779991
66.760 17.787388
66.765 17.637634
66.770 17.275784
66.775 17.206413
66.780 17.533707
66.785 17.762957
66.790 17.715267
66.795 17.133581
66.800 17.417494
66.805 17.505461
66.810 17.029339
66.815 16.509277
66.820 16.336418
66.825 16.16604
66.830 16.335024
66.835 16.07666
66.840 16.770555
66.845 17.40757
66.850 17.534077
66.855 17.214596
66.860 17.27203
66.865 17.530823
66.870 17.619152
66.875 16.779482
66.880 16.762205
66.885 17.150755
66.890 17.757528
66.895 17.498549
66.900 17.277391
66.905 17.740582
66.910 18.307415
66.915 18.196848
66.920 18.532042
66.925 18.143227
66.930 18.796907
66.935 19.227449
66.940 19.741144
66.945 19.896997
66.950 20.125572
66.955 20.017902
66.960 20.02191
66.965 19.563776
66.970 19.229031
66.975 18.53986
66.980 18.159933
66.985 17.970797
66.990 18.136177
66.995 18.177629
67.000 18.274214
67.005 18.534153
67.010 18.534304
67.015 18.494875
67.020 18.124506
67.025 18.062794
67.030 18.253078
67.035 18.098375
67.040 17.325073
67.045 17.619631
67.050 17.726822
67.055 17.761637
67.060 17.659992
67.065 17.737959
67.070 17.627052
67.075 17.832096
67.080 17.199867
67.085 17.419855
67.090 17.489819
67.095 17.666132
67.100 17.887772
67.105 18.231239
67.110 18.252239
67.115 18.363468
67.120 18.586548
67.125 18.779577
67.130 18.252518
67.135 17.652445
67.140 17.528145
67.145 17.590832
67.150 17.82328
67.155 17.002632
67.160 16.98115
67.165 17.1336
67.170 17.007584
67.175 16.733826
67.180 16.955448
67.185 17.138952
67.190 17.574324
67.195 17.410934
67.200 17.664742
67.205 16.971708
67.210 17.063005
67.215 16.82066
67.220 16.900757
67.225 16.872097
67.230 17.371058
67.235 17.475357
67.240 18.76544
67.245 19.330162
67.250 19.521336
67.255 19.201149
67.260 19.182236
67.265 18.864296
67.270 18.92012
67.275 18.946209
67.280 18.746595
67.285 18.565302
67.290 18.30879
67.295 18.058836
67.300 17.702036
67.305 16.853027
67.310 16.165861
67.315 15.659535
67.320 15.936111
67.325 16.050926
67.330 15.800233
67.335 15.959273
67.340 17.334515
67.345 17.71866
67.350 18.23299
67.355 18.14249
67.360 18.470755
67.365 18.920208
67.370 18.878998
67.375 18.292627
67.380 18.196075
67.385 18.23382
67.390 18.244818
67.395 18.287577
67.400 18.250732
67.405 18.185148
67.410 17.923702
67.415 17.670597
67.420 17.585115
67.425 17.794819
67.430 17.566879
67.435 17.745205
67.440 17.980055
67.445 18.132793
67.450 17.867697
67.455 17.969814
67.460 17.77099
67.465 17.542557
67.470 17.415342
67.475 17.230488
67.480 17.692595
67.485 18.304255
67.490 18.362329
67.495 18.16198
67.500 17.869068
67.505 17.860893
67.510 17.802166
67.515 17.883621
67.520 17.778145
67.525 17.905386
67.530 17.981699
67.535 18.028639
67.540 17.987337
67.545 17.764009
67.550 17.624062
67.555 18.012827
67.560 18.077747
67.565 18.174004
67.570 18.753815
67.575 19.081017
67.580 19.291723
67.585 18.856543
67.590 18.341408
67.595 18.363665
67.600 18.952263
67.605 18.599405
67.610 18.647028
67.615 19.043194
67.620 19.144058
67.625 18.849239
67.630 18.472849
67.635 18.303659
67.640 18.369898
67.645 18.08482
67.650 18.039015
67.655 18.263966
67.660 18.433262
67.665 18.251968
67.670 18.003471
67.675 17.887991
67.680 17.951748
67.685 17.761183
67.690 17.545149
67.695 17.704092
67.700 17.464403
67.705 17.291964
67.710 17.090961
67.715 16.998423
67.720 16.802151
67.725 16.575579
67.730 16.627949
67.735 17.284214
67.740 17.355974
67.745 17.016138
67.750 17.002348
67.755 16.981428
67.760 17.615385
67.765 17.4172
67.770 17.108698
67.775 17.205025
67.780 17.494841
67.785 17.418701
67.790 17.780272
67.795 17.452635
67.800 17.670805
67.805 17.927694
67.810 18.359991
67.815 18.524317
67.820 18.551559
67.825 18.371176
67.830 18.717869
67.835 18.622765
67.840 18.362492
67.845 18.326803
67.850 18.819307
67.855 18.895321
67.860 19.169886
67.865 18.948881
67.870 19.037165
67.875 19.239637
67.880 18.866339
67.885 19.011103
67.890 19.129128
67.895 18.675777
67.900 19.055008
67.905 19.341005
67.910 19.107939
67.915 18.877409
67.920 18.29628
67.925 18.035749
67.930 18.324745
67.935 18.240578
67.940 18.496124
67.945 18.980717
67.950 19.406927
67.955 20.02236
67.960 20.081648
67.965 19.894659
67.970 19.558153
67.975 19.23946
67.980 19.35709
67.985 19.084564
67.990 18.431438
67.995 18.381495
68.000 18.436302
68.005 17.945808
68.010 17.330656
68.015 16.907888
68.020 16.950289
68.025 17.422434
68.030 17.520514
68.035 17.147697
68.040 17.760403
68.045 18.275681
68.050 18.264797
68.055 17.991474
68.060 17.844887
68.065 18.053844
68.070 18.431849
68.075 18.220409
68.080 18.096205
68.085 18.964552
68.090 19.520235
68.095 19.4156
68.100 18.926857
68.105 19.388929
68.110 19.8409
68.115 19.851435
68.120 19.321516
68.125 19.270369
68.130 19.830765
68.135 20.296967
68.140 19.989454
68.145 19.863083
68.150 19.893543
68.155 20.286833
68.160 20.739223
68.165 21.105057
68.170 21.119194
68.175 20.973602
68.180 21.042646
68.185 21.087317
68.190 20.73245
68.195 20.077744
68.200 19.29945
68.205 18.549843
68.210 18.51967
68.215 18.741772
68.220 19.038239
68.225 19.333363
68.230 19.664017
68.235 19.807123
68.240 20.856255
68.245 21.374569
68.250 21.52486
68.255 21.7026
68.260 21.878368
68.265 22.385611
68.270 23.210613
68.275 22.962976
68.280 22.558455
68.285 22.592505
68.290 22.196922
68.295 22.016552
68.300 22.148479
68.305 22.575678
68.310 23.616543
68.315 24.741259
68.320 24.614292
68.325 24.59749
68.330 25.221413
68.335 25.21909
68.340 24.917192
68.345 24.526506
68.350 25.141712
68.355 25.966129
68.360 26.652719
68.365 26.959333
68.370 26.913134
68.375 27.031822
68.380 27.084137
68.385 26.847075
68.390 26.712635
68.395 26.800909
68.400 26.298326
68.405 26.303516
68.410 27.170547
68.415 27.391073
68.420 27.119848
68.425 27.028082
68.430 27.021545
68.435 28.004999
68.440 28.484293
68.445 28.03335
68.450 28.733938
68.455 29.659483
68.460 30.586912
68.465 30.631676
68.470 30.424932
68.475 30.288521
68.480 30.760733
68.485 31.770586
68.490 31.733101
68.495 31.130316
68.500 30.961239
68.505 31.197367
68.510 31.804775
68.515 31.822689
68.520 31.831707
68.525 32.836418
68.530 33.395943
68.535 33.677967
68.540 33.955914
68.545 34.20163
68.550 34.297287
68.555 33.785187
68.560 33.862057
68.565 34.904831
68.570 35.52113
68.575 35.824722
68.580 36.185532
68.585 36.602257
68.590 37.667152
68.595 37.122948
68.600 36.674831
68.605 36.613003
68.610 36.494225
68.615 36.776443
68.620 37.312313
68.625 36.762959
68.630 36.521458
68.635 36.411377
68.640 35.930351
68.645 35.001274
68.650 34.377243
68.655 33.153652
68.660 33.051811
68.665 33.356129
68.670 33.622787
68.675 34.542072
68.680 34.468311
68.685 33.623924
68.690 33.849838
68.695 34.328026
68.700 35.004429
68.705 35.35976
68.710 36.10421
68.715 36.681862
68.720 37.370743
68.725 38.080284
68.730 37.784691
68.735 36.837955
68.740 35.506187
68.745 34.794003
68.750 35.029545
68.755 34.884007
68.760 35.367962
68.765 35.620922
68.770 36.135098
68.775 36.817692
68.780 36.45385
68.785 36.345818
68.790 35.725006
68.795 34.258057
68.800 33.838402
68.805 33.532005
68.810 33.360172
68.815 33.681908
68.820 33.874809
68.825 34.429123
68.830 34.714371
68.835 34.848541
68.840 34.844494
68.845 34.584263
68.850 34.588219
68.855 34.596416
68.860 34.958591
68.865 34.837097
68.870 34.913502
68.875 35.022018
68.880 35.197437
68.885 34.954018
68.890 34.373425
68.895 33.454586
68.900 33.209454
68.905 32.51289
68.910 33.08794
68.915 32.897587
68.920 32.462383
68.925 32.848782
68.930 32.684937
68.935 32.368961
68.940 32.650616
68.945 31.581524
68.950 31.196062
68.955 30.783976
68.960 30.480867
68.965 31.080978
68.970 31.729502
68.975 32.496037
68.980 32.796974
68.985 33.102077
68.990 32.746117
68.995 32.818222
69.000 32.098457
69.005 30.865898
69.010 29.153254
69.015 28.388386
69.020 28.116392
69.025 29.195684
69.030 28.88085
69.035 27.9065
69.040 28.09477
69.045 28.207432
69.050 28.372011
69.055 27.918886
69.060 26.984243
69.065 26.546333
69.070 27.422342
69.075 27.098989
69.080 27.044971
69.085 26.934767
69.090 26.810926
69.095 26.859348
69.100 27.301163
69.105 27.083815
69.110 26.257467
69.115 26.003273
69.120 25.370874
69.125 25.229725
69.130 25.127331
69.135 24.139265
69.140 24.261145
69.145 24.819286
69.150 25.019112
69.155 25.236134
69.160 24.541327
69.165 24.578228
69.170 24.298811
69.175 24.522148
69.180 24.368
69.185 24.745327
69.190 24.77062
69.195 24.860855
69.200 24.332142
69.205 24.069489
69.210 23.32782
69.215 22.892439
69.220 22.277248
69.225 21.785181
69.230 21.453922
69.235 21.985136
69.240 21.561201
69.245 20.562052
69.250 20.611044
69.255 20.325869
69.260 20.558748
69.265 20.92952
69.270 21.263432
69.275 21.914621
69.280 22.183147
69.285 21.916508
69.290 21.837318
69.295 21.700531
69.300 21.459717
69.305 20.795263
69.310 20.658997
69.315 20.283506
69.320 20.057669
69.325 19.852392
69.330 19.705982
69.335 19.53723
69.340 19.899057
69.345 20.092581
69.350 19.823784
69.355 20.282858
69.360 20.427671
69.365 21.162508
69.370 21.488558
69.375 21.235308
69.380 21.037756
69.385 20.670671
69.390 20.497946
69.395 20.266867
69.400 19.129257
69.405 18.932537
69.410 18.69927
69.415 19.041723
69.420 19.567314
69.425 19.301271
69.430 19.451372
69.435 19.638361
69.440 19.090698
69.445 18.92062
69.450 19.090088
69.455 19.076544
69.460 19.113039
69.465 18.875343
69.470 18.850636
69.475 18.6894
69.480 18.573723
69.485 18.485821
69.490 18.284039
69.495 18.510853
69.500 18.017443
69.505 18.338896
69.510 18.544113
69.515 18.897087
69.520 18.756083
69.525 18.800453
69.530 19.028008
69.535 19.651484
69.540 18.843235
69.545 19.143969
69.550 19.057127
69.555 19.62664
69.560 19.537668
69.565 19.240822
69.570 19.71734
69.575 20.422993
69.580 20.279642
69.585 20.169128
69.590 19.684368
69.595 19.515522
69.600 19.459942
69.605 18.489231
69.610 18.542456
69.615 18.419394
69.620 17.978371
69.625 18.186028
69.630 18.533413
69.635 18.978079
69.640 19.101948
69.645 18.671576
69.650 18.760653
69.655 18.508976
69.660 17.874851
69.665 17.716787
69.670 17.648439
69.675 17.814955
69.680 18.118612
69.685 18.238983
69.690 18.651224
69.695 19.505747
69.700 19.083555
69.705 18.386545
69.710 18.231157
69.715 18.054161
69.720 17.621332
69.725 17.863894
69.730 17.505266
69.735 17.800547
69.740 17.83308
69.745 17.937338
69.750 17.55896
69.755 17.563194
69.760 16.62351
69.765 16.23399
69.770 16.237364
69.775 16.418644
69.780 16.739367
69.785 17.551006
69.790 17.99122
69.795 18.157188
69.800 18.561794
69.805 18.940689
69.810 19.179451
69.815 18.947433
69.820 18.724537
69.825 18.566191
69.830 18.224306
69.835 17.403521
69.840 17.317764
69.845 17.040352
69.850 17.256592
69.855 17.269646
69.860 17.145241
69.865 17.7941
69.870 18.495691
69.875 18.136925
69.880 18.353022
69.885 18.374907
69.890 17.923828
69.895 18.108629
69.900 17.911209
69.905 17.495522
69.910 17.382105
69.915 16.851431
69.920 17.232195
69.925 17.701172
69.930 18.485001
69.935 18.866388
69.940 19.253479
69.945 19.945097
69.950 19.811073
69.955 19.484985
69.960 19.275352
69.965 18.521271
69.970 18.347757
69.975 17.972864
69.980 17.670898
69.985 17.443748
69.990 17.424042
69.995 17.837404
70.000 17.688992
70.005 17.407812
70.010 16.875021
70.015 16.58886
70.020 16.854563
70.025 16.973154
70.030 16.746994
70.035 17.341867
70.040 17.119621
70.045 17.179152
70.050 17.254747
70.055 17.38797
70.060 16.709753
70.065 16.632385
70.070 16.576654
70.075 17.747606
70.080 18.276722
70.085 18.219505
70.090 17.609425
70.095 18.048859
70.100 18.169317
70.105 17.785385
70.110 17.57081
70.115 17.428736
70.120 17.852499
70.125 18.056536
70.130 18.021761
70.135 18.049311
70.140 18.190361
70.145 17.983246
70.150 18.142487
70.155 18.107477
70.160 18.45425
70.165 18.231087
70.170 18.030989
70.175 17.946712
70.180 18.366596
70.185 18.585951
70.190 18.183462
70.195 18.074089
70.200 18.449158
70.205 18.818029
70.210 19.165197
70.215 18.882833
70.220 18.58293
70.225 18.46797
70.230 18.165911
70.235 17.822681
70.240 17.545139
70.245 17.588362
70.250 17.734556
70.255 17.868587
70.260 18.159204
70.265 18.335068
70.270 18.52149
70.275 18.585608
70.280 18.83185
70.285 18.533405
70.290 18.65741
70.295 18.808958
70.300 18.706074
70.305 18.202187
70.310 18.070282
70.315 17.621143
70.320 17.730698
70.325 17.620501
70.330 17.511913
70.335 17.952236
70.340 18.11195
70.345 17.996981
70.350 17.642849
70.355 17.6509
70.360 17.537086
70.365 17.404469
70.370 16.609125
70.375 16.155075
70.380 16.019794
70.385 16.338259
70.390 16.227304
70.395 15.724152
70.400 15.576738
70.405 15.911346
70.410 16.474136
70.415 16.754137
70.420 16.53911
70.425 17.452682
70.430 18.068892
70.435 18.43087
70.440 18.896194
70.445 18.623777
70.450 19.017094
70.455 19.602118
70.460 18.925175
70.465 18.969107
70.470 18.625618
70.475 18.309189
70.480 18.414045
70.485 17.933455
70.490 18.023005
70.495 18.367981
70.500 18.333229
70.505 18.380146
70.510 18.918676
70.515 19.271807
70.520 19.378923
70.525 18.902283
70.530 19.025156
70.535 18.731703
70.540 19.344414
70.545 19.104929
70.550 18.807196
70.555 18.65546
70.560 19.363451
70.565 19.284
70.570 19.911037
70.575 19.612879
70.580 19.43294
70.585 19.348553
70.590 19.346865
70.595 18.886026
70.600 18.513189
70.605 18.193596
70.610 18.298603
70.615 18.169918
70.620 17.878641
70.625 17.86533
70.630 18.198595
70.635 18.325914
70.640 18.147444
70.645 17.401587
70.650 17.628534
70.655 17.768427
70.660 17.426981
70.665 17.272274
70.670 17.241648
70.675 17.334763
70.680 17.472116
70.685 17.478205
70.690 17.791994
70.695 18.046484
70.700 18.059494
70.705 17.801949
70.710 17.406343
70.715 17.365318
70.720 17.532764
70.725 17.489624
70.730 17.75407
70.735 17.614967
70.740 17.835541
70.745 18.049328
70.750 18.614107
70.755 18.543009
70.760 17.99349
70.765 17.257214
70.770 17.429739
70.775 17.314018
70.780 17.539215
70.785 17.074995
70.790 16.924292
70.795 17.504116
70.800 17.846243
70.805 17.618498
70.810 17.564194
70.815 17.626297
70.820 18.087154
70.825 17.855795
70.830 17.543488
70.835 17.49917
70.840 17.775585
70.845 18.577459
70.850 18.239346
70.855 17.968611
70.860 18.069304
70.865 18.319059
70.870 18.139124
70.875 17.677523
70.880 17.230145
70.885 17.206886
70.890 16.855789
70.895 17.0306
70.900 16.931784
70.905 17.117655
70.910 16.969522
70.915 17.21763
70.920 17.224987
70.925 17.010679
70.930 16.188971
70.935 16.136967
70.940 16.428261
70.945 16.485996
70.950 15.97471
70.955 16.241194
70.960 16.567337
70.965 17.323776
70.970 17.792721
70.975 17.866108
70.980 18.145584
70.985 18.702135
70.990 18.61771
70.995 18.393568
71.000 18.010147
71.005 17.643078
71.010 17.762613
71.015 17.528513
71.020 17.363514
71.025 17.446487
71.030 17.659266
71.035 18.218761
71.040 18.80773
71.045 18.691938
71.050 18.693174
71.055 18.336576
71.060 18.663811
71.065 18.559843
71.070 18.272694
71.075 17.485512
71.080 17.545067
71.085 17.991179
71.090 18.08815
71.095 17.735428
71.100 17.612303
71.105 18.056042
71.110 18.503819
71.115 18.111998
71.120 18.202936
71.125 18.32304
71.130 19.087563
71.135 19.645681
71.140 19.722073
71.145 19.681557
71.150 19.986765
71.155 19.908922
71.160 19.896006
71.165 19.374496
71.170 19.070864
71.175 18.66427
71.180 18.645887
71.185 18.515705
71.190 17.972073
71.195 17.738014
71.200 17.633726
71.205 17.38073
71.210 17.387745
71.215 17.133429
71.220 17.007366
71.225 17.498081
71.230 17.743551
71.235 17.485264
71.240 16.540339
71.245 16.218967
71.250 16.792587
71.255 16.786348
71.260 16.834435
71.265 16.485207
71.270 17.382833
71.275 18.539515
71.280 18.972191
71.285 18.406359
71.290 18.034134
71.295 17.592833
71.300 17.879055
71.305 17.527203
71.310 16.727747
71.315 16.292747
71.320 16.806429
71.325 17.531199
71.330 16.838959
71.335 16.36602
71.340 15.934134
71.345 16.419722
71.350 16.743813
71.355 17.048645
71.360 16.613834
71.365 16.947067
71.370 17.391958
71.375 17.886431
71.380 17.845579
71.385 17.472433
71.390 16.933596
71.395 16.846163
71.400 16.674217
71.405 16.595284
71.410 16.109049
71.415 16.199484
71.420 15.871358
71.425 16.520216
71.430 16.765722
71.435 16.708506
71.440 17.056475
71.445 17.122225
71.450 17.129658
71.455 17.65226
71.460 17.542879
71.465 17.683832
71.470 17.856342
71.475 17.832088
71.480 17.589241
71.485 17.819914
71.490 17.960991
71.495 18.013544
71.500 18.152157
71.505 18.055342
71.510 17.731556
71.515 17.725229
71.520 17.680214
71.525 17.391804
71.530 17.359026
71.535 17.441998
71.540 17.636812
71.545 17.861614
71.550 18.137074
71.555 18.09824
71.560 17.935015
71.565 17.912766
71.570 17.799759
71.575 17.606625
71.580 17.80884
71.585 17.747869
71.590 17.837172
71.595 18.148296
71.600 18.138613
71.605 18.066196
71.610 18.847126
71.615 18.756161
71.620 19.302015
71.625 19.387688
71.630 19.643232
71.635 19.589066
71.640 19.151535
71.645 18.468241
71.650 17.851759
71.655 17.256109
71.660 17.229479
71.665 16.748526
71.670 17.033985
71.675 17.606737
71.680 17.724009
71.685 18.256495
71.690 18.283829
71.695 18.164099
71.700 18.28322
71.705 18.418707
71.710 18.192926
71.715 18.358986
71.720 18.291809
71.725 17.806494
71.730 18.033709
71.735 17.584553
71.740 16.94253
71.745 17.136152
71.750 16.874214
71.755 16.909515
71.760 16.997366
71.765 16.985638
71.770 17.413773
71.775 17.051897
71.780 17.061632
71.785 17.408859
71.790 17.091347
71.795 16.657385
71.800 16.658621
71.805 16.592218
71.810 16.643227
71.815 16.436626
71.820 16.257845
71.825 16.638552
71.830 17.27512
71.835 17.49766
71.840 18.401306
71.845 19.354113
71.850 19.738337
71.855 20.022093
71.860 19.818415
71.865 19.716829
71.870 19.476215
71.875 19.357847
71.880 18.819677
71.885 18.596027
71.890 18.188759
71.895 17.922436
71.900 18.428364
71.905 19.32049
71.910 19.231865
71.915 18.988167
71.920 18.65193
71.925 19.678768
71.930 19.981028
71.935 19.07851
71.940 17.927233
71.945 17.293291
71.950 17.556011
71.955 17.664356
71.960 16.952602
71.965 16.588736
71.970 16.543318
71.975 16.868765
71.980 17.480228
71.985 17.390671
71.990 16.518486
71.995 16.617275
72.000 16.877691
72.005 16.650034
72.010 16.820486
72.015 16.327583
72.020 16.77413
72.025 16.881025
72.030 16.313854
72.035 16.294977
72.040 16.819107
72.045 16.750988
72.050 16.979364
72.055 16.953951
72.060 17.46007
72.065 18.003223
72.070 18.131279
72.075 17.728439
72.080 17.478508
72.085 17.695847
72.090 17.511309
72.095 17.219007
72.100 16.842834
72.105 16.556772
72.110 16.843422
72.115 17.127962
72.120 16.827513
72.125 17.002962
72.130 17.404297
72.135 17.979267
72.140 18.572226
72.145 19.02379
72.150 18.747976
72.155 18.502722
72.160 18.76025
72.165 18.91139
72.170 18.806261
72.175 18.655956
72.180 18.044046
72.185 18.137173
72.190 18.272268
72.195 18.014868
72.200 17.473003
72.205 17.062014
72.210 16.980486
72.215 16.714401
72.220 16.285568
72.225 16.458094
72.230 16.578226
72.235 17.010555
72.240 17.17156
72.245 17.202812
72.250 17.986456
72.255 18.450069
72.260 18.954916
72.265 19.264765
72.270 19.028753
72.275 18.51292
72.280 18.410133
72.285 19.021559
72.290 18.506783
72.295 17.307573
72.300 17.035372
72.305 17.557371
72.310 18.061768
72.315 18.548141
72.320 17.634087
72.325 17.621181
72.330 18.169138
72.335 18.352358
72.340 18.755371
72.345 18.712723
72.350 18.213495
72.355 18.879126
72.360 18.907543
72.365 18.853262
72.370 18.232965
72.375 17.835047
72.380 17.673403
72.385 17.428364
72.390 17.274048
72.395 17.783171
72.400 17.817606
72.405 17.717402
72.410 17.073755
72.415 17.072012
72.420 17.106031
72.425 16.862852
72.430 16.576752
72.435 16.530525
72.440 16.429764
72.445 17.061306
72.450 17.743416
72.455 17.77478
72.460 18.028461
72.465 18.201231
72.470 18.311132
72.475 19.060429
72.480 18.930826
72.485 18.585951
72.490 18.708305
72.495 18.315214
72.500 18.487061
72.505 18.231276
72.510 18.078352
72.515 18.136734
72.520 17.959471
72.525 17.721344
72.530 18.212626
72.535 18.405565
72.540 18.607405
72.545 18.584736
72.550 18.457367
72.555 18.855545
72.560 18.382191
72.565 18.164459
72.570 17.78861
72.575 17.636894
72.580 17.473179
72.585 17.306114
72.590 17.028193
72.595 16.99439
72.600 16.942104
72.605 16.596775
72.610 16.273972
72.615 15.807537
72.620 15.866788
72.625 15.879025
72.630 15.851023
72.635 15.701338
72.640 16.321411
72.645 16.281277
72.650 16.285912
72.655 16.352505
72.660 16.468935
72.665 16.520651
72.670 16.612226
72.675 16.504328
72.680 16.993313
72.685 17.241877
72.690 17.762732
72.695 18.112726
72.700 17.522413
72.705 16.609987
72.710 16.399754
72.715 16.00202
72.720 16.101852
72.725 15.43266
72.730 15.51566
72.735 15.897196
72.740 16.50111
72.745 16.701912
72.750 16.584141
72.755 16.539837
72.760 17.098879
72.765 16.743435
72.770 17.319626
72.775 18.188156
72.780 18.190849
72.785 18.351156
72.790 18.095432
72.795 17.527134
72.800 18.060863
72.805 17.147278
72.810 16.654009
72.815 16.084436
72.820 15.954572
72.825 16.887367
72.830 16.807608
72.835 16.866756
72.840 17.33658
72.845 17.548361
72.850 17.536327
72.855 16.819403
72.860 16.290918
72.865 16.031708
72.870 15.778292
72.875 15.399041
72.880 15.464213
72.885 16.122902
72.890 16.590511
72.895 16.932579
72.900 16.60062
72.905 16.772449
72.910 16.296167
72.915 15.938702
72.920 15.77748
72.925 15.368341
72.930 15.231809
72.935 15.121907
72.940 15.331768
72.945 15.271069
72.950 15.293958
72.955 15.340775
72.960 15.209257
72.965 15.626129
72.970 15.929106
72.975 15.699831
72.980 16.292406
72.985 16.507849
72.990 16.240356
72.995 16.538195
73.000 16.864796
