!@!!GADDS PLOTSO FILE: Chi integration type
!@!!Title/SampleName: map-e0
!@!!Comment: ?
!@!!User: Bruker Instrument Administrator
!@!!Site: University of Illinois Chicago
!@!!Frame: map-e0_01_000.gfrm
!@!!Wavelengths    1.54184   1.54056   1.54439
!@!!Frame angles: 2Theta: 63.000 Omega: 50.000 Phi: 0.000 Chi: 90.000
!@!!Integration range: 2Theta: 53.000 to 73.000  Gamma: -105.000 to -75.000
!@!!Integration method: bin normalized
!@!N
!@!SS
!@!M
!@!L 0.0 0.0 0.0 0.0
!@!XDegrees
!@!YCounts
53.000 7.182833
53.005 6.949368
53.010 7.119055
53.015 7.166894
53.020 7.074396
53.025 6.955326
53.030 7.049445
53.035 7.35498
53.040 7.745026
53.045 7.728536
53.050 7.480173
53.055 7.803298
53.060 7.826836
53.065 7.652593
53.070 7.344269
53.075 7.387304
53.080 7.428092
53.085 7.292725
53.090 7.325221
53.095 7.352347
53.100 7.427135
53.105 7.416772
53.110 7.27088
53.115 7.579653
53.120 7.604649
53.125 7.057891
53.130 6.905006
53.135 6.82597
53.140 7.175375
53.145 6.816311
53.150 6.639766
53.155 6.903708
53.160 7.158436
53.165 7.252013
53.170 7.0755
53.175 6.716178
53.180 7.13737
53.185 7.530337
53.190 7.374542
53.195 7.44117
53.200 7.713013
53.205 8.025961
53.210 8.467742
53.215 8.525548
53.220 8.584108
53.225 8.936395
53.230 8.884236
53.235 9.09809
53.240 9.25564
53.245 9.29252
53.250 8.959695
53.255 8.81002
53.260 8.740358
53.265 8.440865
53.270 8.044598
53.275 7.79117
53.280 7.443883
53.285 7.55264
53.290 7.148904
53.295 7.285881
53.300 7.635161
53.305 7.733262
53.310 7.685875
53.315 7.817845
53.320 7.733614
53.325 7.7913
53.330 7.360286
53.335 7.074252
53.340 7.110054
53.345 7.340997
53.350 7.534037
53.355 7.738112
53.360 8.122133
53.365 8.754601
53.370 8.955977
53.375 8.628062
53.380 8.546976
53.385 8.310647
53.390 8.65482
53.395 8.361163
53.400 8.307803
53.405 8.331738
53.410 8.665486
53.415 8.926405
53.420 8.274085
53.425 7.868711
53.430 8.043567
53.435 7.861541
53.440 7.657505
53.445 7.193184
53.450 7.44195
53.455 7.896451
53.460 7.836688
53.465 7.68706
53.470 7.46619
53.475 7.69449
53.480 7.547472
53.485 7.349324
53.490 7.637201
53.495 7.560358
53.500 7.88364
53.505 8.222265
53.510 8.292996
53.515 8.231938
53.520 8.344831
53.525 8.297142
53.530 8.000549
53.535 7.777389
53.540 7.786039
53.545 7.834617
53.550 7.892804
53.555 7.458653
53.560 7.952359
53.565 8.448758
53.570 8.480893
53.575 8.691992
53.580 8.519855
53.585 8.830489
53.590 9.058187
53.595 8.399026
53.600 8.104296
53.605 7.905796
53.610 7.813001
53.615 7.985653
53.620 7.479249
53.625 7.175381
53.630 7.463497
53.635 7.766973
53.640 7.750237
53.645 7.87959
53.650 8.303321
53.655 8.753218
53.660 8.935692
53.665 8.416411
53.670 8.030492
53.675 7.923912
53.680 7.82267
53.685 7.570153
53.690 7.374457
53.695 7.722313
53.700 8.65696
53.705 9.119063
53.710 9.12231
53.715 9.28659
53.720 9.329278
53.725 9.582689
53.730 9.349654
53.735 8.803751
53.740 8.729662
53.745 8.960475
53.750 8.57688
53.755 8.572481
53.760 8.341109
53.765 8.421779
53.770 8.569163
53.775 8.258677
53.780 8.138138
53.785 8.329442
53.790 8.724912
53.795 9.069729
53.800 8.804797
53.805 8.878504
53.810 9.315419
53.815 9.065403
53.820 9.457978
53.825 9.566631
53.830 9.312863
53.835 9.566628
53.840 9.567994
53.845 9.917809
53.850 9.839635
53.855 9.314825
53.860 9.177924
53.865 8.900161
53.870 8.670827
53.875 8.22853
53.880 7.966283
53.885 8.237681
53.890 8.217101
53.895 8.268872
53.900 8.4181
53.905 8.62222
53.910 8.941864
53.915 8.779876
53.920 8.750531
53.925 8.490998
53.930 8.949062
53.935 9.053968
53.940 8.718201
53.945 8.626939
53.950 8.879232
53.955 8.967204
53.960 8.798181
53.965 8.525605
53.970 8.636408
53.975 8.883168
53.980 8.894784
53.985 8.763844
53.990 8.542622
53.995 8.731833
54.000 8.648373
54.005 8.453275
54.010 8.701315
54.015 8.495733
54.020 8.303713
54.025 8.406281
54.030 8.532682
54.035 8.873915
54.040 8.877768
54.045 8.486647
54.050 9.009978
54.055 9.612107
54.060 9.730233
54.065 9.567892
54.070 9.270042
54.075 9.186278
54.080 9.398668
54.085 8.699849
54.090 8.053495
54.095 8.07357
54.100 8.416007
54.105 9.141973
54.110 9.51306
54.115 9.598299
54.120 9.882123
54.125 9.950892
54.130 10.100528
54.135 9.491631
54.140 9.473397
54.145 9.327535
54.150 8.838172
54.155 8.688177
54.160 8.622732
54.165 7.960616
54.170 8.123261
54.175 7.944612
54.180 8.094112
54.185 8.128083
54.190 8.610554
54.195 9.155326
54.200 9.875653
54.205 9.562687
54.210 9.628506
54.215 9.767903
54.220 9.985209
54.225 10.058898
54.230 9.874274
54.235 9.438401
54.240 9.414244
54.245 9.342963
54.250 9.117649
54.255 9.496449
54.260 9.150563
54.265 9.24341
54.270 9.626828
54.275 9.548464
54.280 9.381291
54.285 9.261405
54.290 9.024958
54.295 9.336627
54.300 8.995212
54.305 8.876304
54.310 8.785951
54.315 8.797235
54.320 8.811647
54.325 8.895988
54.330 8.678026
54.335 8.927232
54.340 9.310292
54.345 9.686646
54.350 9.785066
54.355 9.942153
54.360 9.563427
54.365 9.593807
54.370 9.4431
54.375 9.415518
54.380 9.432054
54.385 10.079907
54.390 10.090375
54.395 9.764017
54.400 9.686017
54.405 9.278705
54.410 8.785641
54.415 8.433307
54.420 8.096447
54.425 8.358849
54.430 8.46473
54.435 8.484907
54.440 9.127811
54.445 9.572715
54.450 9.779434
54.455 9.687772
54.460 10.149362
54.465 10.457387
54.470 10.426021
54.475 10.314629
54.480 10.110956
54.485 10.044729
54.490 9.663823
54.495 9.374655
54.500 9.656311
54.505 9.631681
54.510 8.894555
54.515 8.715235
54.520 8.648136
54.525 8.609245
54.530 8.314115
54.535 8.20191
54.540 8.11302
54.545 8.501287
54.550 8.073146
54.555 8.138014
54.560 8.47382
54.565 8.553701
54.570 8.662724
54.575 8.640674
54.580 8.857658
54.585 9.485966
54.590 9.497224
54.595 9.266585
54.600 9.226462
54.605 9.367794
54.610 9.72683
54.615 9.801134
54.620 9.956961
54.625 10.161551
54.630 10.238009
54.635 10.132176
54.640 9.927014
54.645 10.020627
54.650 10.09043
54.655 10.055214
54.660 9.934674
54.665 10.310435
54.670 10.411651
54.675 10.478557
54.680 10.229862
54.685 10.051268
54.690 10.219359
54.695 10.427352
54.700 10.404345
54.705 10.346786
54.710 10.007013
54.715 10.193734
54.720 10.206244
54.725 10.056935
54.730 10.129077
54.735 10.105271
54.740 10.081748
54.745 10.084763
54.750 9.787631
54.755 9.395261
54.760 9.102138
54.765 9.019116
54.770 9.475373
54.775 9.638307
54.780 9.83533
54.785 10.175848
54.790 10.225794
54.795 10.37663
54.800 10.278725
54.805 10.111748
54.810 10.296543
54.815 9.922539
54.820 9.752914
54.825 10.157564
54.830 10.23772
54.835 9.820258
54.840 9.89346
54.845 10.188684
54.850 10.747506
54.855 11.325837
54.860 11.43613
54.865 11.325209
54.870 11.471217
54.875 11.811281
54.880 11.990208
54.885 11.883555
54.890 11.917294
54.895 12.230362
54.900 12.369138
54.905 12.233725
54.910 11.868253
54.915 11.934702
54.920 11.382055
54.925 10.391026
54.930 9.810956
54.935 9.744988
54.940 10.022042
54.945 9.780083
54.950 10.167476
54.955 10.38513
54.960 10.940614
54.965 11.426229
54.970 11.435893
54.975 11.055127
54.980 10.363401
54.985 9.972717
54.990 10.306201
54.995 10.302504
55.000 9.819579
55.005 9.858666
55.010 10.609424
55.015 11.102588
55.020 11.137034
55.025 11.282987
55.030 11.02841
55.035 11.623339
55.040 11.519966
55.045 11.211267
55.050 10.792036
55.055 10.58501
55.060 11.298134
55.065 10.942379
55.070 10.72269
55.075 10.344679
55.080 10.24089
55.085 10.654115
55.090 10.364004
55.095 9.84631
55.100 10.081244
55.105 10.130699
55.110 10.335053
55.115 10.412183
55.120 10.472627
55.125 10.285971
55.130 10.252396
55.135 10.506793
55.140 10.335059
55.145 10.153811
55.150 9.811552
55.155 9.632733
55.160 9.769535
55.165 9.886634
55.170 9.534301
55.175 9.063463
55.180 8.979608
55.185 8.848143
55.190 8.326857
55.195 7.854779
55.200 7.569494
55.205 7.577651
55.210 8.209929
55.215 8.906959
55.220 9.714777
55.225 10.328663
55.230 10.581489
55.235 10.464316
55.240 10.298679
55.245 10.172152
55.250 9.526381
55.255 8.720244
55.260 8.727883
55.265 9.217495
55.270 9.884317
55.275 10.372238
55.280 10.240904
55.285 10.440982
55.290 10.549178
55.295 10.228648
55.300 9.853848
55.305 9.71804
55.310 10.032578
55.315 10.262256
55.320 11.104314
55.325 11.561358
55.330 11.513758
55.335 11.421199
55.340 11.110553
55.345 10.572874
55.350 10.546164
55.355 10.390022
55.360 10.937495
55.365 10.903593
55.370 10.956187
55.375 11.034201
55.380 11.051517
55.385 10.623235
55.390 9.709683
55.395 8.963782
55.400 8.926126
55.405 8.649885
55.410 8.690327
55.415 8.531185
55.420 8.890136
55.425 9.597262
55.430 9.876778
55.435 10.513268
55.440 10.920783
55.445 10.945108
55.450 10.997717
55.455 10.924813
55.460 11.087259
55.465 11.624255
55.470 11.593117
55.475 11.634789
55.480 11.694432
55.485 12.162328
55.490 12.144268
55.495 11.521627
55.500 11.366215
55.505 11.150237
55.510 10.899975
55.515 11.120158
55.520 10.973684
55.525 10.823867
55.530 10.618152
55.535 10.342813
55.540 10.108455
55.545 9.803975
55.550 9.291553
55.555 9.189593
55.560 9.33528
55.565 9.972428
55.570 9.875198
55.575 10.334171
55.580 10.703884
55.585 10.814531
55.590 10.836975
55.595 10.926809
55.600 10.6415
55.605 11.079549
55.610 11.556434
55.615 11.757654
55.620 11.735271
55.625 12.194205
55.630 12.156931
55.635 11.913404
55.640 11.645783
55.645 11.394019
55.650 11.465379
55.655 11.525384
55.660 11.507987
55.665 11.682427
55.670 11.506973
55.675 11.325599
55.680 11.136743
55.685 11.296399
55.690 11.196918
55.695 11.455654
55.700 11.328734
55.705 11.84941
55.710 11.773927
55.715 11.755768
55.720 11.75251
55.725 11.626409
55.730 11.111418
55.735 11.265786
55.740 11.448246
55.745 11.551371
55.750 11.274394
55.755 10.892715
55.760 10.883498
55.765 10.778234
55.770 10.851472
55.775 10.307805
55.780 10.214873
55.785 10.725895
55.790 11.181089
55.795 11.796281
55.800 11.924833
55.805 11.27545
55.810 11.195646
55.815 11.301666
55.820 11.435861
55.825 11.224603
55.830 11.157758
55.835 11.524659
55.840 11.944017
55.845 12.082088
55.850 12.01786
55.855 11.69324
55.860 11.589613
55.865 11.1657
55.870 10.931571
55.875 11.231522
55.880 11.628848
55.885 11.399952
55.890 11.395465
55.895 10.911943
55.900 10.760466
55.905 11.054515
55.910 10.989834
55.915 10.683855
55.920 11.068746
55.925 11.057544
55.930 11.576857
55.935 12.08681
55.940 12.427865
55.945 12.609682
55.950 12.694772
55.955 12.606339
55.960 12.5624
55.965 12.586944
55.970 12.432099
55.975 12.904118
55.980 12.622896
55.985 12.382885
55.990 12.383636
55.995 12.014639
56.000 12.116463
56.005 11.521939
56.010 11.005507
56.015 11.137591
56.020 11.100035
56.025 11.033218
56.030 11.587237
56.035 11.512964
56.040 11.872245
56.045 12.105569
56.050 12.359367
56.055 12.584249
56.060 12.729698
56.065 12.35265
56.070 12.36456
56.075 11.682941
56.080 11.268889
56.085 10.763291
56.090 10.910618
56.095 10.852093
56.100 10.324718
56.105 10.214026
56.110 11.018325
56.115 11.03223
56.120 10.93627
56.125 10.56379
56.130 10.660986
56.135 11.122432
56.140 11.459589
56.145 11.407491
56.150 11.477533
56.155 11.659015
56.160 11.489993
56.165 11.359038
56.170 11.743767
56.175 11.545863
56.180 11.216256
56.185 11.298996
56.190 11.39519
56.195 11.398676
56.200 11.254464
56.205 10.510855
56.210 10.534936
56.215 10.604875
56.220 10.353806
56.225 10.878947
56.230 11.471086
56.235 11.821365
56.240 12.442886
56.245 12.507642
56.250 12.587382
56.255 12.963428
56.260 12.349091
56.265 11.910153
56.270 11.647819
56.275 11.552255
56.280 11.602585
56.285 11.607027
56.290 11.472996
56.295 11.587716
56.300 11.771386
56.305 11.845623
56.310 11.0933
56.315 10.931539
56.320 10.86884
56.325 10.6484
56.330 11.01952
56.335 10.900909
56.340 10.90555
56.345 11.045171
56.350 11.164862
56.355 11.332176
56.360 12.055068
56.365 12.129323
56.370 12.512198
56.375 13.133598
56.380 13.651054
56.385 13.732356
56.390 13.336762
56.395 13.066012
56.400 13.222044
56.405 12.625499
56.410 12.409934
56.415 12.473584
56.420 12.727007
56.425 12.974902
56.430 12.83972
56.435 12.537084
56.440 12.946288
56.445 12.873463
56.450 12.277194
56.455 12.402802
56.460 13.023257
56.465 13.445498
56.470 13.815944
56.475 13.480356
56.480 13.614553
56.485 13.614554
56.490 13.452922
56.495 13.108894
56.500 12.647553
56.505 12.539027
56.510 12.850996
56.515 12.870584
56.520 13.01194
56.525 12.768894
56.530 12.502645
56.535 12.653451
56.540 12.848196
56.545 13.064127
56.550 12.858322
56.555 12.954072
56.560 12.803956
56.565 13.168141
56.570 13.301544
56.575 13.024894
56.580 13.192709
56.585 13.933527
56.590 14.069231
56.595 14.679735
56.600 14.080701
56.605 14.121192
56.610 14.272899
56.615 13.706307
56.620 13.121612
56.625 12.727753
56.630 12.395595
56.635 12.375498
56.640 11.842534
56.645 11.5613
56.650 11.708135
56.655 12.290925
56.660 12.409504
56.665 12.244865
56.670 12.015879
56.675 12.145774
56.680 12.561725
56.685 12.699494
56.690 12.488109
56.695 12.46597
56.700 12.360778
56.705 12.680704
56.710 12.44579
56.715 12.355015
56.720 12.368141
56.725 12.761769
56.730 12.944733
56.735 13.339144
56.740 13.539874
56.745 13.573553
56.750 13.061044
56.755 12.800311
56.760 12.251273
56.765 12.536442
56.770 12.616521
56.775 12.528308
56.780 13.008993
56.785 13.124562
56.790 13.40189
56.795 13.818645
56.800 13.608338
56.805 13.461257
56.810 13.308187
56.815 13.10001
56.820 13.288229
56.825 13.126059
56.830 13.216308
56.835 13.305653
56.840 13.298763
56.845 13.309417
56.850 13.018058
56.855 12.939293
56.860 12.741639
56.865 13.072812
56.870 13.074928
56.875 13.317175
56.880 12.988593
56.885 13.279174
56.890 13.131263
56.895 13.258289
56.900 12.762483
56.905 12.670091
56.910 12.959628
56.915 13.355457
56.920 12.945236
56.925 13.224961
56.930 13.047909
56.935 13.054966
56.940 12.954947
56.945 12.180166
56.950 12.182293
56.955 13.062363
56.960 13.42502
56.965 13.400022
56.970 13.493912
56.975 13.592676
56.980 13.801789
56.985 13.501829
56.990 12.938655
56.995 12.783632
57.000 13.115416
57.005 12.872701
57.010 12.668733
57.015 12.861295
57.020 13.302305
57.025 13.422986
57.030 13.190388
57.035 12.788636
57.040 12.471004
57.045 12.698106
57.050 12.214379
57.055 11.894314
57.060 11.678975
57.065 11.087292
57.070 10.988081
57.075 11.260804
57.080 11.076082
57.085 11.303972
57.090 11.210007
57.095 11.328755
57.100 11.838496
57.105 12.170012
57.110 12.08124
57.115 12.397943
57.120 12.55604
57.125 12.64891
57.130 13.071573
57.135 13.224271
57.140 13.092834
57.145 13.411631
57.150 13.439975
57.155 13.384534
57.160 12.923625
57.165 12.543952
57.170 12.89327
57.175 12.79372
57.180 12.346663
57.185 12.266268
57.190 12.199904
57.195 12.441
57.200 12.469049
57.205 12.266425
57.210 12.636619
57.215 13.057859
57.220 13.464374
57.225 13.857196
57.230 13.637405
57.235 13.546002
57.240 13.785763
57.245 13.298537
57.250 13.194145
57.255 12.905093
57.260 13.009038
57.265 13.409016
57.270 13.362401
57.275 13.022862
57.280 13.135739
57.285 12.792298
57.290 12.694765
57.295 12.510054
57.300 12.249326
57.305 12.141124
57.310 12.129587
57.315 12.772273
57.320 13.025418
57.325 13.031747
57.330 13.111955
57.335 12.901664
57.340 12.735728
57.345 12.612198
57.350 12.198717
57.355 12.014582
57.360 11.995544
57.365 11.896076
57.370 12.544467
57.375 12.701682
57.380 12.603971
57.385 12.600657
57.390 12.305767
57.395 12.422571
57.400 12.386777
57.405 11.981888
57.410 11.750075
57.415 11.939343
57.420 12.446538
57.425 12.569902
57.430 12.580584
57.435 12.624144
57.440 12.699121
57.445 13.100664
57.450 13.376689
57.455 13.151518
57.460 13.607964
57.465 14.041242
57.470 14.304615
57.475 14.424367
57.480 14.16467
57.485 13.879774
57.490 13.436467
57.495 12.876003
57.500 12.624661
57.505 12.826674
57.510 12.738707
57.515 12.751267
57.520 12.828024
57.525 13.289016
57.530 13.615679
57.535 13.601443
57.540 13.058707
57.545 12.963737
57.550 13.230913
57.555 13.32505
57.560 13.487268
57.565 12.974027
57.570 12.860407
57.575 13.081676
57.580 13.287574
57.585 13.489915
57.590 13.885737
57.595 14.157476
57.600 14.362513
57.605 14.138658
57.610 14.260028
57.615 14.251768
57.620 13.541297
57.625 13.262218
57.630 13.144644
57.635 13.882682
57.640 14.001194
57.645 13.670076
57.650 13.394374
57.655 14.011629
57.660 14.545252
57.665 14.066835
57.670 13.269098
57.675 13.336014
57.680 13.444818
57.685 13.58597
57.690 12.977951
57.695 12.684121
57.700 13.025197
57.705 13.347792
57.710 13.864603
57.715 13.955977
57.720 14.133517
57.725 14.474715
57.730 14.722028
57.735 14.768874
57.740 14.879219
57.745 14.73762
57.750 14.663777
57.755 14.857631
57.760 14.459683
57.765 14.697894
57.770 14.569335
57.775 14.685322
57.780 14.680348
57.785 14.975938
57.790 15.009562
57.795 15.194756
57.800 14.818596
57.805 14.640853
57.810 14.19994
57.815 14.403956
57.820 14.44916
57.825 14.365797
57.830 14.458838
57.835 14.562608
57.840 14.929985
57.845 15.359462
57.850 15.337407
57.855 15.338858
57.860 15.305002
57.865 15.157216
57.870 14.95269
57.875 15.019273
57.880 14.865804
57.885 14.952148
57.890 15.226912
57.895 15.211679
57.900 15.050254
57.905 15.579491
57.910 15.844994
57.915 16.059614
57.920 15.611765
57.925 15.258483
57.930 15.33438
57.935 15.865396
57.940 15.891131
57.945 15.165335
57.950 14.974563
57.955 14.840845
57.960 14.68766
57.965 14.432816
57.970 14.222795
57.975 13.653244
57.980 14.029815
57.985 14.266334
57.990 14.831268
57.995 14.940079
58.000 15.179273
58.005 14.913183
58.010 14.633143
58.015 14.039667
58.020 13.844675
58.025 13.673022
58.030 13.526373
58.035 13.524158
58.040 13.274143
58.045 13.677516
58.050 13.858044
58.055 13.828629
58.060 14.239208
58.065 14.801545
58.070 14.827747
58.075 15.442311
58.080 15.55328
58.085 15.808778
58.090 16.049828
58.095 16.105051
58.100 15.711346
58.105 15.505505
58.110 15.288996
58.115 14.75123
58.120 14.529643
58.125 14.058804
58.130 13.73502
58.135 14.346633
58.140 14.813469
58.145 15.479535
58.150 15.837943
58.155 17.015997
58.160 17.906809
58.165 17.38652
58.170 16.750307
58.175 15.929628
58.180 15.58129
58.185 15.79621
58.190 14.858081
58.195 14.243916
58.200 15.025422
58.205 15.707949
58.210 16.094105
58.215 15.682377
58.220 15.202263
58.225 15.630599
58.230 16.231724
58.235 16.025164
58.240 15.755185
58.245 15.797995
58.250 16.157404
58.255 16.510366
58.260 16.234978
58.265 16.084486
58.270 15.67137
58.275 15.971737
58.280 16.368599
58.285 16.702316
58.290 16.977343
58.295 17.194239
58.300 17.82032
58.305 18.843893
58.310 19.334345
58.315 19.419558
58.320 19.444744
58.325 19.545671
58.330 19.372908
58.335 19.529842
58.340 19.737595
58.345 19.406368
58.350 20.274666
58.355 20.41729
58.360 20.574194
58.365 20.622967
58.370 20.221525
58.375 19.950911
58.380 19.971067
58.385 20.362022
58.390 21.212982
58.395 21.685392
58.400 22.117937
58.405 22.287064
58.410 22.90769
58.415 23.306931
58.420 23.614922
58.425 23.772387
58.430 24.502319
58.435 24.760904
58.440 24.874907
58.445 24.793772
58.450 24.631769
58.455 24.546619
58.460 24.247036
58.465 23.388611
58.470 23.717642
58.475 23.756615
58.480 24.55838
58.485 25.385286
58.490 25.590618
58.495 26.39641
58.500 27.086319
58.505 27.475368
58.510 27.773149
58.515 27.534098
58.520 27.236277
58.525 27.274586
58.530 27.464893
58.535 28.441257
58.540 28.589697
58.545 28.587633
58.550 28.636333
58.555 28.508739
58.560 28.758509
58.565 29.118675
58.570 28.807518
58.575 29.241514
58.580 29.828844
58.585 29.629286
58.590 30.269503
58.595 30.893438
58.600 31.126673
58.605 31.315374
58.610 31.262611
58.615 30.77882
58.620 31.036015
58.625 30.847883
58.630 30.368412
58.635 29.40156
58.640 28.826361
58.645 28.626497
58.650 29.028702
58.655 28.992542
58.660 28.78215
58.665 28.344189
58.670 28.156858
58.675 27.966564
58.680 27.676785
58.685 27.627573
58.690 27.116581
58.695 27.59911
58.700 27.44688
58.705 26.57045
58.710 26.52154
58.715 26.572243
58.720 26.481686
58.725 26.317734
58.730 24.855188
58.735 25.499239
58.740 25.938749
58.745 25.372877
58.750 24.943266
58.755 24.793037
58.760 25.097414
58.765 25.771967
58.770 25.274298
58.775 25.724979
58.780 25.498575
58.785 24.838688
58.790 24.524059
58.795 24.156136
58.800 23.207876
58.805 22.751839
58.810 22.465622
58.815 22.157518
58.820 21.87693
58.825 21.269659
58.830 20.290201
58.835 20.080978
58.840 19.315275
58.845 19.037113
58.850 19.629761
58.855 19.788481
58.860 19.782293
58.865 20.248085
58.870 19.459579
58.875 19.448071
58.880 19.033096
58.885 18.897018
58.890 18.610525
58.895 18.337854
58.900 18.137661
58.905 18.221952
58.910 18.56945
58.915 18.381678
58.920 18.069407
58.925 18.430569
58.930 18.547714
58.935 19.152065
58.940 19.149147
58.945 19.152094
58.950 18.659246
58.955 18.079556
58.960 17.683029
58.965 17.498039
58.970 16.963188
58.975 16.558216
58.980 15.939585
58.985 16.12952
58.990 16.028271
58.995 16.489378
59.000 15.975874
59.005 15.79107
59.010 15.90014
59.015 15.46973
59.020 15.226855
59.025 15.009562
59.030 14.522408
59.035 14.895759
59.040 15.28491
59.045 14.818009
59.050 14.857712
59.055 15.24909
59.060 15.596312
59.065 15.898842
59.070 16.039579
59.075 16.564405
59.080 17.811913
59.085 17.863075
59.090 17.599054
59.095 17.09774
59.100 16.783672
59.105 16.12697
59.110 15.019238
59.115 14.432486
59.120 14.978701
59.125 15.277918
59.130 15.267818
59.135 15.522169
59.140 15.903691
59.145 16.098446
59.150 16.242638
59.155 15.524478
59.160 15.235752
59.165 15.278505
59.170 14.732981
59.175 14.734829
59.180 14.718671
59.185 14.605823
59.190 14.71768
59.195 14.857928
59.200 15.115578
59.205 14.792867
59.210 14.382218
59.215 14.134741
59.220 14.137822
59.225 14.347919
59.230 13.841022
59.235 13.824514
59.240 14.446004
59.245 15.162635
59.250 15.109719
59.255 14.606319
59.260 14.767473
59.265 15.095278
59.270 14.958588
59.275 14.689472
59.280 14.338128
59.285 13.915959
59.290 13.831885
59.295 13.380915
59.300 13.688826
59.305 13.974403
59.310 14.2947
59.315 14.688956
59.320 15.463305
59.325 15.495744
59.330 15.386662
59.335 14.875615
59.340 14.875798
59.345 14.312304
59.350 14.24262
59.355 14.572617
59.360 14.984233
59.365 15.248246
59.370 15.366887
59.375 15.372904
59.380 15.537808
59.385 15.35671
59.390 15.949851
59.395 15.810243
59.400 15.611747
59.405 15.387975
59.410 15.29515
59.415 15.233315
59.420 14.700103
59.425 13.568737
59.430 13.549401
59.435 13.934114
59.440 13.961403
59.445 13.810417
59.450 14.141868
59.455 14.405739
59.460 14.878312
59.465 14.92206
59.470 14.80519
59.475 14.825789
59.480 14.89554
59.485 14.39996
59.490 14.550997
59.495 14.25316
59.500 14.082056
59.505 14.205142
59.510 14.38036
59.515 14.730766
59.520 15.083938
59.525 14.764954
59.530 14.503965
59.535 14.262791
59.540 14.108727
59.545 13.902441
59.550 13.830604
59.555 14.321181
59.560 14.471437
59.565 14.547135
59.570 14.761456
59.575 15.010575
59.580 15.534904
59.585 14.913681
59.590 14.923969
59.595 15.151325
59.600 15.607777
59.605 15.780478
59.610 15.518241
59.615 15.109707
59.620 15.051515
59.625 14.524495
59.630 14.17382
59.635 14.002085
59.640 13.629933
59.645 13.865134
59.650 14.439985
59.655 14.557149
59.660 14.457998
59.665 14.572676
59.670 14.299848
59.675 14.334414
59.680 13.596407
59.685 12.966159
59.690 12.670166
59.695 13.016125
59.700 13.807807
59.705 14.153688
59.710 14.431376
59.715 15.014733
59.720 15.832767
59.725 16.223597
59.730 15.890029
59.735 15.272221
59.740 15.351403
59.745 14.936337
59.750 14.922791
59.755 14.755781
59.760 14.804513
59.765 14.879082
59.770 14.47927
59.775 14.424404
59.780 14.361379
59.785 14.49067
59.790 14.454054
59.795 15.140155
59.800 15.117681
59.805 14.716294
59.810 14.574409
59.815 14.872586
59.820 14.454148
59.825 14.746975
59.830 14.211151
59.835 14.748873
59.840 15.077263
59.845 15.076526
59.850 14.769244
59.855 14.52342
59.860 13.922536
59.865 13.789143
59.870 13.466348
59.875 13.198873
59.880 12.67776
59.885 12.642397
59.890 12.952346
59.895 12.529676
59.900 12.507781
59.905 12.966625
59.910 13.64206
59.915 14.330606
59.920 14.403689
59.925 14.706196
59.930 15.468805
59.935 15.888937
59.940 15.978796
59.945 15.95442
59.950 15.803988
59.955 15.756452
59.960 15.790975
59.965 15.341931
59.970 14.732822
59.975 13.971931
59.980 13.835061
59.985 14.111292
59.990 14.366168
59.995 14.282364
60.000 14.423925
60.005 14.774585
60.010 15.426543
60.015 15.109942
60.020 14.935155
60.025 14.705008
60.030 14.557939
60.035 14.26378
60.040 14.354084
60.045 14.335485
60.050 14.900362
60.055 14.560492
60.060 14.946825
60.065 15.25195
60.070 15.20044
60.075 14.743872
60.080 14.262584
60.085 13.948614
60.090 14.375545
60.095 14.202267
60.100 13.937428
60.105 13.945215
60.110 13.877361
60.115 14.17707
60.120 14.122643
60.125 13.994516
60.130 14.001052
60.135 14.176584
60.140 14.559938
60.145 14.726151
60.150 14.772466
60.155 14.923308
60.160 14.750389
60.165 14.459801
60.170 14.499741
60.175 14.220979
60.180 13.963998
60.185 13.853326
60.190 13.956931
60.195 14.160538
60.200 14.424465
60.205 14.481421
60.210 14.742999
60.215 14.858999
60.220 15.022696
60.225 15.041142
60.230 15.276759
60.235 14.972913
60.240 15.090904
60.245 15.099747
60.250 15.586924
60.255 15.330214
60.260 14.803156
60.265 14.410202
60.270 14.052831
60.275 13.789975
60.280 14.025151
60.285 13.925678
60.290 13.875449
60.295 13.700176
60.300 13.436046
60.305 13.790712
60.310 13.661656
60.315 13.330371
60.320 12.748552
60.325 12.903798
60.330 13.601606
60.335 14.102266
60.340 14.41797
60.345 14.784088
60.350 14.900562
60.355 15.183765
60.360 15.721887
60.365 14.997134
60.370 14.504288
60.375 14.117555
60.380 13.844415
60.385 13.551635
60.390 13.189886
60.395 13.483658
60.400 14.023879
60.405 13.984902
60.410 13.810295
60.415 13.818121
60.420 14.441811
60.425 14.732166
60.430 14.4031
60.435 14.705086
60.440 15.066689
60.445 15.208763
60.450 14.955797
60.455 14.027123
60.460 13.560122
60.465 13.037269
60.470 12.770837
60.475 13.29791
60.480 13.396088
60.485 13.836611
60.490 14.404768
60.495 15.108413
60.500 15.465141
60.505 15.706901
60.510 14.967733
60.515 14.870174
60.520 14.279603
60.525 14.331973
60.530 14.098572
60.535 14.004986
60.540 13.846505
60.545 14.185972
60.550 14.575545
60.555 15.141164
60.560 15.434085
60.565 15.474537
60.570 15.757867
60.575 15.899974
60.580 15.659427
60.585 15.520187
60.590 15.255306
60.595 15.623394
60.600 15.628607
60.605 15.11964
60.610 14.919851
60.615 14.90809
60.620 14.8437
60.625 14.710179
60.630 13.726554
60.635 14.091743
60.640 14.506394
60.645 14.453466
60.650 14.317995
60.655 14.066955
60.660 14.040013
60.665 14.399654
60.670 14.054281
60.675 14.144007
60.680 14.130999
60.685 14.272805
60.690 14.527629
60.695 14.73108
60.700 14.466537
60.705 14.885591
60.710 15.414652
60.715 15.457981
60.720 15.273019
60.725 15.649238
60.730 15.782007
60.735 16.000477
60.740 15.572239
60.745 15.049878
60.750 15.413301
60.755 15.884977
60.760 15.627886
60.765 15.912663
60.770 16.141079
60.775 15.831829
60.780 16.202278
60.785 16.246721
60.790 16.056847
60.795 15.873602
60.800 15.196495
60.805 15.360802
60.810 15.421285
60.815 14.762148
60.820 14.122971
60.825 14.418071
60.830 14.463564
60.835 14.291298
60.840 13.912959
60.845 14.579621
60.850 15.235809
60.855 15.919375
60.860 15.574814
60.865 15.590593
60.870 15.855976
60.875 15.970728
60.880 15.222886
60.885 14.739299
60.890 14.473703
60.895 15.054123
60.900 15.675151
60.905 15.561676
60.910 15.566855
60.915 15.304445
60.920 15.605089
60.925 15.079088
60.930 14.313349
60.935 13.546218
60.940 13.535595
60.945 13.800717
60.950 14.562173
60.955 14.970091
60.960 15.207687
60.965 15.495434
60.970 15.816645
60.975 15.740743
60.980 15.521362
60.985 14.737404
60.990 14.166638
60.995 14.438361
61.000 14.571461
61.005 14.354792
61.010 14.457952
61.015 14.500657
61.020 14.566103
61.025 14.452633
61.030 13.89554
61.035 13.77487
61.040 14.343438
61.045 14.599517
61.050 14.705499
61.055 14.537074
61.060 14.760936
61.065 14.695352
61.070 14.967333
61.075 14.857463
61.080 14.889925
61.085 15.404378
61.090 15.397501
61.095 15.408034
61.100 15.958144
61.105 15.406007
61.110 15.261436
61.115 14.766718
61.120 13.891754
61.125 14.365067
61.130 14.674928
61.135 14.598531
61.140 15.114094
61.145 15.402785
61.150 15.224977
61.155 15.217236
61.160 14.551398
61.165 14.182631
61.170 14.414167
61.175 14.269338
61.180 13.862805
61.185 14.516645
61.190 15.206158
61.195 16.108025
61.200 17.258593
61.205 17.292721
61.210 17.63726
61.215 18.048044
61.220 17.817638
61.225 17.666826
61.230 18.049223
61.235 17.479481
61.240 17.044107
61.245 16.517256
61.250 16.251448
61.255 15.850894
61.260 15.768321
61.265 15.214859
61.270 14.7943
61.275 14.928919
61.280 15.127381
61.285 15.226539
61.290 15.891102
61.295 16.32572
61.300 16.274708
61.305 16.32593
61.310 16.021591
61.315 16.288326
61.320 16.213217
61.325 15.707057
61.330 14.76856
61.335 14.362091
61.340 14.694504
61.345 14.612206
61.350 14.238214
61.355 14.27966
61.360 13.939058
61.365 14.117183
61.370 14.2883
61.375 14.471587
61.380 14.81703
61.385 15.077052
61.390 15.572247
61.395 15.974152
61.400 16.064945
61.405 16.034864
61.410 15.431585
61.415 15.206574
61.420 14.791561
61.425 14.369107
61.430 14.295979
61.435 13.869148
61.440 13.90378
61.445 14.812148
61.450 14.775184
61.455 15.067156
61.460 15.424409
61.465 15.482842
61.470 15.567575
61.475 15.407136
61.480 15.011177
61.485 15.253984
61.490 15.309935
61.495 15.447366
61.500 15.752941
61.505 16.143431
61.510 16.538824
61.515 16.749081
61.520 17.105057
61.525 17.222603
61.530 16.910908
61.535 16.727755
61.540 16.12323
61.545 15.649274
61.550 15.459547
61.555 15.217348
61.560 15.468201
61.565 15.461903
61.570 15.374168
61.575 16.16423
61.580 16.40848
61.585 16.195435
61.590 15.901415
61.595 15.02331
61.600 14.706028
61.605 14.353729
61.610 13.768369
61.615 14.053481
61.620 14.643424
61.625 14.907368
61.630 15.485201
61.635 15.890195
61.640 16.640036
61.645 17.068918
61.650 17.029667
61.655 16.827127
61.660 16.385771
61.665 16.058582
61.670 16.46883
61.675 16.578989
61.680 16.478077
61.685 16.044994
61.690 15.311047
61.695 15.673094
61.700 15.705743
61.705 15.289712
61.710 15.082941
61.715 15.048781
61.720 15.32114
61.725 15.900952
61.730 15.614635
61.735 15.447723
61.740 15.120917
61.745 15.440139
61.750 15.406645
61.755 14.736437
61.760 14.144995
61.765 14.274
61.770 14.440475
61.775 14.15825
61.780 13.62642
61.785 14.303907
61.790 15.107273
61.795 15.683167
61.800 15.82356
61.805 15.849418
61.810 16.427574
61.815 16.116913
61.820 16.260489
61.825 16.326914
61.830 16.167187
61.835 15.909595
61.840 16.095245
61.845 15.695643
61.850 15.753339
61.855 15.428223
61.860 15.50064
61.865 15.188198
61.870 15.09733
61.875 14.946283
61.880 15.061434
61.885 15.342055
61.890 15.576551
61.895 15.334888
61.900 15.596704
61.905 15.533385
61.910 15.358135
61.915 15.403022
61.920 15.505442
61.925 15.181707
61.930 14.853262
61.935 15.043965
61.940 15.287922
61.945 15.712944
61.950 15.804428
61.955 16.247154
61.960 16.069248
61.965 15.82058
61.970 16.043568
61.975 16.189714
61.980 16.108023
61.985 15.84605
61.990 15.189087
61.995 15.076851
62.000 15.293263
62.005 15.220659
62.010 15.113075
62.015 15.215211
62.020 15.063813
62.025 15.274806
62.030 15.767587
62.035 15.558341
62.040 15.273831
62.045 14.926425
62.050 15.026998
62.055 15.069738
62.060 14.8473
62.065 14.564257
62.070 14.315486
62.075 14.37048
62.080 14.703732
62.085 14.859971
62.090 15.092934
62.095 15.402114
62.100 15.751676
62.105 16.024736
62.110 16.079884
62.115 16.00647
62.120 16.017481
62.125 16.167772
62.130 16.097448
62.135 16.135767
62.140 16.661774
62.145 16.97477
62.150 17.035591
62.155 17.033234
62.160 16.913807
62.165 17.012932
62.170 17.338402
62.175 17.43704
62.180 17.652456
62.185 17.411119
62.190 17.69528
62.195 17.572512
62.200 17.559597
62.205 17.327675
62.210 17.305098
62.215 17.186945
62.220 17.059414
62.225 16.528946
62.230 16.697508
62.235 16.73527
62.240 16.551067
62.245 16.026762
62.250 16.12014
62.255 16.58005
62.260 16.356369
62.265 16.288361
62.270 16.547142
62.275 17.126436
62.280 17.016069
62.285 16.601234
62.290 16.419933
62.295 16.864035
62.300 16.770716
62.305 15.875024
62.310 15.402593
62.315 15.406044
62.320 15.252707
62.325 14.928501
62.330 14.058393
62.335 13.861588
62.340 14.057262
62.345 14.06084
62.350 13.926158
62.355 14.036188
62.360 15.18959
62.365 16.265415
62.370 16.771843
62.375 16.645823
62.380 16.672245
62.385 17.601852
62.390 17.79488
62.395 16.914845
62.400 16.321224
62.405 16.339819
62.410 17.384188
62.415 17.869957
62.420 17.458988
62.425 17.24888
62.430 17.319748
62.435 17.755289
62.440 17.75289
62.445 17.114832
62.450 17.002333
62.455 17.237968
62.460 17.376511
62.465 17.392593
62.470 17.484394
62.475 17.560957
62.480 17.581474
62.485 17.580053
62.490 16.821648
62.495 16.651529
62.500 16.558962
62.505 16.091198
62.510 15.986268
62.515 15.684197
62.520 15.451856
62.525 16.291874
62.530 16.184872
62.535 15.93984
62.540 15.488701
62.545 15.563041
62.550 15.301007
62.555 15.104424
62.560 15.206691
62.565 15.678608
62.570 16.100445
62.575 16.698666
62.580 16.61574
62.585 17.142977
62.590 17.625292
62.595 16.984781
62.600 17.296362
62.605 17.544489
62.610 17.097048
62.615 16.916473
62.620 16.717289
62.625 16.63644
62.630 17.03726
62.635 16.727684
62.640 16.679605
62.645 16.782188
62.650 17.121815
62.655 17.167944
62.660 17.559208
62.665 17.543736
62.670 17.263496
62.675 17.494965
62.680 17.619574
62.685 17.729288
62.690 17.71102
62.695 17.749557
62.700 17.591885
62.705 17.858181
62.710 17.211246
62.715 17.503117
62.720 17.097044
62.725 17.388966
62.730 17.432838
62.735 18.053301
62.740 18.08749
62.745 17.993143
62.750 17.715265
62.755 17.199379
62.760 16.880617
62.765 16.866945
62.770 16.59997
62.775 16.043432
62.780 15.905015
62.785 16.446526
62.790 17.134674
62.795 16.92194
62.800 16.503252
62.805 16.234983
62.810 16.751368
62.815 17.392813
62.820 17.039696
62.825 16.90661
62.830 17.066238
62.835 16.948866
62.840 17.4562
62.845 17.402622
62.850 17.233921
62.855 17.55504
62.860 18.008896
62.865 18.434725
62.870 17.862392
62.875 16.988266
62.880 17.058125
62.885 17.069653
62.890 16.586243
62.895 16.587791
62.900 15.946242
62.905 16.047472
62.910 16.261282
62.915 16.152546
62.920 15.859606
62.925 15.45833
62.930 14.993591
62.935 15.673643
62.940 16.502615
62.945 16.614901
62.950 16.394323
62.955 16.365929
62.960 16.602549
62.965 16.18792
62.970 16.245218
62.975 16.333849
62.980 16.132862
62.985 15.938707
62.990 16.545605
62.995 16.655573
63.000 16.785297
63.005 16.025709
63.010 16.039804
63.015 16.596315
63.020 16.943146
63.025 16.466654
63.030 17.001991
63.035 17.588741
63.040 17.96932
63.045 17.777039
63.050 18.039968
63.055 18.212774
63.060 18.363884
63.065 17.645918
63.070 16.887728
63.075 17.079565
63.080 16.573826
63.085 15.929328
63.090 15.580081
63.095 15.63968
63.100 15.969102
63.105 16.135773
63.110 15.745846
63.115 15.818469
63.120 15.929947
63.125 15.649137
63.130 15.138379
63.135 14.830899
63.140 15.16166
63.145 15.14016
63.150 15.935161
63.155 16.855827
63.160 17.101967
63.165 17.021704
63.170 17.392492
63.175 18.040442
63.180 18.168745
63.185 17.640766
63.190 17.256508
63.195 17.548084
63.200 18.330362
63.205 18.193422
63.210 17.329912
63.215 17.144266
63.220 16.627169
63.225 16.149147
63.230 15.918866
63.235 15.618116
63.240 15.558015
63.245 16.172218
63.250 17.13098
63.255 17.262552
63.260 17.729832
63.265 18.28104
63.270 18.040602
63.275 18.195436
63.280 17.585514
63.285 17.085447
63.290 17.435257
63.295 17.000538
63.300 16.521551
63.305 16.594439
63.310 16.880842
63.315 17.029476
63.320 16.799883
63.325 16.847374
63.330 17.069809
63.335 17.051611
63.340 17.173916
63.345 16.904823
63.350 16.906338
63.355 16.92831
63.360 17.054098
63.365 17.274788
63.370 17.392925
63.375 17.516624
63.380 17.366112
63.385 17.323534
63.390 17.511551
63.395 17.833952
63.400 17.733343
63.405 17.410995
63.410 17.027802
63.415 17.214962
63.420 17.243116
63.425 16.964468
63.430 16.721941
63.435 16.709074
63.440 17.247082
63.445 17.969734
63.450 18.034248
63.455 18.397236
63.460 18.761189
63.465 18.38118
63.470 18.759954
63.475 18.082867
63.480 17.46574
63.485 16.927052
63.490 16.993578
63.495 17.147478
63.500 17.400076
63.505 17.078413
63.510 17.526506
63.515 17.712318
63.520 18.219315
63.525 18.238445
63.530 17.586012
63.535 17.574255
63.540 17.545345
63.545 17.240854
63.550 17.128887
63.555 16.797295
63.560 16.652082
63.565 16.829113
63.570 16.259426
63.575 16.17013
63.580 16.349733
63.585 16.328102
63.590 16.761185
63.595 16.792917
63.600 16.561815
63.605 17.015465
63.610 16.830444
63.615 17.134241
63.620 16.645813
63.625 16.198345
63.630 16.560364
63.635 16.823647
63.640 17.519077
63.645 18.23208
63.650 18.139046
63.655 18.92901
63.660 18.462965
63.665 17.838234
63.670 17.606676
63.675 16.860073
63.680 16.393867
63.685 16.064581
63.690 15.923535
63.695 16.559752
63.700 16.557413
63.705 16.796232
63.710 17.178652
63.715 17.128319
63.720 17.346786
63.725 17.004074
63.730 16.805088
63.735 17.252136
63.740 16.800381
63.745 16.55596
63.750 16.7789
63.755 17.09296
63.760 17.549664
63.765 17.719587
63.770 17.269585
63.775 17.878319
63.780 18.350719
63.785 19.307407
63.790 19.097469
63.795 18.811163
63.800 18.837734
63.805 18.650412
63.810 18.753996
63.815 18.425388
63.820 17.513092
63.825 17.697723
63.830 17.85187
63.835 18.247467
63.840 19.104166
63.845 18.827919
63.850 19.148739
63.855 19.47138
63.860 19.840626
63.865 20.364346
63.870 19.53191
63.875 18.827778
63.880 18.984905
63.885 19.056831
63.890 18.936567
63.895 18.523956
63.900 18.203876
63.905 18.655615
63.910 19.133677
63.915 19.273861
63.920 19.327452
63.925 19.42543
63.930 19.306498
63.935 19.206333
63.940 19.341412
63.945 19.66737
63.950 19.573038
63.955 19.736652
63.960 20.81329
63.965 21.535154
63.970 22.37031
63.975 22.744326
63.980 23.086689
63.985 23.650795
63.990 23.387655
63.995 23.487513
64.000 23.951363
64.005 24.290154
64.010 24.8591
64.015 25.553019
64.020 25.847212
64.025 26.705376
64.030 26.930576
64.035 27.067955
64.040 27.583712
64.045 28.053024
64.050 28.663416
64.055 29.12652
64.060 28.409386
64.065 28.503656
64.070 28.486443
64.075 28.531063
64.080 28.174395
64.085 27.496609
64.090 27.477215
64.095 28.112646
64.100 28.271515
64.105 28.788412
64.110 29.360889
64.115 31.034554
64.120 31.861597
64.125 32.566177
64.130 33.142677
64.135 33.428291
64.140 33.124313
64.145 32.665264
64.150 32.565186
64.155 32.989403
64.160 33.972401
64.165 34.596512
64.170 34.608444
64.175 35.345654
64.180 35.718239
64.185 35.972652
64.190 36.829342
64.195 37.096012
64.200 37.676437
64.205 38.516479
64.210 39.036995
64.215 39.367168
64.220 39.604816
64.225 40.097233
64.230 40.16993
64.235 40.011112
64.240 40.138706
64.245 40.674011
64.250 40.979748
64.255 41.126709
64.260 40.648487
64.265 39.6465
64.270 39.715782
64.275 39.357651
64.280 37.97327
64.285 38.050697
64.290 38.860958
64.295 38.582035
64.300 39.328995
64.305 39.619587
64.310 39.704273
64.315 40.020252
64.320 39.948002
64.325 38.391502
64.330 37.716248
64.335 36.979832
64.340 36.536434
64.345 35.831375
64.350 35.615704
64.355 35.189514
64.360 35.763229
64.365 36.091957
64.370 36.0662
64.375 36.344078
64.380 36.83707
64.385 37.101852
64.390 36.840786
64.395 36.625957
64.400 36.2458
64.405 35.415886
64.410 35.177868
64.415 34.943962
64.420 34.426403
64.425 33.782024
64.430 33.384621
64.435 33.314182
64.440 33.591713
64.445 33.339512
64.450 33.701389
64.455 33.284412
64.460 33.391918
64.465 32.888142
64.470 32.684784
64.475 32.021843
64.480 31.091888
64.485 29.774767
64.490 30.011156
64.495 30.277578
64.500 29.795832
64.505 29.397392
64.510 29.368223
64.515 29.478287
64.520 29.401306
64.525 29.084452
64.530 28.284807
64.535 28.189905
64.540 27.832962
64.545 27.451677
64.550 27.377617
64.555 27.507137
64.560 27.630926
64.565 27.560509
64.570 26.605482
64.575 26.165369
64.580 26.273411
64.585 26.067616
64.590 25.620308
64.595 24.567776
64.600 24.040926
64.605 24.330046
64.610 24.898125
64.615 24.862015
64.620 24.602484
64.625 24.56757
64.630 25.04014
64.635 24.738125
64.640 23.539782
64.645 22.093994
64.650 21.1696
64.655 20.555521
64.660 20.2047
64.665 19.315365
64.670 19.415232
64.675 19.361269
64.680 20.05345
64.685 20.453642
64.690 20.3402
64.695 20.265619
64.700 20.688168
64.705 20.779301
64.710 21.147501
64.715 21.243496
64.720 21.298882
64.725 21.818396
64.730 22.322384
64.735 22.438141
64.740 22.653643
64.745 22.58803
64.750 22.430691
64.755 21.999672
64.760 21.467255
64.765 21.094955
64.770 20.863981
64.775 21.217878
64.780 21.463591
64.785 21.097757
64.790 21.105951
64.795 20.744093
64.800 20.544394
64.805 20.547474
64.810 19.650639
64.815 18.740417
64.820 18.914219
64.825 19.251394
64.830 19.718061
64.835 20.1245
64.840 20.444458
64.845 20.826797
64.850 21.45397
64.855 21.671429
64.860 21.699766
64.865 21.313559
64.870 21.249372
64.875 21.580362
64.880 22.03171
64.885 22.386806
64.890 21.774878
64.895 21.431952
64.900 20.932371
64.905 20.023857
64.910 19.700958
64.915 19.612341
64.920 19.676041
64.925 19.837738
64.930 20.359619
64.935 21.21928
64.940 21.530222
64.945 21.575628
64.950 21.783781
64.955 21.36027
64.960 21.497988
64.965 21.138041
64.970 20.411255
64.975 20.227926
64.980 20.566677
64.985 21.000761
64.990 21.744167
64.995 22.345156
65.000 22.766596
65.005 23.469965
65.010 23.651287
65.015 23.099062
65.020 22.656572
65.025 21.877508
65.030 21.245907
65.035 21.210714
65.040 21.484644
65.045 22.039776
65.050 22.444555
65.055 22.870852
65.060 23.792185
65.065 24.198114
65.070 24.537323
65.075 24.378574
65.080 24.29089
65.085 24.618753
65.090 24.417248
65.095 25.01844
65.100 25.185755
65.105 25.378853
65.110 26.045549
65.115 26.618786
65.120 26.584831
65.125 26.526443
65.130 26.426348
65.135 26.331224
65.140 25.803484
65.145 24.818422
65.150 24.281586
65.155 24.386457
65.160 24.606441
65.165 24.130564
65.170 24.365442
65.175 24.786882
65.180 25.221241
65.185 25.422184
65.190 25.311945
65.195 24.751863
65.200 24.882818
65.205 25.378181
65.210 26.012568
65.215 26.409372
65.220 26.51712
65.225 26.610155
65.230 26.840977
65.235 26.702248
65.240 26.21147
65.245 25.258511
65.250 24.449419
65.255 24.606918
65.260 24.412617
65.265 23.94907
65.270 23.049759
65.275 22.816746
65.280 22.900524
65.285 23.344538
65.290 23.62373
65.295 24.407681
65.300 24.812399
65.305 25.283344
65.310 25.308851
65.315 25.202738
65.320 24.99445
65.325 24.480612
65.330 23.523935
65.335 23.818773
65.340 24.166073
65.345 23.831848
65.350 23.512455
65.355 23.229038
65.360 23.175863
65.365 23.473013
65.370 23.911905
65.375 23.706013
65.380 23.992825
65.385 24.423859
65.390 24.228142
65.395 24.23609
65.400 24.595718
65.405 24.195957
65.410 24.594215
65.415 25.330038
65.420 25.822054
65.425 26.7155
65.430 26.704588
65.435 26.627516
65.440 28.37322
65.445 28.911268
65.450 29.23781
65.455 29.409317
65.460 29.327793
65.465 29.777407
65.470 30.263899
65.475 29.500553
65.480 29.336838
65.485 29.308872
65.490 29.771008
65.495 30.337608
65.500 30.177851
65.505 30.444918
65.510 30.173717
65.515 30.059671
65.520 30.609652
65.525 30.634867
65.530 30.614632
65.535 31.008528
65.540 31.380678
65.545 32.405872
65.550 33.302433
65.555 32.988869
65.560 33.395729
65.565 33.818497
65.570 34.743793
65.575 35.158607
65.580 36.3475
65.585 36.762737
65.590 36.596661
65.595 37.164078
65.600 37.673363
65.605 37.944126
65.610 38.058842
65.615 37.714436
65.620 38.180122
65.625 38.729061
65.630 38.821659
65.635 38.933823
65.640 38.453064
65.645 38.408489
65.650 39.294075
65.655 40.055195
65.660 40.821564
65.665 40.648525
65.670 40.500004
65.675 40.771717
65.680 41.485039
65.685 41.111584
65.690 40.438515
65.695 40.37064
65.700 40.624565
65.705 40.263031
65.710 40.314945
65.715 40.370838
65.720 39.614681
65.725 39.414383
65.730 39.338093
65.735 39.298489
65.740 39.042492
65.745 39.450233
65.750 39.596958
65.755 40.613548
65.760 41.337685
65.765 41.101051
65.770 41.086529
65.775 41.27034
65.780 40.170673
65.785 38.708447
65.790 37.144894
65.795 37.045429
65.800 37.643974
65.805 37.588524
65.810 37.841301
65.815 38.191231
65.820 39.025269
65.825 40.219002
65.830 40.002991
65.835 39.295017
65.840 39.384125
65.845 39.421642
65.850 39.772556
65.855 39.873276
65.860 39.577942
65.865 39.42247
65.870 39.010727
65.875 38.269779
65.880 37.266308
65.885 35.911587
65.890 33.905594
65.895 33.174122
65.900 32.427296
65.905 32.040058
65.910 32.192673
65.915 33.166786
65.920 33.801994
65.925 34.701847
65.930 35.020267
65.935 35.836235
65.940 35.886494
65.945 35.650494
65.950 34.877388
65.955 34.261173
65.960 33.228714
65.965 32.447861
65.970 31.279339
65.975 30.721458
65.980 29.938473
65.985 29.857746
65.990 29.752785
65.995 29.936474
66.000 29.561323
66.005 29.509443
66.010 29.870508
66.015 30.047941
66.020 29.7225
66.025 29.067564
66.030 29.132122
66.035 28.719469
66.040 29.122272
66.045 28.862886
66.050 28.984959
66.055 29.342052
66.060 29.699709
66.065 29.040838
66.070 29.029879
66.075 28.744818
66.080 28.618534
66.085 28.495516
66.090 27.589962
66.095 26.94326
66.100 26.263601
66.105 26.474258
66.110 25.942158
66.115 25.076136
66.120 24.16898
66.125 24.337196
66.130 24.446365
66.135 24.790234
66.140 24.034473
66.145 24.018908
66.150 24.274317
66.155 24.403831
66.160 24.131596
66.165 24.431452
66.170 24.164797
66.175 24.625862
66.180 24.495295
66.185 24.078037
66.190 24.081001
66.195 23.444838
66.200 22.296091
66.205 21.57897
66.210 20.536016
66.215 20.403067
66.220 20.629143
66.225 20.592453
66.230 20.653576
66.235 21.376974
66.240 21.579967
66.245 21.502195
66.250 21.579962
66.255 20.825073
66.260 20.485943
66.265 20.265469
66.270 19.700665
66.275 19.488142
66.280 19.479254
66.285 19.325321
66.290 19.540791
66.295 19.513937
66.300 19.289499
66.305 19.340012
66.310 19.479961
66.315 18.929035
66.320 18.454189
66.325 18.274427
66.330 18.799007
66.335 19.637676
66.340 20.040525
66.345 19.939331
66.350 20.909649
66.355 21.63726
66.360 21.989752
66.365 21.707167
66.370 21.080709
66.375 20.715845
66.380 20.905506
66.385 20.003788
66.390 19.359198
66.395 19.473488
66.400 19.851761
66.405 19.757832
66.410 18.902203
66.415 18.399897
66.420 18.338427
66.425 18.45756
66.430 18.138903
66.435 17.627382
66.440 17.961002
66.445 18.242373
66.450 18.375816
66.455 18.824791
66.460 18.74802
66.465 18.970457
66.470 18.825726
66.475 18.697613
66.480 18.170786
66.485 17.989763
66.490 17.735741
66.495 17.237419
66.500 16.946165
66.505 16.786381
66.510 16.9716
66.515 18.188074
66.520 18.359352
66.525 18.494987
66.530 18.439228
66.535 18.704889
66.540 18.473783
66.545 18.132164
66.550 17.35622
66.555 17.036219
66.560 16.939493
66.565 17.261797
66.570 17.545498
66.575 17.660105
66.580 17.327784
66.585 17.636133
66.590 17.416435
66.595 17.146296
66.600 16.825666
66.605 16.711792
66.610 16.735323
66.615 17.402851
66.620 17.911245
66.625 18.755003
66.630 19.365591
66.635 19.207727
66.640 18.989244
66.645 19.135843
66.650 18.297371
66.655 17.594473
66.660 16.718292
66.665 16.53091
66.670 16.617218
66.675 16.528372
66.680 16.939796
66.685 16.93737
66.690 17.124805
66.695 17.13196
66.700 17.119076
66.705 16.930859
66.710 16.692051
66.715 16.54258
66.720 17.225815
66.725 17.62792
66.730 17.693201
66.735 18.026419
66.740 18.526222
66.745 18.660486
66.750 19.168171
66.755 19.062103
66.760 19.184589
66.765 19.29093
66.770 18.818432
66.775 18.918982
66.780 18.906073
66.785 18.569653
66.790 18.597174
66.795 17.958263
66.800 17.602535
66.805 17.534124
66.810 17.190861
66.815 17.008883
66.820 16.996738
66.825 16.976677
66.830 17.732212
66.835 17.962215
66.840 17.892719
66.845 18.019514
66.850 17.891972
66.855 17.650015
66.860 17.227703
66.865 17.314976
66.870 17.523066
66.875 18.01062
66.880 17.790594
66.885 17.882479
66.890 17.826366
66.895 17.937229
66.900 17.379744
66.905 17.174021
66.910 16.989019
66.915 17.368731
66.920 17.414539
66.925 17.083294
66.930 16.605854
66.935 16.649765
66.940 16.607458
66.945 16.712584
66.950 16.80831
66.955 17.251287
66.960 17.417297
66.965 17.646898
66.970 17.850426
66.975 18.054434
66.980 17.571394
66.985 16.852123
66.990 16.340893
66.995 16.553932
67.000 16.543777
67.005 16.860979
67.010 17.008673
67.015 17.603046
67.020 18.15056
67.025 18.741722
67.030 19.305859
67.035 19.483393
67.040 19.146204
67.045 19.116455
67.050 18.675539
67.055 18.284525
67.060 17.966015
67.065 17.557701
67.070 17.136572
67.075 16.565948
67.080 16.324785
67.085 16.965681
67.090 17.027231
67.095 17.314995
67.100 17.485102
67.105 17.917065
67.110 18.21426
67.115 18.057817
67.120 17.717369
67.125 17.84853
67.130 17.770395
67.135 17.578075
67.140 17.224644
67.145 17.18985
67.150 16.908138
67.155 16.626257
67.160 16.770527
67.165 16.774073
67.170 17.053766
67.175 17.873053
67.180 18.22015
67.185 18.455256
67.190 18.31147
67.195 17.727932
67.200 17.535521
67.205 17.209681
67.210 16.53368
67.215 16.553436
67.220 16.821266
67.225 17.138992
67.230 17.389746
67.235 17.783592
67.240 17.872587
67.245 18.444391
67.250 18.40802
67.255 18.525396
67.260 18.574339
67.265 18.712215
67.270 18.767977
67.275 18.990749
67.280 18.991421
67.285 19.178411
67.290 19.685148
67.295 19.485962
67.300 19.457012
67.305 19.123175
67.310 19.295319
67.315 19.339916
67.320 19.096739
67.325 18.274679
67.330 18.672447
67.335 18.370098
67.340 18.676981
67.345 18.152855
67.350 18.021713
67.355 18.395018
67.360 18.869738
67.365 18.619396
67.370 19.036343
67.375 18.985472
67.380 18.356016
67.385 17.4702
67.390 17.651503
67.395 17.17889
67.400 17.43791
67.405 17.726498
67.410 17.787178
67.415 18.557083
67.420 18.74132
67.425 18.812199
67.430 19.489737
67.435 19.098068
67.440 18.464294
67.445 18.227488
67.450 18.262833
67.455 18.288004
67.460 17.979633
67.465 17.664848
67.470 17.709541
67.475 17.701538
67.480 17.519863
67.485 17.914341
67.490 17.772863
67.495 17.532444
67.500 17.132332
67.505 17.107868
67.510 17.455183
67.515 16.798403
67.520 16.382355
67.525 16.846584
67.530 16.927675
67.535 17.357405
67.540 17.84263
67.545 18.012459
67.550 18.860823
67.555 18.933645
67.560 18.516352
67.565 18.372694
67.570 18.125851
67.575 17.658844
67.580 18.157864
67.585 18.160599
67.590 17.856863
67.595 17.995426
67.600 17.867216
67.605 18.202961
67.610 18.182919
67.615 17.8419
67.620 18.45261
67.625 18.619434
67.630 18.644186
67.635 18.908571
67.640 19.053917
67.645 18.647268
67.650 18.043589
67.655 17.632067
67.660 17.842672
67.665 17.83499
67.670 17.172703
67.675 16.310656
67.680 16.375372
67.685 16.587574
67.690 15.920434
67.695 15.917037
67.700 16.156654
67.705 16.781542
67.710 17.053761
67.715 17.212008
67.720 17.165565
67.725 17.099293
67.730 17.267855
67.735 17.701853
67.740 18.129526
67.745 18.439917
67.750 18.323273
67.755 18.177626
67.760 18.672913
67.765 18.342897
67.770 18.057081
67.775 17.624205
67.780 17.877298
67.785 18.545258
67.790 18.886364
67.795 18.636259
67.800 18.499081
67.805 18.3036
67.810 18.311474
67.815 17.771748
67.820 17.686878
67.825 18.078253
67.830 18.3078
67.835 18.01137
67.840 17.716141
67.845 17.676432
67.850 17.805265
67.855 17.382593
67.860 17.526258
67.865 17.995375
67.870 18.683462
67.875 19.007414
67.880 18.597723
67.885 18.026112
67.890 17.607553
67.895 16.982216
67.900 15.883625
67.905 15.783034
67.910 15.645432
67.915 15.808599
67.920 16.462406
67.925 16.877964
67.930 17.405401
67.935 17.799395
67.940 17.340031
67.945 17.659794
67.950 17.529421
67.955 17.334698
67.960 16.826344
67.965 17.095293
67.970 17.107908
67.975 17.477116
67.980 17.877157
67.985 18.800827
67.990 19.054106
67.995 18.978428
68.000 18.149933
68.005 18.255718
68.010 18.371424
68.015 18.091871
68.020 18.302849
68.025 18.435808
68.030 19.018843
68.035 19.408464
68.040 19.560053
68.045 19.176519
68.050 18.93631
68.055 18.628454
68.060 18.787125
68.065 18.520409
68.070 18.061426
68.075 17.608036
68.080 18.103672
68.085 17.818256
68.090 17.335796
68.095 16.87001
68.100 17.039927
68.105 17.560007
68.110 17.846756
68.115 17.992638
68.120 18.357674
68.125 18.772463
68.130 18.95574
68.135 19.021675
68.140 19.427849
68.145 19.883097
68.150 20.206041
68.155 20.018856
68.160 20.097963
68.165 20.545938
68.170 21.064178
68.175 20.526205
68.180 20.524435
68.185 20.536446
68.190 21.001202
68.195 20.589161
68.200 20.141994
68.205 19.24539
68.210 18.97784
68.215 18.275314
68.220 17.723001
68.225 17.040749
68.230 17.226963
68.235 17.484079
68.240 17.846872
68.245 18.684143
68.250 18.323795
68.255 17.997246
68.260 18.265224
68.265 18.85318
68.270 19.219557
68.275 19.340225
68.280 19.075155
68.285 19.57902
68.290 19.483311
68.295 19.300663
68.300 19.063622
68.305 18.878424
68.310 18.705664
68.315 18.406845
68.320 18.689905
68.325 19.150734
68.330 19.068361
68.335 18.897356
68.340 18.750772
68.345 18.69038
68.350 18.621569
68.355 19.064081
68.360 19.226698
68.365 19.00358
68.370 18.708084
68.375 19.03689
68.380 19.611382
68.385 20.0791
68.390 20.016146
68.395 20.04027
68.400 19.45101
68.405 19.124378
68.410 18.896402
68.415 18.611866
68.420 17.849716
68.425 17.241472
68.430 17.297333
68.435 17.86945
68.440 18.00927
68.445 18.121269
68.450 18.062868
68.455 18.017387
68.460 18.464027
68.465 18.859255
68.470 18.723854
68.475 19.315718
68.480 19.56613
68.485 20.343058
68.490 21.296799
68.495 21.544758
68.500 21.649071
68.505 22.396326
68.510 22.789082
68.515 22.710627
68.520 22.743658
68.525 22.88162
68.530 23.228601
68.535 23.720976
68.540 23.608042
68.545 23.075706
68.550 22.927435
68.555 23.110199
68.560 22.441814
68.565 22.125046
68.570 21.694548
68.575 21.247139
68.580 20.902214
68.585 20.660709
68.590 20.275368
68.595 20.139313
68.600 20.396013
68.605 20.347456
68.610 20.922178
68.615 21.60346
68.620 21.788437
68.625 21.656675
68.630 21.928596
68.635 21.881796
68.640 22.544115
68.645 22.906918
68.650 23.465445
68.655 24.010344
68.660 24.759943
68.665 24.730213
68.670 24.958572
68.675 25.083805
68.680 25.046818
68.685 24.865938
68.690 24.932436
68.695 24.704443
68.700 25.006895
68.705 25.437454
68.710 26.060259
68.715 25.680267
68.720 25.767612
68.725 25.574097
68.730 26.320122
68.735 26.653114
68.740 26.583849
68.745 25.720024
68.750 26.442921
68.755 26.823044
68.760 28.299555
68.765 29.036827
68.770 29.706738
68.775 30.629147
68.780 31.347673
68.785 31.170057
68.790 31.347406
68.795 30.888945
68.800 30.973946
68.805 30.459053
68.810 31.028805
68.815 31.689541
68.820 32.079929
68.825 32.699596
68.830 32.959003
68.835 33.412247
68.840 33.971336
68.845 33.903091
68.850 33.648319
68.855 33.583141
68.860 34.557953
68.865 35.590862
68.870 35.21875
68.875 35.41328
68.880 35.065559
68.885 35.531879
68.890 36.318958
68.895 36.056858
68.900 35.651264
68.905 36.832973
68.910 37.555492
68.915 37.691448
68.920 37.476002
68.925 36.563416
68.930 35.94022
68.935 35.533993
68.940 34.966858
68.945 34.651379
68.950 34.891254
68.955 35.078239
68.960 35.817837
68.965 36.438831
68.970 36.399433
68.975 35.723774
68.980 36.032875
68.985 36.040443
68.990 35.77309
68.995 35.581326
69.000 35.681587
69.005 35.949516
69.010 35.377071
69.015 34.712688
69.020 34.69968
69.025 35.19696
69.030 35.23074
69.035 34.909138
69.040 35.337765
69.045 36.360867
69.050 36.548401
69.055 36.158436
69.060 36.129749
69.065 35.606216
69.070 36.378407
69.075 36.715916
69.080 37.088043
69.085 37.508621
69.090 37.581806
69.095 36.542351
69.100 36.698254
69.105 35.52388
69.110 34.788494
69.115 33.532471
69.120 32.450783
69.125 32.781067
69.130 33.523113
69.135 33.685852
69.140 33.592766
69.145 33.144974
69.150 33.069752
69.155 33.163761
69.160 32.382713
69.165 31.82999
69.170 30.710617
69.175 30.181076
69.180 30.069851
69.185 30.395189
69.190 30.595751
69.195 29.806347
69.200 29.997446
69.205 29.950619
69.210 30.351397
69.215 30.347874
69.220 30.05426
69.225 29.926384
69.230 30.042866
69.235 29.521496
69.240 29.22283
69.245 28.194332
69.250 27.471247
69.255 27.281189
69.260 27.56992
69.265 27.519365
69.270 27.728657
69.275 27.332262
69.280 27.101725
69.285 27.085052
69.290 26.298567
69.295 25.702946
69.300 25.301449
69.305 25.387873
69.310 26.214405
69.315 26.534298
69.320 25.99703
69.325 25.868773
69.330 25.899996
69.335 25.524254
69.340 24.849182
69.345 24.099615
69.350 23.913338
69.355 24.290766
69.360 23.653973
69.365 23.329889
69.370 23.983755
69.375 24.357079
69.380 23.442228
69.385 22.997597
69.390 22.773058
69.395 23.556967
69.400 23.358015
69.405 23.073111
69.410 22.851503
69.415 22.733589
69.420 22.454252
69.425 22.911398
69.430 22.700932
69.435 23.231945
69.440 23.046598
69.445 23.205034
69.450 23.78385
69.455 23.653282
69.460 22.480438
69.465 22.147579
69.470 21.577057
69.475 21.18033
69.480 20.78993
69.485 20.943054
69.490 20.920759
69.495 20.829607
69.500 20.554401
69.505 20.569225
69.510 21.029428
69.515 21.137741
69.520 20.66247
69.525 21.172546
69.530 21.468365
69.535 21.533457
69.540 21.330019
69.545 21.857521
69.550 22.414202
69.555 22.413084
69.560 21.9046
69.565 21.920235
69.570 21.780596
69.575 21.675659
69.580 20.754051
69.585 19.614916
69.590 19.222139
69.595 19.538111
69.600 18.759811
69.605 18.16324
69.610 18.071739
69.615 18.095438
69.620 17.86376
69.625 17.709972
69.630 17.798729
69.635 18.255329
69.640 18.652514
69.645 18.807613
69.650 18.956451
69.655 20.07082
69.660 20.141695
69.665 19.435965
69.670 19.611237
69.675 19.218229
69.680 19.322298
69.685 18.88592
69.690 18.636749
69.695 19.260811
69.700 19.633795
69.705 19.767151
69.710 20.08436
69.715 20.217615
69.720 20.725109
69.725 20.672812
69.730 20.183788
69.735 20.114986
69.740 20.165926
69.745 19.787617
69.750 19.737692
69.755 19.524944
69.760 20.064228
69.765 20.123711
69.770 19.99052
69.775 19.567081
69.780 19.360668
69.785 19.423498
69.790 19.683998
69.795 18.843903
69.800 19.011873
69.805 19.003651
69.810 19.424196
69.815 19.646744
69.820 18.983549
69.825 19.047102
69.830 19.343187
69.835 19.534046
69.840 19.83552
69.845 19.566732
69.850 19.270584
69.855 19.405392
69.860 19.083326
69.865 19.522812
69.870 19.442961
69.875 18.902601
69.880 19.370358
69.885 19.5161
69.890 19.224413
69.895 19.04072
69.900 18.623781
69.905 18.656578
69.910 18.633034
69.915 18.330587
69.920 18.713192
69.925 19.188375
69.930 19.746248
69.935 18.930811
69.940 18.833513
69.945 18.652552
69.950 18.537399
69.955 18.821939
69.960 18.284702
69.965 18.149237
69.970 18.714693
69.975 19.250111
69.980 19.185797
69.985 18.477137
69.990 18.081244
69.995 18.133873
70.000 17.686007
70.005 16.582933
70.010 15.904228
70.015 16.179121
70.020 16.142416
70.025 16.224081
70.030 16.61334
70.035 16.881578
70.040 17.177456
70.045 17.146914
70.050 17.4727
70.055 17.969793
70.060 17.756247
70.065 17.505222
70.070 17.958967
70.075 18.705494
70.080 19.112375
70.085 18.63884
70.090 18.575821
70.095 18.25729
70.100 18.706699
70.105 18.309633
70.110 17.86982
70.115 18.171988
70.120 18.657608
70.125 18.438686
70.130 18.221361
70.135 18.118944
70.140 18.06671
70.145 18.259453
70.150 17.894215
70.155 17.408142
70.160 17.241634
70.165 17.090956
70.170 16.435535
70.175 16.748953
70.180 16.569191
70.185 16.771364
70.190 17.532328
70.195 17.82152
70.200 18.227751
70.205 18.757866
70.210 19.055761
70.215 19.522171
70.220 19.357569
70.225 18.869457
70.230 19.074076
70.235 18.850945
70.240 18.785141
70.245 18.299812
70.250 18.13143
70.255 18.239571
70.260 18.555103
70.265 18.385302
70.270 18.311178
70.275 17.897146
70.280 17.767206
70.285 17.532658
70.290 17.069052
70.295 16.959297
70.300 17.04167
70.305 17.022316
70.310 17.099333
70.315 17.069424
70.320 17.270325
70.325 17.470837
70.330 17.385832
70.335 17.33263
70.340 17.641079
70.345 18.110714
70.350 18.001997
70.355 17.909744
70.360 17.978376
70.365 18.412752
70.370 18.571955
70.375 19.066027
70.380 18.875849
70.385 19.025566
70.390 19.378971
70.395 18.951517
70.400 18.52327
70.405 18.278992
70.410 17.574621
70.415 16.977997
70.420 16.211521
70.425 15.56888
70.430 16.018171
70.435 16.126753
70.440 15.980888
70.445 16.341372
70.450 17.428444
70.455 17.906336
70.460 18.022833
70.465 17.802683
70.470 18.279465
70.475 18.278694
70.480 17.404295
70.485 16.778353
70.490 16.956856
70.495 16.640553
70.500 16.220249
70.505 15.58238
70.510 16.207644
70.515 16.488747
70.520 17.000139
70.525 17.158966
70.530 17.29458
70.535 17.709143
70.540 17.765831
70.545 17.289543
70.550 17.387388
70.555 16.736452
70.560 16.285852
70.565 16.696123
70.570 16.959463
70.575 17.211885
70.580 17.383736
70.585 17.537113
70.590 18.536377
70.595 19.382536
70.600 19.377064
70.605 19.10017
70.610 19.086512
70.615 19.435738
70.620 19.548794
70.625 19.649523
70.630 19.217798
70.635 18.677706
70.640 18.607437
70.645 18.119701
70.650 17.609684
70.655 17.334713
70.660 16.640984
70.665 16.662214
70.670 16.918524
70.675 16.96983
70.680 16.999819
70.685 16.803753
70.690 16.574394
70.695 17.157944
70.700 17.487221
70.705 17.903831
70.710 18.305244
70.715 18.881754
70.720 19.847431
70.725 19.472034
70.730 19.448071
70.735 18.947786
70.740 18.776304
70.745 18.607777
70.750 18.742134
70.755 19.14711
70.760 18.726553
70.765 18.28688
70.770 18.320118
70.775 18.362398
70.780 18.433746
70.785 17.9891
70.790 18.336979
70.795 18.890928
70.800 18.444458
70.805 18.208263
70.810 17.874269
70.815 17.887175
70.820 17.755806
70.825 17.416101
70.830 17.535765
70.835 17.541969
70.840 17.799156
70.845 17.711103
70.850 17.45426
70.855 17.683926
70.860 17.324398
70.865 17.408556
70.870 17.876402
70.875 18.22603
70.880 18.298029
70.885 18.103699
70.890 18.085028
70.895 18.145983
70.900 18.420755
70.905 18.533857
70.910 18.326221
70.915 18.352341
70.920 18.228996
70.925 18.392609
70.930 18.411016
70.935 18.979258
70.940 19.017517
70.945 19.10644
70.950 19.06213
70.955 18.995581
70.960 18.722038
70.965 18.684765
70.970 17.581293
70.975 16.874762
70.980 16.366091
70.985 15.938817
70.990 15.088699
70.995 14.188191
71.000 13.972456
71.005 14.520237
71.010 14.651417
71.015 14.868735
71.020 15.576386
71.025 16.490503
71.030 16.780813
71.035 16.812279
71.040 17.261292
71.045 17.333799
71.050 17.689569
71.055 17.863951
71.060 17.713552
71.065 17.594343
71.070 17.904009
71.075 17.642242
71.080 17.542747
71.085 18.0858
71.090 18.209602
71.095 18.155989
71.100 18.049192
71.105 17.600456
71.110 17.770578
71.115 17.989618
71.120 16.770727
71.125 16.20278
71.130 16.695517
71.135 16.861717
71.140 16.845089
71.145 16.733664
71.150 16.751316
71.155 17.289335
71.160 17.909275
71.165 17.660639
71.170 17.610529
71.175 17.459433
71.180 17.645798
71.185 17.572611
71.190 17.694044
71.195 17.031549
71.200 17.192774
71.205 16.644745
71.210 16.881926
71.215 16.869795
71.220 16.962076
71.225 17.193392
71.230 17.513168
71.235 17.516478
71.240 17.670187
71.245 17.737535
71.250 17.684597
71.255 17.824015
71.260 17.207859
71.265 17.447226
71.270 17.431684
71.275 17.750992
71.280 17.226963
71.285 17.067684
71.290 16.321989
71.295 16.190355
71.300 16.050846
71.305 15.819486
71.310 15.57607
71.315 15.955569
71.320 16.184847
71.325 16.705215
71.330 16.476559
71.335 16.46265
71.340 16.989237
71.345 17.173437
71.350 16.738743
71.355 16.276764
71.360 16.137051
71.365 16.308264
71.370 16.172976
71.375 15.681925
71.380 15.542831
71.385 15.672771
71.390 16.155308
71.395 16.504246
71.400 16.82552
71.405 17.252954
71.410 17.475395
71.415 17.473869
71.420 17.642237
71.425 17.378403
71.430 16.992241
71.435 16.581169
71.440 16.702036
71.445 16.451588
71.450 16.534472
71.455 16.721518
71.460 16.987354
71.465 17.248711
71.470 17.21484
71.475 17.245651
71.480 17.451069
71.485 17.464542
71.490 17.297049
71.495 17.458929
71.500 17.56987
71.505 17.585583
71.510 17.270483
71.515 17.461933
71.520 17.515184
71.525 17.411804
71.530 17.600967
71.535 17.606771
71.540 17.698507
71.545 17.921141
71.550 17.178988
71.555 17.239401
71.560 17.461651
71.565 16.967329
71.570 17.355824
71.575 17.812077
71.580 17.914698
71.585 18.383091
71.590 18.063196
71.595 18.121704
71.600 17.97747
71.605 17.593325
71.610 17.164469
71.615 16.630167
71.620 16.440084
71.625 16.383551
71.630 16.237913
71.635 16.148081
71.640 16.272898
71.645 17.245598
71.650 17.595552
71.655 17.135012
71.660 17.265461
71.665 17.349407
71.670 17.954802
71.675 17.592524
71.680 18.029955
71.685 18.743164
71.690 18.878067
71.695 18.960766
71.700 19.030497
71.705 19.287569
71.710 19.225817
71.715 18.717825
71.720 18.461859
71.725 18.503426
71.730 17.702862
71.735 17.192385
71.740 16.505434
71.745 15.994946
71.750 15.514338
71.755 15.857868
71.760 15.749817
71.765 16.217825
71.770 16.438185
71.775 16.641422
71.780 17.26302
71.785 17.186638
71.790 16.976627
71.795 17.366575
71.800 17.519358
71.805 17.593689
71.810 17.362484
71.815 17.266226
71.820 17.374441
71.825 17.617718
71.830 17.572803
71.835 17.196627
71.840 17.375681
71.845 18.001001
71.850 18.410686
71.855 18.48551
71.860 18.265593
71.865 18.600368
71.870 19.155748
71.875 19.256306
71.880 18.936377
71.885 18.30617
71.890 18.349796
71.895 18.024967
71.900 17.820824
71.905 17.339291
71.910 16.740387
71.915 16.107861
71.920 15.685785
71.925 16.168793
71.930 16.023661
71.935 15.743658
71.940 15.852607
71.945 15.486103
71.950 15.903588
71.955 15.675953
71.960 15.627976
71.965 15.802685
71.970 15.998762
71.975 16.006475
71.980 16.792702
71.985 17.406591
71.990 17.262245
71.995 17.037127
72.000 16.825504
72.005 17.101616
72.010 17.406149
72.015 17.345839
72.020 17.85766
72.025 18.219967
72.030 18.382063
72.035 18.306425
72.040 18.081814
72.045 18.000072
72.050 17.245541
72.055 16.579781
72.060 16.180143
72.065 16.246027
72.070 16.164206
72.075 16.096815
72.080 15.883749
72.085 15.74335
72.090 16.576904
72.095 17.06813
72.100 17.297737
72.105 17.236364
72.110 16.824314
72.115 17.017551
72.120 16.775581
72.125 16.263132
72.130 16.461884
72.135 16.684706
72.140 17.026279
72.145 17.270454
72.150 17.448656
72.155 17.738863
72.160 17.904894
72.165 17.186489
72.170 16.566334
72.175 16.117325
72.180 16.396801
72.185 16.142647
72.190 15.771386
72.195 15.870441
72.200 16.564697
72.205 17.475492
72.210 17.972542
72.215 17.710745
72.220 18.261541
72.225 18.998755
72.230 19.122635
72.235 18.670528
72.240 18.72221
72.245 18.458815
72.250 17.959307
72.255 17.658691
72.260 17.149244
72.265 17.026083
72.270 16.825649
72.275 16.820274
72.280 17.278482
72.285 17.402075
72.290 17.409866
72.295 17.3724
72.300 17.622356
72.305 17.527308
72.310 17.542311
72.315 17.580967
72.320 17.259504
72.325 16.749985
72.330 16.578909
72.335 16.570555
72.340 16.59861
72.345 16.830679
72.350 16.660334
72.355 16.589136
72.360 16.336281
72.365 16.284437
72.370 15.990189
72.375 15.874015
72.380 16.168392
72.385 17.030107
72.390 17.39831
72.395 17.123205
72.400 17.174688
72.405 16.961823
72.410 16.938547
72.415 16.527493
72.420 16.017805
72.425 15.891833
72.430 16.513523
72.435 16.783834
72.440 16.91851
72.445 16.996841
72.450 17.107355
72.455 17.259918
72.460 17.038618
72.465 17.21118
72.470 16.748903
72.475 16.887604
72.480 16.858162
72.485 17.271519
72.490 17.725103
72.495 17.804186
72.500 17.676626
72.505 17.278637
72.510 16.412088
72.515 15.647847
72.520 14.985518
72.525 14.445767
72.530 14.665201
72.535 14.498082
72.540 14.984528
72.545 15.59211
72.550 16.070848
72.555 16.447727
72.560 16.759851
72.565 16.960835
72.570 16.842688
72.575 16.846375
72.580 16.985638
72.585 17.046534
72.590 17.057053
72.595 17.115395
72.600 17.228344
72.605 17.656956
72.610 17.680939
72.615 17.272747
72.620 17.553875
72.625 17.587646
72.630 16.541384
72.635 16.412146
72.640 15.982327
72.645 16.116196
72.650 15.930629
72.655 15.496584
72.660 16.330915
72.665 16.77392
72.670 16.791452
72.675 16.85228
72.680 16.628107
72.685 16.469374
72.690 16.376289
72.695 15.870635
72.700 15.892759
72.705 15.712049
72.710 16.251347
72.715 16.451159
72.720 16.137205
72.725 15.888784
72.730 15.992498
72.735 15.963118
72.740 16.068201
72.745 16.296581
72.750 16.34951
72.755 16.85309
72.760 16.858057
72.765 17.243296
72.770 17.437487
72.775 17.213943
72.780 16.93075
72.785 17.02314
72.790 16.857725
72.795 16.722019
72.800 15.886595
72.805 15.366317
72.810 15.042281
72.815 14.583449
72.820 14.468372
72.825 14.344319
72.830 14.767204
72.835 15.80095
72.840 15.515957
72.845 15.711164
72.850 15.86261
72.855 16.18943
72.860 15.645844
72.865 15.34
72.870 15.89673
72.875 16.200804
72.880 16.59227
72.885 16.490271
72.890 16.272421
72.895 16.83205
72.900 16.552319
72.905 16.554342
72.910 16.324686
72.915 16.820322
72.920 17.291418
72.925 17.381506
72.930 17.009491
72.935 16.516495
72.940 16.373417
72.945 16.613785
72.950 16.033825
72.955 16.145981
72.960 16.723175
72.965 17.143158
72.970 17.816626
72.975 17.341494
72.980 17.480923
72.985 17.329233
72.990 17.275709
72.995 17.172413
73.000 16.638987
