!@!!GADDS PLOTSO FILE: Chi integration type
!@!!Title/SampleName: map-85
!@!!Comment: ?
!@!!User: Bruker Instrument Administrator
!@!!Site: University of Illinois Chicago
!@!!Frame: map-85_01_000.gfrm
!@!!Wavelengths    1.54184   1.54056   1.54439
!@!!Frame angles: 2Theta: 63.000 Omega: 50.000 Phi: 0.000 Chi: 90.000
!@!!Integration range: 2Theta: 53.000 to 73.000  Gamma: -105.000 to -75.000
!@!!Integration method: bin normalized
!@!N
!@!SS
!@!M
!@!L 0.0 0.0 0.0 0.0
!@!XDegrees
!@!YCounts
53.000 7.187347
53.005 7.281847
53.010 7.844506
53.015 8.327239
53.020 8.149738
53.025 7.564711
53.030 7.707757
53.035 7.732661
53.040 7.345813
53.045 6.979797
53.050 6.506483
53.055 6.665292
53.060 7.207267
53.065 6.677653
53.070 6.557477
53.075 6.265087
53.080 6.53512
53.085 7.318206
53.090 7.456591
53.095 7.375275
53.100 7.537782
53.105 7.895096
53.110 8.190821
53.115 7.65552
53.120 6.931353
53.125 6.662434
53.130 6.611848
53.135 6.464029
53.140 6.456002
53.145 6.659567
53.150 6.954608
53.155 7.46359
53.160 7.480739
53.165 7.727478
53.170 7.804511
53.175 7.737414
53.180 7.7541
53.185 7.872566
53.190 7.323101
53.195 7.41878
53.200 7.293443
53.205 7.416609
53.210 7.755414
53.215 7.873899
53.220 8.329888
53.225 8.668836
53.230 8.715039
53.235 8.99384
53.240 8.817464
53.245 8.920643
53.250 8.874394
53.255 8.672674
53.260 8.588631
53.265 8.616384
53.270 8.488209
53.275 8.488677
53.280 8.185884
53.285 8.261792
53.290 7.947613
53.295 7.643399
53.300 7.253261
53.305 7.317431
53.310 7.351842
53.315 7.111643
53.320 6.888314
53.325 7.412666
53.330 7.581387
53.335 7.936987
53.340 7.852553
53.345 7.968352
53.350 8.616722
53.355 8.849449
53.360 8.685463
53.365 8.826248
53.370 8.499742
53.375 8.406269
53.380 8.297527
53.385 8.07061
53.390 8.22361
53.395 8.46366
53.400 8.787467
53.405 9.233025
53.410 8.970724
53.415 8.806769
53.420 8.97771
53.425 8.900656
53.430 8.220719
53.435 7.709825
53.440 7.843015
53.445 8.245874
53.450 8.308564
53.455 7.806595
53.460 8.125979
53.465 8.671447
53.470 8.927739
53.475 9.044374
53.480 8.752529
53.485 8.452729
53.490 8.744659
53.495 8.300087
53.500 8.267867
53.505 8.332506
53.510 8.524989
53.515 8.670101
53.520 8.765449
53.525 8.613353
53.530 9.145653
53.535 9.028095
53.540 8.654495
53.545 8.343052
53.550 8.021006
53.555 7.870277
53.560 7.8189
53.565 7.93782
53.570 7.934239
53.575 7.920327
53.580 8.474326
53.585 8.93987
53.590 9.017797
53.595 8.716329
53.600 8.3463
53.605 8.985094
53.610 9.010194
53.615 8.551431
53.620 8.849734
53.625 8.564233
53.630 8.527582
53.635 8.542283
53.640 7.789671
53.645 7.559281
53.650 7.237879
53.655 7.007293
53.660 7.735034
53.665 7.634956
53.670 7.68393
53.675 7.854818
53.680 8.108657
53.685 8.16129
53.690 8.177271
53.695 8.347034
53.700 8.503024
53.705 8.310512
53.710 8.338846
53.715 8.640524
53.720 8.883636
53.725 8.664832
53.730 8.909141
53.735 8.789048
53.740 8.631498
53.745 8.640015
53.750 8.183005
53.755 8.200921
53.760 8.337511
53.765 8.19324
53.770 8.626597
53.775 8.691355
53.780 8.783793
53.785 9.268189
53.790 9.583757
53.795 9.692678
53.800 9.979075
53.805 10.018231
53.810 9.987254
53.815 10.021374
53.820 10.014669
53.825 9.552924
53.830 9.472564
53.835 9.508282
53.840 9.490972
53.845 9.692545
53.850 9.94526
53.855 9.615111
53.860 9.858643
53.865 9.815998
53.870 9.607526
53.875 9.452916
53.880 8.81137
53.885 8.969733
53.890 9.446306
53.895 9.340529
53.900 8.802
53.905 8.83949
53.910 9.187373
53.915 9.302135
53.920 8.689293
53.925 8.108443
53.930 8.091248
53.935 8.518888
53.940 8.335723
53.945 8.251681
53.950 8.398147
53.955 8.738281
53.960 8.892705
53.965 8.959112
53.970 8.829166
53.975 9.252283
53.980 9.468865
53.985 9.327878
53.990 9.045767
53.995 8.804222
54.000 8.448
54.005 8.611912
54.010 8.798131
54.015 8.824626
54.020 8.737828
54.025 8.666842
54.030 9.09479
54.035 9.283935
54.040 8.500622
54.045 8.051706
54.050 7.978185
54.055 8.004937
54.060 8.376082
54.065 8.725976
54.070 9.367868
54.075 9.702108
54.080 9.570499
54.085 9.535775
54.090 9.452394
54.095 9.274912
54.100 8.865976
54.105 8.461046
54.110 8.756615
54.115 8.684186
54.120 8.949511
54.125 9.106846
54.130 8.90076
54.135 9.156847
54.140 9.200426
54.145 9.341344
54.150 9.765145
54.155 9.557192
54.160 9.180442
54.165 9.299735
54.170 8.85747
54.175 8.680601
54.180 8.202121
54.185 7.64702
54.190 7.923748
54.195 8.102043
54.200 8.387439
54.205 8.603687
54.210 8.517063
54.215 8.954791
54.220 9.396787
54.225 9.29423
54.230 9.483298
54.235 10.089323
54.240 9.916063
54.245 10.086707
54.250 10.193008
54.255 10.224437
54.260 10.24389
54.265 9.670829
54.270 9.504417
54.275 10.143555
54.280 9.965569
54.285 9.789197
54.290 10.167697
54.295 9.992062
54.300 10.125588
54.305 9.945703
54.310 9.612205
54.315 9.756227
54.320 9.368098
54.325 9.254526
54.330 9.5399
54.335 9.196879
54.340 9.129058
54.345 9.324633
54.350 9.442416
54.355 9.461244
54.360 9.416869
54.365 9.354465
54.370 9.575886
54.375 9.676845
54.380 9.873047
54.385 9.886692
54.390 9.954322
54.395 9.524573
54.400 9.522378
54.405 9.665132
54.410 9.459083
54.415 9.275316
54.420 8.769773
54.425 9.010751
54.430 9.605652
54.435 9.841087
54.440 9.965514
54.445 9.935093
54.450 9.948474
54.455 10.501349
54.460 10.392354
54.465 10.502769
54.470 10.468092
54.475 10.089106
54.480 9.982737
54.485 9.631778
54.490 8.909169
54.495 8.894532
54.500 8.575438
54.505 8.356545
54.510 8.401079
54.515 8.718418
54.520 8.792812
54.525 9.142261
54.530 8.999331
54.535 9.091371
54.540 9.335012
54.545 9.085438
54.550 9.419364
54.555 10.006589
54.560 10.104756
54.565 10.231619
54.570 10.293776
54.575 10.159652
54.580 10.411158
54.585 10.453057
54.590 10.440975
54.595 10.394815
54.600 10.056094
54.605 9.152117
54.610 8.786774
54.615 8.48031
54.620 8.275207
54.625 8.210915
54.630 8.314695
54.635 9.224701
54.640 10.596734
54.645 11.37868
54.650 11.028131
54.655 10.544649
54.660 10.776845
54.665 10.850293
54.670 9.997953
54.675 9.728689
54.680 10.03127
54.685 10.49628
54.690 10.780818
54.695 10.492041
54.700 10.701096
54.705 10.589298
54.710 9.969676
54.715 9.930162
54.720 9.945727
54.725 10.249363
54.730 10.110226
54.735 10.155653
54.740 10.701571
54.745 11.740594
54.750 11.492175
54.755 10.856754
54.760 10.56202
54.765 10.04644
54.770 9.786111
54.775 9.03633
54.780 8.490448
54.785 8.84786
54.790 8.990139
54.795 9.281392
54.800 9.548806
54.805 9.798136
54.810 10.373654
54.815 10.458105
54.820 10.476396
54.825 11.048241
54.830 11.530205
54.835 11.310205
54.840 11.456072
54.845 10.872186
54.850 10.643285
54.855 10.45437
54.860 10.048302
54.865 9.933055
54.870 10.112482
54.875 10.224018
54.880 10.241193
54.885 10.167117
54.890 9.878897
54.895 9.876842
54.900 9.48883
54.905 9.075152
54.910 9.010777
54.915 9.138988
54.920 9.688278
54.925 9.703959
54.930 9.121291
54.935 8.966942
54.940 8.886535
54.945 9.327349
54.950 10.078506
54.955 10.175199
54.960 10.151903
54.965 10.156746
54.970 10.342732
54.975 10.507158
54.980 10.024378
54.985 9.094295
54.990 8.756201
54.995 9.062207
55.000 9.408928
55.005 9.56794
55.010 9.115128
55.015 8.953133
55.020 9.308331
55.025 9.507212
55.030 10.045773
55.035 10.228902
55.040 9.959121
55.045 10.233854
55.050 9.907635
55.055 9.543319
55.060 9.617014
55.065 8.869136
55.070 8.880303
55.075 9.075791
55.080 8.791572
55.085 9.213724
55.090 9.176697
55.095 9.360761
55.100 9.991922
55.105 10.000986
55.110 10.257981
55.115 10.525863
55.120 10.944921
55.125 11.184756
55.130 10.616826
55.135 10.335323
55.140 10.001392
55.145 9.575338
55.150 9.295502
55.155 8.769194
55.160 8.89619
55.165 9.081048
55.170 8.831441
55.175 8.946794
55.180 9.161093
55.185 9.397177
55.190 9.836944
55.195 9.702374
55.200 9.602283
55.205 9.993072
55.210 9.987826
55.215 10.018998
55.220 10.173811
55.225 10.029934
55.230 9.781412
55.235 9.984859
55.240 10.329892
55.245 10.347692
55.250 10.512854
55.255 9.863517
55.260 10.118007
55.265 10.238913
55.270 10.366935
55.275 10.781804
55.280 11.084828
55.285 11.30162
55.290 11.969197
55.295 12.231047
55.300 12.78584
55.305 12.540423
55.310 11.943708
55.315 11.784661
55.320 11.691863
55.325 11.126862
55.330 10.666919
55.335 10.302877
55.340 10.20132
55.345 10.121873
55.350 9.920123
55.355 9.875159
55.360 9.75166
55.365 9.74157
55.370 9.67525
55.375 9.836384
55.380 10.345634
55.385 10.69329
55.390 11.003242
55.395 10.994669
55.400 10.618879
55.405 10.35105
55.410 10.230267
55.415 9.558526
55.420 9.505974
55.425 9.154714
55.430 9.417168
55.435 9.77753
55.440 10.1254
55.445 10.245647
55.450 10.75242
55.455 10.797261
55.460 11.057813
55.465 11.33535
55.470 11.722961
55.475 11.938759
55.480 11.976109
55.485 11.513861
55.490 11.077142
55.495 11.139482
55.500 10.781054
55.505 10.443241
55.510 9.974398
55.515 10.196404
55.520 11.009689
55.525 11.060772
55.530 11.221513
55.535 11.647874
55.540 11.635501
55.545 11.877732
55.550 11.350389
55.555 10.854974
55.560 10.697124
55.565 10.348171
55.570 9.683973
55.575 9.806414
55.580 9.350128
55.585 9.393099
55.590 9.853182
55.595 9.966217
55.600 9.826571
55.605 10.251617
55.610 10.604458
55.615 11.113847
55.620 11.072207
55.625 10.626909
55.630 11.133536
55.635 11.374627
55.640 10.986412
55.645 10.545547
55.650 10.604144
55.655 10.418763
55.660 10.283502
55.665 9.833998
55.670 9.654707
55.675 9.740377
55.680 9.972653
55.685 10.036772
55.690 10.548197
55.695 10.580412
55.700 10.853525
55.705 10.729907
55.710 10.694304
55.715 10.635807
55.720 10.354856
55.725 10.304145
55.730 10.824753
55.735 10.877687
55.740 10.855961
55.745 10.58068
55.750 10.844541
55.755 10.748275
55.760 10.608559
55.765 10.157356
55.770 10.033284
55.775 10.264125
55.780 10.522487
55.785 10.449219
55.790 10.498662
55.795 10.508201
55.800 10.430275
55.805 9.938568
55.810 9.705288
55.815 9.398821
55.820 9.268839
55.825 9.265762
55.830 9.619584
55.835 10.706909
55.840 11.225083
55.845 11.632412
55.850 12.040032
55.855 11.772256
55.860 11.700185
55.865 10.834729
55.870 10.699535
55.875 11.112231
55.880 11.257332
55.885 11.818941
55.890 12.108606
55.895 12.156524
55.900 12.580064
55.905 12.314245
55.910 12.012006
55.915 11.447325
55.920 10.689775
55.925 10.888751
55.930 10.724992
55.935 10.645583
55.940 11.506461
55.945 11.604558
55.950 11.884782
55.955 12.338147
55.960 12.118882
55.965 12.283387
55.970 11.886833
55.975 10.207483
55.980 10.206849
55.985 10.06977
55.990 9.816227
55.995 10.27493
56.000 10.653374
56.005 11.251393
56.010 11.664076
56.015 11.660913
56.020 11.831233
56.025 11.706128
56.030 11.574508
56.035 11.658716
56.040 11.849083
56.045 11.754807
56.050 11.326377
56.055 11.276971
56.060 11.241838
56.065 11.078486
56.070 10.892824
56.075 10.847882
56.080 11.427176
56.085 12.100624
56.090 12.27297
56.095 12.52986
56.100 12.224933
56.105 12.306107
56.110 11.908762
56.115 11.223328
56.120 10.818811
56.125 10.354572
56.130 9.955057
56.135 9.785576
56.140 9.872677
56.145 10.28097
56.150 10.258368
56.155 10.102934
56.160 10.360925
56.165 10.75222
56.170 11.293462
56.175 11.409401
56.180 11.493701
56.185 12.042549
56.190 12.497045
56.195 12.605106
56.200 12.626746
56.205 12.428888
56.210 12.394416
56.215 12.572104
56.220 12.431247
56.225 12.104022
56.230 12.275921
56.235 12.486433
56.240 12.376022
56.245 12.56008
56.250 12.761193
56.255 13.059187
56.260 13.088693
56.265 12.920187
56.270 12.748268
56.275 12.967632
56.280 12.345001
56.285 11.615402
56.290 11.474015
56.295 11.157177
56.300 10.869527
56.305 10.720368
56.310 10.314405
56.315 10.524006
56.320 10.424569
56.325 10.360225
56.330 10.268758
56.335 10.284057
56.340 10.076468
56.345 10.397088
56.350 10.41163
56.355 10.759944
56.360 11.247959
56.365 11.568612
56.370 12.027503
56.375 12.271338
56.380 11.862931
56.385 12.048341
56.390 12.194091
56.395 11.953434
56.400 12.091263
56.405 11.915745
56.410 11.956003
56.415 12.087572
56.420 11.95604
56.425 11.557811
56.430 11.824388
56.435 11.857564
56.440 11.650816
56.445 11.531843
56.450 11.436269
56.455 11.828614
56.460 12.303155
56.465 11.650395
56.470 11.7012
56.475 11.954744
56.480 12.143357
56.485 12.506045
56.490 12.687421
56.495 12.322181
56.500 12.746863
56.505 12.412148
56.510 12.250347
56.515 12.197381
56.520 11.677317
56.525 11.61461
56.530 11.84141
56.535 11.814552
56.540 11.954774
56.545 12.242002
56.550 12.458272
56.555 12.828994
56.560 13.007507
56.565 12.69125
56.570 12.593964
56.575 12.973505
56.580 13.289737
56.585 13.238932
56.590 12.656594
56.595 12.134855
56.600 11.891375
56.605 11.805228
56.610 11.553258
56.615 11.091507
56.620 10.83516
56.625 10.56315
56.630 10.455515
56.635 10.363252
56.640 9.648482
56.645 9.366708
56.650 9.30162
56.655 9.426296
56.660 9.660235
56.665 9.848761
56.670 10.465035
56.675 10.978679
56.680 11.326813
56.685 11.799807
56.690 12.147227
56.695 12.398682
56.700 12.45731
56.705 12.217988
56.710 12.261481
56.715 11.799488
56.720 11.472661
56.725 11.476192
56.730 11.687943
56.735 12.13827
56.740 12.263764
56.745 12.372127
56.750 12.285807
56.755 12.38244
56.760 12.273438
56.765 11.322465
56.770 10.716453
56.775 10.757943
56.780 10.748844
56.785 11.04378
56.790 10.954098
56.795 11.445506
56.800 12.544637
56.805 12.788948
56.810 12.985929
56.815 13.433196
56.820 13.824441
56.825 14.166183
56.830 13.665789
56.835 12.802746
56.840 12.877777
56.845 12.996974
56.850 12.762115
56.855 12.205981
56.860 11.81769
56.865 11.975936
56.870 12.220977
56.875 12.276484
56.880 12.068789
56.885 11.804881
56.890 12.186633
56.895 12.516752
56.900 12.019502
56.905 12.273325
56.910 12.054399
56.915 12.197279
56.920 12.190858
56.925 11.791767
56.930 11.56075
56.935 12.024304
56.940 11.860247
56.945 12.011188
56.950 12.22327
56.955 12.828074
56.960 12.922517
56.965 13.15546
56.970 13.422688
56.975 13.510627
56.980 13.174252
56.985 12.581085
56.990 12.401504
56.995 12.652678
57.000 12.835539
57.005 12.432015
57.010 12.350714
57.015 12.582186
57.020 12.775147
57.025 12.430362
57.030 11.884558
57.035 11.261143
57.040 11.349896
57.045 11.760012
57.050 11.369725
57.055 11.412753
57.060 11.707556
57.065 12.116129
57.070 12.234543
57.075 12.148666
57.080 11.683904
57.085 11.56545
57.090 11.336927
57.095 11.290279
57.100 11.447099
57.105 11.628135
57.110 11.850192
57.115 11.752461
57.120 11.974096
57.125 12.215151
57.130 12.203783
57.135 12.2843
57.140 12.099577
57.145 12.316342
57.150 12.481865
57.155 12.309714
57.160 12.034933
57.165 11.819221
57.170 11.939517
57.175 11.935396
57.180 11.561851
57.185 11.865145
57.190 12.005118
57.195 12.374285
57.200 12.623375
57.205 12.331754
57.210 12.195135
57.215 11.997151
57.220 11.982174
57.225 12.252311
57.230 12.186019
57.235 11.947227
57.240 12.483154
57.245 12.522243
57.250 12.965376
57.255 12.805403
57.260 12.73869
57.265 12.641843
57.270 12.556688
57.275 12.224602
57.280 12.635325
57.285 12.435916
57.290 12.789694
57.295 12.714723
57.300 13.135565
57.305 13.413884
57.310 13.596805
57.315 14.041496
57.320 14.320591
57.325 14.66114
57.330 14.928931
57.335 14.850004
57.340 14.580807
57.345 14.489369
57.350 14.476362
57.355 14.591396
57.360 14.452588
57.365 14.240363
57.370 14.0819
57.375 14.172005
57.380 14.385822
57.385 13.947468
57.390 13.488229
57.395 13.18952
57.400 13.528636
57.405 13.91118
57.410 14.164938
57.415 13.926618
57.420 13.870221
57.425 13.910796
57.430 14.331994
57.435 14.342595
57.440 14.297408
57.445 14.145488
57.450 13.787627
57.455 13.596824
57.460 13.725515
57.465 13.156705
57.470 12.676175
57.475 12.568982
57.480 12.411411
57.485 12.904604
57.490 13.087847
57.495 12.82347
57.500 12.914158
57.505 12.76331
57.510 12.986341
57.515 12.958749
57.520 12.481019
57.525 12.454155
57.530 12.309992
57.535 12.555584
57.540 13.006892
57.545 12.678238
57.550 12.581324
57.555 12.89418
57.560 13.313103
57.565 13.683788
57.570 13.217693
57.575 12.630492
57.580 13.152736
57.585 13.579099
57.590 13.130648
57.595 12.473126
57.600 12.107283
57.605 12.307234
57.610 12.31169
57.615 12.220476
57.620 12.564508
57.625 13.327444
57.630 13.698333
57.635 14.090322
57.640 14.440542
57.645 14.811989
57.650 14.859119
57.655 14.490475
57.660 14.322081
57.665 13.726973
57.670 13.085966
57.675 13.044177
57.680 13.157492
57.685 13.013706
57.690 12.706861
57.695 12.858505
57.700 13.083035
57.705 13.329444
57.710 13.5927
57.715 13.564431
57.720 13.532678
57.725 13.519582
57.730 14.025593
57.735 14.374537
57.740 14.606928
57.745 14.171597
57.750 13.814392
57.755 14.020325
57.760 13.99458
57.765 13.570965
57.770 13.61102
57.775 14.048081
57.780 14.341766
57.785 14.705758
57.790 14.57812
57.795 14.578895
57.800 14.685321
57.805 14.234041
57.810 13.732375
57.815 13.773519
57.820 13.966949
57.825 13.945348
57.830 13.651168
57.835 13.413596
57.840 13.691469
57.845 13.954823
57.850 13.972692
57.855 13.48334
57.860 13.725714
57.865 14.073265
57.870 14.280141
57.875 14.708841
57.880 14.785241
57.885 14.980432
57.890 15.28105
57.895 14.851771
57.900 15.340082
57.905 15.49824
57.910 15.296358
57.915 15.497004
57.920 15.559044
57.925 15.962337
57.930 16.206625
57.935 15.027514
57.940 14.782449
57.945 14.590388
57.950 14.403619
57.955 14.231272
57.960 13.876531
57.965 14.003469
57.970 14.391586
57.975 14.116767
57.980 14.010117
57.985 14.029508
57.990 14.356927
57.995 14.498096
58.000 14.76476
58.005 15.810272
58.010 16.253731
58.015 15.615163
58.020 15.365262
58.025 15.001349
58.030 15.064911
58.035 14.818531
58.040 14.139078
58.045 14.164393
58.050 14.91782
58.055 15.008815
58.060 15.394828
58.065 15.512146
58.070 15.570875
58.075 15.65198
58.080 15.967517
58.085 15.869606
58.090 16.040728
58.095 16.338284
58.100 16.543779
58.105 16.614326
58.110 16.937819
58.115 16.647551
58.120 16.444014
58.125 15.683876
58.130 15.607173
58.135 15.975749
58.140 15.789047
58.145 15.777471
58.150 15.475696
58.155 15.658834
58.160 15.977481
58.165 15.831357
58.170 15.443716
58.175 15.407028
58.180 14.923811
58.185 14.611577
58.190 14.264509
58.195 14.06479
58.200 13.546959
58.205 13.519628
58.210 14.067355
58.215 14.638662
58.220 15.605587
58.225 15.8166
58.230 16.228941
58.235 16.557192
58.240 16.77902
58.245 16.742846
58.250 16.980377
58.255 17.087614
58.260 17.435665
58.265 17.529381
58.270 17.826719
58.275 17.893913
58.280 17.690691
58.285 18.123064
58.290 18.349716
58.295 17.952496
58.300 18.664719
58.305 18.93679
58.310 19.129709
58.315 19.328985
58.320 18.915554
58.325 18.973072
58.330 19.379469
58.335 18.749674
58.340 18.696253
58.345 18.942339
58.350 19.480545
58.355 19.344307
58.360 19.760014
58.365 20.075563
58.370 20.868406
58.375 20.823271
58.380 20.65719
58.385 20.613691
58.390 20.561949
58.395 20.389618
58.400 20.865316
58.405 20.260338
58.410 20.686562
58.415 20.603188
58.420 21.13949
58.425 21.998125
58.430 22.517994
58.435 22.316158
58.440 22.45644
58.445 22.238998
58.450 22.258455
58.455 21.768829
58.460 21.853329
58.465 21.322098
58.470 21.148371
58.475 20.725582
58.480 21.345209
58.485 21.331131
58.490 21.351187
58.495 21.237495
58.500 21.196302
58.505 21.040854
58.510 21.51083
58.515 21.767298
58.520 22.140306
58.525 22.644678
58.530 22.365831
58.535 22.610607
58.540 22.615622
58.545 22.470173
58.550 22.115221
58.555 22.150984
58.560 22.721245
58.565 23.263643
58.570 23.799593
58.575 23.987131
58.580 23.887674
58.585 24.102898
58.590 24.06127
58.595 23.56979
58.600 23.158918
58.605 22.800695
58.610 22.963516
58.615 23.330179
58.620 23.770649
58.625 24.065655
58.630 24.645697
58.635 25.422443
58.640 25.554859
58.645 25.560595
58.650 24.991323
58.655 24.650095
58.660 24.790606
58.665 23.807251
58.670 23.450413
58.675 23.789423
58.680 24.143286
58.685 24.516304
58.690 24.765295
58.695 25.282372
58.700 25.113777
58.705 24.662409
58.710 24.179199
58.715 24.360023
58.720 24.604271
58.725 24.65593
58.730 23.835524
58.735 23.957304
58.740 24.550232
58.745 24.882643
58.750 24.342852
58.755 23.420435
58.760 23.012266
58.765 23.048016
58.770 23.211294
58.775 22.49575
58.780 21.62112
58.785 21.790863
58.790 22.150496
58.795 22.401432
58.800 22.844612
58.805 23.109432
58.810 23.417093
58.815 23.399744
58.820 23.013498
58.825 22.575241
58.830 21.877518
58.835 21.340958
58.840 21.327429
58.845 21.263987
58.850 21.90214
58.855 22.361368
58.860 22.52931
58.865 22.584438
58.870 22.257803
58.875 22.114548
58.880 22.111465
58.885 21.626205
58.890 21.55855
58.895 21.451326
58.900 20.813637
58.905 20.486778
58.910 19.902172
58.915 19.628197
58.920 19.655958
58.925 19.363016
58.930 19.442219
58.935 20.467272
58.940 20.866909
58.945 21.332262
58.950 21.045761
58.955 20.197943
58.960 19.628288
58.965 18.974291
58.970 18.32564
58.975 18.342131
58.980 18.47035
58.985 19.387918
58.990 19.783062
58.995 20.473083
59.000 20.860796
59.005 21.385544
59.010 21.455936
59.015 21.053083
59.020 20.593981
59.025 21.012407
59.030 20.957808
59.035 20.593134
59.040 20.043304
59.045 19.226412
59.050 19.075481
59.055 19.005272
59.060 18.527937
59.065 18.338745
59.070 18.152975
59.075 17.91573
59.080 18.100788
59.085 18.08194
59.090 18.50259
59.095 18.416346
59.100 18.368202
59.105 18.642315
59.110 18.341822
59.115 18.299574
59.120 17.942057
59.125 17.56344
59.130 17.48484
59.135 17.967268
59.140 18.189754
59.145 18.07781
59.150 18.158138
59.155 17.93059
59.160 18.081812
59.165 18.14319
59.170 18.05393
59.175 18.13273
59.180 18.289577
59.185 18.519997
59.190 18.878019
59.195 18.940735
59.200 18.727024
59.205 18.234346
59.210 17.993685
59.215 18.254593
59.220 18.200674
59.225 18.023016
59.230 17.55089
59.235 17.774305
59.240 18.215328
59.245 18.563225
59.250 18.039494
59.255 17.606182
59.260 17.817369
59.265 17.725853
59.270 17.326456
59.275 17.111013
59.280 16.824579
59.285 16.55114
59.290 16.507965
59.295 16.299053
59.300 16.595865
59.305 16.951046
59.310 17.531853
59.315 17.898205
59.320 18.517328
59.325 18.811005
59.330 19.188129
59.335 19.467396
59.340 18.968369
59.345 18.224194
59.350 17.797888
59.355 17.950602
59.360 17.839066
59.365 17.673342
59.370 17.539518
59.375 17.627605
59.380 17.574387
59.385 17.329939
59.390 17.078588
59.395 16.480383
59.400 16.500624
59.405 16.839943
59.410 16.944344
59.415 17.125113
59.420 17.141207
59.425 17.03533
59.430 17.466585
59.435 16.844244
59.440 16.424242
59.445 16.202801
59.450 16.427694
59.455 16.493216
59.460 16.154894
59.465 15.85594
59.470 16.194075
59.475 16.589506
59.480 16.766203
59.485 16.253326
59.490 16.527811
59.495 16.596636
59.500 16.61302
59.505 16.24645
59.510 15.719664
59.515 15.414896
59.520 15.373529
59.525 15.042137
59.530 14.823396
59.535 14.900414
59.540 14.563809
59.545 14.43582
59.550 14.57332
59.555 14.793928
59.560 14.82628
59.565 14.315602
59.570 13.909153
59.575 13.696263
59.580 13.957345
59.585 13.622078
59.590 13.455398
59.595 13.207208
59.600 13.520213
59.605 14.379188
59.610 14.873044
59.615 14.86794
59.620 15.505843
59.625 15.23881
59.630 15.132906
59.635 14.649681
59.640 14.133781
59.645 13.985465
59.650 13.527287
59.655 13.354919
59.660 14.001808
59.665 14.240191
59.670 14.462562
59.675 14.426303
59.680 14.483764
59.685 14.592232
59.690 14.822835
59.695 14.939015
59.700 15.761292
59.705 16.034307
59.710 15.634863
59.715 15.203615
59.720 14.821368
59.725 14.424108
59.730 14.343674
59.735 13.691135
59.740 13.536593
59.745 13.873672
59.750 14.470186
59.755 14.727514
59.760 14.655295
59.765 14.633279
59.770 14.252776
59.775 14.527147
59.780 14.968064
59.785 15.078728
59.790 14.990269
59.795 15.224595
59.800 15.508127
59.805 15.743464
59.810 15.490894
59.815 15.2903
59.820 15.110944
59.825 15.252294
59.830 14.878633
59.835 14.677494
59.840 14.941092
59.845 15.340044
59.850 15.151291
59.855 14.763059
59.860 14.928066
59.865 14.865556
59.870 15.108153
59.875 15.088031
59.880 14.798902
59.885 14.880697
59.890 14.687477
59.895 15.02531
59.900 15.513118
59.905 15.981079
59.910 16.162268
59.915 15.648575
59.920 15.757467
59.925 16.132128
59.930 16.074663
59.935 16.061819
59.940 15.155601
59.945 15.046124
59.950 15.440155
59.955 15.934091
59.960 15.986936
59.965 15.399497
59.970 14.961615
59.975 15.143044
59.980 15.208179
59.985 15.62491
59.990 15.042063
59.995 15.476528
60.000 15.762237
60.005 15.888923
60.010 16.024702
60.015 15.505527
60.020 14.870223
60.025 14.855065
60.030 14.13566
60.035 13.817767
60.040 14.074267
60.045 14.439482
60.050 15.064059
60.055 15.311828
60.060 16.130802
60.065 15.986945
60.070 16.05224
60.075 15.797613
60.080 15.968945
60.085 16.49243
60.090 16.698645
60.095 16.324629
60.100 16.741789
60.105 16.445108
60.110 16.292917
60.115 16.006594
60.120 15.156052
60.125 14.369596
60.130 13.774902
60.135 14.169555
60.140 14.729267
60.145 14.510003
60.150 14.086463
60.155 14.150447
60.160 14.026125
60.165 13.783925
60.170 14.084116
60.175 14.010117
60.180 14.559908
60.185 14.63023
60.190 14.852303
60.195 15.182277
60.200 15.42049
60.205 14.826417
60.210 14.751876
60.215 14.531545
60.220 14.535934
60.225 14.151972
60.230 14.395318
60.235 14.453211
60.240 14.41664
60.245 14.612572
60.250 14.804973
60.255 14.516083
60.260 14.884955
60.265 14.520351
60.270 14.786215
60.275 14.945958
60.280 14.62952
60.285 13.924385
60.290 14.303831
60.295 14.462087
60.300 14.732608
60.305 14.865154
60.310 14.694919
60.315 15.071988
60.320 15.878868
60.325 16.32649
60.330 16.560196
60.335 16.212387
60.340 15.993279
60.345 16.041973
60.350 15.705608
60.355 15.404733
60.360 14.723077
60.365 14.578342
60.370 14.546232
60.375 14.302565
60.380 14.11671
60.385 14.151985
60.390 13.85168
60.395 13.683167
60.400 13.058986
60.405 13.119337
60.410 13.602357
60.415 13.896994
60.420 13.915355
60.425 13.768025
60.430 14.311958
60.435 15.542526
60.440 16.187441
60.445 15.979239
60.450 15.99789
60.455 16.087898
60.460 16.329081
60.465 15.560849
60.470 14.768488
60.475 14.104297
60.480 13.860038
60.485 14.211473
60.490 14.598063
60.495 14.727783
60.500 14.829046
60.505 15.008627
60.510 15.208447
60.515 15.014594
60.520 14.208955
60.525 13.463463
60.530 13.5066
60.535 13.791779
60.540 13.411497
60.545 13.459973
60.550 13.746517
60.555 13.716696
60.560 13.838242
60.565 13.307525
60.570 13.508286
60.575 13.331293
60.580 13.016783
60.585 12.720584
60.590 12.792683
60.595 12.763701
60.600 13.123578
60.605 13.38174
60.610 13.651873
60.615 13.910398
60.620 14.825817
60.625 15.384576
60.630 16.04887
60.635 16.010103
60.640 15.733894
60.645 15.98491
60.650 15.764044
60.655 15.308561
60.660 15.451878
60.665 15.358355
60.670 15.606684
60.675 15.676217
60.680 15.833438
60.685 16.178185
60.690 16.20927
60.695 16.313215
60.700 16.22065
60.705 16.158691
60.710 16.142324
60.715 15.706758
60.720 15.558708
60.725 15.689147
60.730 15.591287
60.735 15.232743
60.740 14.991382
60.745 15.112862
60.750 15.064092
60.755 14.972242
60.760 14.434959
60.765 13.955087
60.770 14.069318
60.775 13.875129
60.780 13.773576
60.785 14.13736
60.790 14.733223
60.795 15.046771
60.800 15.492047
60.805 15.830947
60.810 16.049076
60.815 16.442865
60.820 16.391346
60.825 15.896693
60.830 15.657005
60.835 15.442528
60.840 14.998028
60.845 15.392982
60.850 15.645408
60.855 15.9181
60.860 15.830948
60.865 15.797128
60.870 15.621044
60.875 16.375097
60.880 15.540835
60.885 15.164592
60.890 15.275218
60.895 15.158147
60.900 15.491505
60.905 15.397829
60.910 14.994586
60.915 15.523635
60.920 14.97047
60.925 14.18162
60.930 14.179767
60.935 14.384887
60.940 14.356997
60.945 14.84575
60.950 14.869728
60.955 15.422503
60.960 16.112022
60.965 15.87439
60.970 15.218768
60.975 15.554354
60.980 16.138319
60.985 16.232553
60.990 15.817732
60.995 15.42083
61.000 15.41837
61.005 15.768509
61.010 15.770415
61.015 14.76274
61.020 14.208658
61.025 14.185121
61.030 14.601344
61.035 15.069822
61.040 14.886118
61.045 14.226427
61.050 14.41822
61.055 14.910171
61.060 15.046258
61.065 14.883351
61.070 14.866505
61.075 15.206093
61.080 15.126119
61.085 15.281312
61.090 15.241177
61.095 15.292429
61.100 15.213213
61.105 15.008543
61.110 15.098716
61.115 15.551055
61.120 15.529146
61.125 15.281444
61.130 15.299433
61.135 15.452248
61.140 15.472079
61.145 15.312343
61.150 15.414422
61.155 15.143251
61.160 15.416801
61.165 15.440917
61.170 15.551638
61.175 15.679156
61.180 15.671236
61.185 15.451343
61.190 15.581245
61.195 15.43196
61.200 16.003181
61.205 16.467239
61.210 16.867289
61.215 17.368496
61.220 17.281063
61.225 17.577194
61.230 18.039162
61.235 17.351383
61.240 16.619598
61.245 16.38838
61.250 16.101563
61.255 16.441614
61.260 16.467926
61.265 16.472189
61.270 16.84428
61.275 16.790939
61.280 16.160563
61.285 15.81433
61.290 15.853165
61.295 15.640942
61.300 14.928203
61.305 14.408469
61.310 14.309236
61.315 14.488867
61.320 14.447986
61.325 13.956508
61.330 13.83578
61.335 13.993173
61.340 14.226345
61.345 14.385281
61.350 14.595116
61.355 14.859294
61.360 15.077172
61.365 14.634959
61.370 14.903436
61.375 14.669317
61.380 14.559974
61.385 14.520154
61.390 15.026004
61.395 15.223971
61.400 15.785369
61.405 15.81819
61.410 16.234461
61.415 16.197601
61.420 16.334782
61.425 16.076466
61.430 15.962175
61.435 15.410273
61.440 14.853517
61.445 14.697124
61.450 15.351348
61.455 15.165492
61.460 14.952
61.465 14.712941
61.470 15.42687
61.475 15.593124
61.480 15.595811
61.485 15.180976
61.490 15.444304
61.495 15.483634
61.500 15.571829
61.505 15.142863
61.510 15.020172
61.515 15.088328
61.520 15.057939
61.525 14.749913
61.530 14.608419
61.535 14.631014
61.540 14.595761
61.545 14.927126
61.550 15.425463
61.555 15.597775
61.560 15.61663
61.565 15.765254
61.570 15.891546
61.575 16.146139
61.580 16.034552
61.585 15.639997
61.590 15.291474
61.595 15.558071
61.600 15.687886
61.605 15.946728
61.610 15.988919
61.615 16.329836
61.620 16.279121
61.625 15.664156
61.630 15.319661
61.635 15.460666
61.640 15.125252
61.645 15.20517
61.650 14.934706
61.655 15.110025
61.660 15.968781
61.665 16.022154
61.670 15.837279
61.675 15.852733
61.680 15.578216
61.685 15.827257
61.690 15.939447
61.695 15.520205
61.700 15.468178
61.705 15.401278
61.710 15.668425
61.715 15.654429
61.720 14.94852
61.725 14.36483
61.730 14.320647
61.735 14.0285
61.740 13.736977
61.745 13.668361
61.750 13.396118
61.755 13.642966
61.760 14.079445
61.765 14.115201
61.770 14.650153
61.775 15.036002
61.780 14.883031
61.785 14.712234
61.790 14.796513
61.795 15.361415
61.800 15.578919
61.805 15.608668
61.810 15.662854
61.815 15.852062
61.820 16.226866
61.825 16.447268
61.830 16.044786
61.835 15.555987
61.840 15.460138
61.845 15.54669
61.850 15.45962
61.855 15.209793
61.860 15.32425
61.865 15.991799
61.870 16.898022
61.875 17.0914
61.880 16.969841
61.885 16.697289
61.890 17.433115
61.895 17.504881
61.900 16.95207
61.905 16.668404
61.910 16.747793
61.915 16.820257
61.920 17.16807
61.925 16.790363
61.930 16.452805
61.935 16.817167
61.940 17.122646
61.945 17.279398
61.950 17.047207
61.955 16.507442
61.960 16.298445
61.965 16.496418
61.970 15.951948
61.975 15.535365
61.980 14.776731
61.985 14.70362
61.990 14.89071
61.995 14.951155
62.000 15.220771
62.005 15.313626
62.010 15.291167
62.015 15.578622
62.020 15.917019
62.025 16.185171
62.030 16.330952
62.035 15.551409
62.040 15.348766
62.045 14.639576
62.050 14.744233
62.055 14.286281
62.060 14.042157
62.065 14.155686
62.070 14.56537
62.075 14.691025
62.080 14.95838
62.085 15.401998
62.090 16.350433
62.095 16.635221
62.100 15.827539
62.105 16.057056
62.110 16.370489
62.115 16.754446
62.120 16.318867
62.125 15.93172
62.130 15.957807
62.135 16.346807
62.140 16.559668
62.145 16.474155
62.150 16.295584
62.155 16.089102
62.160 15.935249
62.165 16.047222
62.170 16.830357
62.175 17.144104
62.180 17.542805
62.185 17.681641
62.190 18.03586
62.195 18.082277
62.200 18.286558
62.205 17.446423
62.210 17.28949
62.215 16.506197
62.220 16.368052
62.225 16.395201
62.230 16.437576
62.235 16.452831
62.240 16.446642
62.245 16.170486
62.250 16.483465
62.255 16.280725
62.260 16.242474
62.265 16.247591
62.270 16.14435
62.275 16.192303
62.280 15.811898
62.285 15.624994
62.290 15.69449
62.295 15.725319
62.300 15.785105
62.305 15.244655
62.310 15.015447
62.315 14.994976
62.320 15.380936
62.325 15.617308
62.330 15.203409
62.335 14.573865
62.340 14.390107
62.345 14.643067
62.350 14.499242
62.355 14.126
62.360 14.004079
62.365 14.124849
62.370 14.714134
62.375 15.035407
62.380 15.132304
62.385 15.367817
62.390 15.291771
62.395 15.474687
62.400 15.902881
62.405 15.971629
62.410 16.70796
62.415 17.357174
62.420 17.839392
62.425 18.419693
62.430 18.170221
62.435 17.528648
62.440 17.486641
62.445 16.844543
62.450 16.796282
62.455 17.353254
62.460 17.368303
62.465 17.773804
62.470 18.11347
62.475 18.007668
62.480 18.023764
62.485 17.346884
62.490 16.478817
62.495 16.442913
62.500 16.359674
62.505 15.658617
62.510 15.377924
62.515 15.213158
62.520 15.101198
62.525 14.929714
62.530 14.387702
62.535 14.495917
62.540 15.162926
62.545 15.511129
62.550 15.299756
62.555 15.425172
62.560 15.259932
62.565 14.837135
62.570 14.673697
62.575 14.346993
62.580 14.462797
62.585 14.549402
62.590 14.401848
62.595 14.250458
62.600 14.316451
62.605 14.643374
62.610 15.112855
62.615 14.850741
62.620 14.878032
62.625 15.450448
62.630 16.14003
62.635 16.894218
62.640 16.525986
62.645 15.988344
62.650 16.266146
62.655 16.44523
62.660 16.070766
62.665 16.427937
62.670 15.875501
62.675 16.164534
62.680 16.493185
62.685 16.277998
62.690 16.388279
62.695 16.434084
62.700 15.564045
62.705 15.929875
62.710 16.118303
62.715 16.088646
62.720 16.220234
62.725 16.248928
62.730 16.574291
62.735 17.288725
62.740 17.643612
62.745 18.188757
62.750 17.9814
62.755 17.558453
62.760 17.182028
62.765 16.431303
62.770 16.275
62.775 15.435484
62.780 14.761482
62.785 14.828322
62.790 15.385246
62.795 15.788974
62.800 16.647427
62.805 16.771902
62.810 16.657747
62.815 15.91518
62.820 16.399765
62.825 16.585562
62.830 16.707382
62.835 15.930298
62.840 15.732679
62.845 16.102711
62.850 16.886242
62.855 17.298458
62.860 17.03426
62.865 16.541035
62.870 16.793222
62.875 16.88949
62.880 16.92304
62.885 16.841562
62.890 15.89782
62.895 15.786416
62.900 16.144783
62.905 15.897079
62.910 15.844923
62.915 16.201441
62.920 15.961307
62.925 15.736292
62.930 15.478818
62.935 15.628876
62.940 16.129211
62.945 15.837355
62.950 15.729539
62.955 15.828382
62.960 16.016838
62.965 15.977519
62.970 15.939885
62.975 15.682839
62.980 16.107046
62.985 15.810343
62.990 15.710327
62.995 15.849449
63.000 16.279438
63.005 16.119768
63.010 16.060511
63.015 15.906627
63.020 15.835963
63.025 16.072989
63.030 16.040665
63.035 15.733491
63.040 15.855263
63.045 16.069122
63.050 16.273928
63.055 16.645037
63.060 16.65559
63.065 16.663246
63.070 17.03544
63.075 17.65609
63.080 17.555487
63.085 17.335491
63.090 16.975657
63.095 16.969135
63.100 16.893507
63.105 15.772407
63.110 15.066093
63.115 15.075126
63.120 15.258851
63.125 15.499969
63.130 15.991312
63.135 16.477423
63.140 16.913437
63.145 16.825132
63.150 16.713182
63.155 16.715664
63.160 17.232304
63.165 17.506725
63.170 17.357824
63.175 17.878273
63.180 18.195944
63.185 17.89382
63.190 17.598431
63.195 16.701082
63.200 15.868054
63.205 15.906179
63.210 16.01548
63.215 16.654863
63.220 17.188507
63.225 17.46702
63.230 17.921364
63.235 18.22304
63.240 18.22748
63.245 17.550159
63.250 17.185604
63.255 16.954845
63.260 16.767578
63.265 16.61898
63.270 16.910927
63.275 16.81728
63.280 17.790136
63.285 17.859426
63.290 17.944508
63.295 18.521793
63.300 18.688383
63.305 18.848816
63.310 19.133818
63.315 19.270096
63.320 19.521687
63.325 19.238667
63.330 18.55278
63.335 18.178251
63.340 18.296885
63.345 17.98568
63.350 17.706099
63.355 17.777945
63.360 18.36117
63.365 18.765268
63.370 19.187511
63.375 18.688131
63.380 18.686836
63.385 18.40729
63.390 18.191519
63.395 18.182741
63.400 18.305479
63.405 17.787405
63.410 17.416502
63.415 17.46563
63.420 17.922297
63.425 17.914036
63.430 17.759199
63.435 17.796993
63.440 17.765413
63.445 18.017006
63.450 17.879353
63.455 16.891075
63.460 16.969442
63.465 17.104548
63.470 17.639442
63.475 18.131182
63.480 18.857838
63.485 19.44618
63.490 19.535275
63.495 19.185415
63.500 18.447716
63.505 17.760324
63.510 17.26049
63.515 16.328728
63.520 15.744278
63.525 15.958337
63.530 16.058744
63.535 16.681091
63.540 16.75885
63.545 17.289251
63.550 17.984243
63.555 18.038446
63.560 17.946321
63.565 17.956871
63.570 18.028877
63.575 18.369795
63.580 18.107988
63.585 17.566059
63.590 17.728827
63.595 18.348577
63.600 18.627525
63.605 18.52129
63.610 18.688517
63.615 18.877977
63.620 19.247925
63.625 19.051327
63.630 18.779385
63.635 18.610397
63.640 18.449799
63.645 17.963486
63.650 17.978374
63.655 17.922827
63.660 18.095398
63.665 18.690943
63.670 19.08436
63.675 19.020889
63.680 19.822325
63.685 19.664591
63.690 19.810953
63.695 19.636347
63.700 19.770256
63.705 19.742508
63.710 19.7931
63.715 19.781406
63.720 19.706779
63.725 19.657675
63.730 19.50738
63.735 18.355099
63.740 18.271233
63.745 18.079105
63.750 17.732082
63.755 18.350859
63.760 19.016212
63.765 19.648378
63.770 19.784336
63.775 19.99229
63.780 20.392225
63.785 20.525263
63.790 20.31196
63.795 19.842962
63.800 19.577154
63.805 19.932362
63.810 20.013386
63.815 20.956429
63.820 21.053995
63.825 21.022907
63.830 20.596512
63.835 20.618391
63.840 20.938915
63.845 20.788914
63.850 20.12149
63.855 20.147486
63.860 20.063417
63.865 21.098541
63.870 21.368885
63.875 21.608276
63.880 21.607891
63.885 21.494617
63.890 21.356998
63.895 21.798925
63.900 21.626369
63.905 22.004049
63.910 21.642515
63.915 21.810295
63.920 22.177584
63.925 22.522182
63.930 22.568596
63.935 22.426111
63.940 22.173937
63.945 23.230007
63.950 24.004023
63.955 24.707687
63.960 24.883141
63.965 24.992933
63.970 25.023479
63.975 25.169771
63.980 24.802422
63.985 24.105572
63.990 23.528824
63.995 23.863724
64.000 24.42495
64.005 24.631773
64.010 24.887089
64.015 25.258709
64.020 25.596352
64.025 26.050335
64.030 25.756084
64.035 25.842371
64.040 25.84948
64.045 26.047037
64.050 26.000481
64.055 25.876827
64.060 25.024656
64.065 25.629875
64.070 25.825533
64.075 26.010843
64.080 25.782
64.085 25.903883
64.090 25.939964
64.095 26.865374
64.100 26.795176
64.105 26.664576
64.110 27.01219
64.115 27.024483
64.120 27.817516
64.125 27.807789
64.130 27.858469
64.135 27.713736
64.140 27.265474
64.145 26.970005
64.150 27.697081
64.155 27.930586
64.160 27.606396
64.165 26.979488
64.170 27.421984
64.175 28.735226
64.180 28.789883
64.185 28.364834
64.190 29.187948
64.195 30.764507
64.200 31.39397
64.205 31.280249
64.210 30.506742
64.215 30.583475
64.220 30.363256
64.225 28.823889
64.230 28.664728
64.235 28.335958
64.240 28.906036
64.245 29.270237
64.250 29.095634
64.255 28.994635
64.260 29.749081
64.265 30.061613
64.270 30.398033
64.275 30.14241
64.280 30.046515
64.285 30.857714
64.290 31.080034
64.295 30.999199
64.300 30.450151
64.305 30.381701
64.310 29.820911
64.315 30.068199
64.320 29.792072
64.325 29.887592
64.330 29.232128
64.335 28.5574
64.340 28.800625
64.345 28.845636
64.350 28.400745
64.355 28.850092
64.360 28.579458
64.365 28.873194
64.370 29.342974
64.375 29.245358
64.380 29.830511
64.385 30.105854
64.390 29.662912
64.395 29.146063
64.400 29.189419
64.405 28.801001
64.410 28.220322
64.415 27.648378
64.420 27.022881
64.425 27.224228
64.430 27.140238
64.435 26.828054
64.440 27.196178
64.445 27.810198
64.450 27.789459
64.455 27.538832
64.460 26.996006
64.465 27.027958
64.470 27.746822
64.475 27.607098
64.480 27.14924
64.485 27.297009
64.490 27.981998
64.495 28.229214
64.500 28.441376
64.505 27.406027
64.510 26.859991
64.515 26.450052
64.520 25.804453
64.525 25.586472
64.530 25.348877
64.535 25.746065
64.540 25.904516
64.545 26.093109
64.550 26.246769
64.555 26.105671
64.560 25.589806
64.565 25.851276
64.570 25.557791
64.575 25.703817
64.580 24.723803
64.585 24.559723
64.590 24.645674
64.595 25.052946
64.600 24.492714
64.605 24.084745
64.610 23.971666
64.615 24.454502
64.620 24.675329
64.625 24.350428
64.630 23.920282
64.635 23.120869
64.640 23.051693
64.645 23.262199
64.650 23.46652
64.655 23.071413
64.660 22.892565
64.665 23.135729
64.670 23.661404
64.675 23.62257
64.680 23.429361
64.685 22.741823
64.690 22.726505
64.695 23.02997
64.700 22.5271
64.705 22.278341
64.710 21.985977
64.715 21.991217
64.720 22.50462
64.725 22.665508
64.730 22.467598
64.735 21.97468
64.740 21.619562
64.745 21.324251
64.750 21.114244
64.755 20.726898
64.760 20.396599
64.765 20.789059
64.770 20.941149
64.775 20.652222
64.780 20.412903
64.785 20.133228
64.790 19.755079
64.795 19.687519
64.800 19.514494
64.805 19.840879
64.810 19.798605
64.815 19.900063
64.820 20.427181
64.825 21.136543
64.830 21.470675
64.835 22.210594
64.840 22.878328
64.845 24.297575
64.850 24.659895
64.855 23.88385
64.860 23.580952
64.865 23.087082
64.870 21.869509
64.875 21.802013
64.880 21.192131
64.885 20.554998
64.890 20.926121
64.895 21.274984
64.900 21.501451
64.905 21.577988
64.910 21.255262
64.915 21.694372
64.920 22.393454
64.925 22.940786
64.930 22.361113
64.935 22.100372
64.940 21.850264
64.945 21.878222
64.950 21.416307
64.955 21.339043
64.960 21.326267
64.965 21.798698
64.970 21.983095
64.975 21.792898
64.980 21.447489
64.985 20.380001
64.990 19.578646
64.995 19.578592
65.000 19.364271
65.005 19.151148
65.010 19.729338
65.015 20.037315
65.020 20.724072
65.025 21.181433
65.030 20.912718
65.035 21.006985
65.040 21.151497
65.045 21.389292
65.050 21.22859
65.055 21.164209
65.060 20.400265
65.065 20.375784
65.070 20.434383
65.075 20.204077
65.080 19.727192
65.085 20.266907
65.090 20.598034
65.095 21.252705
65.100 21.286362
65.105 21.306026
65.110 21.679138
65.115 21.769745
65.120 21.185993
65.125 21.21175
65.130 20.645756
65.135 20.142382
65.140 20.184872
65.145 19.923174
65.150 20.165541
65.155 20.263191
65.160 19.75971
65.165 20.811083
65.170 21.929634
65.175 21.784901
65.180 22.021542
65.185 22.007128
65.190 22.259161
65.195 23.106728
65.200 22.722029
65.205 22.318174
65.210 23.127594
65.215 23.360403
65.220 23.798807
65.225 23.925873
65.230 23.437906
65.235 23.117384
65.240 22.303194
65.245 21.471365
65.250 20.85228
65.255 19.76524
65.260 19.89695
65.265 19.990492
65.270 20.390446
65.275 20.501886
65.280 20.42441
65.285 20.77861
65.290 21.297159
65.295 21.296391
65.300 20.922089
65.305 20.498901
65.310 20.694187
65.315 20.718491
65.320 21.013802
65.325 21.194664
65.330 20.724827
65.335 20.641787
65.340 20.363068
65.345 19.877916
65.350 20.177237
65.355 19.745604
65.360 19.623114
65.365 19.872229
65.370 20.116312
65.375 20.678844
65.380 20.32943
65.385 19.714682
65.390 19.468529
65.395 19.458828
65.400 19.283207
65.405 19.323063
65.410 19.955233
65.415 20.100319
65.420 20.638214
65.425 20.958849
65.430 21.289448
65.435 22.114082
65.440 21.854874
65.445 21.224323
65.450 21.448309
65.455 20.898216
65.460 20.441853
65.465 19.959932
65.470 19.346786
65.475 18.574879
65.480 18.546453
65.485 18.689848
65.490 19.048775
65.495 19.767653
65.500 20.201462
65.505 20.757591
65.510 21.781191
65.515 21.878983
65.520 21.909647
65.525 21.596575
65.530 21.412127
65.535 21.348059
65.540 21.318048
65.545 21.169407
65.550 20.663736
65.555 20.415678
65.560 20.261116
65.565 19.725052
65.570 19.424435
65.575 19.181299
65.580 19.523735
65.585 19.650675
65.590 19.544828
65.595 20.001152
65.600 20.499012
65.605 21.0502
65.610 20.495184
65.615 20.513433
65.620 21.44083
65.625 22.100864
65.630 21.877996
65.635 21.572392
65.640 21.554075
65.645 21.776011
65.650 21.628853
65.655 21.720024
65.660 21.949732
65.665 22.802097
65.670 22.893494
65.675 22.923309
65.680 24.105104
65.685 23.864403
65.690 23.896358
65.695 23.926027
65.700 23.590208
65.705 23.772373
65.710 24.028156
65.715 23.381414
65.720 23.568537
65.725 24.079384
65.730 24.692924
65.735 24.828632
65.740 24.750463
65.745 24.223433
65.750 24.732145
65.755 25.646341
65.760 25.461706
65.765 24.883032
65.770 25.189571
65.775 25.766869
65.780 25.917709
65.785 26.479124
65.790 26.031454
65.795 25.959064
65.800 26.146128
65.805 25.902067
65.810 26.027912
65.815 26.178944
65.820 25.560293
65.825 25.974497
65.830 27.251223
65.835 27.481583
65.840 27.346403
65.845 27.450462
65.850 27.871883
65.855 28.726488
65.860 28.538275
65.865 27.833036
65.870 27.982586
65.875 28.505793
65.880 29.003624
65.885 29.006971
65.890 29.385262
65.895 29.841555
65.900 29.872686
65.905 29.820044
65.910 30.479967
65.915 31.000372
65.920 31.527199
65.925 31.564322
65.930 31.209364
65.935 31.595167
65.940 31.825901
65.945 31.66375
65.950 31.021452
65.955 30.554106
65.960 30.754047
65.965 31.874018
65.970 32.417439
65.975 32.809055
65.980 33.186787
65.985 34.122883
65.990 34.924267
65.995 35.695496
66.000 36.687576
66.005 36.865574
66.010 36.502563
66.015 36.016708
66.020 36.567371
66.025 36.300842
66.030 36.099682
66.035 34.807404
66.040 34.762402
66.045 35.199944
66.050 35.364872
66.055 34.95821
66.060 35.089165
66.065 34.683945
66.070 34.36692
66.075 34.316589
66.080 34.251434
66.085 33.590107
66.090 32.852325
66.095 33.533718
66.100 34.748245
66.105 35.865372
66.110 36.447838
66.115 36.760387
66.120 37.72813
66.125 38.50013
66.130 38.434288
66.135 37.866764
66.140 38.287743
66.145 38.449142
66.150 38.492435
66.155 39.076069
66.160 39.774837
66.165 39.720627
66.170 39.144268
66.175 38.369308
66.180 37.95874
66.185 38.150402
66.190 37.88805
66.195 37.685329
66.200 37.909138
66.205 38.631737
66.210 38.72538
66.215 38.996353
66.220 38.297829
66.225 38.07737
66.230 38.183849
66.235 39.152596
66.240 38.712296
66.245 38.568428
66.250 38.500675
66.255 39.320652
66.260 39.190647
66.265 38.733486
66.270 38.371838
66.275 38.941063
66.280 39.063602
66.285 38.852383
66.290 38.290386
66.295 37.298374
66.300 37.146912
66.305 36.908573
66.310 36.307983
66.315 35.712463
66.320 35.546532
66.325 35.388985
66.330 35.927094
66.335 35.78064
66.340 34.758675
66.345 34.935661
66.350 35.472561
66.355 35.166485
66.360 35.564537
66.365 35.565872
66.370 35.611568
66.375 35.829716
66.380 35.551937
66.385 34.620796
66.390 34.216408
66.395 33.831787
66.400 33.209831
66.405 32.984482
66.410 32.827961
66.415 32.468796
66.420 32.632385
66.425 33.037148
66.430 32.438148
66.435 32.550072
66.440 31.745636
66.445 30.650801
66.450 30.999338
66.455 30.678896
66.460 30.350632
66.465 29.982849
66.470 29.632177
66.475 29.296143
66.480 29.370106
66.485 28.620951
66.490 28.133142
66.495 27.990622
66.500 27.598221
66.505 27.632034
66.510 27.612549
66.515 26.85605
66.520 26.701221
66.525 26.47957
66.530 26.050873
66.535 26.348812
66.540 25.987127
66.545 25.687681
66.550 25.581919
66.555 25.171551
66.560 25.571516
66.565 25.608982
66.570 25.434923
66.575 25.376375
66.580 25.595882
66.585 25.343653
66.590 25.406872
66.595 25.634888
66.600 25.364012
66.605 25.305742
66.610 24.817644
66.615 23.959206
66.620 23.837753
66.625 23.641558
66.630 23.13448
66.635 23.020056
66.640 22.693708
66.645 22.580885
66.650 22.361132
66.655 21.849871
66.660 21.119524
66.665 20.310965
66.670 19.942841
66.675 19.745197
66.680 19.789158
66.685 19.848104
66.690 20.205835
66.695 20.264334
66.700 20.613705
66.705 20.406858
66.710 20.516426
66.715 20.637659
66.720 20.335737
66.725 19.843134
66.730 20.03631
66.735 19.424856
66.740 19.764711
66.745 19.87809
66.750 20.232847
66.755 20.713036
66.760 20.920481
66.765 20.498867
66.770 20.616879
66.775 20.665186
66.780 20.548344
66.785 20.391098
66.790 19.682596
66.795 19.015499
66.800 19.695606
66.805 19.846027
66.810 19.600157
66.815 19.711924
66.820 19.571966
66.825 19.966736
66.830 20.747732
66.835 20.223675
66.840 20.324671
66.845 20.230585
66.850 20.157997
66.855 20.658381
66.860 21.270235
66.865 21.245991
66.870 21.526882
66.875 21.365808
66.880 21.514954
66.885 20.918646
66.890 20.304024
66.895 19.668728
66.900 19.137096
66.905 18.800968
66.910 18.704834
66.915 18.241232
66.920 18.119125
66.925 17.739328
66.930 17.531435
66.935 17.555965
66.940 18.335342
66.945 18.106071
66.950 18.641359
66.955 18.730074
66.960 18.632904
66.965 18.146557
66.970 18.328642
66.975 17.79948
66.980 18.119522
66.985 18.272753
66.990 18.540239
66.995 18.760424
67.000 19.026978
67.005 18.780951
67.010 18.701948
67.015 18.643173
67.020 18.377956
67.025 18.479742
67.030 18.764324
67.035 18.717367
67.040 18.557924
67.045 18.222994
67.050 17.90484
67.055 18.400068
67.060 17.934195
67.065 18.030664
67.070 18.199324
67.075 18.280666
67.080 18.914639
67.085 19.284863
67.090 19.055872
67.095 19.057188
67.100 18.692245
67.105 18.527935
67.110 18.41172
67.115 18.489048
67.120 18.949652
67.125 19.436924
67.130 20.008034
67.135 20.520834
67.140 20.950289
67.145 20.730553
67.150 20.586411
67.155 19.952904
67.160 19.570133
67.165 19.646399
67.170 19.795904
67.175 19.667524
67.180 20.105488
67.185 19.914351
67.190 19.772327
67.195 19.691004
67.200 18.772387
67.205 18.037659
67.210 18.147314
67.215 18.018303
67.220 18.362606
67.225 18.304995
67.230 17.936613
67.235 18.269747
67.240 18.57189
67.245 18.396818
67.250 18.348661
67.255 18.126049
67.260 18.215702
67.265 18.531464
67.270 18.780041
67.275 18.569466
67.280 18.359592
67.285 17.72089
67.290 17.423811
67.295 17.057997
67.300 17.272974
67.305 17.367525
67.310 17.728361
67.315 18.038256
67.320 17.865791
67.325 17.911634
67.330 18.243525
67.335 18.277655
67.340 18.42156
67.345 18.237162
67.350 18.061712
67.355 18.034864
67.360 18.275141
67.365 18.663954
67.370 18.454391
67.375 18.109665
67.380 18.348719
67.385 18.710899
67.390 19.164373
67.395 18.751129
67.400 18.325338
67.405 18.493759
67.410 18.347443
67.415 18.23987
67.420 18.060423
67.425 18.019653
67.430 17.76663
67.435 17.476471
67.440 17.481987
67.445 17.675653
67.450 17.337667
67.455 17.642641
67.460 18.310766
67.465 18.788134
67.470 18.7533
67.475 18.540529
67.480 18.912413
67.485 19.056162
67.490 18.980116
67.495 19.008549
67.500 18.951458
67.505 19.244389
67.510 19.518652
67.515 19.631046
67.520 20.13011
67.525 19.720446
67.530 19.389458
67.535 19.756317
67.540 19.397343
67.545 18.855255
67.550 18.896431
67.555 18.149588
67.560 18.157087
67.565 18.449844
67.570 18.337912
67.575 18.587183
67.580 19.016029
67.585 19.252609
67.590 19.626936
67.595 19.710871
67.600 19.414038
67.605 19.255131
67.610 19.393641
67.615 19.047928
67.620 18.491184
67.625 18.696569
67.630 18.767635
67.635 19.358553
67.640 18.948645
67.645 18.503622
67.650 18.333647
67.655 18.090185
67.660 17.570852
67.665 16.837246
67.670 15.899137
67.675 16.188416
67.680 16.422573
67.685 16.350651
67.690 16.478798
67.695 17.458519
67.700 17.736038
67.705 17.951426
67.710 18.273981
67.715 19.0541
67.720 19.696468
67.725 19.765911
67.730 19.47493
67.735 19.760984
67.740 19.65608
67.745 19.320181
67.750 18.460058
67.755 18.549881
67.760 18.727716
67.765 18.573807
67.770 18.703995
67.775 18.958595
67.780 18.849962
67.785 18.630453
67.790 18.168264
67.795 17.148415
67.800 16.684465
67.805 16.353228
67.810 16.366974
67.815 17.025404
67.820 17.665388
67.825 18.023756
67.830 19.521954
67.835 19.948996
67.840 19.854519
67.845 19.453186
67.850 19.012064
67.855 18.395584
67.860 18.263624
67.865 17.453465
67.870 17.252155
67.875 17.542463
67.880 17.940722
67.885 17.683077
67.890 17.741879
67.895 17.834316
67.900 18.322878
67.905 18.751783
67.910 18.753256
67.915 18.916195
67.920 18.935995
67.925 19.12923
67.930 18.455482
67.935 18.491816
67.940 17.980677
67.945 18.020136
67.950 17.446247
67.955 17.722307
67.960 17.801443
67.965 18.359602
67.970 17.896835
67.975 17.869711
67.980 17.472052
67.985 17.517422
67.990 17.467154
67.995 17.667841
68.000 17.647078
68.005 18.000523
68.010 18.531544
68.015 19.113403
68.020 19.826345
68.025 19.766588
68.030 19.727579
68.035 19.368021
68.040 19.43321
68.045 19.228935
68.050 18.854841
68.055 18.669601
68.060 18.347982
68.065 18.229296
68.070 18.283844
68.075 17.858816
68.080 18.332371
68.085 18.940472
68.090 19.275927
68.095 19.497801
68.100 19.275049
68.105 19.335648
68.110 19.644636
68.115 19.261961
68.120 18.983667
68.125 18.600353
68.130 18.539566
68.135 18.923296
68.140 18.865318
68.145 18.750406
68.150 18.237082
68.155 17.589478
68.160 17.757936
68.165 17.948025
68.170 17.551418
68.175 17.564171
68.180 17.746042
68.185 18.348597
68.190 19.413063
68.195 20.091166
68.200 19.796469
68.205 19.737419
68.210 19.841618
68.215 19.642822
68.220 18.997561
68.225 17.587526
68.230 17.131552
68.235 18.037926
68.240 18.375282
68.245 18.228497
68.250 18.681751
68.255 18.73497
68.260 19.115284
68.265 19.097851
68.270 18.63571
68.275 18.525631
68.280 17.949623
68.285 17.819143
68.290 18.303612
68.295 18.328983
68.300 18.031542
68.305 17.942717
68.310 18.318304
68.315 19.297682
68.320 19.415546
68.325 18.917837
68.330 18.984797
68.335 19.597887
68.340 19.851324
68.345 19.845837
68.350 19.801291
68.355 19.897192
68.360 19.894983
68.365 19.188694
68.370 18.81435
68.375 18.600641
68.380 18.730175
68.385 18.996578
68.390 19.244217
68.395 19.499168
68.400 19.952559
68.405 20.077019
68.410 20.164896
68.415 20.094461
68.420 19.757774
68.425 19.366148
68.430 19.207315
68.435 18.845943
68.440 18.629705
68.445 18.072807
68.450 17.305342
68.455 17.118599
68.460 17.431358
68.465 17.919239
68.470 17.746101
68.475 17.835991
68.480 18.080141
68.485 18.069618
68.490 18.063868
68.495 18.351624
68.500 18.157505
68.505 18.188278
68.510 18.144714
68.515 18.132053
68.520 17.690695
68.525 17.543406
68.530 17.622667
68.535 18.024563
68.540 18.286943
68.545 18.233284
68.550 18.269451
68.555 18.673208
68.560 18.902014
68.565 18.966829
68.570 18.43523
68.575 17.955549
68.580 18.02774
68.585 18.627478
68.590 18.445158
68.595 18.099777
68.600 18.039658
68.605 18.330063
68.610 18.95775
68.615 19.223261
68.620 18.970354
68.625 19.216478
68.630 18.852819
68.635 18.357344
68.640 18.422131
68.645 18.683718
68.650 18.301157
68.655 18.164574
68.660 18.844652
68.665 19.309494
68.670 20.039288
68.675 19.530504
68.680 18.91082
68.685 19.121141
68.690 19.258745
68.695 19.113455
68.700 18.948395
68.705 18.383509
68.710 18.874508
68.715 20.000595
68.720 19.494999
68.725 20.051056
68.730 20.439831
68.735 20.930172
68.740 21.204533
68.745 20.607571
68.750 20.086256
68.755 20.478397
68.760 19.896328
68.765 19.628235
68.770 19.792055
68.775 20.422272
68.780 21.03196
68.785 21.204662
68.790 21.466511
68.795 21.759731
68.800 21.640793
68.805 21.579363
68.810 21.782106
68.815 21.766443
68.820 22.212873
68.825 22.138924
68.830 22.798855
68.835 23.349241
68.840 23.180519
68.845 22.868683
68.850 22.858278
68.855 22.83609
68.860 22.785843
68.865 21.865442
68.870 21.609053
68.875 21.661535
68.880 21.600222
68.885 21.063919
68.890 21.172964
68.895 21.695627
68.900 22.034697
68.905 22.387535
68.910 22.864782
68.915 22.849379
68.920 23.138908
68.925 22.872932
68.930 22.78834
68.935 22.860113
68.940 22.25909
68.945 21.76132
68.950 21.583426
68.955 21.838654
68.960 21.894331
68.965 22.252314
68.970 22.495672
68.975 22.993105
68.980 23.714161
68.985 24.113619
68.990 24.308674
68.995 24.211622
69.000 24.249542
69.005 24.623892
69.010 24.426506
69.015 24.299107
69.020 23.753046
69.025 24.163223
69.030 24.369921
69.035 24.474804
69.040 24.771719
69.045 25.427275
69.050 25.988266
69.055 26.971655
69.060 27.176361
69.065 27.502872
69.070 28.339813
69.075 29.192621
69.080 28.758593
69.085 28.519625
69.090 28.330206
69.095 28.459597
69.100 28.584345
69.105 28.868654
69.110 28.577194
69.115 28.955969
69.120 29.858627
69.125 30.5863
69.130 30.58922
69.135 30.36849
69.140 29.89286
69.145 29.942341
69.150 29.504122
69.155 29.195415
69.160 28.188381
69.165 28.070478
69.170 27.396664
69.175 27.683342
69.180 27.991854
69.185 28.587442
69.190 29.027666
69.195 29.770311
69.200 30.238409
69.205 31.079063
69.210 30.860556
69.215 31.310137
69.220 31.385096
69.225 31.382044
69.230 31.59462
69.235 32.141792
69.240 31.961969
69.245 31.623835
69.250 31.618868
69.255 31.728563
69.260 32.21199
69.265 31.608007
69.270 31.7159
69.275 33.114326
69.280 34.053585
69.285 34.109352
69.290 33.963478
69.295 33.811272
69.300 34.289383
69.305 34.117123
69.310 33.610573
69.315 34.247349
69.320 34.577389
69.325 35.185566
69.330 35.453983
69.335 34.613163
69.340 34.4986
69.345 33.676311
69.350 33.432526
69.355 33.220535
69.360 32.636528
69.365 32.544788
69.370 33.572079
69.375 33.942547
69.380 34.244888
69.385 33.735035
69.390 34.431141
69.395 34.712734
69.400 35.279175
69.405 35.005043
69.410 34.136669
69.415 33.448746
69.420 33.768272
69.425 33.101437
69.430 33.747852
69.435 33.842033
69.440 33.77084
69.445 33.867508
69.450 33.861664
69.455 33.367672
69.460 33.107716
69.465 32.436085
69.470 32.751644
69.475 32.796894
69.480 33.730263
69.485 34.024998
69.490 33.841759
69.495 33.776829
69.500 33.244366
69.505 32.790359
69.510 32.862541
69.515 32.413731
69.520 31.408432
69.525 30.695528
69.530 30.871458
69.535 30.807241
69.540 30.229963
69.545 29.679354
69.550 29.637167
69.555 31.342442
69.560 32.007397
69.565 32.182903
69.570 32.473118
69.575 33.306572
69.580 33.981937
69.585 33.714069
69.590 32.789814
69.595 32.34433
69.600 31.537958
69.605 30.705206
69.610 30.025404
69.615 29.18022
69.620 29.714439
69.625 29.766422
69.630 30.17244
69.635 30.24412
69.640 30.284864
69.645 29.836254
69.650 30.233494
69.655 30.165722
69.660 29.431101
69.665 29.298771
69.670 29.565769
69.675 30.142214
69.680 30.309822
69.685 29.830072
69.690 29.148308
69.695 28.674696
69.700 28.601652
69.705 28.092499
69.710 27.550762
69.715 27.867426
69.720 28.226448
69.725 28.446674
69.730 28.71937
69.735 28.410561
69.740 28.354357
69.745 28.355465
69.750 28.13401
69.755 27.531683
69.760 26.936016
69.765 26.412207
69.770 25.841227
69.775 25.177835
69.780 24.72608
69.785 24.304888
69.790 24.442429
69.795 24.115725
69.800 24.068644
69.805 24.064413
69.810 24.328278
69.815 24.01545
69.820 23.385715
69.825 23.071398
69.830 23.191599
69.835 22.943604
69.840 22.527361
69.845 22.674103
69.850 22.74362
69.855 23.381536
69.860 23.932552
69.865 23.911993
69.870 23.956091
69.875 24.087212
69.880 23.392368
69.885 23.191936
69.890 22.523144
69.895 21.702864
69.900 21.602978
69.905 21.766394
69.910 22.309536
69.915 22.595469
69.920 21.996994
69.925 22.131985
69.930 22.457462
69.935 22.604136
69.940 22.369904
69.945 21.910343
69.950 21.679876
69.955 21.843439
69.960 21.814341
69.965 21.698858
69.970 21.275007
69.975 21.081121
69.980 20.687357
69.985 20.257101
69.990 19.989328
69.995 19.603315
70.000 19.299673
70.005 19.57394
70.010 19.570105
70.015 19.884722
70.020 20.236361
70.025 20.846937
70.030 21.44339
70.035 21.314798
70.040 20.832972
70.045 20.58276
70.050 20.267277
70.055 19.920511
70.060 19.111265
70.065 18.977869
70.070 18.726788
70.075 19.546486
70.080 19.387217
70.085 19.728683
70.090 19.817316
70.095 19.742123
70.100 19.287064
70.105 19.477554
70.110 19.354134
70.115 19.868149
70.120 19.376051
70.125 20.06237
70.130 20.67647
70.135 21.098631
70.140 20.675861
70.145 20.630478
70.150 20.942404
70.155 21.469383
70.160 20.914593
70.165 20.488693
70.170 19.986576
70.175 19.217272
70.180 18.458166
70.185 18.196926
70.190 18.055929
70.195 18.042814
70.200 17.848455
70.205 17.710665
70.210 18.019342
70.215 18.248062
70.220 18.072096
70.225 17.946625
70.230 17.691208
70.235 17.604376
70.240 17.79781
70.245 17.960117
70.250 17.90695
70.255 17.743528
70.260 18.104324
70.265 17.965555
70.270 17.69861
70.275 17.798233
70.280 17.511181
70.285 17.056555
70.290 17.036411
70.295 16.630159
70.300 16.639179
70.305 17.12133
70.310 17.192253
70.315 16.7304
70.320 17.012205
70.325 17.566549
70.330 18.068615
70.335 18.246952
70.340 17.799444
70.345 18.46191
70.350 19.07037
70.355 18.977024
70.360 18.295139
70.365 18.025539
70.370 18.157688
70.375 19.196302
70.380 18.508318
70.385 18.185572
70.390 18.823256
70.395 18.953106
70.400 19.215057
70.405 19.096062
70.410 18.826427
70.415 18.537949
70.420 18.144707
70.425 17.347807
70.430 17.566694
70.435 17.761023
70.440 17.614798
70.445 17.343323
70.450 18.241831
70.455 18.841703
70.460 19.092436
70.465 19.04163
70.470 18.652266
70.475 18.50857
70.480 18.847404
70.485 18.137629
70.490 18.450218
70.495 18.397661
70.500 17.757326
70.505 18.105812
70.510 18.531349
70.515 18.845514
70.520 18.68576
70.525 18.302935
70.530 18.210911
70.535 18.370287
70.540 17.785086
70.545 17.43742
70.550 18.055464
70.555 18.766989
70.560 19.003204
70.565 19.097788
70.570 19.746347
70.575 20.155855
70.580 19.845078
70.585 19.27002
70.590 18.853735
70.595 18.331264
70.600 18.311192
70.605 17.63962
70.610 17.558493
70.615 17.560371
70.620 17.159378
70.625 17.377697
70.630 16.89415
70.635 16.941566
70.640 17.050726
70.645 17.199839
70.650 16.501074
70.655 16.48505
70.660 16.985619
70.665 17.734356
70.670 17.858791
70.675 17.048218
70.680 17.924154
70.685 19.050447
70.690 19.488785
70.695 19.00404
70.700 18.763338
70.705 18.770882
70.710 19.07465
70.715 18.512049
70.720 18.233671
70.725 18.304203
70.730 18.252094
70.735 17.644547
70.740 17.97065
70.745 17.398125
70.750 17.103605
70.755 16.489859
70.760 16.148094
70.765 16.630167
70.770 17.394802
70.775 17.305578
70.780 17.665363
70.785 18.164326
70.790 18.055017
70.795 17.937788
70.800 17.46829
70.805 17.302837
70.810 17.305033
70.815 16.786257
70.820 16.697254
70.825 17.214245
70.830 17.26
70.835 17.196287
70.840 17.570637
70.845 17.908289
70.850 18.469788
70.855 18.106129
70.860 18.150595
70.865 18.165329
70.870 18.749992
70.875 18.616354
70.880 18.419453
70.885 18.189426
70.890 18.344379
70.895 18.131445
70.900 17.903402
70.905 17.562611
70.910 17.60103
70.915 17.664713
70.920 18.263071
70.925 18.399107
70.930 17.975269
70.935 18.694042
70.940 18.824907
70.945 18.918684
70.950 19.107624
70.955 19.027191
70.960 18.663834
70.965 18.82457
70.970 18.427151
70.975 18.139927
70.980 17.879835
70.985 18.086739
70.990 17.902384
70.995 18.695391
71.000 18.559595
71.005 18.793087
71.010 19.105362
71.015 19.105541
71.020 18.351366
71.025 18.177067
71.030 17.858398
71.035 17.888416
71.040 17.206594
71.045 16.624899
71.050 16.479637
71.055 16.872868
71.060 17.91007
71.065 18.060118
71.070 17.757256
71.075 18.039492
71.080 18.154287
71.085 18.493362
71.090 18.760637
71.095 18.265766
71.100 18.079077
71.105 17.957462
71.110 17.834885
71.115 17.598852
71.120 17.705931
71.125 17.46858
71.130 17.162315
71.135 16.965601
71.140 17.397825
71.145 17.928875
71.150 17.94224
71.155 17.744976
71.160 17.327766
71.165 17.75379
71.170 18.72484
71.175 18.959541
71.180 18.944792
71.185 19.029041
71.190 19.661259
71.195 19.741064
71.200 19.651468
71.205 19.384321
71.210 18.787382
71.215 18.400246
71.220 17.867147
71.225 17.366507
71.230 17.267714
71.235 16.972748
71.240 17.067654
71.245 17.731466
71.250 18.332577
71.255 18.54562
71.260 18.550652
71.265 18.740908
71.270 18.587103
71.275 18.235884
71.280 18.214872
71.285 17.831482
71.290 18.013546
71.295 17.434952
71.300 17.098751
71.305 17.332003
71.310 16.923943
71.315 16.811811
71.320 16.711046
71.325 16.395725
71.330 17.242109
71.335 16.962372
71.340 17.150572
71.345 17.155724
71.350 17.324364
71.355 17.388151
71.360 18.285244
71.365 17.840971
71.370 18.270493
71.375 18.337727
71.380 18.245523
71.385 18.684841
71.390 18.877354
71.395 18.439615
71.400 18.85154
71.405 18.811049
71.410 18.927496
71.415 19.223024
71.420 19.036982
71.425 19.171883
71.430 19.507309
71.435 19.054405
71.440 19.030426
71.445 18.850264
71.450 18.02182
71.455 17.472246
71.460 17.571901
71.465 17.494234
71.470 17.756176
71.475 17.471628
71.480 17.671921
71.485 18.839348
71.490 19.1654
71.495 19.325535
71.500 19.248096
71.505 18.965714
71.510 19.408802
71.515 18.966805
71.520 18.63434
71.525 18.036425
71.530 17.786961
71.535 17.676767
71.540 17.674284
71.545 17.279572
71.550 17.542265
71.555 17.243855
71.560 17.150925
71.565 16.89197
71.570 16.487852
71.575 16.872684
71.580 16.624777
71.585 16.759302
71.590 17.414604
71.595 17.618528
71.600 18.15308
71.605 18.495745
71.610 18.062584
71.615 18.513641
71.620 18.450855
71.625 18.762537
71.630 18.880224
71.635 18.352968
71.640 17.775394
71.645 18.187143
71.650 17.78034
71.655 17.266827
71.660 17.143795
71.665 17.082047
71.670 17.977474
71.675 19.062431
71.680 19.051029
71.685 19.18656
71.690 18.890886
71.695 18.794226
71.700 19.029732
71.705 18.891687
71.710 18.534204
71.715 19.124466
71.720 19.740217
71.725 19.99991
71.730 19.684126
71.735 19.677698
71.740 19.531857
71.745 19.318073
71.750 18.250683
71.755 17.514711
71.760 16.943865
71.765 16.972635
71.770 16.886831
71.775 17.018679
71.780 17.152092
71.785 17.67783
71.790 17.564665
71.795 17.431622
71.800 17.506367
71.805 17.012257
71.810 16.853584
71.815 16.510172
71.820 16.398941
71.825 16.656557
71.830 17.296486
71.835 17.697172
71.840 17.562777
71.845 17.703022
71.850 17.634216
71.855 17.908239
71.860 17.857904
71.865 17.645872
71.870 17.531706
71.875 18.038866
71.880 17.87232
71.885 17.63166
71.890 17.821028
71.895 18.102644
71.900 18.117022
71.905 18.123123
71.910 18.01656
71.915 18.214603
71.920 18.371225
71.925 18.5177
71.930 18.285589
71.935 17.788359
71.940 17.208441
71.945 16.87846
71.950 16.959877
71.955 16.989216
71.960 16.324505
71.965 16.670982
71.970 17.072399
71.975 17.407429
71.980 18.221172
71.985 18.747692
71.990 18.86039
71.995 18.90748
72.000 18.676935
72.005 18.560511
72.010 18.629066
72.015 18.062988
72.020 17.570763
72.025 17.623526
72.030 17.644625
72.035 17.707834
72.040 17.428045
72.045 16.783447
72.050 17.054752
72.055 16.964081
72.060 17.48163
72.065 17.507982
72.070 17.655533
72.075 17.913271
72.080 18.494946
72.085 18.465752
72.090 18.722548
72.095 18.030901
72.100 18.295538
72.105 18.388371
72.110 18.105003
72.115 17.692253
72.120 17.369705
72.125 17.002361
72.130 16.70599
72.135 15.964023
72.140 16.33955
72.145 16.894011
72.150 16.486143
72.155 16.422232
72.160 16.743996
72.165 17.28797
72.170 17.087843
72.175 16.606394
72.180 16.526855
72.185 17.144117
72.190 17.346706
72.195 17.64591
72.200 18.351042
72.205 18.925709
72.210 19.180365
72.215 18.520969
72.220 18.342754
72.225 17.915342
72.230 17.308933
72.235 16.976271
72.240 16.577087
72.245 16.056316
72.250 15.783558
72.255 16.386868
72.260 16.23591
72.265 16.221279
72.270 15.774103
72.275 16.117517
72.280 16.433777
72.285 16.220655
72.290 15.886161
72.295 16.239376
72.300 16.265614
72.305 15.924241
72.310 16.316391
72.315 17.202091
72.320 17.479807
72.325 17.800766
72.330 17.680401
72.335 18.137096
72.340 18.569386
72.345 17.950836
72.350 17.810156
72.355 17.963757
72.360 18.537771
72.365 18.501095
72.370 17.993858
72.375 17.249687
72.380 16.91156
72.385 16.882292
72.390 16.246584
72.395 15.087809
72.400 14.64615
72.405 15.26488
72.410 15.599607
72.415 15.977044
72.420 15.725822
72.425 16.289307
72.430 16.9398
72.435 16.716038
72.440 16.889408
72.445 17.492636
72.450 18.117743
72.455 18.434391
72.460 17.875942
72.465 17.951746
72.470 18.276751
72.475 17.997644
72.480 17.539827
72.485 16.936703
72.490 16.79661
72.495 17.27141
72.500 17.357342
72.505 17.515408
72.510 17.76322
72.515 17.76045
72.520 18.51413
72.525 18.927441
72.530 18.741331
72.535 17.922432
72.540 17.976477
72.545 17.564472
72.550 17.719662
72.555 17.575985
72.560 17.018108
72.565 17.106005
72.570 17.039562
72.575 17.004042
72.580 17.313578
72.585 17.387402
72.590 16.963631
72.595 16.77523
72.600 17.355257
72.605 17.870798
72.610 17.760159
72.615 16.889997
72.620 16.337606
72.625 16.303621
72.630 16.722408
72.635 16.237743
72.640 15.936594
72.645 15.91
72.650 16.714708
72.655 16.831802
72.660 17.24873
72.665 17.251177
72.670 16.93454
72.675 17.102734
72.680 16.756952
72.685 16.701529
72.690 16.668434
72.695 16.421446
72.700 16.307713
72.705 16.462807
72.710 16.194994
72.715 16.391474
72.720 16.569443
72.725 16.842133
72.730 16.882051
72.735 17.580566
72.740 17.745651
72.745 17.491072
72.750 17.459665
72.755 17.374413
72.760 16.989725
72.765 17.328056
72.770 17.098244
72.775 17.323326
72.780 17.568838
72.785 17.666662
72.790 18.019865
72.795 18.171436
72.800 18.223339
72.805 18.055212
72.810 17.865377
72.815 17.193207
72.820 16.293074
72.825 15.54396
72.830 15.320709
72.835 15.400069
72.840 15.476556
72.845 15.641109
72.850 16.384899
72.855 16.927664
72.860 17.365698
72.865 17.01429
72.870 16.307247
72.875 16.462423
72.880 16.384933
72.885 16.578342
72.890 16.681108
72.895 16.345825
72.900 16.354883
72.905 16.722408
72.910 16.720379
72.915 16.688255
72.920 16.575689
72.925 16.098722
72.930 16.430029
72.935 16.554102
72.940 16.674122
72.945 16.843187
72.950 16.760731
72.955 16.736216
72.960 16.357452
72.965 15.705715
72.970 15.587019
72.975 15.554715
72.980 15.734015
72.985 15.634914
72.990 16.201889
72.995 16.539999
73.000 16.613659
