!@!!GADDS PLOTSO FILE: Chi integration type
!@!!Title/SampleName: map-16d
!@!!Comment: ?
!@!!User: Bruker Instrument Administrator
!@!!Site: University of Illinois Chicago
!@!!Frame: map-16d_01_000.gfrm
!@!!Wavelengths    1.54184   1.54056   1.54439
!@!!Frame angles: 2Theta: 63.000 Omega: 50.000 Phi: 0.000 Chi: 90.000
!@!!Integration range: 2Theta: 53.000 to 73.000  Gamma: -105.000 to -75.000
!@!!Integration method: bin normalized
!@!N
!@!SS
!@!M
!@!L 0.0 0.0 0.0 0.0
!@!XDegrees
!@!YCounts
53.000 3.526945
53.005 3.559766
53.010 3.498989
53.015 3.101094
53.020 3.176846
53.025 3.340053
53.030 3.660371
53.035 4.038545
53.040 4.136798
53.045 4.173411
53.050 4.085501
53.055 4.070831
53.060 4.050601
53.065 3.763604
53.070 3.299148
53.075 3.560292
53.080 4.057855
53.085 4.390633
53.090 4.386495
53.095 4.265784
53.100 4.196368
53.105 4.088713
53.110 3.694134
53.115 3.428163
53.120 3.09361
53.125 3.045527
53.130 3.247469
53.135 3.546964
53.140 3.718585
53.145 3.458526
53.150 3.240223
53.155 3.29634
53.160 3.64389
53.165 3.86081
53.170 4.051939
53.175 4.259189
53.180 4.481195
53.185 4.583671
53.190 4.566703
53.195 4.279699
53.200 4.069118
53.205 3.805065
53.210 3.641672
53.215 3.813892
53.220 3.939844
53.225 4.058634
53.230 4.312571
53.235 4.166364
53.240 4.047689
53.245 4.078772
53.250 3.909471
53.255 3.830247
53.260 3.649841
53.265 3.430663
53.270 3.58476
53.275 3.771485
53.280 3.761466
53.285 4.08458
53.290 3.971895
53.295 3.952123
53.300 4.049584
53.305 3.834558
53.310 3.558367
53.315 3.512609
53.320 3.293491
53.325 3.367487
53.330 3.210796
53.335 3.058817
53.340 3.365754
53.345 3.616924
53.350 3.482044
53.355 3.754313
53.360 3.610957
53.365 3.748748
53.370 3.898511
53.375 3.962048
53.380 4.024604
53.385 4.038225
53.390 3.881586
53.395 4.113418
53.400 3.844609
53.405 3.519603
53.410 3.241421
53.415 3.253402
53.420 3.571718
53.425 3.624837
53.430 3.840466
53.435 3.900163
53.440 4.05983
53.445 3.986521
53.450 3.860541
53.455 3.632393
53.460 3.67285
53.465 3.564584
53.470 3.904875
53.475 3.886989
53.480 3.998193
53.485 4.32555
53.490 4.398205
53.495 4.385524
53.500 4.256201
53.505 4.182706
53.510 4.267944
53.515 4.282008
53.520 3.824026
53.525 4.035148
53.530 4.305346
53.535 4.145435
53.540 4.1215
53.545 4.10699
53.550 3.991954
53.555 3.996332
53.560 3.700857
53.565 3.413281
53.570 3.370041
53.575 3.009899
53.580 2.812387
53.585 2.706628
53.590 2.902463
53.595 3.032213
53.600 3.314188
53.605 3.647082
53.610 3.806764
53.615 3.997004
53.620 4.211786
53.625 4.026614
53.630 4.007673
53.635 3.948988
53.640 3.855857
53.645 4.000304
53.650 4.050856
53.655 3.748974
53.660 3.667149
53.665 3.463943
53.670 3.43628
53.675 3.297162
53.680 3.046018
53.685 2.895524
53.690 2.980077
53.695 3.235332
53.700 3.477428
53.705 3.451561
53.710 3.551877
53.715 3.618301
53.720 3.57958
53.725 3.476292
53.730 3.06525
53.735 3.016339
53.740 3.01355
53.745 3.041174
53.750 3.069939
53.755 3.462676
53.760 3.692389
53.765 4.051222
53.770 4.205799
53.775 4.323933
53.780 4.541959
53.785 4.784734
53.790 5.153019
53.795 5.358102
53.800 5.074378
53.805 4.807492
53.810 4.92871
53.815 4.767806
53.820 4.452364
53.825 3.707766
53.830 3.455315
53.835 3.325325
53.840 3.262726
53.845 2.943186
53.850 2.861319
53.855 2.648341
53.860 2.626144
53.865 2.683583
53.870 2.699658
53.875 2.634111
53.880 2.874138
53.885 2.969511
53.890 3.111686
53.895 3.419706
53.900 3.589349
53.905 3.859573
53.910 3.95854
53.915 3.80372
53.920 4.055244
53.925 3.887887
53.930 3.68912
53.935 3.568475
53.940 3.571103
53.945 3.410552
53.950 3.393548
53.955 3.149272
53.960 3.310618
53.965 3.410998
53.970 3.283475
53.975 3.382613
53.980 3.465522
53.985 3.416008
53.990 3.53512
53.995 3.597926
54.000 3.598098
54.005 3.588288
54.010 3.747005
54.015 3.924284
54.020 4.016792
54.025 4.138782
54.030 4.300632
54.035 4.420125
54.040 4.673048
54.045 4.300333
54.050 4.089408
54.055 4.04554
54.060 3.553136
54.065 3.267874
54.070 3.038219
54.075 2.837924
54.080 3.025639
54.085 3.067967
54.090 3.014396
54.095 3.142642
54.100 3.291456
54.105 3.44244
54.110 3.488442
54.115 3.597037
54.120 3.533747
54.125 3.570476
54.130 3.541637
54.135 3.499865
54.140 3.450864
54.145 3.422198
54.150 3.442048
54.155 3.568167
54.160 3.608648
54.165 3.604744
54.170 3.913467
54.175 4.338764
54.180 4.256454
54.185 4.337451
54.190 4.406641
54.195 4.580033
54.200 4.690396
54.205 4.450352
54.210 4.551046
54.215 5.025723
54.220 5.228268
54.225 5.281562
54.230 5.274765
54.235 5.234246
54.240 4.937726
54.245 4.539187
54.250 4.3723
54.255 3.983794
54.260 3.899943
54.265 3.570412
54.270 3.556835
54.275 3.753794
54.280 3.539558
54.285 3.777339
54.290 3.881121
54.295 4.006936
54.300 4.216832
54.305 4.258926
54.310 4.359188
54.315 4.277531
54.320 4.089942
54.325 3.976672
54.330 3.73498
54.335 3.726444
54.340 3.508251
54.345 3.496577
54.350 3.500686
54.355 3.439775
54.360 3.354693
54.365 3.260164
54.370 3.451701
54.375 3.314159
54.380 3.249406
54.385 3.145928
54.390 3.03516
54.395 3.258105
54.400 3.125733
54.405 2.915624
54.410 2.948241
54.415 2.771512
54.420 2.612804
54.425 2.718548
54.430 2.764169
54.435 3.033559
54.440 3.217798
54.445 3.274479
54.450 3.476384
54.455 3.810847
54.460 3.790444
54.465 3.698604
54.470 3.713313
54.475 3.585067
54.480 3.602876
54.485 3.51587
54.490 3.36726
54.495 3.265363
54.500 3.161684
54.505 3.168225
54.510 3.440536
54.515 3.840814
54.520 4.05878
54.525 4.033309
54.530 4.251637
54.535 4.288805
54.540 4.061776
54.545 3.723588
54.550 3.531346
54.555 3.430308
54.560 3.46946
54.565 3.317862
54.570 3.305721
54.575 3.46885
54.580 3.522645
54.585 3.619449
54.590 3.826224
54.595 4.080432
54.600 4.160664
54.605 4.443603
54.610 4.548545
54.615 4.501558
54.620 4.337971
54.625 4.033035
54.630 3.830098
54.635 3.756874
54.640 3.604893
54.645 3.738518
54.650 3.593644
54.655 3.844725
54.660 4.113301
54.665 4.214869
54.670 4.419019
54.675 4.486799
54.680 4.477171
54.685 4.564752
54.690 4.27205
54.695 4.328417
54.700 4.242021
54.705 4.201583
54.710 3.856458
54.715 4.145871
54.720 4.714234
54.725 4.768315
54.730 4.620897
54.735 4.594791
54.740 4.500175
54.745 4.264517
54.750 3.995096
54.755 3.595553
54.760 3.426777
54.765 3.431625
54.770 3.45761
54.775 3.425683
54.780 3.786774
54.785 3.715156
54.790 3.684517
54.795 3.68883
54.800 3.858741
54.805 4.089546
54.810 4.339047
54.815 4.018826
54.820 3.979951
54.825 3.97457
54.830 4.072402
54.835 4.073414
54.840 4.044297
54.845 4.234997
54.850 4.407326
54.855 4.456448
54.860 4.463108
54.865 4.260772
54.870 3.996616
54.875 3.870398
54.880 3.969119
54.885 3.72662
54.890 3.627231
54.895 3.722118
54.900 3.826454
54.905 3.940962
54.910 3.776605
54.915 3.544174
54.920 3.52696
54.925 3.86573
54.930 3.8434
54.935 3.637278
54.940 3.465071
54.945 3.441018
54.950 3.906906
54.955 3.988836
54.960 3.74038
54.965 3.788171
54.970 3.985806
54.975 4.143384
54.980 4.167396
54.985 3.882896
54.990 3.816481
54.995 4.021034
55.000 4.011941
55.005 3.828258
55.010 3.778216
55.015 3.542169
55.020 3.627421
55.025 3.585135
55.030 3.335624
55.035 3.226068
55.040 3.145798
55.045 3.210618
55.050 3.465494
55.055 3.623672
55.060 3.682373
55.065 3.678711
55.070 4.047169
55.075 4.286789
55.080 4.026554
55.085 3.756734
55.090 3.72604
55.095 3.710696
55.100 3.636606
55.105 3.458756
55.110 3.317351
55.115 3.525375
55.120 3.427688
55.125 3.210185
55.130 3.198018
55.135 3.412339
55.140 3.415972
55.145 3.622261
55.150 3.885636
55.155 3.994959
55.160 4.23968
55.165 4.223089
55.170 4.043646
55.175 4.189556
55.180 3.98199
55.185 3.55132
55.190 3.250556
55.195 2.892418
55.200 3.023283
55.205 2.835624
55.210 2.749275
55.215 2.785039
55.220 3.216815
55.225 3.684286
55.230 3.897645
55.235 3.908295
55.240 4.061942
55.245 3.990196
55.250 3.947119
55.255 3.760753
55.260 3.715196
55.265 3.687729
55.270 3.59021
55.275 3.587532
55.280 3.750284
55.285 3.816875
55.290 3.904148
55.295 3.966305
55.300 4.110443
55.305 4.213271
55.310 4.041597
55.315 4.08067
55.320 4.008564
55.325 3.789835
55.330 3.58827
55.335 3.726979
55.340 3.991224
55.345 4.299576
55.350 4.280894
55.355 4.401551
55.360 4.555246
55.365 4.503552
55.370 4.22181
55.375 4.107546
55.380 4.104444
55.385 4.050198
55.390 4.118357
55.395 4.078857
55.400 4.117145
55.405 4.063724
55.410 4.060715
55.415 3.932937
55.420 4.203587
55.425 4.383661
55.430 4.411357
55.435 4.555763
55.440 4.746063
55.445 4.86162
55.450 4.86679
55.455 4.413359
55.460 4.032959
55.465 3.71119
55.470 3.374506
55.475 2.963759
55.480 2.885892
55.485 2.866245
55.490 3.189007
55.495 3.307039
55.500 3.483206
55.505 3.67905
55.510 3.969503
55.515 3.611861
55.520 3.565068
55.525 3.663631
55.530 4.177897
55.535 4.427757
55.540 4.333443
55.545 4.322001
55.550 4.507759
55.555 4.689237
55.560 4.39282
55.565 4.070545
55.570 3.993346
55.575 3.975934
55.580 4.07611
55.585 4.06999
55.590 3.778669
55.595 3.979135
55.600 3.697077
55.605 3.785761
55.610 3.738769
55.615 3.859619
55.620 3.941717
55.625 4.062814
55.630 3.981466
55.635 3.898828
55.640 3.742336
55.645 3.784889
55.650 3.659284
55.655 3.82849
55.660 3.561642
55.665 3.613745
55.670 3.837576
55.675 3.90217
55.680 3.767809
55.685 3.72355
55.690 3.938981
55.695 4.038724
55.700 4.020693
55.705 3.924397
55.710 3.870559
55.715 3.837925
55.720 3.703758
55.725 3.489229
55.730 3.638736
55.735 3.839765
55.740 3.944646
55.745 4.25065
55.750 4.603786
55.755 4.524666
55.760 4.431759
55.765 4.113884
55.770 3.749267
55.775 3.805992
55.780 3.604304
55.785 3.118655
55.790 3.207016
55.795 3.173465
55.800 3.367317
55.805 3.782914
55.810 4.016606
55.815 4.195165
55.820 4.511092
55.825 4.486791
55.830 4.483237
55.835 4.822728
55.840 4.585335
55.845 4.599994
55.850 4.703718
55.855 4.945506
55.860 4.928521
55.865 5.129498
55.870 5.087311
55.875 5.024426
55.880 4.637156
55.885 4.430457
55.890 4.126053
55.895 4.321983
55.900 4.1104
55.905 3.473459
55.910 3.365681
55.915 3.497772
55.920 3.329229
55.925 3.114327
55.930 3.071305
55.935 3.160143
55.940 3.558214
55.945 3.703842
55.950 3.687469
55.955 4.031983
55.960 4.22725
55.965 4.424677
55.970 4.51741
55.975 4.107787
55.980 3.930347
55.985 4.226161
55.990 3.960577
55.995 3.740901
56.000 3.470248
56.005 3.354108
56.010 3.712724
56.015 3.954284
56.020 3.88321
56.025 4.167567
56.030 4.214528
56.035 3.968753
56.040 3.846906
56.045 3.657904
56.050 3.252844
56.055 3.122597
56.060 3.036282
56.065 3.082234
56.070 3.309959
56.075 3.792453
56.080 4.508412
56.085 4.657037
56.090 4.590005
56.095 4.74327
56.100 4.634633
56.105 4.441397
56.110 3.900151
56.115 3.289418
56.120 3.229336
56.125 3.099548
56.130 3.12729
56.135 3.689672
56.140 3.770881
56.145 4.080396
56.150 4.390289
56.155 4.527767
56.160 4.687903
56.165 4.422014
56.170 4.124041
56.175 4.225293
56.180 4.10473
56.185 4.055179
56.190 4.32838
56.195 4.248481
56.200 4.544359
56.205 4.831694
56.210 4.910548
56.215 4.939633
56.220 4.789107
56.225 4.537333
56.230 4.732128
56.235 4.689668
56.240 4.529396
56.245 4.920101
56.250 5.208958
56.255 5.263028
56.260 5.312413
56.265 4.970095
56.270 4.790734
56.275 4.524301
56.280 3.912762
56.285 3.719433
56.290 3.8098
56.295 3.700189
56.300 3.773787
56.305 3.927508
56.310 4.335313
56.315 4.272086
56.320 4.08581
56.325 3.787458
56.330 3.878501
56.335 3.851538
56.340 3.652609
56.345 3.247788
56.350 3.165553
56.355 3.017925
56.360 3.163413
56.365 3.004449
56.370 2.807753
56.375 2.842942
56.380 3.168887
56.385 3.594289
56.390 3.708807
56.395 3.744709
56.400 3.909731
56.405 4.099531
56.410 4.036897
56.415 4.006124
56.420 3.866677
56.425 4.190349
56.430 4.264316
56.435 4.380387
56.440 4.402586
56.445 4.314009
56.450 4.232015
56.455 4.151317
56.460 3.687104
56.465 3.455425
56.470 3.361876
56.475 3.688377
56.480 3.706848
56.485 3.544829
56.490 3.747086
56.495 3.828202
56.500 3.842437
56.505 3.950746
56.510 3.723796
56.515 3.862431
56.520 4.088751
56.525 3.876173
56.530 4.142424
56.535 4.589344
56.540 4.170138
56.545 4.056475
56.550 3.955482
56.555 3.902928
56.560 4.279531
56.565 3.927716
56.570 3.819588
56.575 3.96072
56.580 3.949518
56.585 4.052088
56.590 3.98345
56.595 4.028372
56.600 3.916593
56.605 3.743648
56.610 3.797544
56.615 3.740846
56.620 3.676364
56.625 3.492308
56.630 3.34439
56.635 3.408273
56.640 3.37324
56.645 3.156405
56.650 3.128458
56.655 3.230209
56.660 3.264536
56.665 3.491971
56.670 3.484649
56.675 3.635268
56.680 3.982221
56.685 4.117521
56.690 4.090214
56.695 4.32731
56.700 4.274903
56.705 4.388005
56.710 4.39095
56.715 4.39631
56.720 4.581698
56.725 4.50872
56.730 4.252537
56.735 4.487738
56.740 4.588953
56.745 4.750249
56.750 4.57023
56.755 4.292854
56.760 4.336602
56.765 4.523167
56.770 4.473728
56.775 4.331904
56.780 4.156709
56.785 4.252959
56.790 4.570417
56.795 4.582192
56.800 4.33287
56.805 4.333921
56.810 4.456306
56.815 4.479872
56.820 4.592042
56.825 4.484469
56.830 4.518006
56.835 4.601315
56.840 4.523569
56.845 4.5249
56.850 4.565404
56.855 4.514502
56.860 4.536866
56.865 4.51989
56.870 4.492143
56.875 4.547945
56.880 4.63826
56.885 4.506636
56.890 4.435767
56.895 4.273939
56.900 4.253222
56.905 4.32254
56.910 4.286333
56.915 4.295625
56.920 4.346315
56.925 4.35053
56.930 4.36265
56.935 4.191446
56.940 3.990715
56.945 4.064625
56.950 3.994866
56.955 4.271469
56.960 4.548961
56.965 4.748626
56.970 4.886053
56.975 4.76043
56.980 4.578452
56.985 4.62178
56.990 4.434157
56.995 4.188148
57.000 4.193549
57.005 4.220485
57.010 4.144473
57.015 4.159092
57.020 4.055159
57.025 4.214794
57.030 4.409466
57.035 4.116172
57.040 4.162209
57.045 4.575102
57.050 4.620958
57.055 4.63345
57.060 4.227664
57.065 4.181026
57.070 4.438085
57.075 4.263495
57.080 4.073867
57.085 4.002382
57.090 3.898184
57.095 3.967822
57.100 3.936698
57.105 3.789156
57.110 3.744354
57.115 3.833657
57.120 3.80099
57.125 3.684721
57.130 3.78113
57.135 3.723891
57.140 3.524921
57.145 3.673979
57.150 3.838377
57.155 3.987648
57.160 4.124185
57.165 4.05774
57.170 4.17004
57.175 4.321421
57.180 4.333598
57.185 4.191596
57.190 4.155039
57.195 3.944308
57.200 3.960086
57.205 4.202348
57.210 4.225389
57.215 3.933125
57.220 3.859003
57.225 4.095099
57.230 4.187681
57.235 4.135709
57.240 3.95074
57.245 3.929727
57.250 4.13803
57.255 4.220109
57.260 4.287995
57.265 4.420953
57.270 4.225679
57.275 4.224732
57.280 4.14851
57.285 4.059946
57.290 3.569542
57.295 3.414008
57.300 3.609676
57.305 3.937842
57.310 4.084188
57.315 4.460202
57.320 4.40134
57.325 4.833548
57.330 4.727602
57.335 4.548148
57.340 4.373792
57.345 4.541467
57.350 4.758135
57.355 4.759011
57.360 4.773227
57.365 4.77562
57.370 4.886746
57.375 4.850045
57.380 5.012012
57.385 5.22576
57.390 5.474306
57.395 5.357467
57.400 5.370625
57.405 5.483562
57.410 5.574578
57.415 4.787136
57.420 4.265706
57.425 4.249036
57.430 4.337593
57.435 4.471087
57.440 4.208403
57.445 3.98745
57.450 4.348207
57.455 4.711678
57.460 4.856571
57.465 5.130031
57.470 5.275695
57.475 5.552171
57.480 5.985721
57.485 5.931814
57.490 5.57306
57.495 5.519561
57.500 5.472969
57.505 5.255538
57.510 4.973967
57.515 4.783786
57.520 4.637906
57.525 4.409563
57.530 4.159591
57.535 3.855656
57.540 3.850853
57.545 3.978554
57.550 3.842245
57.555 4.209089
57.560 4.511352
57.565 4.485614
57.570 4.676738
57.575 4.812884
57.580 4.738024
57.585 4.358894
57.590 4.021878
57.595 4.077493
57.600 3.790438
57.605 3.487915
57.610 3.368437
57.615 3.564198
57.620 3.802641
57.625 3.90142
57.630 4.107914
57.635 4.398372
57.640 4.605049
57.645 4.488982
57.650 4.59021
57.655 4.607041
57.660 4.540434
57.665 4.534808
57.670 4.559506
57.675 4.479931
57.680 4.431834
57.685 4.441822
57.690 4.707177
57.695 4.362214
57.700 4.068824
57.705 4.298028
57.710 4.418243
57.715 4.517013
57.720 4.524991
57.725 4.440355
57.730 4.686173
57.735 4.661042
57.740 4.44647
57.745 4.254565
57.750 4.030797
57.755 3.904772
57.760 3.984321
57.765 4.072824
57.770 3.955577
57.775 3.751826
57.780 3.834504
57.785 3.80883
57.790 3.694759
57.795 3.665432
57.800 3.820264
57.805 3.974935
57.810 4.352767
57.815 4.362442
57.820 4.618351
57.825 4.570109
57.830 4.572795
57.835 4.530193
57.840 4.731513
57.845 4.612051
57.850 4.873263
57.855 4.85267
57.860 5.031626
57.865 5.241914
57.870 4.961984
57.875 4.823617
57.880 4.810371
57.885 4.573851
57.890 4.438849
57.895 4.313126
57.900 4.380562
57.905 4.622218
57.910 4.522772
57.915 4.528939
57.920 4.639759
57.925 4.600656
57.930 4.646111
57.935 4.391166
57.940 4.031665
57.945 3.789446
57.950 3.601474
57.955 3.725309
57.960 3.777127
57.965 3.834181
57.970 4.20499
57.975 4.542899
57.980 4.776396
57.985 4.775104
57.990 5.11726
57.995 5.090565
58.000 4.900901
58.005 4.475
58.010 4.745139
58.015 4.783354
58.020 4.9758
58.025 4.848036
58.030 4.835632
58.035 4.873791
58.040 5.148466
58.045 4.7618
58.050 4.784316
58.055 4.439177
58.060 4.178638
58.065 4.114066
58.070 4.037798
58.075 3.794254
58.080 3.986284
58.085 3.807065
58.090 4.094026
58.095 4.584204
58.100 4.951351
58.105 5.121232
58.110 5.131919
58.115 4.927747
58.120 4.880498
58.125 4.419739
58.130 3.885944
58.135 3.590558
58.140 3.541826
58.145 3.876184
58.150 4.17315
58.155 4.291685
58.160 4.497441
58.165 4.642146
58.170 4.629333
58.175 4.374113
58.180 4.061884
58.185 3.837546
58.190 3.785502
58.195 3.75227
58.200 3.918575
58.205 3.776213
58.210 3.888787
58.215 3.80874
58.220 4.01433
58.225 4.329415
58.230 4.163703
58.235 4.03717
58.240 4.443548
58.245 4.68098
58.250 4.785209
58.255 4.57811
58.260 4.507697
58.265 4.620154
58.270 4.544867
58.275 4.26798
58.280 3.847668
58.285 3.744866
58.290 3.719965
58.295 3.554285
58.300 3.381423
58.305 3.495348
58.310 3.959895
58.315 4.336949
58.320 4.431715
58.325 4.3952
58.330 4.312715
58.335 4.511914
58.340 4.186065
58.345 3.532924
58.350 3.55659
58.355 3.632902
58.360 3.79609
58.365 4.154035
58.370 4.300611
58.375 4.570873
58.380 4.669254
58.385 4.662892
58.390 4.670152
58.395 4.667791
58.400 4.631025
58.405 4.519972
58.410 4.600818
58.415 4.617007
58.420 4.546846
58.425 4.430454
58.430 4.262072
58.435 4.199337
58.440 4.214859
58.445 4.169115
58.450 4.255223
58.455 4.256221
58.460 4.517948
58.465 4.753756
58.470 4.973469
58.475 4.921392
58.480 4.957428
58.485 4.988679
58.490 5.127278
58.495 5.08694
58.500 5.169374
58.505 4.926311
58.510 5.115362
58.515 5.060404
58.520 4.917131
58.525 4.717284
58.530 4.467517
58.535 4.360097
58.540 4.457379
58.545 4.455763
58.550 4.558642
58.555 4.81476
58.560 4.987671
58.565 5.07395
58.570 4.985812
58.575 5.011506
58.580 5.370731
58.585 5.517036
58.590 5.348967
58.595 5.28761
58.600 5.162249
58.605 5.272682
58.610 4.998013
58.615 4.579764
58.620 4.282183
58.625 4.36507
58.630 4.253625
58.635 4.633662
58.640 4.629882
58.645 4.555114
58.650 4.622471
58.655 4.59456
58.660 4.642465
58.665 4.820335
58.670 4.43187
58.675 4.423937
58.680 4.693018
58.685 4.667754
58.690 5.090418
58.695 4.954962
58.700 4.941719
58.705 5.071458
58.710 5.051347
58.715 5.167727
58.720 5.213212
58.725 4.762106
58.730 4.562102
58.735 4.611627
58.740 4.433872
58.745 4.109666
58.750 3.942283
58.755 3.95714
58.760 4.016385
58.765 3.820338
58.770 3.913653
58.775 4.084974
58.780 4.353744
58.785 4.293004
58.790 4.100184
58.795 4.468016
58.800 4.688521
58.805 4.582607
58.810 4.64319
58.815 4.474174
58.820 4.337944
58.825 4.236493
58.830 3.78698
58.835 3.927392
58.840 3.876351
58.845 3.881753
58.850 3.881105
58.855 4.298878
58.860 4.450091
58.865 4.686007
58.870 4.398423
58.875 4.410856
58.880 4.32118
58.885 4.61069
58.890 4.66502
58.895 4.82502
58.900 4.942987
58.905 4.945234
58.910 4.927023
58.915 5.213437
58.920 4.801425
58.925 4.600459
58.930 4.261965
58.935 4.184457
58.940 4.041123
58.945 3.711707
58.950 3.443655
58.955 3.553671
58.960 3.521127
58.965 3.748113
58.970 3.551586
58.975 3.492496
58.980 3.80028
58.985 4.159317
58.990 4.307815
58.995 4.402487
59.000 4.226922
59.005 4.490985
59.010 4.859175
59.015 5.098484
59.020 5.107714
59.025 4.917583
59.030 4.989647
59.035 5.242134
59.040 5.477337
59.045 5.864525
59.050 5.633255
59.055 5.649679
59.060 5.726142
59.065 5.53073
59.070 5.305996
59.075 5.534672
59.080 5.658319
59.085 5.434211
59.090 5.440529
59.095 5.434408
59.100 5.91533
59.105 6.060413
59.110 5.69008
59.115 5.095169
59.120 4.84948
59.125 4.665942
59.130 4.649266
59.135 4.562456
59.140 4.624244
59.145 4.738081
59.150 5.369524
59.155 5.756371
59.160 5.795437
59.165 5.610855
59.170 5.595981
59.175 5.811127
59.180 5.527683
59.185 5.348441
59.190 5.184054
59.195 5.12816
59.200 5.237665
59.205 4.899327
59.210 4.452339
59.215 4.450843
59.220 4.251929
59.225 4.173202
59.230 4.180907
59.235 4.216769
59.240 4.254812
59.245 4.394855
59.250 4.244423
59.255 4.470478
59.260 4.918648
59.265 4.934112
59.270 4.80204
59.275 4.804128
59.280 4.82018
59.285 4.654652
59.290 4.442558
59.295 4.117748
59.300 4.078784
59.305 4.290173
59.310 4.19119
59.315 4.371025
59.320 4.392835
59.325 4.53861
59.330 4.890594
59.335 4.817418
59.340 4.610341
59.345 4.665845
59.350 4.576895
59.355 5.000174
59.360 5.183714
59.365 4.860839
59.370 4.853713
59.375 4.929881
59.380 4.775121
59.385 4.81076
59.390 4.540673
59.395 4.550714
59.400 4.967535
59.405 4.992793
59.410 5.155374
59.415 5.518209
59.420 5.578522
59.425 5.674132
59.430 5.539178
59.435 5.481456
59.440 5.359083
59.445 5.136425
59.450 4.925282
59.455 4.915401
59.460 5.235186
59.465 4.924628
59.470 4.693388
59.475 5.001731
59.480 5.071677
59.485 4.913255
59.490 4.892115
59.495 4.686526
59.500 4.88737
59.505 5.026951
59.510 4.857598
59.515 4.921535
59.520 4.95655
59.525 4.646431
59.530 4.704202
59.535 4.972385
59.540 4.915659
59.545 5.06553
59.550 4.899071
59.555 4.99824
59.560 5.367457
59.565 5.144554
59.570 4.979728
59.575 5.151231
59.580 5.270056
59.585 5.478781
59.590 5.279815
59.595 5.006966
59.600 4.752401
59.605 4.869096
59.610 4.571088
59.615 4.245691
59.620 4.390221
59.625 4.460588
59.630 4.474154
59.635 4.547009
59.640 4.477336
59.645 4.637938
59.650 4.877978
59.655 4.813273
59.660 4.770604
59.665 4.859369
59.670 4.822057
59.675 4.804665
59.680 4.794114
59.685 4.237086
59.690 4.192505
59.695 4.608712
59.700 5.230167
59.705 5.273961
59.710 5.021358
59.715 4.904467
59.720 5.023769
59.725 5.138427
59.730 4.866116
59.735 4.330225
59.740 4.41466
59.745 4.410782
59.750 4.421435
59.755 4.687252
59.760 4.513982
59.765 4.415977
59.770 4.432309
59.775 4.649639
59.780 4.81688
59.785 5.0796
59.790 4.759817
59.795 4.577627
59.800 4.60732
59.805 4.473221
59.810 4.507064
59.815 4.799733
59.820 5.004046
59.825 5.278491
59.830 5.389464
59.835 5.184064
59.840 5.030302
59.845 4.63801
59.850 4.514392
59.855 4.459654
59.860 4.517345
59.865 4.540377
59.870 4.704458
59.875 4.821907
59.880 5.039555
59.885 4.924199
59.890 4.73534
59.895 4.910758
59.900 5.023781
59.905 4.892182
59.910 4.55477
59.915 4.426413
59.920 4.22672
59.925 4.22028
59.930 4.295209
59.935 4.427722
59.940 4.385584
59.945 4.569108
59.950 4.550526
59.955 4.830364
59.960 4.77443
59.965 4.461417
59.970 4.533056
59.975 4.74121
59.980 4.985551
59.985 5.067256
59.990 5.215782
59.995 5.308502
60.000 5.330389
60.005 5.207338
60.010 5.210652
60.015 5.135509
60.020 5.092535
60.025 4.901397
60.030 5.087408
60.035 5.168605
60.040 5.25072
60.045 5.446023
60.050 5.294263
60.055 5.02488
60.060 5.081248
60.065 4.69976
60.070 4.667536
60.075 4.600521
60.080 4.186385
60.085 4.032053
60.090 4.09353
60.095 3.707481
60.100 4.000731
60.105 3.92023
60.110 3.836521
60.115 3.9929
60.120 4.338112
60.125 4.418466
60.130 4.885619
60.135 4.768609
60.140 4.999601
60.145 5.324887
60.150 5.503665
60.155 5.409404
60.160 5.346247
60.165 5.385573
60.170 5.322009
60.175 4.962662
60.180 4.645711
60.185 4.913645
60.190 5.038051
60.195 5.022794
60.200 4.793612
60.205 4.61259
60.210 4.496862
60.215 4.40604
60.220 3.983666
60.225 4.09047
60.230 4.146081
60.235 4.237137
60.240 4.591542
60.245 4.741441
60.250 4.761046
60.255 4.95587
60.260 4.910445
60.265 4.835474
60.270 4.742501
60.275 4.773839
60.280 5.151338
60.285 5.18279
60.290 4.915605
60.295 4.917783
60.300 5.016891
60.305 4.637514
60.310 4.391485
60.315 4.400871
60.320 4.553524
60.325 4.655403
60.330 4.923886
60.335 4.886391
60.340 5.089958
60.345 5.158541
60.350 5.158083
60.355 5.136132
60.360 5.053896
60.365 4.764273
60.370 4.759634
60.375 4.661599
60.380 4.512808
60.385 4.273215
60.390 4.258389
60.395 4.285507
60.400 4.175823
60.405 4.095531
60.410 4.076499
60.415 4.281853
60.420 4.52653
60.425 4.535902
60.430 4.561795
60.435 4.644983
60.440 4.820376
60.445 4.995235
60.450 4.972126
60.455 5.073931
60.460 4.932238
60.465 4.973952
60.470 5.321984
60.475 5.454071
60.480 5.372762
60.485 5.1719
60.490 5.13193
60.495 5.315509
60.500 5.163938
60.505 4.690143
60.510 4.527672
60.515 4.686865
60.520 4.932895
60.525 4.821719
60.530 4.750361
60.535 5.1197
60.540 5.276268
60.545 5.617305
60.550 5.536758
60.555 5.311463
60.560 5.429443
60.565 5.42094
60.570 5.192267
60.575 5.431971
60.580 4.997481
60.585 5.274634
60.590 5.363711
60.595 5.310049
60.600 5.606844
60.605 5.571862
60.610 5.285933
60.615 5.423279
60.620 5.16453
60.625 5.005051
60.630 5.044964
60.635 4.902977
60.640 4.841922
60.645 5.003089
60.650 4.786806
60.655 4.654999
60.660 4.698719
60.665 4.640653
60.670 4.501922
60.675 4.179015
60.680 4.315482
60.685 4.25931
60.690 4.44696
60.695 4.552708
60.700 4.459982
60.705 4.448627
60.710 4.818534
60.715 4.785549
60.720 4.846478
60.725 4.856172
60.730 4.921041
60.735 5.053027
60.740 5.066692
60.745 4.855979
60.750 4.794352
60.755 4.797953
60.760 4.716872
60.765 4.771935
60.770 4.657659
60.775 4.848545
60.780 4.938819
60.785 4.96299
60.790 4.768058
60.795 4.821224
60.800 4.609945
60.805 4.63412
60.810 4.90813
60.815 4.916533
60.820 5.125243
60.825 5.495219
60.830 5.512954
60.835 5.564336
60.840 5.653812
60.845 5.256813
60.850 5.22856
60.855 5.314831
60.860 5.198965
60.865 5.245612
60.870 5.387653
60.875 5.330978
60.880 5.433497
60.885 5.578473
60.890 5.194157
60.895 5.102037
60.900 5.012293
60.905 4.739913
60.910 4.430882
60.915 4.448792
60.920 4.170618
60.925 4.486482
60.930 4.616139
60.935 4.481428
60.940 4.525385
60.945 4.801147
60.950 4.734416
60.955 4.779013
60.960 4.835521
60.965 5.151371
60.970 5.29234
60.975 5.287241
60.980 5.196475
60.985 5.404696
60.990 5.857255
60.995 5.624114
61.000 5.23209
61.005 5.121133
61.010 5.421043
61.015 5.387782
61.020 4.927485
61.025 4.738692
61.030 4.848083
61.035 4.969758
61.040 5.228366
61.045 5.24727
61.050 5.359562
61.055 5.451103
61.060 5.259509
61.065 5.352054
61.070 5.233638
61.075 4.760443
61.080 4.612627
61.085 4.431066
61.090 4.47016
61.095 4.471014
61.100 4.28954
61.105 4.6605
61.110 4.940019
61.115 4.796406
61.120 5.010119
61.125 5.350785
61.130 5.395525
61.135 5.425929
61.140 5.206503
61.145 5.293322
61.150 5.454485
61.155 5.374712
61.160 5.22893
61.165 5.123472
61.170 4.858272
61.175 4.809417
61.180 4.794022
61.185 4.784493
61.190 4.828212
61.195 4.904393
61.200 5.089834
61.205 5.55625
61.210 5.740576
61.215 5.709173
61.220 5.740657
61.225 5.479962
61.230 5.285569
61.235 5.116496
61.240 4.786394
61.245 4.845617
61.250 4.935417
61.255 5.212806
61.260 5.658836
61.265 5.937743
61.270 5.803319
61.275 5.750575
61.280 5.67297
61.285 5.686079
61.290 5.290284
61.295 4.742455
61.300 4.466025
61.305 4.803373
61.310 4.730214
61.315 4.919985
61.320 4.80123
61.325 5.013704
61.330 5.391461
61.335 5.541471
61.340 5.479349
61.345 5.611299
61.350 5.493655
61.355 5.592237
61.360 5.502528
61.365 5.66677
61.370 5.703862
61.375 5.534446
61.380 5.471437
61.385 5.335518
61.390 5.416751
61.395 5.413382
61.400 5.206128
61.405 5.332878
61.410 5.785146
61.415 5.782104
61.420 5.789845
61.425 5.621984
61.430 5.69304
61.435 5.687194
61.440 5.290406
61.445 4.83566
61.450 4.935775
61.455 5.238864
61.460 5.271957
61.465 5.030713
61.470 4.865832
61.475 4.884184
61.480 4.816129
61.485 4.583034
61.490 4.555273
61.495 4.646135
61.500 4.69782
61.505 4.808522
61.510 4.984367
61.515 5.189686
61.520 5.159443
61.525 4.757194
61.530 4.708788
61.535 4.808999
61.540 4.540585
61.545 4.8354
61.550 4.899401
61.555 4.79896
61.560 5.131019
61.565 5.308321
61.570 5.311505
61.575 5.338745
61.580 4.847426
61.585 4.850026
61.590 5.030796
61.595 4.916415
61.600 4.668474
61.605 5.028271
61.610 5.196335
61.615 5.520322
61.620 5.39713
61.625 5.487678
61.630 5.622489
61.635 5.676183
61.640 5.245578
61.645 5.158196
61.650 4.750966
61.655 4.691163
61.660 4.783313
61.665 4.869986
61.670 5.003174
61.675 5.152697
61.680 5.398425
61.685 5.505894
61.690 5.532022
61.695 5.143478
61.700 4.936131
61.705 4.759669
61.710 4.810381
61.715 4.840467
61.720 5.014163
61.725 5.242763
61.730 5.530233
61.735 5.660135
61.740 5.715807
61.745 5.686621
61.750 5.70282
61.755 5.799618
61.760 5.80267
61.765 5.610028
61.770 5.530392
61.775 5.778911
61.780 5.826237
61.785 5.500349
61.790 5.275842
61.795 5.089681
61.800 5.026608
61.805 5.119829
61.810 4.734372
61.815 4.619061
61.820 4.920906
61.825 5.030802
61.830 4.977879
61.835 5.054206
61.840 5.130361
61.845 5.321193
61.850 5.230983
61.855 5.375573
61.860 5.418231
61.865 5.566016
61.870 5.541093
61.875 5.301229
61.880 5.317845
61.885 5.091749
61.890 4.827586
61.895 5.05709
61.900 5.153588
61.905 5.097376
61.910 4.931959
61.915 4.946574
61.920 5.295301
61.925 5.586218
61.930 5.121004
61.935 5.138643
61.940 5.450547
61.945 5.696854
61.950 5.857532
61.955 5.706745
61.960 5.588654
61.965 6.036222
61.970 6.013047
61.975 5.881187
61.980 5.684406
61.985 5.386305
61.990 5.157525
61.995 5.153699
62.000 5.006484
62.005 4.996359
62.010 5.184274
62.015 5.234479
62.020 5.27705
62.025 5.685922
62.030 5.610082
62.035 5.254771
62.040 5.352415
62.045 5.283135
62.050 5.298191
62.055 5.48854
62.060 5.32944
62.065 5.503803
62.070 5.865252
62.075 5.713181
62.080 5.632677
62.085 5.733568
62.090 5.605371
62.095 5.501127
62.100 5.177842
62.105 4.955451
62.110 5.206662
62.115 5.365232
62.120 5.439189
62.125 5.38655
62.130 5.349866
62.135 5.603022
62.140 5.897317
62.145 5.616551
62.150 5.405477
62.155 5.021273
62.160 5.145153
62.165 5.401361
62.170 5.045965
62.175 5.015778
62.180 4.843326
62.185 4.78852
62.190 5.093799
62.195 4.955151
62.200 4.902783
62.205 4.986905
62.210 4.566874
62.215 4.776291
62.220 5.035404
62.225 4.859861
62.230 4.969184
62.235 5.103398
62.240 5.198132
62.245 5.433888
62.250 5.236851
62.255 5.008238
62.260 5.097817
62.265 5.285301
62.270 5.372474
62.275 5.700432
62.280 5.400389
62.285 5.509702
62.290 5.637017
62.295 5.789031
62.300 5.506423
62.305 5.120985
62.310 4.922874
62.315 5.112346
62.320 5.186172
62.325 5.248131
62.330 5.184707
62.335 5.061866
62.340 5.133579
62.345 5.621831
62.350 5.720072
62.355 5.466403
62.360 5.250065
62.365 5.047265
62.370 5.387157
62.375 5.16054
62.380 4.802732
62.385 4.752942
62.390 4.986933
62.395 5.279826
62.400 5.276136
62.405 4.83294
62.410 5.029364
62.415 5.141643
62.420 5.128424
62.425 5.352829
62.430 5.350086
62.435 5.431388
62.440 5.62799
62.445 5.65514
62.450 5.633985
62.455 5.556444
62.460 5.437352
62.465 5.448072
62.470 5.699268
62.475 5.820004
62.480 6.167986
62.485 6.037474
62.490 6.270571
62.495 6.143678
62.500 6.305199
62.505 6.151932
62.510 6.013548
62.515 5.769048
62.520 5.486473
62.525 4.989813
62.530 4.633316
62.535 4.19155
62.540 4.266702
62.545 4.480591
62.550 4.423502
62.555 4.806549
62.560 5.209374
62.565 5.52313
62.570 5.789749
62.575 5.940446
62.580 5.626906
62.585 5.496315
62.590 5.689385
62.595 5.764781
62.600 5.666299
62.605 5.673546
62.610 5.649613
62.615 5.999273
62.620 6.181035
62.625 5.940689
62.630 5.873967
62.635 6.091106
62.640 5.920907
62.645 5.723773
62.650 5.756052
62.655 5.985866
62.660 6.02114
62.665 6.180089
62.670 6.091706
62.675 6.064447
62.680 6.176009
62.685 5.950355
62.690 5.588061
62.695 5.637932
62.700 5.422241
62.705 5.588064
62.710 5.62558
62.715 5.687398
62.720 5.670389
62.725 5.966247
62.730 5.852741
62.735 5.86613
62.740 5.410057
62.745 5.629794
62.750 5.763262
62.755 5.748765
62.760 5.710576
62.765 5.624039
62.770 5.55761
62.775 5.620993
62.780 5.204332
62.785 4.888221
62.790 4.924448
62.795 5.490749
62.800 6.067128
62.805 6.331877
62.810 6.51518
62.815 6.657974
62.820 6.841288
62.825 6.817829
62.830 6.530747
62.835 6.186592
62.840 6.029719
62.845 6.035534
62.850 5.963082
62.855 6.234519
62.860 6.223176
62.865 5.596668
62.870 5.625832
62.875 5.923663
62.880 6.248971
62.885 6.461138
62.890 6.296912
62.895 6.047533
62.900 5.97501
62.905 5.943793
62.910 5.564953
62.915 5.487479
62.920 5.150187
62.925 4.862761
62.930 5.23652
62.935 5.633934
62.940 5.736794
62.945 5.681166
62.950 5.693964
62.955 6.08606
62.960 6.118067
62.965 5.869411
62.970 5.628395
62.975 5.602549
62.980 5.740146
62.985 5.761189
62.990 5.535504
62.995 5.76906
63.000 5.641952
63.005 5.510879
63.010 5.148732
63.015 4.798449
63.020 4.419721
63.025 4.308486
63.030 4.245115
63.035 4.382964
63.040 4.223004
63.045 4.409046
63.050 4.512322
63.055 4.459797
63.060 4.616436
63.065 4.520313
63.070 4.463184
63.075 4.474019
63.080 4.574818
63.085 4.75086
63.090 4.824004
63.095 4.567741
63.100 4.409672
63.105 4.850736
63.110 5.013274
63.115 5.109932
63.120 4.984533
63.125 5.177866
63.130 5.515919
63.135 5.779837
63.140 5.394269
63.145 5.483213
63.150 5.389331
63.155 5.4736
63.160 5.465239
63.165 5.452061
63.170 5.422858
63.175 5.239242
63.180 5.192885
63.185 5.105947
63.190 5.110036
63.195 5.003399
63.200 4.776758
63.205 4.808029
63.210 5.018164
63.215 4.747
63.220 4.725437
63.225 4.587631
63.230 4.562678
63.235 4.754067
63.240 4.596538
63.245 4.77855
63.250 5.234202
63.255 5.5892
63.260 6.294849
63.265 6.711169
63.270 6.440067
63.275 6.541595
63.280 6.427123
63.285 6.406108
63.290 5.900189
63.295 5.604743
63.300 5.742013
63.305 5.936875
63.310 5.980941
63.315 6.393879
63.320 6.249698
63.325 6.382348
63.330 6.256307
63.335 5.796299
63.340 5.98528
63.345 5.726165
63.350 5.140593
63.355 4.787149
63.360 4.80295
63.365 4.803373
63.370 4.657059
63.375 4.291827
63.380 4.512738
63.385 5.003673
63.390 5.381685
63.395 5.191014
63.400 5.102654
63.405 5.143167
63.410 5.379392
63.415 5.111898
63.420 5.027487
63.425 5.047709
63.430 5.471734
63.435 5.632628
63.440 5.689147
63.445 5.423753
63.450 5.257607
63.455 5.207823
63.460 5.29111
63.465 4.986866
63.470 4.9826
63.475 4.815215
63.480 4.907747
63.485 5.075891
63.490 5.000362
63.495 4.880355
63.500 5.056723
63.505 5.180539
63.510 5.200441
63.515 4.977444
63.520 5.051339
63.525 4.992375
63.530 5.175605
63.535 5.263117
63.540 5.154431
63.545 5.21184
63.550 5.31641
63.555 5.223661
63.560 5.114272
63.565 4.897129
63.570 4.659453
63.575 4.890386
63.580 5.183424
63.585 5.512738
63.590 5.790688
63.595 5.81231
63.600 5.874274
63.605 5.718039
63.610 5.501205
63.615 5.494151
63.620 5.365971
63.625 5.131101
63.630 4.953684
63.635 4.99004
63.640 5.314511
63.645 5.400168
63.650 5.324099
63.655 5.332275
63.660 5.534781
63.665 6.093369
63.670 6.341071
63.675 6.104203
63.680 6.245043
63.685 6.221554
63.690 6.237492
63.695 6.133818
63.700 5.699114
63.705 5.314505
63.710 5.47369
63.715 5.321291
63.720 5.354816
63.725 5.386167
63.730 5.29295
63.735 5.788234
63.740 5.763168
63.745 5.738377
63.750 5.773518
63.755 5.827469
63.760 5.631487
63.765 5.930754
63.770 5.818119
63.775 6.196329
63.780 6.137406
63.785 6.25887
63.790 6.191172
63.795 6.294602
63.800 6.235008
63.805 6.108673
63.810 6.19738
63.815 6.378055
63.820 6.427956
63.825 6.566028
63.830 6.837211
63.835 7.164077
63.840 7.322838
63.845 6.916972
63.850 6.563433
63.855 6.269668
63.860 5.988878
63.865 5.868766
63.870 5.311384
63.875 5.264532
63.880 5.074044
63.885 5.224076
63.890 5.544828
63.895 5.695138
63.900 5.25879
63.905 5.40483
63.910 5.168365
63.915 5.508099
63.920 5.467768
63.925 5.496644
63.930 5.595978
63.935 5.572554
63.940 5.384122
63.945 5.168448
63.950 5.101537
63.955 4.937732
63.960 4.866789
63.965 4.860859
63.970 5.042119
63.975 5.251224
63.980 5.547447
63.985 5.715603
63.990 5.661684
63.995 5.256787
64.000 5.190679
64.005 5.051912
64.010 4.788351
64.015 4.755894
64.020 4.384265
64.025 4.63818
64.030 5.047898
64.035 4.966946
64.040 4.953192
64.045 5.262005
64.050 5.106668
64.055 5.230791
64.060 5.021375
64.065 4.928491
64.070 5.46455
64.075 5.563177
64.080 5.494234
64.085 5.635221
64.090 5.615827
64.095 5.710499
64.100 5.710726
64.105 5.351983
64.110 5.436642
64.115 5.241595
64.120 5.238171
64.125 5.260172
64.130 5.281361
64.135 5.204993
64.140 5.101308
64.145 5.025954
64.150 5.119595
64.155 5.005451
64.160 5.107833
64.165 5.318114
64.170 5.577589
64.175 5.595726
64.180 5.489975
64.185 5.627462
64.190 5.626142
64.195 5.764551
64.200 5.692673
64.205 5.517764
64.210 5.443421
64.215 5.486564
64.220 5.580958
64.225 5.581635
64.230 5.343913
64.235 5.161121
64.240 5.610857
64.245 5.863442
64.250 5.89487
64.255 5.982499
64.260 5.732649
64.265 5.906607
64.270 5.955406
64.275 5.494194
64.280 5.447475
64.285 5.260756
64.290 4.915547
64.295 5.060194
64.300 4.997257
64.305 4.92126
64.310 4.833951
64.315 4.803214
64.320 4.994194
64.325 5.463712
64.330 5.444603
64.335 5.18245
64.340 5.19733
64.345 5.509737
64.350 5.760988
64.355 5.945754
64.360 5.840316
64.365 6.043331
64.370 6.552965
64.375 6.919059
64.380 6.729366
64.385 6.316119
64.390 6.229045
64.395 6.19956
64.400 5.947701
64.405 5.268082
64.410 4.77129
64.415 4.856102
64.420 4.728102
64.425 4.81988
64.430 4.961452
64.435 5.174744
64.440 5.744455
64.445 5.853423
64.450 6.183123
64.455 6.779647
64.460 6.501667
64.465 6.531116
64.470 6.375618
64.475 6.128098
64.480 6.350131
64.485 6.106959
64.490 5.937098
64.495 6.189291
64.500 6.190792
64.505 6.218155
64.510 6.472425
64.515 6.528887
64.520 6.760145
64.525 7.002692
64.530 7.26329
64.535 7.49591
64.540 7.701416
64.545 7.454694
64.550 7.377262
64.555 7.133245
64.560 6.91735
64.565 6.596068
64.570 6.270697
64.575 5.870084
64.580 5.706388
64.585 5.650891
64.590 5.363189
64.595 5.143232
64.600 5.177142
64.605 5.463086
64.610 5.915735
64.615 5.72164
64.620 5.628913
64.625 5.94838
64.630 6.166583
64.635 6.417809
64.640 6.433568
64.645 6.43976
64.650 6.443486
64.655 6.62501
64.660 6.43104
64.665 6.169693
64.670 5.924885
64.675 5.806365
64.680 5.881834
64.685 6.065514
64.690 5.923464
64.695 5.960584
64.700 6.125128
64.705 6.2836
64.710 6.22789
64.715 5.953207
64.720 5.834562
64.725 5.836035
64.730 6.112742
64.735 5.954902
64.740 5.439257
64.745 5.29624
64.750 5.217457
64.755 5.081886
64.760 4.981696
64.765 4.696634
64.770 4.543935
64.775 4.804564
64.780 4.942759
64.785 4.870533
64.790 5.234131
64.795 5.473635
64.800 5.351188
64.805 5.620863
64.810 5.446775
64.815 5.543988
64.820 5.729161
64.825 5.393756
64.830 5.271602
64.835 5.488882
64.840 5.688768
64.845 5.501944
64.850 5.515538
64.855 5.828897
64.860 6.256207
64.865 6.445366
64.870 6.403233
64.875 6.19361
64.880 6.025115
64.885 5.676671
64.890 5.603737
64.895 5.414524
64.900 5.245049
64.905 5.131409
64.910 5.130332
64.915 5.425889
64.920 5.568856
64.925 5.460826
64.930 5.45966
64.935 5.51232
64.940 5.43198
64.945 5.572561
64.950 5.805078
64.955 5.884709
64.960 5.878692
64.965 5.888363
64.970 5.840035
64.975 5.693428
64.980 5.46701
64.985 5.790655
64.990 5.967247
64.995 5.62625
65.000 5.7672
65.005 5.723828
65.010 6.008279
65.015 6.144886
65.020 5.79783
65.025 5.622594
65.030 5.819586
65.035 5.935707
65.040 5.873039
65.045 5.868824
65.050 5.934746
65.055 5.904006
65.060 5.987519
65.065 5.751336
65.070 5.485109
65.075 5.911628
65.080 5.785891
65.085 5.792904
65.090 6.269483
65.095 6.725731
65.100 6.983744
65.105 7.020182
65.110 6.910602
65.115 7.249465
65.120 7.105669
65.125 6.558466
65.130 6.35479
65.135 6.333527
65.140 6.356224
65.145 6.115544
65.150 5.943211
65.155 6.085897
65.160 5.944869
65.165 6.005206
65.170 5.84827
65.175 5.852257
65.180 5.9218
65.185 6.282004
65.190 6.517899
65.195 6.455726
65.200 5.897687
65.205 5.981004
65.210 6.317826
65.215 6.38477
65.220 5.767057
65.225 5.414884
65.230 5.307154
65.235 5.799424
65.240 5.797377
65.245 5.478217
65.250 5.434278
65.255 5.912126
65.260 5.984799
65.265 5.896722
65.270 5.549704
65.275 5.467085
65.280 5.148324
65.285 5.035049
65.290 5.106034
65.295 5.423491
65.300 5.525568
65.305 5.713793
65.310 5.987358
65.315 6.422515
65.320 6.442958
65.325 5.965777
65.330 5.837362
65.335 5.795988
65.340 5.790851
65.345 5.575652
65.350 5.450405
65.355 5.631914
65.360 5.849862
65.365 5.743642
65.370 5.863768
65.375 5.806602
65.380 5.970869
65.385 5.983329
65.390 5.804349
65.395 5.744874
65.400 5.67245
65.405 5.792028
65.410 5.9646
65.415 5.8383
65.420 5.608576
65.425 5.692857
65.430 5.849909
65.435 5.979553
65.440 5.969707
65.445 5.880402
65.450 5.857501
65.455 6.212881
65.460 6.24092
65.465 6.200695
65.470 5.998474
65.475 5.897378
65.480 5.752864
65.485 5.851624
65.490 6.006981
65.495 6.083588
65.500 6.136621
65.505 6.067365
65.510 5.729379
65.515 5.674298
65.520 5.818982
65.525 5.62703
65.530 5.182834
65.535 5.155002
65.540 5.447213
65.545 5.681893
65.550 5.62305
65.555 5.291443
65.560 5.453323
65.565 5.845917
65.570 5.968289
65.575 6.005566
65.580 6.119419
65.585 6.261533
65.590 6.403638
65.595 6.20143
65.600 5.956572
65.605 5.78724
65.610 5.796845
65.615 5.82386
65.620 5.95646
65.625 5.931498
65.630 5.941113
65.635 5.782974
65.640 5.956805
65.645 5.866373
65.650 5.77726
65.655 6.03273
65.660 5.723639
65.665 5.748631
65.670 6.053652
65.675 6.161971
65.680 5.886057
65.685 5.929496
65.690 5.872743
65.695 6.19201
65.700 6.141593
65.705 5.912297
65.710 5.751759
65.715 6.08427
65.720 5.867459
65.725 5.320383
65.730 5.016932
65.735 5.027981
65.740 5.152081
65.745 5.214607
65.750 5.066116
65.755 5.389126
65.760 5.74617
65.765 6.235387
65.770 6.440891
65.775 6.603333
65.780 6.44831
65.785 6.485849
65.790 6.371801
65.795 6.108139
65.800 5.634797
65.805 5.339494
65.810 5.129114
65.815 5.311991
65.820 5.475357
65.825 5.994627
65.830 6.145484
65.835 6.476702
65.840 6.556786
65.845 6.546731
65.850 6.663352
65.855 6.45549
65.860 6.116595
65.865 5.982883
65.870 5.857065
65.875 6.127339
65.880 6.205893
65.885 6.010561
65.890 5.573281
65.895 5.148494
65.900 5.159629
65.905 5.317514
65.910 5.122498
65.915 5.123691
65.920 5.212782
65.925 5.652053
65.930 6.112656
65.935 6.194061
65.940 6.041761
65.945 6.117547
65.950 6.14348
65.955 6.339218
65.960 6.296493
65.965 6.133283
65.970 6.111959
65.975 5.876278
65.980 5.539601
65.985 5.353767
65.990 5.47072
65.995 5.683991
66.000 5.67377
66.005 5.645068
66.010 5.91435
66.015 5.845951
66.020 5.980577
66.025 5.883716
66.030 5.643202
66.035 5.610441
66.040 5.497297
66.045 5.572877
66.050 5.848328
66.055 5.887011
66.060 5.770302
66.065 5.950337
66.070 6.178299
66.075 6.282859
66.080 6.278323
66.085 6.440232
66.090 6.209695
66.095 6.150924
66.100 5.972341
66.105 5.862247
66.110 6.128522
66.115 6.370762
66.120 6.290675
66.125 6.58324
66.130 6.937714
66.135 7.137565
66.140 7.004002
66.145 6.572845
66.150 6.391089
66.155 5.991941
66.160 5.857457
66.165 5.683613
66.170 5.651175
66.175 5.853248
66.180 5.620344
66.185 5.663455
66.190 5.751833
66.195 5.851071
66.200 5.720305
66.205 5.573771
66.210 5.55752
66.215 5.76407
66.220 5.913207
66.225 6.143494
66.230 6.105991
66.235 5.955247
66.240 5.904651
66.245 6.104275
66.250 6.53264
66.255 6.698335
66.260 6.65161
66.265 6.391162
66.270 6.643876
66.275 6.92297
66.280 6.671663
66.285 6.492818
66.290 6.100766
66.295 5.939738
66.300 6.264011
66.305 6.476186
66.310 6.450947
66.315 6.596716
66.320 6.385324
66.325 6.458543
66.330 6.267766
66.335 6.324943
66.340 6.32221
66.345 6.105681
66.350 5.871369
66.355 5.952194
66.360 6.146574
66.365 6.292749
66.370 5.929242
66.375 5.307797
66.380 5.28368
66.385 5.218918
66.390 4.899001
66.395 4.856105
66.400 4.761141
66.405 4.829873
66.410 5.330756
66.415 5.481336
66.420 5.795465
66.425 5.990977
66.430 6.206903
66.435 6.667216
66.440 6.854943
66.445 6.735028
66.450 7.089524
66.455 7.133739
66.460 7.102658
66.465 7.040541
66.470 6.816728
66.475 6.689194
66.480 6.515867
66.485 6.103343
66.490 6.15688
66.495 6.094025
66.500 6.093632
66.505 6.04433
66.510 5.929765
66.515 6.006066
66.520 5.99956
66.525 6.13241
66.530 6.291141
66.535 6.347878
66.540 6.422103
66.545 6.812027
66.550 6.678963
66.555 6.698437
66.560 6.567552
66.565 6.362212
66.570 5.969195
66.575 5.558556
66.580 5.407096
66.585 5.463467
66.590 5.609298
66.595 5.842323
66.600 6.08322
66.605 6.133426
66.610 6.457519
66.615 6.33508
66.620 6.150795
66.625 5.667159
66.630 5.07363
66.635 4.685828
66.640 4.798083
66.645 4.601299
66.650 4.815884
66.655 5.106262
66.660 5.681626
66.665 5.976782
66.670 6.289629
66.675 6.03109
66.680 6.28488
66.685 6.28314
66.690 6.309203
66.695 5.806056
66.700 5.654359
66.705 5.74252
66.710 6.162663
66.715 6.190879
66.720 5.828109
66.725 5.209599
66.730 5.513085
66.735 5.560728
66.740 5.261933
66.745 5.067912
66.750 5.105352
66.755 5.745701
66.760 6.430972
66.765 6.34585
66.770 6.456512
66.775 6.478033
66.780 6.230033
66.785 5.852868
66.790 5.432354
66.795 5.279228
66.800 5.360386
66.805 5.554135
66.810 5.443779
66.815 5.306162
66.820 5.482767
66.825 5.669113
66.830 5.31829
66.835 4.915047
66.840 4.693046
66.845 4.981916
66.850 5.809593
66.855 5.860336
66.860 5.858465
66.865 5.919975
66.870 6.212227
66.875 6.155188
66.880 6.12449
66.885 5.659816
66.890 5.536619
66.895 5.667452
66.900 5.935463
66.905 5.926886
66.910 5.964255
66.915 5.841422
66.920 6.174815
66.925 6.156578
66.930 6.0076
66.935 6.111153
66.940 6.180328
66.945 6.559546
66.950 6.563703
66.955 6.566936
66.960 6.928648
66.965 7.15929
66.970 7.130213
66.975 6.986423
66.980 6.833552
66.985 6.929909
66.990 6.843338
66.995 6.367131
67.000 5.8414
67.005 5.735676
67.010 5.778076
67.015 5.686378
67.020 5.350766
67.025 5.067267
67.030 5.210792
67.035 5.488337
67.040 5.879455
67.045 5.712808
67.050 5.602283
67.055 5.873159
67.060 5.815923
67.065 5.691462
67.070 5.443099
67.075 5.226732
67.080 5.727716
67.085 5.737343
67.090 5.419003
67.095 5.531015
67.100 5.646433
67.105 5.634142
67.110 5.363067
67.115 4.996754
67.120 5.29202
67.125 5.473225
67.130 5.639288
67.135 5.487026
67.140 5.33838
67.145 5.783617
67.150 5.899913
67.155 6.139654
67.160 6.63591
67.165 6.825389
67.170 7.265519
67.175 7.475988
67.180 7.580778
67.185 7.399624
67.190 6.971848
67.195 6.896603
67.200 6.803951
67.205 6.674769
67.210 6.748651
67.215 6.399651
67.220 6.553361
67.225 6.795704
67.230 6.636587
67.235 6.469895
67.240 6.69486
67.245 6.657617
67.250 6.736187
67.255 6.520335
67.260 6.507463
67.265 6.801115
67.270 6.788882
67.275 6.722689
67.280 6.974601
67.285 7.092275
67.290 7.081628
67.295 6.70813
67.300 6.461435
67.305 6.683692
67.310 6.659706
67.315 6.662766
67.320 6.702467
67.325 6.986895
67.330 7.406917
67.335 7.566348
67.340 7.414374
67.345 7.536688
67.350 7.398476
67.355 7.425131
67.360 7.178719
67.365 7.169893
67.370 7.324725
67.375 7.209837
67.380 6.876892
67.385 7.064681
67.390 6.941365
67.395 7.189509
67.400 6.823816
67.405 6.74672
67.410 6.925197
67.415 6.810326
67.420 6.333291
67.425 6.196881
67.430 6.19459
67.435 6.314953
67.440 5.962809
67.445 5.726667
67.450 5.685898
67.455 6.118822
67.460 6.170573
67.465 6.022878
67.470 5.816785
67.475 5.97692
67.480 6.26611
67.485 6.642032
67.490 6.827569
67.495 6.947197
67.500 7.022003
67.505 7.100433
67.510 7.593709
67.515 7.487156
67.520 7.409458
67.525 6.952006
67.530 6.639958
67.535 6.613303
67.540 6.612804
67.545 6.207865
67.550 6.011977
67.555 5.909412
67.560 6.067276
67.565 6.194958
67.570 5.903237
67.575 5.612014
67.580 5.835567
67.585 6.224771
67.590 6.330366
67.595 6.444251
67.600 6.423191
67.605 6.622409
67.610 6.988432
67.615 7.006111
67.620 7.007352
67.625 7.038638
67.630 7.023983
67.635 7.084466
67.640 6.825834
67.645 6.38859
67.650 6.255997
67.655 5.9413
67.660 5.876341
67.665 6.112163
67.670 6.187067
67.675 6.541992
67.680 6.820797
67.685 7.041661
67.690 7.507855
67.695 7.625759
67.700 7.416693
67.705 7.247449
67.710 6.811686
67.715 6.566839
67.720 6.074469
67.725 6.112255
67.730 6.134365
67.735 6.143581
67.740 6.365391
67.745 6.634485
67.750 6.802721
67.755 6.761262
67.760 6.337492
67.765 6.364851
67.770 6.348362
67.775 6.513004
67.780 6.676487
67.785 6.813719
67.790 7.301367
67.795 7.261932
67.800 7.081308
67.805 7.184287
67.810 7.168459
67.815 7.025335
67.820 6.775936
67.825 6.522114
67.830 6.640844
67.835 6.440309
67.840 6.249991
67.845 6.572339
67.850 6.634604
67.855 6.638171
67.860 6.520246
67.865 6.486399
67.870 6.581833
67.875 7.217363
67.880 7.058092
67.885 6.907403
67.890 6.938478
67.895 6.972715
67.900 7.101116
67.905 7.1601
67.910 6.744432
67.915 6.575478
67.920 6.639578
67.925 6.325085
67.930 6.492013
67.935 6.483004
67.940 6.155424
67.945 6.121551
67.950 6.158541
67.955 6.122663
67.960 6.47831
67.965 6.31905
67.970 6.239161
67.975 6.166156
67.980 5.835542
67.985 6.013311
67.990 6.274773
67.995 6.069909
68.000 6.085092
68.005 6.254708
68.010 6.673925
68.015 6.642381
68.020 6.451239
68.025 6.388841
68.030 6.433888
68.035 6.190175
68.040 6.009891
68.045 5.916721
68.050 5.953438
68.055 6.28883
68.060 6.498835
68.065 6.535334
68.070 6.889885
68.075 7.071916
68.080 7.131629
68.085 7.21926
68.090 6.959924
68.095 6.959249
68.100 7.150859
68.105 7.217501
68.110 7.180257
68.115 7.306299
68.120 7.271362
68.125 7.16032
68.130 6.843353
68.135 6.792597
68.140 6.743563
68.145 6.691773
68.150 6.716104
68.155 6.731592
68.160 7.00932
68.165 7.256801
68.170 7.15626
68.175 6.776299
68.180 6.662891
68.185 6.45704
68.190 6.277432
68.195 5.934272
68.200 5.47345
68.205 5.410552
68.210 5.620803
68.215 5.905566
68.220 5.937861
68.225 5.986884
68.230 6.273366
68.235 6.480589
68.240 6.375207
68.245 6.205587
68.250 5.605025
68.255 5.499609
68.260 5.31783
68.265 5.328846
68.270 5.364243
68.275 5.269276
68.280 5.068449
68.285 5.242752
68.290 5.357204
68.295 5.557523
68.300 5.300551
68.305 5.305112
68.310 5.650073
68.315 6.033657
68.320 6.374889
68.325 6.360859
68.330 6.337899
68.335 6.370182
68.340 6.465477
68.345 6.901997
68.350 7.045431
68.355 6.750737
68.360 6.966616
68.365 7.113617
68.370 7.117686
68.375 6.880982
68.380 6.526491
68.385 6.340087
68.390 6.261047
68.395 6.093226
68.400 5.749106
68.405 5.939649
68.410 5.987889
68.415 5.713098
68.420 5.774926
68.425 6.049655
68.430 6.094365
68.435 6.02164
68.440 5.921663
68.445 6.083885
68.450 6.05329
68.455 6.098504
68.460 5.966866
68.465 5.953793
68.470 6.030023
68.475 5.839861
68.480 5.518525
68.485 5.714919
68.490 6.305544
68.495 6.171664
68.500 6.154969
68.505 5.96928
68.510 5.991981
68.515 5.831549
68.520 5.331022
68.525 4.705537
68.530 4.957948
68.535 5.237308
68.540 5.677226
68.545 5.879403
68.550 6.440605
68.555 6.647788
68.560 6.75298
68.565 6.718991
68.570 7.061593
68.575 7.163543
68.580 6.922782
68.585 6.509356
68.590 6.700317
68.595 6.886853
68.600 6.422705
68.605 5.768815
68.610 5.484216
68.615 5.572328
68.620 6.002664
68.625 5.96491
68.630 6.156318
68.635 6.338911
68.640 6.519794
68.645 6.445328
68.650 6.631947
68.655 6.681602
68.660 6.354328
68.665 5.848834
68.670 5.854657
68.675 5.811975
68.680 6.351129
68.685 6.59461
68.690 6.358237
68.695 6.268932
68.700 6.519223
68.705 6.931561
68.710 7.099007
68.715 6.707222
68.720 6.793768
68.725 6.974929
68.730 7.532768
68.735 7.654723
68.740 7.203733
68.745 7.115779
68.750 6.689552
68.755 6.469719
68.760 6.207431
68.765 6.312908
68.770 6.438293
68.775 6.328591
68.780 6.513141
68.785 7.027485
68.790 6.639692
68.795 6.858442
68.800 6.456471
68.805 6.462919
68.810 6.548729
68.815 6.479711
68.820 6.713405
68.825 7.036043
68.830 7.101679
68.835 6.988158
68.840 6.839764
68.845 7.185579
68.850 7.156532
68.855 6.650171
68.860 6.616029
68.865 6.597604
68.870 6.664654
68.875 6.541073
68.880 6.306754
68.885 6.26311
68.890 6.415833
68.895 6.510666
68.900 6.595492
68.905 6.689531
68.910 7.062188
68.915 7.010699
68.920 7.174672
68.925 6.990843
68.930 6.956255
68.935 6.528472
68.940 6.511736
68.945 6.453501
68.950 6.256405
68.955 6.071067
68.960 5.983904
68.965 5.802186
68.970 6.373144
68.975 6.627492
68.980 6.5625
68.985 6.682929
68.990 6.776469
68.995 6.944823
69.000 7.455449
69.005 7.135743
69.010 7.11872
69.015 7.172256
69.020 7.289692
69.025 7.206329
69.030 7.144865
69.035 7.083176
69.040 7.160822
69.045 7.348219
69.050 7.517143
69.055 7.368171
69.060 7.561553
69.065 7.590189
69.070 7.499029
69.075 7.58703
69.080 6.82851
69.085 6.890234
69.090 7.171269
69.095 6.793854
69.100 6.655106
69.105 6.668546
69.110 6.665768
69.115 6.845918
69.120 6.388254
69.125 6.341479
69.130 6.845503
69.135 6.955794
69.140 6.943814
69.145 7.00333
69.150 7.004396
69.155 7.146433
69.160 7.39655
69.165 7.034342
69.170 6.728983
69.175 6.267102
69.180 6.198884
69.185 6.556344
69.190 6.535862
69.195 6.617977
69.200 6.700334
69.205 6.993976
69.210 7.537472
69.215 7.455037
69.220 7.39691
69.225 7.516865
69.230 7.329978
69.235 7.207403
69.240 7.135381
69.245 6.645849
69.250 6.947731
69.255 6.707291
69.260 6.550752
69.265 6.684645
69.270 7.140671
69.275 7.323714
69.280 7.177849
69.285 7.352929
69.290 7.499644
69.295 7.280429
69.300 6.902193
69.305 6.395172
69.310 6.406902
69.315 6.560999
69.320 6.211841
69.325 6.420005
69.330 6.257265
69.335 6.378662
69.340 6.669271
69.345 6.67813
69.350 6.526987
69.355 6.483311
69.360 6.439149
69.365 6.509558
69.370 6.646741
69.375 6.572132
69.380 7.046596
69.385 7.049495
69.390 6.950762
69.395 6.792165
69.400 6.892765
69.405 6.92997
69.410 6.64598
69.415 6.525409
69.420 6.714957
69.425 6.912858
69.430 7.169352
69.435 6.806923
69.440 6.759924
69.445 6.848165
69.450 6.598856
69.455 6.490265
69.460 6.045208
69.465 5.776934
69.470 5.857663
69.475 5.84856
69.480 5.99592
69.485 5.744802
69.490 5.898796
69.495 6.121595
69.500 6.515295
69.505 6.778922
69.510 7.086481
69.515 7.114122
69.520 7.412957
69.525 7.292578
69.530 7.04785
69.535 6.781915
69.540 6.714565
69.545 6.354457
69.550 6.273132
69.555 6.091849
69.560 6.361673
69.565 6.903857
69.570 7.013508
69.575 6.915576
69.580 7.060474
69.585 7.151975
69.590 6.750175
69.595 6.28548
69.600 6.045478
69.605 5.728985
69.610 5.499412
69.615 5.06693
69.620 4.909698
69.625 5.336789
69.630 5.482224
69.635 5.452791
69.640 5.731152
69.645 6.138277
69.650 6.334124
69.655 6.704154
69.660 6.660165
69.665 6.509087
69.670 6.521081
69.675 6.455051
69.680 6.484455
69.685 6.429001
69.690 6.152689
69.695 6.145584
69.700 6.248762
69.705 6.298203
69.710 6.426633
69.715 6.078969
69.720 6.20554
69.725 6.462623
69.730 6.688279
69.735 6.694759
69.740 6.631197
69.745 6.234055
69.750 6.179345
69.755 6.171983
69.760 5.869841
69.765 5.735442
69.770 5.683048
69.775 5.537339
69.780 5.968489
69.785 6.105838
69.790 5.914355
69.795 5.907079
69.800 5.649868
69.805 5.491449
69.810 5.467144
69.815 5.393975
69.820 5.332485
69.825 5.393702
69.830 5.671517
69.835 5.839176
69.840 5.799223
69.845 5.852407
69.850 5.757802
69.855 5.731333
69.860 5.885131
69.865 6.014604
69.870 5.943655
69.875 6.341803
69.880 6.557042
69.885 6.78642
69.890 6.780133
69.895 6.473504
69.900 6.352488
69.905 6.343625
69.910 6.099985
69.915 5.772048
69.920 5.471255
69.925 5.738357
69.930 5.842428
69.935 5.791291
69.940 5.71335
69.945 5.735031
69.950 6.162992
69.955 6.283366
69.960 5.868736
69.965 5.671535
69.970 5.909678
69.975 5.913121
69.980 5.756907
69.985 5.425654
69.990 5.313954
69.995 5.492752
70.000 5.606758
70.005 5.466359
70.010 5.598158
70.015 5.580214
70.020 5.931666
70.025 6.389481
70.030 6.70563
70.035 7.031734
70.040 7.25798
70.045 7.461489
70.050 7.432571
70.055 7.080845
70.060 6.782608
70.065 6.500064
70.070 6.379032
70.075 6.810168
70.080 6.949753
70.085 6.873447
70.090 6.805078
70.095 6.709334
70.100 7.077838
70.105 6.834877
70.110 6.123516
70.115 6.222249
70.120 6.454661
70.125 6.613488
70.130 6.507497
70.135 6.172909
70.140 6.515132
70.145 6.496248
70.150 6.852075
70.155 7.060662
70.160 7.101145
70.165 6.920029
70.170 6.873323
70.175 6.299368
70.180 6.378944
70.185 6.331597
70.190 6.746192
70.195 7.039528
70.200 7.507072
70.205 7.765292
70.210 8.65751
70.215 8.551726
70.220 8.026455
70.225 7.839763
70.230 7.853015
70.235 7.654696
70.240 7.168928
70.245 6.85507
70.250 7.1448
70.255 7.100152
70.260 6.812802
70.265 6.53847
70.270 6.639606
70.275 6.927285
70.280 6.838439
70.285 6.768927
70.290 7.10963
70.295 7.251324
70.300 7.295037
70.305 7.361675
70.310 6.981486
70.315 7.177281
70.320 7.400908
70.325 7.002588
70.330 6.66467
70.335 6.638815
70.340 6.60546
70.345 6.806922
70.350 6.649893
70.355 6.087794
70.360 6.066704
70.365 6.307851
70.370 6.469817
70.375 6.717766
70.380 6.751136
70.385 6.907315
70.390 6.957769
70.395 7.097611
70.400 7.00941
70.405 6.5748
70.410 6.370834
70.415 6.252242
70.420 6.05515
70.425 6.019392
70.430 6.010368
70.435 6.064597
70.440 6.48017
70.445 6.614213
70.450 6.545697
70.455 6.749486
70.460 6.818445
70.465 6.74955
70.470 6.638573
70.475 6.093859
70.480 6.149067
70.485 6.375066
70.490 6.334122
70.495 6.517881
70.500 6.712172
70.505 7.1361
70.510 7.541111
70.515 7.719233
70.520 7.652513
70.525 8.00913
70.530 8.246737
70.535 8.332425
70.540 8.091053
70.545 8.36598
70.550 8.131328
70.555 7.66622
70.560 7.365416
70.565 6.864115
70.570 6.686284
70.575 6.234857
70.580 6.390292
70.585 6.686779
70.590 7.088104
70.595 6.971515
70.600 6.67481
70.605 6.75189
70.610 6.707266
70.615 6.11812
70.620 5.901587
70.625 5.719613
70.630 5.945823
70.635 6.263587
70.640 5.818405
70.645 5.764606
70.650 5.777232
70.655 5.877504
70.660 5.75482
70.665 5.617074
70.670 5.709486
70.675 5.85759
70.680 6.1084
70.685 6.077437
70.690 5.981382
70.695 6.670964
70.700 6.7113
70.705 6.794033
70.710 6.743493
70.715 6.395908
70.720 6.335143
70.725 6.270211
70.730 5.610142
70.735 5.651169
70.740 5.653738
70.745 5.844381
70.750 6.357648
70.755 6.350263
70.760 6.501977
70.765 6.722184
70.770 6.672323
70.775 6.601733
70.780 6.678374
70.785 6.210629
70.790 6.068282
70.795 6.134545
70.800 6.149001
70.805 6.128192
70.810 5.909857
70.815 5.768192
70.820 6.312591
70.825 6.390033
70.830 6.142987
70.835 5.949434
70.840 6.03228
70.845 6.548499
70.850 6.403121
70.855 6.029325
70.860 5.934371
70.865 5.988561
70.870 6.133416
70.875 6.136517
70.880 6.117879
70.885 6.32279
70.890 6.447304
70.895 6.621789
70.900 6.803802
70.905 6.694416
70.910 6.656203
70.915 6.730348
70.920 6.663774
70.925 6.841449
70.930 6.786829
70.935 6.760069
70.940 6.897184
70.945 6.74861
70.950 6.785359
70.955 6.768367
70.960 6.480307
70.965 6.602551
70.970 6.615068
70.975 6.547518
70.980 6.460214
70.985 6.430833
70.990 6.22486
70.995 5.732596
71.000 5.380884
71.005 5.437529
71.010 5.536104
71.015 5.871261
71.020 5.716134
71.025 5.987068
71.030 6.226596
71.035 6.372983
71.040 6.235404
71.045 6.10537
71.050 5.985908
71.055 6.282341
71.060 6.774004
71.065 6.899554
71.070 6.527747
71.075 6.716506
71.080 6.757719
71.085 6.799211
71.090 6.511746
71.095 6.258302
71.100 6.462414
71.105 6.910344
71.110 7.127818
71.115 6.822515
71.120 6.54493
71.125 6.753374
71.130 6.886416
71.135 6.672783
71.140 6.208867
71.145 5.782521
71.150 5.71387
71.155 5.515415
71.160 5.224333
71.165 5.379973
71.170 5.434029
71.175 5.718433
71.180 5.90681
71.185 6.237592
71.190 6.170528
71.195 6.294766
71.200 6.322708
71.205 6.729401
71.210 6.708364
71.215 6.824139
71.220 6.816401
71.225 6.848242
71.230 6.396426
71.235 6.566422
71.240 6.219123
71.245 6.130582
71.250 6.022552
71.255 6.047713
71.260 6.214591
71.265 6.805185
71.270 6.937428
71.275 7.237888
71.280 7.377088
71.285 7.903005
71.290 7.922716
71.295 7.859311
71.300 7.336971
71.305 7.091747
71.310 7.178857
71.315 6.955865
71.320 6.753002
71.325 6.814678
71.330 6.773608
71.335 6.726793
71.340 6.60418
71.345 6.51966
71.350 6.310619
71.355 6.584619
71.360 6.711921
71.365 6.675472
71.370 6.547117
71.375 6.445358
71.380 6.683179
71.385 6.727672
71.390 6.558802
71.395 6.482593
71.400 6.387167
71.405 6.716991
71.410 6.618189
71.415 6.268425
71.420 6.196215
71.425 6.091358
71.430 5.912855
71.435 5.772953
71.440 5.830163
71.445 6.019753
71.450 5.99753
71.455 5.849651
71.460 5.860199
71.465 6.165839
71.470 6.45197
71.475 6.65222
71.480 6.693047
71.485 6.937569
71.490 7.330864
71.495 7.324833
71.500 6.854041
71.505 6.347621
71.510 5.705871
71.515 5.427984
71.520 5.499533
71.525 5.495157
71.530 5.5586
71.535 5.937684
71.540 6.21985
71.545 6.28115
71.550 6.302204
71.555 6.061722
71.560 6.027743
71.565 6.073469
71.570 5.762209
71.575 5.955083
71.580 6.094276
71.585 5.891066
71.590 5.669021
71.595 5.559859
71.600 5.755626
71.605 5.875607
71.610 6.126059
71.615 5.954661
71.620 6.589752
71.625 6.861814
71.630 7.172022
71.635 7.395182
71.640 7.322039
71.645 6.862441
71.650 6.872438
71.655 6.456869
71.660 6.212266
71.665 5.764034
71.670 4.974145
71.675 4.939249
71.680 5.396379
71.685 5.365837
71.690 5.310766
71.695 5.401374
71.700 5.933007
71.705 6.664939
71.710 6.581734
71.715 6.564118
71.720 6.924038
71.725 6.779076
71.730 6.905574
71.735 6.754669
71.740 6.353687
71.745 6.326327
71.750 6.024574
71.755 5.727078
71.760 5.745922
71.765 5.599917
71.770 5.523221
71.775 5.824222
71.780 5.897408
71.785 6.116573
71.790 6.263683
71.795 6.146702
71.800 6.121644
71.805 6.27721
71.810 6.327404
71.815 6.27337
71.820 6.215286
71.825 6.050738
71.830 5.987398
71.835 5.936668
71.840 5.725719
71.845 6.13974
71.850 6.336556
71.855 6.67659
71.860 6.587482
71.865 6.504959
71.870 6.743937
71.875 7.375648
71.880 6.909136
71.885 6.528983
71.890 5.983139
71.895 6.01739
71.900 6.07844
71.905 5.931118
71.910 5.150014
71.915 5.037501
71.920 5.186362
71.925 5.716952
71.930 6.194911
71.935 6.122244
71.940 6.257673
71.945 6.723026
71.950 6.874384
71.955 6.994703
71.960 6.924139
71.965 6.808333
71.970 6.874178
71.975 6.344895
71.980 6.366681
71.985 6.426018
71.990 6.09776
71.995 6.234896
72.000 6.237898
72.005 6.549553
72.010 6.68968
72.015 6.373584
72.020 6.428715
72.025 6.921819
72.030 7.030025
72.035 6.982866
72.040 6.927731
72.045 7.260879
72.050 7.653871
72.055 7.772924
72.060 7.24975
72.065 6.826469
72.070 6.596182
72.075 6.621475
72.080 6.306574
72.085 6.121205
72.090 6.260826
72.095 6.360771
72.100 6.408789
72.105 6.399091
72.110 6.461427
72.115 6.411014
72.120 6.258064
72.125 5.987842
72.130 6.068318
72.135 6.206826
72.140 6.302585
72.145 6.659735
72.150 6.827999
72.155 6.638824
72.160 6.821466
72.165 6.857689
72.170 6.751688
72.175 6.639555
72.180 6.707292
72.185 6.739798
72.190 6.875722
72.195 6.752152
72.200 6.308137
72.205 6.465815
72.210 6.392033
72.215 6.061425
72.220 6.109473
72.225 6.038922
72.230 6.25094
72.235 6.522343
72.240 6.385057
72.245 6.78549
72.250 7.319158
72.255 7.190781
72.260 7.056663
72.265 7.192956
72.270 6.902357
72.275 6.596771
72.280 5.79337
72.285 5.398571
72.290 5.517558
72.295 5.654612
72.300 5.589444
72.305 5.722642
72.310 5.81393
72.315 6.29505
72.320 6.654945
72.325 6.37985
72.330 6.078994
72.335 6.246001
72.340 6.302567
72.345 6.414761
72.350 5.945092
72.355 5.851242
72.360 6.190994
72.365 6.403648
72.370 6.460995
72.375 6.537111
72.380 6.535228
72.385 6.91676
72.390 6.950177
72.395 6.801584
72.400 6.620962
72.405 6.26813
72.410 6.074625
72.415 5.839511
72.420 5.192617
72.425 5.157454
72.430 5.20821
72.435 5.269737
72.440 5.216043
72.445 5.399199
72.450 5.790166
72.455 6.420054
72.460 6.33639
72.465 6.446304
72.470 6.779809
72.475 6.954428
72.480 6.685911
72.485 6.156581
72.490 5.686369
72.495 5.661437
72.500 5.466933
72.505 5.11464
72.510 4.985211
72.515 5.038099
72.520 5.445044
72.525 6.157982
72.530 5.984632
72.535 5.985146
72.540 6.454845
72.545 6.835837
72.550 7.246742
72.555 6.963622
72.560 6.521191
72.565 6.805195
72.570 6.834467
72.575 6.595114
72.580 6.592538
72.585 6.82457
72.590 7.116864
72.595 7.241485
72.600 7.202063
72.605 6.939935
72.610 6.800566
72.615 6.474658
72.620 5.981272
72.625 5.955907
72.630 6.042685
72.635 6.041556
72.640 6.407763
72.645 6.579846
72.650 6.464004
72.655 6.210446
72.660 5.74925
72.665 5.829625
72.670 6.248783
72.675 6.238054
72.680 6.149221
72.685 6.21154
72.690 6.322008
72.695 6.800429
72.700 6.764756
72.705 6.331678
72.710 6.340573
72.715 5.958218
72.720 5.86065
72.725 5.9338
72.730 5.405327
72.735 5.384299
72.740 5.34263
72.745 5.61951
72.750 6.177763
72.755 5.886154
72.760 5.732979
72.765 5.745108
72.770 5.795397
72.775 5.90427
72.780 5.620553
72.785 6.008824
72.790 6.290234
72.795 6.319639
72.800 6.53344
72.805 6.219536
72.810 6.175413
72.815 6.128832
72.820 5.970415
72.825 6.052105
72.830 5.990475
72.835 5.819551
72.840 6.272715
72.845 6.238718
72.850 6.333345
72.855 6.513946
72.860 6.865647
72.865 6.808506
72.870 6.628581
72.875 6.294282
72.880 6.00213
72.885 5.618802
72.890 5.277962
72.895 5.317606
72.900 5.865733
72.905 6.09386
72.910 6.261743
72.915 6.468487
72.920 6.663981
72.925 6.694281
72.930 6.318581
72.935 6.164659
72.940 6.179508
72.945 6.283945
72.950 6.346367
72.955 6.142151
72.960 6.181002
72.965 6.439206
72.970 6.375206
72.975 6.435811
72.980 6.28155
72.985 6.053785
72.990 6.335123
72.995 6.254279
73.000 6.39134
