!@!!GADDS PLOTSO FILE: Chi integration type
!@!!Title/SampleName: map-147
!@!!Comment: ?
!@!!User: Bruker Instrument Administrator
!@!!Site: University of Illinois Chicago
!@!!Frame: map-147_01_000.gfrm
!@!!Wavelengths    1.54184   1.54056   1.54439
!@!!Frame angles: 2Theta: 63.000 Omega: 50.000 Phi: 0.000 Chi: 90.000
!@!!Integration range: 2Theta: 53.000 to 73.000  Gamma: -105.000 to -75.000
!@!!Integration method: bin normalized
!@!N
!@!SS
!@!M
!@!L 0.0 0.0 0.0 0.0
!@!XDegrees
!@!YCounts
53.000 9.130313
53.005 8.862921
53.010 8.885146
53.015 8.507281
53.020 8.068104
53.025 8.441909
53.030 8.882664
53.035 8.924975
53.040 8.58413
53.045 8.798962
53.050 9.360291
53.055 9.654449
53.060 9.557966
53.065 9.45194
53.070 9.760736
53.075 9.930938
53.080 9.748757
53.085 9.966166
53.090 10.325994
53.095 10.09335
53.100 10.034459
53.105 10.061813
53.110 10.134183
53.115 9.888664
53.120 9.253821
53.125 8.951909
53.130 9.342088
53.135 9.388637
53.140 9.177099
53.145 9.159275
53.150 9.340632
53.155 9.733926
53.160 9.59629
53.165 9.143834
53.170 9.106836
53.175 9.041491
53.180 8.79318
53.185 8.960456
53.190 8.566576
53.195 8.455721
53.200 8.687893
53.205 9.040956
53.210 9.315941
53.215 9.567306
53.220 9.247739
53.225 8.90752
53.230 8.74483
53.235 8.762712
53.240 8.888979
53.245 8.91939
53.250 8.507281
53.255 8.847636
53.260 9.426614
53.265 9.333934
53.270 9.104057
53.275 9.051827
53.280 9.19165
53.285 9.416286
53.290 9.295915
53.295 8.935503
53.300 9.229138
53.305 9.11275
53.310 8.826017
53.315 8.500193
53.320 8.813144
53.325 8.843966
53.330 9.13081
53.335 9.234822
53.340 9.445825
53.345 9.857676
53.350 10.337636
53.355 10.665915
53.360 10.653795
53.365 10.695525
53.370 10.451146
53.375 10.292016
53.380 10.035022
53.385 10.09239
53.390 10.337218
53.395 10.661139
53.400 10.552212
53.405 10.258444
53.410 10.45116
53.415 10.127927
53.420 9.544779
53.425 9.264488
53.430 9.393468
53.435 9.501323
53.440 9.911028
53.445 9.715287
53.450 9.8346
53.455 9.487533
53.460 9.537726
53.465 9.350121
53.470 9.318982
53.475 9.426134
53.480 9.55486
53.485 9.967098
53.490 10.12221
53.495 10.00442
53.500 10.379019
53.505 10.062043
53.510 9.939133
53.515 10.042048
53.520 10.095263
53.525 10.284292
53.530 10.037325
53.535 10.038819
53.540 10.18777
53.545 10.112787
53.550 9.834317
53.555 9.527455
53.560 9.251081
53.565 9.255897
53.570 9.421798
53.575 9.453717
53.580 9.631798
53.585 9.907253
53.590 9.931795
53.595 10.133759
53.600 10.289212
53.605 10.381264
53.610 10.372417
53.615 10.238584
53.620 10.168058
53.625 10.309065
53.630 10.748394
53.635 10.496145
53.640 9.934716
53.645 9.898488
53.650 9.826659
53.655 9.948239
53.660 9.654804
53.665 9.275805
53.670 10.03029
53.675 10.485042
53.680 10.806605
53.685 11.072105
53.690 10.739013
53.695 11.032399
53.700 10.551931
53.705 10.391839
53.710 10.735566
53.715 10.712338
53.720 10.985201
53.725 11.004575
53.730 10.966054
53.735 11.404682
53.740 11.312106
53.745 11.229921
53.750 10.779228
53.755 10.63408
53.760 11.183904
53.765 10.871761
53.770 10.482652
53.775 9.947452
53.780 9.997754
53.785 10.174536
53.790 10.47893
53.795 10.715303
53.800 10.978243
53.805 11.024767
53.810 11.51433
53.815 11.838411
53.820 11.951917
53.825 11.71839
53.830 11.354036
53.835 11.496883
53.840 11.671525
53.845 11.865946
53.850 11.289557
53.855 10.776617
53.860 10.552061
53.865 10.919406
53.870 11.419398
53.875 11.145191
53.880 11.137976
53.885 11.597981
53.890 11.715579
53.895 11.664639
53.900 11.342684
53.905 10.911865
53.910 10.827882
53.915 10.113441
53.920 9.886619
53.925 10.11962
53.930 10.30776
53.935 10.250841
53.940 10.132507
53.945 10.696083
53.950 11.117208
53.955 11.16155
53.960 10.781325
53.965 11.007507
53.970 11.536504
53.975 11.909155
53.980 11.873211
53.985 11.741186
53.990 11.723027
53.995 11.651316
54.000 11.280021
54.005 11.172571
54.010 10.604715
54.015 10.348127
54.020 10.608259
54.025 10.570587
54.030 10.484091
54.035 10.156333
54.040 9.613482
54.045 9.584901
54.050 9.925912
54.055 10.100193
54.060 10.740026
54.065 11.433143
54.070 11.762241
54.075 12.186467
54.080 12.236629
54.085 11.598235
54.090 11.190158
54.095 11.060998
54.100 10.662519
54.105 10.352641
54.110 10.245649
54.115 10.412535
54.120 10.638397
54.125 10.770541
54.130 10.461226
54.135 10.571171
54.140 10.512913
54.145 10.423943
54.150 10.23432
54.155 9.707223
54.160 9.395817
54.165 9.343096
54.170 9.693253
54.175 9.994534
54.180 10.109854
54.185 10.556871
54.190 11.357347
54.195 11.759187
54.200 11.757634
54.205 11.428795
54.210 11.359288
54.215 10.898965
54.220 11.069524
54.225 10.826303
54.230 10.758045
54.235 11.270785
54.240 11.445087
54.245 11.248816
54.250 11.321216
54.255 11.072676
54.260 10.815561
54.265 10.604159
54.270 10.54978
54.275 10.999847
54.280 11.385953
54.285 11.66964
54.290 11.676112
54.295 11.74023
54.300 12.041484
54.305 11.910377
54.310 11.421921
54.315 11.441917
54.320 11.472559
54.325 11.374787
54.330 11.314349
54.335 11.000888
54.340 10.723938
54.345 10.746424
54.350 10.615374
54.355 10.336794
54.360 10.594422
54.365 10.64173
54.370 10.296401
54.375 11.006057
54.380 11.319024
54.385 11.091137
54.390 11.36395
54.395 11.246902
54.400 11.461639
54.405 11.723424
54.410 11.59313
54.415 11.608444
54.420 11.59604
54.425 11.384565
54.430 11.357733
54.435 11.251686
54.440 10.439352
54.445 9.909715
54.450 9.759756
54.455 9.720646
54.460 9.443688
54.465 9.33613
54.470 9.769715
54.475 9.938593
54.480 9.703384
54.485 9.839821
54.490 10.036833
54.495 10.236917
54.500 10.145818
54.505 9.838987
54.510 10.367829
54.515 11.026206
54.520 11.046864
54.525 11.189982
54.530 11.471487
54.535 11.390728
54.540 11.433208
54.545 10.709214
54.550 10.65216
54.555 10.681813
54.560 10.548965
54.565 10.280589
54.570 10.410665
54.575 10.48107
54.580 10.897728
54.585 10.986741
54.590 11.521909
54.595 11.709069
54.600 11.79362
54.605 12.114212
54.610 11.942907
54.615 12.150428
54.620 12.089031
54.625 11.675426
54.630 11.331001
54.635 11.515531
54.640 11.80479
54.645 11.977878
54.650 11.494083
54.655 11.330892
54.660 11.699341
54.665 11.637165
54.670 11.764549
54.675 11.955059
54.680 12.188806
54.685 12.436532
54.690 12.73327
54.695 12.654431
54.700 13.147267
54.705 13.147719
54.710 12.72089
54.715 12.513172
54.720 12.042895
54.725 11.816743
54.730 11.852035
54.735 11.676394
54.740 11.342282
54.745 11.873694
54.750 12.128398
54.755 12.097169
54.760 12.248905
54.765 12.27781
54.770 12.032638
54.775 11.789224
54.780 11.558794
54.785 11.294404
54.790 10.793464
54.795 10.380461
54.800 10.355319
54.805 10.625725
54.810 11.218745
54.815 11.393289
54.820 11.720192
54.825 12.340384
54.830 12.483936
54.835 12.43808
54.840 12.081493
54.845 11.428729
54.850 11.758376
54.855 12.13658
54.860 12.023663
54.865 12.197316
54.870 12.316237
54.875 12.490063
54.880 12.520511
54.885 12.728239
54.890 12.556729
54.895 12.858584
54.900 12.801476
54.905 12.314795
54.910 12.223941
54.915 12.285287
54.920 11.964376
54.925 11.609441
54.930 10.974395
54.935 10.662418
54.940 11.097578
54.945 11.036815
54.950 10.346322
54.955 10.300982
54.960 10.095889
54.965 9.834331
54.970 9.630958
54.975 9.443783
54.980 9.709336
54.985 9.985603
54.990 9.782086
54.995 10.305069
55.000 10.765197
55.005 10.938809
55.010 10.913462
55.015 10.578656
55.020 10.800012
55.025 11.158274
55.030 11.446804
55.035 11.507086
55.040 11.434569
55.045 11.728762
55.050 11.992636
55.055 12.11361
55.060 12.023275
55.065 12.016546
55.070 12.643194
55.075 12.860007
55.080 12.642184
55.085 12.828091
55.090 12.452947
55.095 12.404928
55.100 12.457646
55.105 11.915715
55.110 12.081745
55.115 12.267276
55.120 12.223243
55.125 12.27458
55.130 12.365808
55.135 12.382256
55.140 12.755788
55.145 12.512978
55.150 12.423744
55.155 12.5532
55.160 12.723219
55.165 12.675921
55.170 12.605293
55.175 12.29422
55.180 12.656122
55.185 12.188892
55.190 11.477165
55.195 11.425097
55.200 11.448776
55.205 11.800553
55.210 11.952546
55.215 11.847754
55.220 12.920341
55.225 13.558824
55.230 13.543584
55.235 13.447367
55.240 12.929278
55.245 12.914305
55.250 12.968987
55.255 12.241521
55.260 12.134109
55.265 12.321633
55.270 12.537019
55.275 12.555045
55.280 12.558961
55.285 12.753175
55.290 13.106673
55.295 13.042778
55.300 12.691257
55.305 12.230151
55.310 12.66449
55.315 12.6408
55.320 12.512913
55.325 12.472819
55.330 12.501256
55.335 12.548133
55.340 12.583561
55.345 12.765907
55.350 12.718394
55.355 12.309048
55.360 12.422259
55.365 12.15708
55.370 12.367354
55.375 12.470816
55.380 12.191958
55.385 12.35815
55.390 12.540483
55.395 12.247087
55.400 12.017452
55.405 11.502867
55.410 11.055453
55.415 10.6721
55.420 10.41491
55.425 10.523968
55.430 11.146897
55.435 12.079409
55.440 12.922326
55.445 13.193122
55.450 13.793442
55.455 13.961967
55.460 13.530898
55.465 13.114187
55.470 12.607303
55.475 12.64282
55.480 12.867053
55.485 12.685273
55.490 12.858883
55.495 13.363709
55.500 13.512219
55.505 13.698274
55.510 13.64836
55.515 13.367247
55.520 13.546679
55.525 13.695706
55.530 12.871282
55.535 12.75192
55.540 12.066503
55.545 11.701125
55.550 11.981509
55.555 11.2859
55.560 10.734937
55.565 11.083082
55.570 11.181883
55.575 11.818267
55.580 11.726672
55.585 11.362991
55.590 11.703548
55.595 11.908942
55.600 12.263037
55.605 12.870991
55.610 13.06718
55.615 13.381168
55.620 13.762217
55.625 13.715025
55.630 13.799582
55.635 13.490145
55.640 12.556257
55.645 12.343403
55.650 12.233006
55.655 11.849681
55.660 11.769486
55.665 12.088068
55.670 12.223614
55.675 12.551579
55.680 12.371572
55.685 12.557008
55.690 12.976464
55.695 12.865267
55.700 12.033849
55.705 11.78419
55.710 11.761979
55.715 12.342781
55.720 11.737433
55.725 11.283115
55.730 11.389337
55.735 11.1717
55.740 10.810626
55.745 10.591329
55.750 10.256101
55.755 10.974341
55.760 11.653361
55.765 12.38206
55.770 12.92775
55.775 13.306795
55.780 13.713967
55.785 13.66397
55.790 13.409209
55.795 13.285827
55.800 13.465828
55.805 14.105288
55.810 13.909698
55.815 13.489704
55.820 13.779381
55.825 13.735485
55.830 13.585785
55.835 13.547771
55.840 13.043365
55.845 13.183247
55.850 13.586045
55.855 13.404602
55.860 13.26692
55.865 12.815624
55.870 12.386995
55.875 12.571176
55.880 12.795297
55.885 12.702028
55.890 13.111506
55.895 13.067071
55.900 13.301801
55.905 13.758964
55.910 13.973197
55.915 13.936551
55.920 13.859825
55.925 14.083255
55.930 14.497851
55.935 14.680755
55.940 14.767864
55.945 14.663726
55.950 14.539262
55.955 14.269011
55.960 13.568934
55.965 13.127872
55.970 12.936806
55.975 11.940769
55.980 11.63403
55.985 11.681543
55.990 11.482286
55.995 12.244649
56.000 12.257024
56.005 12.066816
56.010 12.365141
56.015 12.318428
56.020 12.007701
56.025 11.833309
56.030 11.386602
56.035 11.635999
56.040 11.615467
56.045 11.131674
56.050 10.908648
56.055 11.067507
56.060 10.931837
56.065 11.01488
56.070 11.205016
56.075 11.929832
56.080 12.773834
56.085 13.013468
56.090 12.962215
56.095 12.891848
56.100 12.401251
56.105 11.41771
56.110 11.219658
56.115 11.431608
56.120 11.624615
56.125 11.855822
56.130 12.178303
56.135 12.935738
56.140 13.651045
56.145 13.591144
56.150 13.138234
56.155 13.216581
56.160 13.400337
56.165 13.456144
56.170 13.410619
56.175 13.357109
56.180 13.295196
56.185 13.339128
56.190 13.120918
56.195 13.311074
56.200 13.189732
56.205 12.978291
56.210 13.180454
56.215 12.98693
56.220 12.854209
56.225 12.476661
56.230 12.094419
56.235 12.320953
56.240 12.47779
56.245 12.54025
56.250 12.828439
56.255 13.037889
56.260 13.124486
56.265 13.587556
56.270 13.646972
56.275 13.997126
56.280 13.951776
56.285 13.574089
56.290 13.093553
56.295 13.005101
56.300 12.841628
56.305 12.981073
56.310 12.451429
56.315 12.131506
56.320 12.087788
56.325 12.464077
56.330 12.742625
56.335 12.663889
56.340 11.999465
56.345 11.931881
56.350 12.493955
56.355 13.46911
56.360 13.350859
56.365 13.239751
56.370 13.011359
56.375 13.27395
56.380 12.95176
56.385 12.090102
56.390 11.513111
56.395 11.908052
56.400 12.166682
56.405 12.675797
56.410 12.634249
56.415 13.352532
56.420 14.163033
56.425 14.42545
56.430 14.344041
56.435 14.187361
56.440 13.95889
56.445 14.334924
56.450 14.230192
56.455 14.150234
56.460 14.387974
56.465 14.713766
56.470 14.794376
56.475 14.609435
56.480 14.434037
56.485 14.738405
56.490 14.92181
56.495 15.290579
56.500 14.92995
56.505 14.631606
56.510 14.886487
56.515 14.910949
56.520 15.13349
56.525 15.030449
56.530 14.56242
56.535 14.737977
56.540 15.088324
56.545 15.109228
56.550 14.74684
56.555 14.316316
56.560 13.819143
56.565 14.116246
56.570 13.94447
56.575 13.479435
56.580 13.161386
56.585 13.464806
56.590 13.714359
56.595 13.636618
56.600 13.2662
56.605 13.112791
56.610 13.099721
56.615 13.617053
56.620 13.206801
56.625 13.493298
56.630 13.896447
56.635 13.930174
56.640 14.001166
56.645 14.047359
56.650 13.855846
56.655 13.917538
56.660 13.859943
56.665 14.124907
56.670 14.37709
56.675 14.927735
56.680 15.077648
56.685 15.076961
56.690 15.469712
56.695 15.623676
56.700 15.151264
56.705 14.842991
56.710 14.360175
56.715 14.494199
56.720 14.829553
56.725 14.705224
56.730 14.432734
56.735 14.56723
56.740 14.467644
56.745 14.05808
56.750 14.166964
56.755 13.992091
56.760 14.018269
56.765 13.97715
56.770 14.316667
56.775 14.644421
56.780 14.789113
56.785 13.920015
56.790 13.589199
56.795 13.083549
56.800 13.517617
56.805 13.61937
56.810 13.683158
56.815 14.030978
56.820 14.573107
56.825 14.778635
56.830 15.011807
56.835 14.750037
56.840 14.472858
56.845 14.432494
56.850 14.267406
56.855 14.0071
56.860 13.937365
56.865 13.964498
56.870 13.955379
56.875 14.584119
56.880 14.54807
56.885 14.398133
56.890 14.341465
56.895 14.032375
56.900 13.156207
56.905 12.710647
56.910 12.42073
56.915 13.006533
56.920 13.447083
56.925 13.658408
56.930 14.377414
56.935 15.289909
56.940 15.208653
56.945 14.906167
56.950 14.493141
56.955 14.38027
56.960 14.139147
56.965 13.936309
56.970 14.081751
56.975 15.282996
56.980 15.753945
56.985 15.596298
56.990 15.697178
56.995 15.558984
57.000 15.054332
57.005 14.883391
57.010 13.63261
57.015 12.741706
57.020 12.748332
57.025 12.403706
57.030 12.396858
57.035 12.793549
57.040 12.457819
57.045 12.649144
57.050 13.162111
57.055 12.91972
57.060 12.952628
57.065 13.159655
57.070 13.326967
57.075 14.019114
57.080 14.2847
57.085 14.531797
57.090 14.620577
57.095 14.886105
57.100 14.8568
57.105 14.077649
57.110 13.32566
57.115 12.891798
57.120 12.673812
57.125 12.329434
57.130 12.498438
57.135 12.424564
57.140 12.664249
57.145 13.094456
57.150 13.329811
57.155 13.868229
57.160 14.044209
57.165 13.451036
57.170 13.230881
57.175 13.764862
57.180 14.165227
57.185 14.384722
57.190 14.529604
57.195 14.433892
57.200 15.025752
57.205 15.967936
57.210 15.831467
57.215 15.080175
57.220 14.248599
57.225 13.586005
57.230 13.549811
57.235 13.526199
57.240 12.597011
57.245 12.348401
57.250 12.972711
57.255 13.519436
57.260 14.131287
57.265 14.051203
57.270 14.069839
57.275 14.202708
57.280 13.958975
57.285 13.51354
57.290 13.399796
57.295 13.369991
57.300 13.628215
57.305 13.556195
57.310 14.071681
57.315 14.696208
57.320 15.023497
57.325 15.42727
57.330 15.503153
57.335 15.040786
57.340 14.81807
57.345 14.383485
57.350 14.440551
57.355 14.089423
57.360 13.501134
57.365 13.304594
57.370 13.339793
57.375 13.597693
57.380 13.830135
57.385 13.952479
57.390 14.380524
57.395 14.726387
57.400 15.137706
57.405 15.319848
57.410 15.258662
57.415 15.207438
57.420 14.599223
57.425 14.678081
57.430 14.532455
57.435 14.268368
57.440 14.014263
57.445 13.724361
57.450 13.946235
57.455 14.403917
57.460 14.608796
57.465 15.106437
57.470 15.094815
57.475 15.396447
57.480 15.154418
57.485 14.728315
57.490 14.812022
57.495 14.831625
57.500 14.508506
57.505 14.852634
57.510 14.945629
57.515 15.511608
57.520 15.794689
57.525 15.357894
57.530 15.203265
57.535 15.283904
57.540 14.811538
57.545 14.607499
57.550 14.168943
57.555 14.751281
57.560 14.908551
57.565 14.42668
57.570 14.156161
57.575 14.147088
57.580 14.334855
57.585 14.710122
57.590 14.594741
57.595 14.323277
57.600 14.490328
57.605 15.206874
57.610 15.936745
57.615 15.521542
57.620 15.175841
57.625 14.681561
57.630 15.172418
57.635 15.752828
57.640 15.02156
57.645 14.42233
57.650 15.018433
57.655 14.820067
57.660 14.581918
57.665 14.6047
57.670 14.368989
57.675 14.608902
57.680 14.623358
57.685 13.989213
57.690 14.142531
57.695 14.371348
57.700 13.87907
57.705 13.974843
57.710 14.343451
57.715 14.668924
57.720 15.678425
57.725 16.412954
57.730 16.349268
57.735 16.210667
57.740 16.310923
57.745 16.158073
57.750 16.299965
57.755 15.907963
57.760 15.513613
57.765 15.455869
57.770 15.690401
57.775 15.539781
57.780 15.175587
57.785 14.63927
57.790 14.265671
57.795 13.845905
57.800 14.291392
57.805 13.926881
57.810 13.55985
57.815 13.499459
57.820 14.134789
57.825 14.67941
57.830 14.834569
57.835 14.458883
57.840 14.570275
57.845 14.62337
57.850 14.811276
57.855 14.006385
57.860 13.913117
57.865 13.990911
57.870 14.083183
57.875 14.443215
57.880 14.15806
57.885 13.708945
57.890 13.483949
57.895 12.953253
57.900 12.972441
57.905 13.085991
57.910 12.385861
57.915 12.839004
57.920 13.543348
57.925 13.870178
57.930 13.649607
57.935 13.478582
57.940 13.251289
57.945 13.751259
57.950 13.955188
57.955 14.202276
57.960 14.825119
57.965 15.320639
57.970 15.430698
57.975 15.992409
57.980 16.029919
57.985 15.570718
57.990 15.562307
57.995 15.373526
58.000 15.337435
58.005 15.083835
58.010 14.26297
58.015 14.753201
58.020 14.785722
58.025 14.289462
58.030 14.315332
58.035 13.970551
58.040 13.927851
58.045 14.457115
58.050 14.190372
58.055 14.585979
58.060 14.611868
58.065 14.820995
58.070 15.667054
58.075 16.170361
58.080 16.301577
58.085 16.227295
58.090 15.688297
58.095 15.655299
58.100 15.794953
58.105 15.301005
58.110 14.712711
58.115 14.722567
58.120 14.827734
58.125 15.11003
58.130 15.149532
58.135 14.743284
58.140 14.823835
58.145 14.898505
58.150 14.954552
58.155 14.65484
58.160 14.442059
58.165 14.042136
58.170 14.104287
58.175 14.318047
58.180 13.970311
58.185 14.047129
58.190 14.059731
58.195 14.194809
58.200 14.806361
58.205 15.153161
58.210 15.771575
58.215 16.568132
58.220 16.771685
58.225 16.793562
58.230 16.723497
58.235 16.42576
58.240 15.965563
58.245 15.414045
58.250 14.821456
58.255 14.659337
58.260 14.789118
58.265 14.731645
58.270 14.877921
58.275 15.45851
58.280 15.62991
58.285 15.44345
58.290 15.477302
58.295 15.281347
58.300 15.119876
58.305 15.079746
58.310 14.80162
58.315 14.197749
58.320 14.134177
58.325 14.507903
58.330 15.195233
58.335 15.592059
58.340 15.363368
58.345 15.059573
58.350 15.231258
58.355 15.464458
58.360 15.208149
58.365 14.720549
58.370 14.873549
58.375 14.838655
58.380 15.281087
58.385 15.683989
58.390 15.511067
58.395 15.870494
58.400 15.695656
58.405 15.723823
58.410 16.006086
58.415 16.032589
58.420 16.197281
58.425 16.046749
58.430 16.040731
58.435 15.94046
58.440 15.425185
58.445 15.291881
58.450 15.286931
58.455 15.754904
58.460 15.963545
58.465 15.790545
58.470 16.187099
58.475 16.498549
58.480 16.606956
58.485 16.526949
58.490 16.759148
58.495 17.215132
58.500 17.221655
58.505 17.752407
58.510 18.241854
58.515 18.480394
58.520 18.465639
58.525 17.912958
58.530 17.236155
58.535 17.236696
58.540 16.992643
58.545 16.728373
58.550 16.825541
58.555 16.544157
58.560 16.704035
58.565 16.595091
58.570 16.587852
58.575 16.556458
58.580 16.443672
58.585 16.35302
58.590 16.563681
58.595 16.917162
58.600 17.252726
58.605 17.280449
58.610 17.081928
58.615 17.20347
58.620 17.106585
58.625 16.717119
58.630 16.721352
58.635 16.978222
58.640 17.34001
58.645 17.092211
58.650 16.905918
58.655 16.738987
58.660 17.030735
58.665 17.082943
58.670 17.279821
58.675 17.190458
58.680 17.13678
58.685 17.698496
58.690 18.053373
58.695 18.623585
58.700 18.236553
58.705 17.556343
58.710 17.564205
58.715 17.793352
58.720 18.086588
58.725 17.960108
58.730 17.026155
58.735 17.042374
58.740 16.856077
58.745 16.829763
58.750 16.494818
58.755 15.845297
58.760 16.317671
58.765 16.764919
58.770 16.858295
58.775 16.916204
58.780 16.798122
58.785 17.395321
58.790 18.166407
58.795 18.049305
58.800 18.100204
58.805 17.897669
58.810 17.745024
58.815 18.024593
58.820 17.644009
58.825 17.046856
58.830 17.160408
58.835 17.140772
58.840 17.752569
58.845 18.220823
58.850 17.933023
58.855 17.838844
58.860 17.815521
58.865 17.887604
58.870 17.894941
58.875 17.917055
58.880 17.809607
58.885 17.71599
58.890 17.535175
58.895 17.540512
58.900 17.161892
58.905 16.753204
58.910 16.783195
58.915 16.865585
58.920 17.289642
58.925 18.101025
58.930 18.011089
58.935 18.984823
58.940 19.4142
58.945 19.337072
58.950 19.103207
58.955 18.892
58.960 18.26778
58.965 18.155338
58.970 17.598482
58.975 17.335064
58.980 17.051289
58.985 17.195671
58.990 16.986992
58.995 17.097235
59.000 17.372663
59.005 17.452257
59.010 17.723789
59.015 17.688833
59.020 18.025404
59.025 18.434164
59.030 18.489801
59.035 18.105278
59.040 17.889816
59.045 17.826149
59.050 18.05323
59.055 17.87203
59.060 17.91802
59.065 17.803061
59.070 17.481764
59.075 17.164545
59.080 17.087381
59.085 17.246548
59.090 17.48135
59.095 17.659805
59.100 18.0424
59.105 17.816069
59.110 18.437571
59.115 17.86874
59.120 17.659136
59.125 17.498821
59.130 17.413553
59.135 17.11198
59.140 17.766235
59.145 17.688421
59.150 18.407404
59.155 18.622166
59.160 18.952379
59.165 19.359459
59.170 19.601971
59.175 19.677511
59.180 19.423107
59.185 19.062368
59.190 19.049679
59.195 18.429585
59.200 18.026716
59.205 18.177612
59.210 18.064413
59.215 18.509846
59.220 18.586512
59.225 18.332245
59.230 18.772985
59.235 19.491322
59.240 19.520029
59.245 19.49807
59.250 19.097694
59.255 18.572174
59.260 18.27622
59.265 18.197407
59.270 18.030857
59.275 17.754841
59.280 17.922497
59.285 18.764992
59.290 19.438391
59.295 19.889091
59.300 19.493937
59.305 19.429823
59.310 19.552338
59.315 19.11771
59.320 18.371792
59.325 17.865908
59.330 17.886324
59.335 17.936562
59.340 17.377178
59.345 17.10055
59.350 17.545109
59.355 18.069994
59.360 18.441736
59.365 17.782677
59.370 17.701714
59.375 18.061337
59.380 18.172857
59.385 18.068769
59.390 18.189398
59.395 18.413855
59.400 19.262686
59.405 19.432779
59.410 19.162201
59.415 19.244932
59.420 18.990015
59.425 18.675156
59.430 19.168804
59.435 18.444006
59.440 18.289103
59.445 18.811474
59.450 18.909817
59.455 18.975628
59.460 18.864756
59.465 18.010687
59.470 17.852564
59.475 18.205809
59.480 17.678125
59.485 17.547735
59.490 17.874901
59.495 17.819786
59.500 18.083151
59.505 18.947788
59.510 19.143766
59.515 19.516174
59.520 19.660833
59.525 19.15987
59.530 18.697456
59.535 18.493919
59.540 18.200882
59.545 17.975441
59.550 18.213146
59.555 18.366131
59.560 18.894058
59.565 19.552986
59.570 19.580694
59.575 19.214548
59.580 18.472012
59.585 17.775263
59.590 17.56142
59.595 17.865852
59.600 17.871868
59.605 17.874121
59.610 17.968325
59.615 18.594416
59.620 18.651091
59.625 18.586485
59.630 18.722059
59.635 19.221779
59.640 19.703276
59.645 19.848068
59.650 20.053677
59.655 20.651659
59.660 20.381607
59.665 19.635298
59.670 19.257618
59.675 19.344206
59.680 19.739595
59.685 19.654652
59.690 19.920719
59.695 20.537861
59.700 21.178366
59.705 21.207113
59.710 21.263992
59.715 20.9779
59.720 20.760155
59.725 20.492256
59.730 21.253057
59.735 21.747271
59.740 21.80138
59.745 21.731632
59.750 21.743015
59.755 21.778053
59.760 21.633869
59.765 21.063049
59.770 20.510666
59.775 20.793255
59.780 20.170834
59.785 20.197773
59.790 20.698812
59.795 20.890272
59.800 20.782782
59.805 20.410286
59.810 20.347059
59.815 20.830095
59.820 21.410999
59.825 21.741032
59.830 21.621016
59.835 21.420809
59.840 21.845797
59.845 22.20871
59.850 22.100792
59.855 21.651854
59.860 21.50222
59.865 21.24604
59.870 21.623352
59.875 21.101364
59.880 21.146095
59.885 21.096275
59.890 20.98144
59.895 20.652018
59.900 21.123863
59.905 20.756395
59.910 20.813368
59.915 20.747955
59.920 20.68733
59.925 20.592316
59.930 20.751776
59.935 20.272352
59.940 20.630602
59.945 20.926144
59.950 20.294191
59.955 20.119558
59.960 19.967283
59.965 19.787191
59.970 20.0301
59.975 19.412098
59.980 18.738434
59.985 19.153202
59.990 19.424757
59.995 19.392998
60.000 19.719387
60.005 19.593348
60.010 20.067316
60.015 20.468164
60.020 20.441345
60.025 20.62183
60.030 21.153618
60.035 21.37261
60.040 21.928186
60.045 21.852015
60.050 22.30212
60.055 22.245186
60.060 21.671595
60.065 21.332094
60.070 20.899424
60.075 20.541107
60.080 20.15704
60.085 20.138475
60.090 20.65028
60.095 20.686283
60.100 20.314281
60.105 19.92588
60.110 19.434746
60.115 19.590929
60.120 18.981813
60.125 18.741341
60.130 18.655962
60.135 19.348991
60.140 19.999695
60.145 20.429058
60.150 20.306911
60.155 20.186378
60.160 20.026754
60.165 19.829258
60.170 19.528301
60.175 19.690016
60.180 20.098679
60.185 20.995876
60.190 21.362226
60.195 21.497253
60.200 21.829626
60.205 21.352516
60.210 21.043938
60.215 20.75614
60.220 20.380602
60.225 20.265417
60.230 20.732954
60.235 21.320175
60.240 22.00108
60.245 22.506701
60.250 22.268476
60.255 21.134012
60.260 20.557442
60.265 19.688837
60.270 18.89657
60.275 18.64098
60.280 18.57325
60.285 18.701849
60.290 19.937355
60.295 20.593998
60.300 20.813644
60.305 20.538456
60.310 20.016352
60.315 19.889606
60.320 20.025839
60.325 19.794027
60.330 19.477407
60.335 19.629124
60.340 20.262897
60.345 20.991634
60.350 20.686687
60.355 20.306721
60.360 19.321699
60.365 19.472878
60.370 18.911219
60.375 18.765312
60.380 18.262663
60.385 18.142815
60.390 18.41848
60.395 19.198496
60.400 19.006317
60.405 19.513168
60.410 19.588739
60.415 19.98785
60.420 19.930506
60.425 19.60207
60.430 18.763439
60.435 18.404799
60.440 17.810492
60.445 17.998676
60.450 17.669889
60.455 17.702492
60.460 17.8325
60.465 18.242729
60.470 18.425751
60.475 18.373499
60.480 17.990601
60.485 18.329277
60.490 18.726446
60.495 18.918459
60.500 18.898649
60.505 19.053423
60.510 19.046764
60.515 19.353321
60.520 19.142685
60.525 18.560108
60.530 18.243069
60.535 18.883322
60.540 19.062202
60.545 19.503149
60.550 19.542997
60.555 19.484148
60.560 19.860714
60.565 20.077822
60.570 19.723024
60.575 19.519333
60.580 19.226831
60.585 18.99469
60.590 19.271309
60.595 19.480669
60.600 19.713083
60.605 19.856226
60.610 20.299728
60.615 20.228167
60.620 20.131382
60.625 20.002995
60.630 19.767458
60.635 19.409546
60.640 19.109993
60.645 18.538363
60.650 18.42098
60.655 17.936752
60.660 17.488476
60.665 17.300482
60.670 17.254145
60.675 17.822071
60.680 18.051985
60.685 18.125956
60.690 18.120203
60.695 18.13755
60.700 18.328264
60.705 18.416887
60.710 17.324154
60.715 16.886047
60.720 16.777308
60.725 17.179886
60.730 17.481022
60.735 17.555433
60.740 17.630177
60.745 18.600496
60.750 18.94908
60.755 19.059345
60.760 18.942142
60.765 18.547167
60.770 18.338543
60.775 17.99402
60.780 17.797789
60.785 17.735508
60.790 17.288795
60.795 17.315159
60.800 17.102861
60.805 17.118858
60.810 16.587208
60.815 16.291759
60.820 16.169369
60.825 16.332981
60.830 16.30228
60.835 16.396843
60.840 16.583447
60.845 17.230274
60.850 17.475063
60.855 17.557295
60.860 18.078957
60.865 17.725704
60.870 17.595524
60.875 17.335447
60.880 17.156649
60.885 16.805737
60.890 16.35103
60.895 15.93782
60.900 15.959846
60.905 15.978029
60.910 16.04681
60.915 15.742238
60.920 15.74505
60.925 15.761405
60.930 15.722245
60.935 15.812775
60.940 15.826693
60.945 16.12191
60.950 16.900352
60.955 17.458971
60.960 18.182911
60.965 18.222616
60.970 17.745104
60.975 17.539581
60.980 16.876835
60.985 16.556107
60.990 16.300117
60.995 15.729191
61.000 15.960338
61.005 16.419943
61.010 16.446674
61.015 16.565916
61.020 16.226484
61.025 15.974393
61.030 16.030092
61.035 15.917458
61.040 15.944085
61.045 15.926844
61.050 15.66897
61.055 15.369839
61.060 15.869349
61.065 16.094131
61.070 16.82671
61.075 17.417864
61.080 17.560379
61.085 18.069038
61.090 18.460447
61.095 18.593769
61.100 18.070024
61.105 17.402399
61.110 17.110302
61.115 17.556526
61.120 17.643114
61.125 17.837574
61.130 17.348536
61.135 18.013353
61.140 18.183197
61.145 17.973946
61.150 17.833561
61.155 17.83886
61.160 17.9233
61.165 18.957232
61.170 18.780804
61.175 18.390808
61.180 18.189484
61.185 18.200617
61.190 18.629581
61.195 18.46109
61.200 17.971493
61.205 18.295198
61.210 18.650301
61.215 18.692879
61.220 18.524181
61.225 18.037712
61.230 17.667311
61.235 17.203577
61.240 16.402424
61.245 16.883902
61.250 17.583658
61.255 17.667313
61.260 17.562485
61.265 18.333242
61.270 18.880379
61.275 19.181717
61.280 18.544346
61.285 18.393877
61.290 18.420097
61.295 18.620201
61.300 18.045685
61.305 17.600508
61.310 17.491882
61.315 17.720791
61.320 17.880741
61.325 17.995209
61.330 17.539162
61.335 17.67905
61.340 18.079765
61.345 18.006092
61.350 17.991013
61.355 17.708136
61.360 17.501514
61.365 17.512737
61.370 17.212727
61.375 16.83217
61.380 16.694624
61.385 16.618439
61.390 16.870356
61.395 17.407301
61.400 17.583313
61.405 17.543486
61.410 18.011444
61.415 18.39113
61.420 18.258873
61.425 17.886389
61.430 17.502539
61.435 17.413622
61.440 17.470873
61.445 16.681061
61.450 16.25197
61.455 15.790565
61.460 15.553001
61.465 15.579773
61.470 15.76885
61.475 15.869982
61.480 16.337826
61.485 16.323053
61.490 16.64349
61.495 16.787868
61.500 17.044319
61.505 16.852148
61.510 17.091278
61.515 17.067427
61.520 16.654774
61.525 16.643351
61.530 16.786652
61.535 16.333126
61.540 16.580378
61.545 15.966172
61.550 17.01313
61.555 18.079533
61.560 17.949326
61.565 17.757551
61.570 18.093941
61.575 18.580187
61.580 19.309555
61.585 19.230719
61.590 18.994408
61.595 19.065981
61.600 18.543943
61.605 18.241529
61.610 17.38131
61.615 16.706036
61.620 15.673376
61.625 15.62652
61.630 15.292724
61.635 15.54531
61.640 15.683791
61.645 16.061781
61.650 16.237453
61.655 16.229753
61.660 15.988944
61.665 16.818541
61.670 17.242348
61.675 17.666082
61.680 18.085588
61.685 18.019331
61.690 17.757446
61.695 17.905357
61.700 17.476608
61.705 16.661476
61.710 16.701771
61.715 16.823772
61.720 17.640703
61.725 18.392246
61.730 18.087149
61.735 17.819857
61.740 17.847069
61.745 17.821867
61.750 17.513245
61.755 16.805893
61.760 16.163013
61.765 16.345337
61.770 16.979742
61.775 17.777205
61.780 17.156803
61.785 17.233877
61.790 17.340425
61.795 17.914246
61.800 18.24404
61.805 17.73683
61.810 17.705235
61.815 17.758745
61.820 17.34198
61.825 17.577021
61.830 17.605995
61.835 17.221626
61.840 17.160526
61.845 16.437086
61.850 16.193478
61.855 16.332726
61.860 16.188229
61.865 16.342419
61.870 17.284363
61.875 18.288296
61.880 18.746145
61.885 19.065247
61.890 19.062971
61.895 19.338173
61.900 18.9802
61.905 18.010208
61.910 17.747726
61.915 18.032084
61.920 18.153587
61.925 17.935467
61.930 17.543642
61.935 17.467035
61.940 17.224152
61.945 16.803043
61.950 16.415232
61.955 16.636759
61.960 16.879372
61.965 16.556034
61.970 16.505878
61.975 16.926414
61.980 17.219107
61.985 17.148184
61.990 17.16465
61.995 17.159231
62.000 17.132452
62.005 17.200647
62.010 17.20562
62.015 16.952299
62.020 16.942293
62.025 16.398462
62.030 16.181087
62.035 16.358318
62.040 16.417871
62.045 16.206661
62.050 16.36178
62.055 16.779655
62.060 17.314146
62.065 17.575714
62.070 17.258575
62.075 17.086329
62.080 16.707949
62.085 16.206553
62.090 16.447649
62.095 16.167442
62.100 16.010147
62.105 16.598585
62.110 16.507147
62.115 16.691963
62.120 17.21032
62.125 16.692997
62.130 16.768192
62.135 16.725756
62.140 16.008663
62.145 16.170858
62.150 16.566236
62.155 16.511669
62.160 16.391079
62.165 17.071415
62.170 17.988647
62.175 18.889996
62.180 19.396021
62.185 19.560505
62.190 19.845219
62.195 20.141596
62.200 19.920597
62.205 20.097141
62.210 20.039532
62.215 19.404175
62.220 18.894035
62.225 18.294289
62.230 18.412638
62.235 18.238623
62.240 17.740606
62.245 17.569067
62.250 17.916124
62.255 17.970526
62.260 17.712702
62.265 17.344971
62.270 17.334827
62.275 17.568123
62.280 17.472523
62.285 17.397478
62.290 17.28142
62.295 17.580997
62.300 17.31782
62.305 17.254574
62.310 17.091511
62.315 16.849056
62.320 16.812866
62.325 16.811993
62.330 16.591709
62.335 16.801159
62.340 16.669519
62.345 16.461357
62.350 17.203369
62.355 17.592367
62.360 17.879559
62.365 18.416521
62.370 18.50551
62.375 18.396868
62.380 18.073204
62.385 17.471809
62.390 17.253391
62.395 17.261827
62.400 17.123232
62.405 17.446571
62.410 18.115269
62.415 18.88007
62.420 18.815935
62.425 18.877823
62.430 18.988142
62.435 19.203442
62.440 19.195574
62.445 18.975294
62.450 19.151779
62.455 19.107838
62.460 19.762438
62.465 19.411219
62.470 18.817383
62.475 18.145378
62.480 17.922314
62.485 17.609077
62.490 17.926062
62.495 17.41206
62.500 17.240715
62.505 17.555262
62.510 18.551315
62.515 18.605247
62.520 18.787577
62.525 18.782345
62.530 18.548597
62.535 18.977835
62.540 19.263206
62.545 18.615198
62.550 18.419081
62.555 18.124395
62.560 17.70957
62.565 17.919735
62.570 17.290865
62.575 16.908501
62.580 16.628374
62.585 16.412762
62.590 16.789547
62.595 17.085018
62.600 17.187048
62.605 17.832075
62.610 17.724615
62.615 17.826342
62.620 17.897945
62.625 17.605436
62.630 17.263556
62.635 17.279659
62.640 17.392843
62.645 17.467535
62.650 17.334629
62.655 17.20031
62.660 17.134192
62.665 17.131035
62.670 17.328362
62.675 17.381779
62.680 17.382662
62.685 17.531799
62.690 18.093018
62.695 17.837397
62.700 17.658092
62.705 16.94249
62.710 16.475859
62.715 16.924932
62.720 16.663452
62.725 16.095499
62.730 16.341022
62.735 16.912121
62.740 16.890736
62.745 16.825771
62.750 16.796518
62.755 16.701248
62.760 17.24058
62.765 17.702528
62.770 17.998421
62.775 18.094597
62.780 18.041845
62.785 17.568338
62.790 17.951414
62.795 18.345942
62.800 17.676479
62.805 17.777906
62.810 18.437389
62.815 18.879545
62.820 19.612858
62.825 19.537571
62.830 19.061775
62.835 19.698263
62.840 19.110346
62.845 18.411465
62.850 17.964851
62.855 17.820425
62.860 17.989288
62.865 18.210089
62.870 18.152121
62.875 17.645647
62.880 17.449194
62.885 17.439341
62.890 16.796417
62.895 16.98057
62.900 16.563177
62.905 16.184042
62.910 16.572176
62.915 16.933872
62.920 16.667038
62.925 16.904814
62.930 16.770018
62.935 16.657406
62.940 17.128639
62.945 17.286186
62.950 17.285578
62.955 17.837767
62.960 17.671743
62.965 17.770363
62.970 17.795132
62.975 18.097042
62.980 18.871542
62.985 18.635551
62.990 18.717344
62.995 18.765385
63.000 18.262497
63.005 18.550613
63.010 18.070068
63.015 17.71171
63.020 17.794998
63.025 17.642826
63.030 17.769033
63.035 17.917913
63.040 17.462198
63.045 17.188791
63.050 17.350204
63.055 17.62303
63.060 17.326418
63.065 17.500837
63.070 17.770924
63.075 17.995514
63.080 17.716555
63.085 17.170057
63.090 17.176504
63.095 17.276831
63.100 16.841007
63.105 17.161291
63.110 17.122429
63.115 18.090014
63.120 18.708704
63.125 18.246904
63.130 18.483507
63.135 18.582678
63.140 17.929996
63.145 17.666401
63.150 16.701471
63.155 16.42029
63.160 16.165916
63.165 16.19562
63.170 16.527716
63.175 16.417385
63.180 17.0268
63.185 17.393703
63.190 17.399977
63.195 18.067383
63.200 18.06008
63.205 17.806818
63.210 18.122282
63.215 18.250849
63.220 17.895681
63.225 17.752649
63.230 17.569349
63.235 17.552738
63.240 17.674395
63.245 17.753916
63.250 17.891153
63.255 18.909222
63.260 19.041147
63.265 18.706823
63.270 18.550098
63.275 18.440533
63.280 18.405272
63.285 18.555086
63.290 17.887106
63.295 18.025881
63.300 18.159964
63.305 18.317913
63.310 18.435181
63.315 18.508217
63.320 18.267036
63.325 18.708237
63.330 18.809603
63.335 18.924717
63.340 18.566298
63.345 18.525402
63.350 19.013638
63.355 18.701996
63.360 18.188053
63.365 18.015194
63.370 17.988991
63.375 18.26749
63.380 18.099819
63.385 17.170263
63.390 16.899054
63.395 17.074017
63.400 17.847351
63.405 18.329634
63.410 18.481821
63.415 18.226133
63.420 18.151804
63.425 18.16452
63.430 18.025419
63.435 17.908064
63.440 17.074385
63.445 17.155251
63.450 17.495827
63.455 18.203602
63.460 18.677671
63.465 19.025591
63.470 18.789003
63.475 19.317663
63.480 19.018545
63.485 19.200006
63.490 19.112738
63.495 19.224693
63.500 18.614017
63.505 17.835876
63.510 17.816463
63.515 17.853071
63.520 17.243996
63.525 16.572969
63.530 16.048418
63.535 16.734352
63.540 17.246752
63.545 16.677082
63.550 16.442471
63.555 16.865862
63.560 17.282732
63.565 17.358023
63.570 17.567623
63.575 17.928482
63.580 18.176197
63.585 18.563889
63.590 18.448236
63.595 18.228045
63.600 18.060114
63.605 17.768261
63.610 17.62829
63.615 17.707066
63.620 18.110895
63.625 18.333069
63.630 18.503525
63.635 18.696497
63.640 18.317408
63.645 18.119877
63.650 18.327833
63.655 17.743582
63.660 18.382814
63.665 18.583969
63.670 18.023567
63.675 18.522116
63.680 18.873411
63.685 18.849024
63.690 18.896702
63.695 18.399176
63.700 18.690365
63.705 18.801933
63.710 18.285862
63.715 17.940378
63.720 17.882372
63.725 17.491724
63.730 17.563301
63.735 17.955011
63.740 18.279278
63.745 18.227602
63.750 18.238581
63.755 18.372274
63.760 19.034941
63.765 19.013727
63.770 18.348204
63.775 18.753719
63.780 18.868319
63.785 19.123428
63.790 19.404034
63.795 19.266268
63.800 18.959599
63.805 19.301369
63.810 19.212408
63.815 19.642937
63.820 19.43889
63.825 19.132214
63.830 18.498926
63.835 18.312973
63.840 18.406927
63.845 17.87714
63.850 17.851761
63.855 17.465218
63.860 16.876331
63.865 17.575584
63.870 17.882084
63.875 17.613684
63.880 17.424984
63.885 17.745586
63.890 18.235548
63.895 18.60037
63.900 18.322439
63.905 18.460371
63.910 18.308966
63.915 18.510378
63.920 17.811396
63.925 17.761078
63.930 17.941086
63.935 17.782372
63.940 17.770765
63.945 18.25428
63.950 18.374035
63.955 18.175098
63.960 18.340128
63.965 18.099928
63.970 18.391264
63.975 18.131433
63.980 18.076698
63.985 18.203865
63.990 18.892076
63.995 19.103853
64.000 19.133886
64.005 19.044664
64.010 19.563032
64.015 20.040199
64.020 20.299091
64.025 19.909731
64.030 20.331028
64.035 20.464088
64.040 20.133007
64.045 20.123816
64.050 20.074839
64.055 19.775246
64.060 19.719496
64.065 19.503866
64.070 19.421062
64.075 20.150621
64.080 19.581854
64.085 19.893816
64.090 20.151848
64.095 20.044823
64.100 20.147305
64.105 20.653402
64.110 20.678606
64.115 20.906693
64.120 20.490101
64.125 20.511185
64.130 20.593744
64.135 20.304024
64.140 19.58865
64.145 18.428518
64.150 17.6399
64.155 17.416441
64.160 17.5791
64.165 17.378067
64.170 17.479815
64.175 17.124231
64.180 17.720545
64.185 18.509356
64.190 18.590635
64.195 18.604006
64.200 18.646984
64.205 18.623772
64.210 19.247311
64.215 19.273556
64.220 19.302422
64.225 19.040482
64.230 18.907196
64.235 18.961172
64.240 18.836245
64.245 18.478979
64.250 18.594584
64.255 19.03574
64.260 19.442101
64.265 19.252108
64.270 19.171503
64.275 19.369877
64.280 19.609781
64.285 19.266869
64.290 18.620113
64.295 18.368999
64.300 18.461065
64.305 18.847212
64.310 18.600571
64.315 19.261751
64.320 19.574898
64.325 19.613239
64.330 19.839705
64.335 19.780096
64.340 19.39315
64.345 20.203062
64.350 20.265505
64.355 20.477629
64.360 20.288851
64.365 20.433443
64.370 20.344051
64.375 20.402887
64.380 20.317537
64.385 19.983803
64.390 19.694695
64.395 19.760307
64.400 19.268875
64.405 19.406809
64.410 19.6436
64.415 19.213739
64.420 18.617928
64.425 18.794489
64.430 19.212723
64.435 20.426893
64.440 20.949896
64.445 20.881233
64.450 21.035465
64.455 21.701551
64.460 21.593378
64.465 21.933168
64.470 21.182085
64.475 21.147663
64.480 21.505194
64.485 22.254345
64.490 22.629618
64.495 23.161085
64.500 23.165169
64.505 22.859356
64.510 22.301531
64.515 22.268883
64.520 21.359413
64.525 20.968296
64.530 20.472679
64.535 20.463381
64.540 20.673052
64.545 20.99012
64.550 20.769585
64.555 21.010424
64.560 20.946962
64.565 21.241367
64.570 20.728804
64.575 20.335855
64.580 20.242258
64.585 20.413506
64.590 20.338385
64.595 20.362326
64.600 20.64959
64.605 21.291508
64.610 21.161041
64.615 21.206474
64.620 21.381668
64.625 21.183905
64.630 20.854031
64.635 20.036747
64.640 20.102942
64.645 20.758419
64.650 20.690912
64.655 20.39884
64.660 20.497181
64.665 20.657011
64.670 21.072182
64.675 20.685207
64.680 20.088209
64.685 19.886312
64.690 19.989346
64.695 20.456631
64.700 20.829334
64.705 21.444715
64.710 21.973442
64.715 22.32336
64.720 22.241087
64.725 22.224527
64.730 22.107855
64.735 22.140598
64.740 21.946209
64.745 21.392097
64.750 21.564133
64.755 21.846022
64.760 22.209475
64.765 22.429008
64.770 22.213449
64.775 22.097523
64.780 22.700432
64.785 23.44873
64.790 23.43194
64.795 22.669779
64.800 22.312323
64.805 22.583647
64.810 22.872925
64.815 22.68746
64.820 22.316292
64.825 22.645321
64.830 23.031446
64.835 23.359381
64.840 23.062508
64.845 22.844839
64.850 23.445393
64.855 23.07324
64.860 23.031427
64.865 23.445108
64.870 23.55801
64.875 24.349365
64.880 24.206192
64.885 24.357134
64.890 25.02499
64.895 25.018734
64.900 24.913206
64.905 24.797382
64.910 23.422548
64.915 23.109667
64.920 21.896938
64.925 21.816256
64.930 22.284702
64.935 22.039251
64.940 22.577496
64.945 23.535475
64.950 24.035862
64.955 24.688709
64.960 24.506001
64.965 24.408173
64.970 24.290361
64.975 23.970753
64.980 24.063118
64.985 23.778244
64.990 23.724937
64.995 24.447159
65.000 24.616091
65.005 24.934906
65.010 24.82449
65.015 25.013771
65.020 25.858032
65.025 26.053101
65.030 25.837803
65.035 26.206694
65.040 26.115765
65.045 25.745327
65.050 25.42061
65.055 24.84408
65.060 24.429495
65.065 24.161108
65.070 23.581179
65.075 23.672333
65.080 24.045645
65.085 24.58403
65.090 25.764673
65.095 25.977625
65.100 25.903242
65.105 26.275976
65.110 26.175478
65.115 26.548672
65.120 26.288889
65.125 25.196146
65.130 25.120087
65.135 25.712872
65.140 25.831213
65.145 25.651834
65.150 25.489063
65.155 26.038801
65.160 26.68833
65.165 26.712593
65.170 26.032478
65.175 25.75708
65.180 26.134867
65.185 26.094673
65.190 25.867153
65.195 26.261059
65.200 26.8382
65.205 27.102993
65.210 28.070896
65.215 28.406019
65.220 28.131777
65.225 27.997005
65.230 27.643848
65.235 27.727264
65.240 27.818153
65.245 27.361742
65.250 26.630024
65.255 26.558376
65.260 26.324968
65.265 26.24371
65.270 25.899277
65.275 26.104816
65.280 26.370262
65.285 26.912066
65.290 27.237453
65.295 27.576126
65.300 27.633108
65.305 27.377586
65.310 26.500809
65.315 25.796322
65.320 25.192577
65.325 24.5888
65.330 23.62768
65.335 22.834545
65.340 22.597532
65.345 22.681507
65.350 23.075069
65.355 23.256968
65.360 23.326559
65.365 23.937584
65.370 24.729446
65.375 24.764997
65.380 24.641964
65.385 24.486109
65.390 24.53764
65.395 24.70895
65.400 24.533245
65.405 24.552153
65.410 25.298296
65.415 25.44318
65.420 25.737659
65.425 25.855848
65.430 26.402107
65.435 26.560966
65.440 26.618404
65.445 26.296003
65.450 26.135746
65.455 25.885878
65.460 25.584604
65.465 25.185507
65.470 25.069294
65.475 25.34712
65.480 26.128401
65.485 26.423672
65.490 26.776928
65.495 27.385027
65.500 27.550564
65.505 27.669643
65.510 27.69068
65.515 27.404972
65.520 27.241327
65.525 26.883825
65.530 26.60796
65.535 26.604998
65.540 27.213207
65.545 27.629793
65.550 27.739281
65.555 28.147718
65.560 29.103624
65.565 29.353359
65.570 30.199799
65.575 29.890696
65.580 29.750378
65.585 29.7803
65.590 29.432007
65.595 28.512453
65.600 28.828636
65.605 28.480116
65.610 28.827847
65.615 29.216534
65.620 29.997004
65.625 31.304274
65.630 31.453199
65.635 30.702791
65.640 30.682314
65.645 30.799107
65.650 30.447626
65.655 30.264868
65.660 30.48591
65.665 31.435352
65.670 32.048973
65.675 31.810495
65.680 31.541437
65.685 31.38718
65.690 31.760416
65.695 31.144804
65.700 30.233727
65.705 29.971529
65.710 30.847534
65.715 31.523252
65.720 31.443172
65.725 30.814499
65.730 30.782511
65.735 31.555622
65.740 32.107162
65.745 31.974022
65.750 31.17165
65.755 31.208549
65.760 31.406944
65.765 31.861921
65.770 31.859539
65.775 31.149851
65.780 30.802937
65.785 30.882231
65.790 31.934658
65.795 32.124157
65.800 32.636116
65.805 33.659389
65.810 34.328262
65.815 34.778908
65.820 35.811489
65.825 35.37672
65.830 35.717232
65.835 34.438484
65.840 34.07428
65.845 33.557968
65.850 33.464455
65.855 33.162834
65.860 32.553638
65.865 33.179245
65.870 33.897789
65.875 33.808655
65.880 34.5411
65.885 34.799202
65.890 35.187988
65.895 35.400356
65.900 34.148632
65.905 34.215981
65.910 34.151638
65.915 33.849113
65.920 33.591831
65.925 33.815136
65.930 34.698685
65.935 35.347942
65.940 35.70649
65.945 35.872116
65.950 36.30941
65.955 36.898304
65.960 36.767792
65.965 35.985691
65.970 35.821102
65.975 35.682152
65.980 35.971142
65.985 35.756954
65.990 35.48362
65.995 35.327961
66.000 36.302704
66.005 36.179276
66.010 35.788212
66.015 35.117947
66.020 34.784313
66.025 34.288284
66.030 33.897636
66.035 33.239285
66.040 33.51379
66.045 34.011395
66.050 34.453136
66.055 34.306274
66.060 34.416279
66.065 34.710545
66.070 34.635555
66.075 34.690666
66.080 34.409416
66.085 34.41647
66.090 34.603867
66.095 35.470234
66.100 35.998108
66.105 36.580322
66.110 36.902088
66.115 37.257568
66.120 37.061546
66.125 36.732708
66.130 36.301689
66.135 36.286041
66.140 35.658108
66.145 34.655098
66.150 34.751453
66.155 36.012566
66.160 36.339527
66.165 35.445744
66.170 35.130089
66.175 35.839329
66.180 36.105072
66.185 35.220291
66.190 34.299561
66.195 34.514645
66.200 35.607826
66.205 35.987839
66.210 35.456356
66.215 35.173946
66.220 35.080997
66.225 34.965794
66.230 34.831776
66.235 34.80051
66.240 34.577976
66.245 35.04599
66.250 35.139572
66.255 35.266777
66.260 35.328888
66.265 35.766891
66.270 35.777546
66.275 35.055862
66.280 35.194466
66.285 35.174828
66.290 34.715897
66.295 34.405979
66.300 33.502956
66.305 33.868382
66.310 34.2407
66.315 33.556564
66.320 33.89782
66.325 34.383804
66.330 34.903008
66.335 35.177471
66.340 34.502132
66.345 34.678387
66.350 35.021694
66.355 34.683235
66.360 34.72464
66.365 34.488918
66.370 34.653709
66.375 34.437626
66.380 33.805489
66.385 33.246933
66.390 32.95314
66.395 32.419186
66.400 32.405319
66.405 32.264126
66.410 31.757778
66.415 31.865845
66.420 32.188305
66.425 32.360981
66.430 32.322556
66.435 32.696266
66.440 32.747913
66.445 33.306931
66.450 32.916775
66.455 32.683773
66.460 32.455193
66.465 32.180908
66.470 31.335512
66.475 31.231909
66.480 30.988577
66.485 30.534651
66.490 30.297478
66.495 30.194258
66.500 29.710703
66.505 29.566195
66.510 29.145391
66.515 28.584084
66.520 28.910759
66.525 28.944262
66.530 28.987068
66.535 29.241343
66.540 28.87962
66.545 28.592253
66.550 29.137533
66.555 28.971207
66.560 29.317503
66.565 29.293253
66.570 28.724215
66.575 28.919899
66.580 28.454653
66.585 27.465317
66.590 26.623802
66.595 25.167162
66.600 24.571283
66.605 24.290024
66.610 23.410141
66.615 23.168468
66.620 23.239008
66.625 23.259638
66.630 23.191216
66.635 23.112886
66.640 23.900976
66.645 24.395578
66.650 24.122051
66.655 24.352798
66.660 24.360479
66.665 24.156651
66.670 24.83844
66.675 23.99004
66.680 24.380859
66.685 24.158188
66.690 23.156647
66.695 23.009319
66.700 23.419388
66.705 22.740509
66.710 23.090483
66.715 23.225975
66.720 23.42963
66.725 23.384592
66.730 23.469482
66.735 22.765957
66.740 22.974241
66.745 23.050713
66.750 22.715176
66.755 23.157154
66.760 23.615307
66.765 23.468561
66.770 23.806187
66.775 23.292377
66.780 22.804358
66.785 22.481653
66.790 22.043304
66.795 22.348801
66.800 22.830599
66.805 22.508608
66.810 22.510344
66.815 21.823908
66.820 21.852787
66.825 22.095215
66.830 22.0336
66.835 21.131138
66.840 20.843887
66.845 21.503647
66.850 22.394079
66.855 21.731739
66.860 21.350334
66.865 20.965851
66.870 21.381372
66.875 21.506437
66.880 20.82655
66.885 20.676256
66.890 21.163385
66.895 21.141848
66.900 21.283886
66.905 21.602123
66.910 21.738493
66.915 21.860106
66.920 21.771351
66.925 21.815063
66.930 21.298115
66.935 20.600233
66.940 20.797518
66.945 20.875227
66.950 21.137913
66.955 20.606279
66.960 19.86446
66.965 19.933382
66.970 20.2757
66.975 19.809414
66.980 19.857193
66.985 19.698999
66.990 20.592102
66.995 21.488409
67.000 22.03422
67.005 22.4144
67.010 22.791639
67.015 22.805279
67.020 22.419176
67.025 22.13343
67.030 22.42482
67.035 22.744974
67.040 22.566479
67.045 22.432236
67.050 22.465624
67.055 22.952896
67.060 22.619017
67.065 22.316294
67.070 21.834843
67.075 22.045471
67.080 22.452349
67.085 22.722445
67.090 22.817331
67.095 22.582663
67.100 22.245909
67.105 22.340982
67.110 22.36491
67.115 22.357435
67.120 21.746708
67.125 21.647722
67.130 21.908995
67.135 22.18869
67.140 22.325798
67.145 21.981461
67.150 21.584272
67.155 21.749876
67.160 22.022896
67.165 22.074358
67.170 21.633137
67.175 20.719076
67.180 20.403349
67.185 20.196852
67.190 20.435293
67.195 20.729673
67.200 21.121498
67.205 21.161604
67.210 21.568739
67.215 21.722113
67.220 22.015764
67.225 20.969761
67.230 19.57011
67.235 19.194201
67.240 19.275204
67.245 19.482681
67.250 19.42972
67.255 19.953175
67.260 20.229275
67.265 20.572248
67.270 20.512392
67.275 20.671961
67.280 21.118166
67.285 21.294497
67.290 20.610983
67.295 20.778385
67.300 20.9056
67.305 21.278551
67.310 20.707407
67.315 20.389456
67.320 20.081774
67.325 20.026323
67.330 20.398882
67.335 20.349766
67.340 20.14045
67.345 20.675022
67.350 20.557114
67.355 20.994732
67.360 21.465725
67.365 21.337996
67.370 21.084637
67.375 21.416836
67.380 21.249008
67.385 20.88258
67.390 20.663872
67.395 20.894522
67.400 20.884972
67.405 21.13274
67.410 20.882816
67.415 20.658827
67.420 21.154186
67.425 21.08025
67.430 21.238083
67.435 21.379992
67.440 21.476801
67.445 21.833866
67.450 22.203617
67.455 22.091944
67.460 21.717819
67.465 20.982244
67.470 20.467916
67.475 20.390358
67.480 20.6819
67.485 20.724373
67.490 20.342499
67.495 20.490343
67.500 21.12994
67.505 21.792183
67.510 21.262533
67.515 20.951689
67.520 20.992659
67.525 21.139742
67.530 21.276712
67.535 21.350294
67.540 21.380051
67.545 21.491087
67.550 21.153404
67.555 21.394783
67.560 21.438303
67.565 21.125168
67.570 20.514269
67.575 20.535456
67.580 20.564816
67.585 20.358879
67.590 20.023186
67.595 20.494558
67.600 20.824173
67.605 21.182032
67.610 21.071432
67.615 20.713228
67.620 20.864277
67.625 20.599693
67.630 20.331604
67.635 20.118507
67.640 19.985085
67.645 19.687656
67.650 20.104525
67.655 19.931526
67.660 19.982262
67.665 19.636526
67.670 19.430639
67.675 19.588467
67.680 20.030399
67.685 20.146427
67.690 20.493061
67.695 20.993055
67.700 20.85441
67.705 21.085583
67.710 20.574028
67.715 20.25313
67.720 20.260544
67.725 20.008799
67.730 20.069256
67.735 20.039869
67.740 19.912777
67.745 20.383215
67.750 21.006559
67.755 20.847107
67.760 20.964499
67.765 21.15304
67.770 21.404812
67.775 21.929659
67.780 21.897747
67.785 21.675282
67.790 21.486002
67.795 21.022614
67.800 20.681503
67.805 20.349739
67.810 20.608906
67.815 20.437323
67.820 20.632174
67.825 21.227739
67.830 22.024336
67.835 22.135067
67.840 22.377142
67.845 22.148623
67.850 22.017021
67.855 21.818663
67.860 21.271814
67.865 20.895849
67.870 21.492849
67.875 20.954456
67.880 20.863853
67.885 20.698017
67.890 20.374893
67.895 20.663002
67.900 20.887466
67.905 20.864603
67.910 21.469473
67.915 21.023584
67.920 21.280577
67.925 21.219816
67.930 21.299387
67.935 21.018171
67.940 21.267542
67.945 21.116716
67.950 22.096081
67.955 22.048594
67.960 22.058908
67.965 21.377733
67.970 21.147497
67.975 20.973413
67.980 20.872326
67.985 20.291389
67.990 20.038853
67.995 19.962648
68.000 20.110384
68.005 19.607166
68.010 19.142714
68.015 19.485014
68.020 20.105974
68.025 20.520794
68.030 20.372032
68.035 20.756062
68.040 21.728601
68.045 22.014095
68.050 21.797171
68.055 21.435053
68.060 21.715467
68.065 22.548307
68.070 22.113859
68.075 21.081316
68.080 21.03879
68.085 20.798347
68.090 20.792894
68.095 20.626217
68.100 20.510786
68.105 21.070946
68.110 21.665346
68.115 21.647924
68.120 21.959694
68.125 22.067711
68.130 21.419237
68.135 21.34837
68.140 21.117285
68.145 21.109922
68.150 20.263214
68.155 19.657179
68.160 19.190632
68.165 19.322084
68.170 18.942898
68.175 18.910049
68.180 18.66053
68.185 18.703947
68.190 19.030409
68.195 19.171638
68.200 18.886518
68.205 18.815193
68.210 18.620173
68.215 18.968702
68.220 19.223486
68.225 19.171806
68.230 19.534611
68.235 20.285639
68.240 20.883221
68.245 21.311573
68.250 21.679672
68.255 21.426901
68.260 21.557062
68.265 22.01672
68.270 21.347059
68.275 21.059641
68.280 21.328552
68.285 20.482819
68.290 20.64711
68.295 20.532497
68.300 19.997896
68.305 20.410259
68.310 19.811489
68.315 19.105852
68.320 19.503357
68.325 19.461863
68.330 19.542152
68.335 19.48794
68.340 19.293116
68.345 19.544346
68.350 20.374046
68.355 20.710455
68.360 20.31341
68.365 19.869326
68.370 20.324541
68.375 21.119411
68.380 21.293764
68.385 20.889393
68.390 20.554527
68.395 20.960907
68.400 21.361687
68.405 20.89076
68.410 20.728449
68.415 20.37249
68.420 20.376949
68.425 21.103798
68.430 21.231705
68.435 20.903179
68.440 21.283449
68.445 21.063772
68.450 21.483849
68.455 21.547335
68.460 20.72257
68.465 20.850887
68.470 20.66555
68.475 20.311068
68.480 20.478176
68.485 19.997444
68.490 19.727932
68.495 19.949558
68.500 19.286415
68.505 19.65522
68.510 19.669636
68.515 19.484343
68.520 19.424623
68.525 18.906864
68.530 18.993063
68.535 19.315149
68.540 19.170572
68.545 18.718573
68.550 18.368778
68.555 18.672857
68.560 19.31415
68.565 19.904482
68.570 20.451576
68.575 20.725159
68.580 21.57959
68.585 21.62166
68.590 21.00264
68.595 20.635389
68.600 20.300097
68.605 20.554688
68.610 20.414173
68.615 20.504829
68.620 21.188904
68.625 21.797699
68.630 22.039631
68.635 21.88806
68.640 21.557785
68.645 21.319939
68.650 21.192249
68.655 21.032526
68.660 20.907696
68.665 20.748384
68.670 20.441114
68.675 20.270853
68.680 20.453392
68.685 20.608541
68.690 20.788273
68.695 21.080894
68.700 21.332394
68.705 21.743944
68.710 22.286615
68.715 22.271807
68.720 22.191917
68.725 22.444241
68.730 22.227514
68.735 22.604126
68.740 22.588688
68.745 22.226183
68.750 22.12232
68.755 22.443037
68.760 22.443014
68.765 22.619083
68.770 22.412573
68.775 22.560469
68.780 22.376886
68.785 22.058855
68.790 21.41396
68.795 21.530603
68.800 21.40169
68.805 21.285614
68.810 21.402065
68.815 21.792055
68.820 22.140736
68.825 22.117867
68.830 22.152922
68.835 22.657675
68.840 22.740393
68.845 22.195366
68.850 21.891096
68.855 22.286089
68.860 22.95491
68.865 22.431133
68.870 22.516529
68.875 22.863861
68.880 23.58754
68.885 24.076883
68.890 23.86113
68.895 23.602978
68.900 24.142132
68.905 23.971348
68.910 23.742182
68.915 23.533819
68.920 23.454714
68.925 23.016891
68.930 23.014023
68.935 22.37417
68.940 21.767328
68.945 21.495855
68.950 21.410036
68.955 21.397291
68.960 21.926289
68.965 22.273497
68.970 22.803032
68.975 22.894314
68.980 22.755806
68.985 22.391954
68.990 22.143885
68.995 22.035727
69.000 21.685793
69.005 22.06419
69.010 22.305704
69.015 22.906843
69.020 23.184458
69.025 23.454388
69.030 23.910172
69.035 24.213465
69.040 23.892941
69.045 24.597485
69.050 24.662239
69.055 24.664083
69.060 24.498331
69.065 24.347725
69.070 24.818333
69.075 24.664343
69.080 24.456604
69.085 24.769518
69.090 25.260551
69.095 25.259592
69.100 25.963863
69.105 26.021166
69.110 26.534155
69.115 26.969448
69.120 26.846239
69.125 26.201944
69.130 26.297501
69.135 25.534277
69.140 25.119696
69.145 24.446415
69.150 23.819778
69.155 23.38722
69.160 23.622892
69.165 23.309958
69.170 23.715443
69.175 24.755476
69.180 25.259819
69.185 26.332722
69.190 26.44359
69.195 26.377794
69.200 26.153248
69.205 25.763401
69.210 25.669376
69.215 25.393354
69.220 25.425894
69.225 26.043652
69.230 26.222368
69.235 27.080055
69.240 27.090111
69.245 26.361965
69.250 26.398581
69.255 25.66608
69.260 25.525818
69.265 25.366993
69.270 25.007774
69.275 25.164961
69.280 25.698214
69.285 26.147223
69.290 26.798796
69.295 26.630356
69.300 27.463913
69.305 27.016047
69.310 26.895813
69.315 26.428244
69.320 26.242901
69.325 26.313807
69.330 26.859577
69.335 26.47263
69.340 27.868534
69.345 28.840803
69.350 29.563654
69.355 29.503601
69.360 29.206007
69.365 29.093855
69.370 29.120995
69.375 27.751501
69.380 27.247484
69.385 26.851542
69.390 27.268044
69.395 28.025967
69.400 28.259842
69.405 28.672058
69.410 29.769953
69.415 30.149921
69.420 30.632322
69.425 30.2225
69.430 29.698963
69.435 29.411507
69.440 28.973715
69.445 28.966082
69.450 29.326338
69.455 29.364029
69.460 29.172235
69.465 29.287075
69.470 29.333878
69.475 29.651173
69.480 29.734486
69.485 28.130455
69.490 28.091364
69.495 28.604937
69.500 28.202971
69.505 28.579386
69.510 28.599724
69.515 28.95587
69.520 29.91642
69.525 30.750175
69.530 31.014391
69.535 31.223753
69.540 31.183886
69.545 31.384483
69.550 31.673319
69.555 31.669277
69.560 31.599213
69.565 32.245186
69.570 32.476967
69.575 32.462036
69.580 32.020786
69.585 31.498327
69.590 31.609209
69.595 30.969099
69.600 30.691036
69.605 30.994595
69.610 31.26264
69.615 31.508171
69.620 32.29705
69.625 32.057186
69.630 32.127396
69.635 31.446831
69.640 31.242107
69.645 30.548635
69.650 30.362738
69.655 30.825005
69.660 31.087536
69.665 30.74254
69.670 31.001566
69.675 31.459833
69.680 32.308716
69.685 31.804838
69.690 31.335972
69.695 31.317144
69.700 31.139612
69.705 29.877811
69.710 28.680977
69.715 27.573637
69.720 27.861816
69.725 27.434967
69.730 27.131821
69.735 27.569349
69.740 28.115177
69.745 28.659628
69.750 28.472061
69.755 27.986633
69.760 27.704493
69.765 27.677078
69.770 27.649561
69.775 27.070698
69.780 26.591887
69.785 26.98407
69.790 26.917412
69.795 27.316523
69.800 26.426334
69.805 26.641617
69.810 27.756453
69.815 28.106798
69.820 28.306862
69.825 28.514599
69.830 28.482599
69.835 28.855164
69.840 28.328226
69.845 27.767645
69.850 27.62636
69.855 27.482407
69.860 26.976643
69.865 26.50161
69.870 26.904512
69.875 26.459948
69.880 25.820974
69.885 25.30055
69.890 24.558096
69.895 23.692839
69.900 23.788729
69.905 23.029694
69.910 23.155476
69.915 23.515329
69.920 23.276403
69.925 23.698467
69.930 24.189281
69.935 23.844847
69.940 24.077036
69.945 24.369146
69.950 24.415367
69.955 24.671463
69.960 24.353292
69.965 23.5175
69.970 23.428402
69.975 23.121946
69.980 22.602846
69.985 22.818375
69.990 22.461561
69.995 22.147738
70.000 22.350861
70.005 22.145834
70.010 21.406395
70.015 20.878321
70.020 20.388809
70.025 20.232246
70.030 20.681278
70.035 20.708364
70.040 20.103346
70.045 20.757147
70.050 20.901535
70.055 20.61051
70.060 20.813749
70.065 21.113123
70.070 20.60651
70.075 20.75248
70.080 20.111216
70.085 20.206532
70.090 20.32457
70.095 20.068233
70.100 19.379971
70.105 19.35092
70.110 19.734093
70.115 20.3666
70.120 20.290257
70.125 20.811001
70.130 20.97558
70.135 21.433401
70.140 21.694099
70.145 22.187954
70.150 21.927347
70.155 22.416847
70.160 22.716688
70.165 22.375118
70.170 22.021069
70.175 21.830164
70.180 21.127008
70.185 20.968405
70.190 20.290281
70.195 20.291512
70.200 20.571066
70.205 20.371258
70.210 20.673027
70.215 20.814863
70.220 20.678965
70.225 20.427404
70.230 19.985025
70.235 19.730404
70.240 20.255634
70.245 20.278507
70.250 20.560751
70.255 20.891121
70.260 21.106899
70.265 21.255325
70.270 21.860247
70.275 22.140181
70.280 21.981321
70.285 21.472538
70.290 21.235874
70.295 21.056061
70.300 20.637753
70.305 20.132107
70.310 19.864691
70.315 20.432318
70.320 20.614834
70.325 20.739536
70.330 20.994572
70.335 21.043081
70.340 21.045319
70.345 20.894344
70.350 20.440929
70.355 20.091009
70.360 19.664703
70.365 20.148331
70.370 20.513271
70.375 20.264683
70.380 20.822617
70.385 21.444538
70.390 21.825214
70.395 22.121262
70.400 22.02
70.405 22.169024
70.410 22.29443
70.415 21.983887
70.420 21.647177
70.425 21.421871
70.430 20.689404
70.435 20.47204
70.440 20.10029
70.445 19.564064
70.450 19.383331
70.455 19.141439
70.460 19.241217
70.465 19.380156
70.470 19.301413
70.475 19.593313
70.480 19.363976
70.485 19.03676
70.490 18.909197
70.495 18.716553
70.500 18.704187
70.505 19.000641
70.510 19.269375
70.515 18.99159
70.520 19.332125
70.525 19.620123
70.530 20.328819
70.535 20.495773
70.540 20.352362
70.545 20.080816
70.550 20.616684
70.555 20.513796
70.560 20.74493
70.565 20.623791
70.570 20.140564
70.575 20.030821
70.580 19.909248
70.585 19.850737
70.590 20.1462
70.595 19.522305
70.600 19.088625
70.605 18.942314
70.610 19.134556
70.615 19.609173
70.620 19.359188
70.625 18.899839
70.630 18.714912
70.635 19.148466
70.640 19.098829
70.645 18.530529
70.650 18.016571
70.655 18.216249
70.660 19.02776
70.665 18.694918
70.670 18.289228
70.675 18.764492
70.680 18.662592
70.685 18.098068
70.690 17.854919
70.695 18.11252
70.700 18.671175
70.705 18.937229
70.710 19.033178
70.715 19.420307
70.720 19.343342
70.725 19.247396
70.730 18.45713
70.735 18.91403
70.740 18.867573
70.745 18.558332
70.750 18.745094
70.755 18.657324
70.760 18.505791
70.765 18.936897
70.770 19.031931
70.775 19.066008
70.780 18.968575
70.785 19.049959
70.790 19.371731
70.795 19.370329
70.800 19.053555
70.805 18.8389
70.810 18.825981
70.815 19.027569
70.820 19.412861
70.825 19.814962
70.830 19.798033
70.835 19.585136
70.840 19.256939
70.845 18.580297
70.850 18.87501
70.855 18.166815
70.860 17.70056
70.865 17.620872
70.870 17.383675
70.875 17.721586
70.880 18.191769
70.885 18.228346
70.890 18.679934
70.895 18.788225
70.900 18.610643
70.905 18.834579
70.910 18.841911
70.915 18.460072
70.920 17.893265
70.925 18.140097
70.930 18.285839
70.935 18.869951
70.940 19.209518
70.945 19.081718
70.950 19.971981
70.955 20.462458
70.960 19.644758
70.965 19.347248
70.970 18.930445
70.975 19.198488
70.980 19.426403
70.985 19.108788
70.990 18.902451
70.995 18.731253
71.000 18.845392
71.005 19.187021
71.010 19.042665
71.015 19.097525
71.020 18.754871
71.025 19.054514
71.030 20.015354
71.035 20.360538
71.040 20.2941
71.045 19.409445
71.050 19.545753
71.055 19.481783
71.060 19.622717
71.065 19.216232
71.070 18.77323
71.075 18.644993
71.080 18.610718
71.085 18.408623
71.090 18.945375
71.095 18.905836
71.100 18.598068
71.105 18.545073
71.110 18.571747
71.115 18.840986
71.120 18.094109
71.125 17.119461
71.130 17.098492
71.135 17.485939
71.140 17.283585
71.145 17.167677
71.150 17.405138
71.155 18.403801
71.160 18.361872
71.165 17.688972
71.170 17.399296
71.175 17.451593
71.180 16.956032
71.185 16.708157
71.190 16.558517
71.195 17.232288
71.200 18.011982
71.205 18.038155
71.210 18.431112
71.215 18.918076
71.220 18.891926
71.225 18.798126
71.230 18.27574
71.235 17.828995
71.240 17.628317
71.245 17.731016
71.250 18.216139
71.255 18.441662
71.260 18.582218
71.265 19.450764
71.270 19.328028
71.275 19.778412
71.280 19.693327
71.285 19.415834
71.290 19.203314
71.295 18.74861
71.300 18.434744
71.305 19.020494
71.310 18.781265
71.315 18.453749
71.320 18.665169
71.325 18.810343
71.330 19.125471
71.335 18.821205
71.340 19.481714
71.345 19.387608
71.350 19.496996
71.355 19.247129
71.360 19.670454
71.365 19.938683
71.370 20.408609
71.375 20.2047
71.380 20.632854
71.385 20.790874
71.390 20.696796
71.395 20.236094
71.400 20.015137
71.405 19.324627
71.410 18.99365
71.415 18.559879
71.420 18.642555
71.425 18.587215
71.430 18.762278
71.435 19.052515
71.440 19.259466
71.445 19.181822
71.450 18.758991
71.455 18.569399
71.460 18.591024
71.465 18.419777
71.470 18.017914
71.475 18.11541
71.480 18.125233
71.485 18.597631
71.490 18.419287
71.495 18.395844
71.500 18.435799
71.505 18.955956
71.510 19.095476
71.515 19.412004
71.520 19.631563
71.525 19.568691
71.530 19.37521
71.535 19.633955
71.540 19.70512
71.545 19.773409
71.550 19.437912
71.555 19.311409
71.560 19.599981
71.565 19.961555
71.570 18.885792
71.575 18.338404
71.580 17.732718
71.585 18.051722
71.590 17.960873
71.595 17.797995
71.600 17.80953
71.605 18.188581
71.610 18.156191
71.615 18.342169
71.620 18.809326
71.625 18.978243
71.630 19.12249
71.635 19.051836
71.640 18.930149
71.645 19.091616
71.650 18.80924
71.655 17.814974
71.660 18.131374
71.665 17.708214
71.670 17.95224
71.675 18.266308
71.680 18.504757
71.685 18.607077
71.690 18.677631
71.695 18.71043
71.700 18.614054
71.705 18.60405
71.710 18.482023
71.715 18.379236
71.720 18.527235
71.725 18.840612
71.730 19.027332
71.735 19.36034
71.740 19.868999
71.745 20.665169
71.750 21.19231
71.755 20.85614
71.760 20.283043
71.765 20.376417
71.770 19.812082
71.775 18.999382
71.780 18.196087
71.785 18.452814
71.790 18.711842
71.795 18.568544
71.800 19.008329
71.805 19.419718
71.810 20.045845
71.815 19.575125
71.820 19.099586
71.825 19.518551
71.830 19.409409
71.835 18.834301
71.840 18.428446
71.845 18.907696
71.850 19.25321
71.855 19.294556
71.860 19.089222
71.865 19.014877
71.870 19.30341
71.875 19.863577
71.880 19.021027
71.885 18.742413
71.890 18.423021
71.895 18.022854
71.900 17.846518
71.905 17.788755
71.910 18.103785
71.915 18.694008
71.920 18.773584
71.925 19.002668
71.930 18.961363
71.935 18.800343
71.940 18.267609
71.945 17.051294
71.950 16.945721
71.955 17.066256
71.960 17.836821
71.965 18.305851
71.970 18.334425
71.975 19.032366
71.980 19.927738
71.985 20.107765
71.990 20.347672
71.995 19.949081
72.000 20.303005
72.005 19.938345
72.010 18.955704
72.015 18.588137
72.020 18.467752
72.025 18.274839
72.030 18.178617
72.035 17.764317
72.040 18.133152
72.045 18.811724
72.050 18.936577
72.055 19.231565
72.060 19.268797
72.065 19.37822
72.070 19.439955
72.075 19.281546
72.080 18.95052
72.085 19.07337
72.090 18.664682
72.095 18.98707
72.100 19.227268
72.105 19.338671
72.110 19.240269
72.115 19.428711
72.120 19.335123
72.125 19.195885
72.130 19.150072
72.135 19.09902
72.140 19.390305
72.145 19.277042
72.150 18.986774
72.155 18.669592
72.160 19.032475
72.165 18.910769
72.170 18.900379
72.175 18.606209
72.180 18.695021
72.185 19.000957
72.190 19.665802
72.195 19.81225
72.200 20.412594
72.205 20.595991
72.210 20.973564
72.215 21.029638
72.220 20.516111
72.225 20.547363
72.230 19.809666
72.235 19.202547
72.240 19.081732
72.245 18.550955
72.250 18.135782
72.255 17.577938
72.260 16.8776
72.265 17.00666
72.270 17.039738
72.275 17.206537
72.280 17.970474
72.285 18.719963
72.290 18.941528
72.295 19.376312
72.300 19.075596
72.305 19.151907
72.310 18.882936
72.315 18.765533
72.320 18.742418
72.325 18.75573
72.330 19.105188
72.335 19.504051
72.340 19.48222
72.345 19.375906
72.350 18.741226
72.355 18.480896
72.360 18.566793
72.365 17.95649
72.370 17.88689
72.375 17.530165
72.380 17.615417
72.385 18.140781
72.390 18.358269
72.395 17.969442
72.400 17.810425
72.405 17.724718
72.410 17.502184
72.415 17.487532
72.420 16.754654
72.425 16.643311
72.430 17.240461
72.435 17.270826
72.440 17.499983
72.445 17.80138
72.450 18.601976
72.455 19.275755
72.460 19.470028
72.465 18.992859
72.470 18.856646
72.475 18.971256
72.480 18.965137
72.485 18.317982
72.490 17.779345
72.495 17.571541
72.500 17.872993
72.505 17.984879
72.510 17.466125
72.515 17.218348
72.520 17.322617
72.525 17.208555
72.530 17.297125
72.535 16.973618
72.540 17.015944
72.545 17.525007
72.550 17.467751
72.555 17.462938
72.560 17.46015
72.565 16.997084
72.570 16.623283
72.575 16.872126
72.580 17.329233
72.585 17.954756
72.590 18.130098
72.595 18.191973
72.600 18.69096
72.605 19.122227
72.610 18.479116
72.615 17.608828
72.620 16.991571
72.625 16.934383
72.630 16.487806
72.635 16.163681
72.640 15.796205
72.645 16.029982
72.650 16.453669
72.655 16.716038
72.660 16.705824
72.665 17.224165
72.670 17.535072
72.675 18.154476
72.680 17.514362
72.685 17.609003
72.690 17.943489
72.695 18.326786
72.700 18.214207
72.705 17.840155
72.710 18.430605
72.715 19.0613
72.720 18.791636
72.725 18.657793
72.730 18.418633
72.735 18.308628
72.740 18.354097
72.745 18.174206
72.750 18.151438
72.755 18.478035
72.760 18.286695
72.765 18.272532
72.770 18.834631
72.775 19.380365
72.780 18.987457
72.785 18.244137
72.790 17.692654
72.795 17.393232
72.800 17.2272
72.805 16.430878
72.810 16.087605
72.815 16.305773
72.820 17.189428
72.825 17.431681
72.830 17.575148
72.835 17.789639
72.840 17.708534
72.845 17.658728
72.850 17.72555
72.855 17.093081
72.860 16.968496
72.865 17.314066
72.870 17.427717
72.875 17.636412
72.880 17.491535
72.885 17.668863
72.890 17.743412
72.895 17.80722
72.900 17.11034
72.905 17.120573
72.910 17.107697
72.915 16.738186
72.920 16.692387
72.925 16.226349
72.930 16.367125
72.935 16.903728
72.940 17.332161
72.945 17.277824
72.950 17.526779
72.955 17.312857
72.960 18.072382
72.965 17.541859
72.970 17.315622
72.975 17.007399
72.980 16.523693
72.985 16.530649
72.990 16.53636
72.995 16.692213
73.000 17.006199
