!@!!GADDS PLOTSO FILE: Chi integration type
!@!!Title/SampleName: map-1f
!@!!Comment: ?
!@!!User: Bruker Instrument Administrator
!@!!Site: University of Illinois Chicago
!@!!Frame: map-1f_01_000.gfrm
!@!!Wavelengths    1.54184   1.54056   1.54439
!@!!Frame angles: 2Theta: 63.000 Omega: 50.000 Phi: 0.000 Chi: 90.000
!@!!Integration range: 2Theta: 53.000 to 73.000  Gamma: -105.000 to -75.000
!@!!Integration method: bin normalized
!@!N
!@!SS
!@!M
!@!L 0.0 0.0 0.0 0.0
!@!XDegrees
!@!YCounts
53.000 7.708071
53.005 7.901735
53.010 8.032969
53.015 7.964442
53.020 7.723608
53.025 7.82211
53.030 8.074916
53.035 8.060875
53.040 8.058472
53.045 7.676133
53.050 7.743617
53.055 7.956378
53.060 7.32981
53.065 6.963206
53.070 7.035642
53.075 6.936262
53.080 6.899231
53.085 6.724642
53.090 6.948925
53.095 7.409343
53.100 7.497545
53.105 7.428786
53.110 7.73264
53.115 8.101886
53.120 7.761205
53.125 7.526112
53.130 7.514
53.135 7.767615
53.140 7.562183
53.145 7.272642
53.150 7.096904
53.155 7.369451
53.160 7.274498
53.165 7.198944
53.170 7.254869
53.175 7.641479
53.180 7.693282
53.185 7.783081
53.190 7.99368
53.195 8.262852
53.200 7.868902
53.205 7.616079
53.210 7.739028
53.215 7.888543
53.220 8.130964
53.225 7.920742
53.230 7.748875
53.235 7.971362
53.240 7.92606
53.245 7.734208
53.250 7.411914
53.255 7.084449
53.260 6.83309
53.265 6.929426
53.270 6.84455
53.275 6.942895
53.280 7.065607
53.285 7.138846
53.290 7.460388
53.295 8.002953
53.300 8.278989
53.305 8.348639
53.310 8.458204
53.315 8.952307
53.320 9.237531
53.325 8.842745
53.330 8.809505
53.335 8.375656
53.340 8.522632
53.345 8.358088
53.350 8.329448
53.355 8.184193
53.360 7.95173
53.365 7.585214
53.370 7.911069
53.375 7.512432
53.380 7.510421
53.385 7.437446
53.390 7.694424
53.395 7.893235
53.400 7.910661
53.405 8.029087
53.410 8.132295
53.415 8.233214
53.420 7.91548
53.425 7.751992
53.430 7.755496
53.435 7.607528
53.440 7.50019
53.445 7.40994
53.450 6.938736
53.455 6.836998
53.460 6.847927
53.465 7.365592
53.470 7.495617
53.475 7.543139
53.480 7.701095
53.485 7.940809
53.490 7.723845
53.495 7.788654
53.500 7.47773
53.505 7.239617
53.510 6.991808
53.515 6.756657
53.520 7.051201
53.525 8.063954
53.530 8.24582
53.535 8.325763
53.540 8.422128
53.545 8.699648
53.550 9.373694
53.555 9.373053
53.560 8.673895
53.565 8.536914
53.570 8.70319
53.575 8.964761
53.580 8.930067
53.585 8.054255
53.590 8.12728
53.595 8.597689
53.600 8.496288
53.605 8.648127
53.610 8.762932
53.615 9.068541
53.620 9.890836
53.625 9.627459
53.630 9.456491
53.635 9.840717
53.640 9.48868
53.645 9.415802
53.650 9.037049
53.655 8.503074
53.660 8.423188
53.665 8.612129
53.670 8.323065
53.675 8.070668
53.680 8.136149
53.685 8.339382
53.690 8.697141
53.695 8.851248
53.700 8.350892
53.705 8.702922
53.710 8.962482
53.715 8.73649
53.720 8.439884
53.725 8.397033
53.730 8.742689
53.735 8.601495
53.740 8.508487
53.745 8.983034
53.750 9.338113
53.755 9.688133
53.760 9.317772
53.765 9.368513
53.770 10.042692
53.775 10.21924
53.780 10.074288
53.785 10.230257
53.790 10.15022
53.795 10.423166
53.800 10.562172
53.805 9.798866
53.810 9.660322
53.815 9.627956
53.820 9.238456
53.825 9.048689
53.830 8.303973
53.835 7.801479
53.840 7.984006
53.845 7.860531
53.850 7.991387
53.855 8.303732
53.860 8.795874
53.865 9.49368
53.870 9.995342
53.875 10.16489
53.880 10.009445
53.885 9.611473
53.890 9.312273
53.895 9.134438
53.900 9.063447
53.905 8.663023
53.910 8.442564
53.915 8.692691
53.920 8.9723
53.925 9.199593
53.930 8.987555
53.935 9.167677
53.940 9.440229
53.945 9.400359
53.950 9.091311
53.955 8.98748
53.960 8.740462
53.965 8.609935
53.970 8.598497
53.975 8.67589
53.980 8.435881
53.985 8.459303
53.990 7.814309
53.995 7.746697
54.000 7.842512
54.005 7.431639
54.010 7.433144
54.015 7.581064
54.020 7.892663
54.025 8.630156
54.030 8.854751
54.035 8.646963
54.040 8.563943
54.045 8.273935
54.050 8.128063
54.055 8.34229
54.060 8.557699
54.065 8.309152
54.070 8.68983
54.075 8.945056
54.080 9.502961
54.085 9.84392
54.090 9.535065
54.095 9.349147
54.100 9.437811
54.105 9.357493
54.110 9.3305
54.115 8.890928
54.120 8.753301
54.125 9.081797
54.130 9.220592
54.135 9.404687
54.140 9.384847
54.145 9.33013
54.150 9.315188
54.155 9.116177
54.160 8.760641
54.165 8.490629
54.170 8.583395
54.175 8.478991
54.180 8.22006
54.185 8.292972
54.190 8.489513
54.195 8.812603
54.200 9.303358
54.205 9.201581
54.210 9.208407
54.215 9.571674
54.220 9.688393
54.225 9.574669
54.230 9.413844
54.235 9.325482
54.240 9.48272
54.245 10.365939
54.250 10.168899
54.255 10.201211
54.260 10.308442
54.265 10.233439
54.270 10.25303
54.275 9.911046
54.280 9.172806
54.285 9.140453
54.290 8.765388
54.295 8.551954
54.300 8.404596
54.305 8.595866
54.310 8.772554
54.315 8.569518
54.320 8.601356
54.325 9.188376
54.330 9.596584
54.335 9.521644
54.340 9.045252
54.345 8.948609
54.350 9.369369
54.355 9.236668
54.360 9.024703
54.365 8.787363
54.370 9.17596
54.375 9.397079
54.380 9.532286
54.385 9.148026
54.390 8.953278
54.395 8.649767
54.400 8.2528
54.405 8.092212
54.410 8.282901
54.415 8.874173
54.420 9.162029
54.425 9.689571
54.430 9.998333
54.435 10.103895
54.440 10.69811
54.445 10.11598
54.450 9.773223
54.455 9.914958
54.460 9.582518
54.465 9.256673
54.470 9.012355
54.475 8.422677
54.480 8.853064
54.485 8.66325
54.490 8.385942
54.495 8.541505
54.500 8.72473
54.505 8.684856
54.510 8.822559
54.515 8.747949
54.520 9.039407
54.525 9.033876
54.530 9.097322
54.535 9.130712
54.540 9.575424
54.545 9.496561
54.550 9.315391
54.555 9.382824
54.560 9.794157
54.565 9.638932
54.570 9.810256
54.575 9.761662
54.580 10.016433
54.585 10.058156
54.590 9.824241
54.595 9.496783
54.600 10.078801
54.605 9.861914
54.610 9.47665
54.615 9.475915
54.620 9.45172
54.625 9.3519
54.630 9.296202
54.635 8.750538
54.640 8.730573
54.645 8.682115
54.650 8.660637
54.655 8.715098
54.660 8.950471
54.665 9.053371
54.670 9.131382
54.675 9.389124
54.680 9.569306
54.685 9.480027
54.690 9.967768
54.695 9.990501
54.700 9.987853
54.705 10.17741
54.710 10.073994
54.715 10.288253
54.720 10.257711
54.725 10.143616
54.730 10.358218
54.735 10.182365
54.740 10.306037
54.745 10.159131
54.750 10.002148
54.755 9.754258
54.760 9.728936
54.765 9.520396
54.770 9.690948
54.775 9.725588
54.780 10.352324
54.785 10.56802
54.790 10.967566
54.795 10.844251
54.800 10.571417
54.805 10.517261
54.810 10.478829
54.815 10.172825
54.820 9.810359
54.825 9.501283
54.830 9.955729
54.835 10.425614
54.840 9.938511
54.845 9.840603
54.850 10.189793
54.855 10.457833
54.860 10.492153
54.865 10.325831
54.870 10.585208
54.875 11.130326
54.880 11.126688
54.885 10.836972
54.890 10.898499
54.895 10.682509
54.900 10.628134
54.905 10.787205
54.910 10.384933
54.915 10.107667
54.920 10.181847
54.925 10.650417
54.930 10.815236
54.935 10.655235
54.940 10.293754
54.945 10.578154
54.950 10.981614
54.955 10.920946
54.960 10.446921
54.965 10.189766
54.970 9.948282
54.975 9.846622
54.980 9.520122
54.985 9.208271
54.990 9.030164
54.995 8.911254
55.000 8.98226
55.005 9.253702
55.010 9.449576
55.015 9.134207
55.020 9.363264
55.025 9.405971
55.030 9.659744
55.035 10.409975
55.040 10.681205
55.045 10.74875
55.050 11.236417
55.055 11.491905
55.060 11.916348
55.065 12.205513
55.070 11.685485
55.075 11.562677
55.080 11.499729
55.085 11.225479
55.090 10.894334
55.095 10.966741
55.100 10.666154
55.105 10.503351
55.110 10.291858
55.115 10.407868
55.120 9.897523
55.125 9.878746
55.130 9.638005
55.135 9.772666
55.140 9.792664
55.145 10.050236
55.150 10.252398
55.155 10.414037
55.160 10.717246
55.165 10.460958
55.170 10.472682
55.175 10.573064
55.180 10.362993
55.185 10.94556
55.190 10.877051
55.195 10.576926
55.200 10.614167
55.205 10.495317
55.210 10.551071
55.215 10.708166
55.220 10.245443
55.225 10.136741
55.230 10.084456
55.235 10.204625
55.240 10.604167
55.245 10.57295
55.250 10.239293
55.255 10.418119
55.260 10.570014
55.265 10.376482
55.270 9.856325
55.275 9.364431
55.280 9.592787
55.285 9.716714
55.290 10.318631
55.295 10.70885
55.300 11.139006
55.305 11.56287
55.310 11.389668
55.315 11.145635
55.320 11.438405
55.325 11.087286
55.330 10.858119
55.335 10.673816
55.340 10.993425
55.345 11.696857
55.350 11.693621
55.355 11.01437
55.360 10.916664
55.365 10.637
55.370 10.248971
55.375 9.314914
55.380 8.956031
55.385 9.110627
55.390 9.02251
55.395 9.379374
55.400 10.053934
55.405 10.696226
55.410 11.406013
55.415 11.382318
55.420 11.22713
55.425 11.73418
55.430 11.439694
55.435 11.464461
55.440 11.756201
55.445 11.533917
55.450 11.481514
55.455 11.360691
55.460 11.169976
55.465 11.276561
55.470 10.59979
55.475 10.157887
55.480 10.138601
55.485 10.269581
55.490 10.135978
55.495 9.9822
55.500 9.697396
55.505 10.100014
55.510 10.336079
55.515 10.236349
55.520 10.434511
55.525 10.70858
55.530 10.462446
55.535 10.869287
55.540 10.786431
55.545 10.701641
55.550 11.137084
55.555 10.852676
55.560 10.738603
55.565 11.19707
55.570 10.840881
55.575 10.815309
55.580 10.862556
55.585 10.853876
55.590 10.951173
55.595 10.691313
55.600 10.46685
55.605 10.407933
55.610 10.41676
55.615 10.162933
55.620 10.104407
55.625 10.383267
55.630 10.573278
55.635 10.907994
55.640 11.343486
55.645 11.308696
55.650 11.104948
55.655 11.181489
55.660 11.140025
55.665 10.841891
55.670 10.839607
55.675 10.358418
55.680 10.395333
55.685 10.389687
55.690 10.116927
55.695 10.098041
55.700 10.144951
55.705 10.028949
55.710 10.521276
55.715 10.358747
55.720 10.72418
55.725 10.667802
55.730 11.231894
55.735 11.354097
55.740 11.213002
55.745 10.707277
55.750 10.802378
55.755 10.736315
55.760 10.480427
55.765 10.145231
55.770 10.218057
55.775 9.710161
55.780 9.931803
55.785 9.997124
55.790 10.153348
55.795 10.184814
55.800 9.801645
55.805 9.691329
55.810 10.301581
55.815 10.424627
55.820 10.62342
55.825 10.436258
55.830 10.459484
55.835 10.719957
55.840 10.848404
55.845 10.759761
55.850 10.838054
55.855 10.883733
55.860 10.980139
55.865 10.955114
55.870 10.823183
55.875 10.926888
55.880 10.729699
55.885 10.768215
55.890 10.975123
55.895 10.943596
55.900 10.673187
55.905 10.333013
55.910 10.208472
55.915 10.46874
55.920 10.004098
55.925 10.019413
55.930 10.394199
55.935 10.743258
55.940 11.37475
55.945 11.948306
55.950 11.958516
55.955 12.031209
55.960 12.10545
55.965 12.214128
55.970 12.24262
55.975 11.684956
55.980 10.700767
55.985 10.546825
55.990 10.115224
55.995 9.390435
56.000 9.201043
56.005 8.901295
56.010 9.298298
56.015 9.834451
56.020 10.170552
56.025 11.034791
56.030 11.748188
56.035 12.234892
56.040 12.241201
56.045 12.073957
56.050 11.869746
56.055 11.727072
56.060 11.68692
56.065 10.866085
56.070 10.416636
56.075 10.741105
56.080 10.675942
56.085 10.595844
56.090 10.491927
56.095 10.315169
56.100 10.507695
56.105 10.639287
56.110 10.317416
56.115 10.693067
56.120 10.727182
56.125 10.555191
56.130 10.362322
56.135 10.72609
56.140 10.762389
56.145 10.832118
56.150 10.57179
56.155 10.755728
56.160 10.477025
56.165 10.668937
56.170 10.726137
56.175 10.73691
56.180 10.655227
56.185 10.840398
56.190 11.221279
56.195 11.816195
56.200 11.669228
56.205 11.621851
56.210 11.739412
56.215 11.507469
56.220 11.251911
56.225 10.933283
56.230 11.360936
56.235 11.812905
56.240 11.97084
56.245 12.239161
56.250 12.770793
56.255 12.847676
56.260 13.274399
56.265 12.579502
56.270 12.126454
56.275 12.187226
56.280 11.802866
56.285 12.008287
56.290 12.164532
56.295 11.692751
56.300 11.638321
56.305 11.887426
56.310 11.835254
56.315 12.309555
56.320 12.19609
56.325 12.13509
56.330 12.307973
56.335 12.499626
56.340 12.666767
56.345 12.312223
56.350 12.316222
56.355 12.415916
56.360 11.759911
56.365 11.729888
56.370 11.370265
56.375 10.602701
56.380 10.56979
56.385 10.129002
56.390 9.75233
56.395 9.776315
56.400 9.618937
56.405 10.125322
56.410 10.752301
56.415 11.344373
56.420 11.342878
56.425 11.551147
56.430 11.980985
56.435 11.909114
56.440 11.491529
56.445 11.042218
56.450 10.829577
56.455 10.841585
56.460 11.031622
56.465 10.860571
56.470 11.029905
56.475 11.268661
56.480 11.142879
56.485 11.204887
56.490 11.604999
56.495 11.545565
56.500 11.698675
56.505 12.151052
56.510 12.364059
56.515 12.461343
56.520 12.306408
56.525 11.77619
56.530 11.919083
56.535 12.255956
56.540 11.801038
56.545 11.414753
56.550 11.264552
56.555 11.378838
56.560 11.399983
56.565 11.11584
56.570 10.993159
56.575 11.641524
56.580 12.173968
56.585 12.207462
56.590 12.263465
56.595 12.162478
56.600 12.102802
56.605 11.625948
56.610 11.347819
56.615 10.927987
56.620 10.817693
56.625 10.87525
56.630 11.316646
56.635 11.314228
56.640 11.499254
56.645 11.512019
56.650 11.569426
56.655 11.406463
56.660 11.354856
56.665 11.358756
56.670 11.090681
56.675 10.461577
56.680 10.722718
56.685 11.426221
56.690 12.012902
56.695 12.131827
56.700 12.349623
56.705 13.012124
56.710 13.62678
56.715 13.906423
56.720 14.150784
56.725 14.203759
56.730 14.350002
56.735 14.150046
56.740 14.17151
56.745 13.807665
56.750 13.069401
56.755 12.796985
56.760 12.735861
56.765 12.705527
56.770 12.540984
56.775 12.17758
56.780 12.152133
56.785 12.400939
56.790 12.363127
56.795 12.337147
56.800 12.535459
56.805 12.86044
56.810 13.169727
56.815 13.664129
56.820 13.885984
56.825 13.484255
56.830 13.290994
56.835 13.228841
56.840 13.316932
56.845 13.174882
56.850 12.891485
56.855 12.557424
56.860 12.906067
56.865 13.077675
56.870 13.145037
56.875 12.819231
56.880 13.064331
56.885 13.345079
56.890 13.278707
56.895 13.501287
56.900 13.815773
56.905 13.915705
56.910 14.162715
56.915 13.692531
56.920 13.632739
56.925 13.953531
56.930 13.819628
56.935 13.723797
56.940 13.513538
56.945 13.346592
56.950 13.154079
56.955 13.159091
56.960 12.784222
56.965 12.562426
56.970 12.221836
56.975 12.057097
56.980 11.951152
56.985 12.212219
56.990 12.526474
56.995 13.246624
57.000 13.324781
57.005 13.283684
57.010 13.452424
57.015 13.521962
57.020 13.268572
57.025 12.92061
57.030 12.644648
57.035 12.168725
57.040 11.943879
57.045 12.057943
57.050 12.549329
57.055 12.993227
57.060 12.457256
57.065 12.162055
57.070 12.112571
57.075 11.832724
57.080 12.282532
57.085 12.134339
57.090 12.235699
57.095 12.580642
57.100 12.94438
57.105 13.372534
57.110 14.026235
57.115 13.517479
57.120 13.275418
57.125 13.413997
57.130 13.320525
57.135 13.179909
57.140 13.167303
57.145 12.780656
57.150 12.817061
57.155 12.844606
57.160 12.158032
57.165 12.097379
57.170 11.742097
57.175 11.748784
57.180 11.432643
57.185 11.654919
57.190 11.601308
57.195 12.474196
57.200 13.571481
57.205 14.182345
57.210 14.764647
57.215 14.955945
57.220 14.618146
57.225 14.6816
57.230 14.584874
57.235 13.914468
57.240 13.460232
57.245 12.819745
57.250 12.575795
57.255 12.62369
57.260 12.433964
57.265 12.169996
57.270 12.080589
57.275 12.065374
57.280 12.379221
57.285 12.389663
57.290 12.513149
57.295 12.472379
57.300 12.475338
57.305 12.578035
57.310 12.669394
57.315 12.364288
57.320 12.849451
57.325 13.073669
57.330 13.23837
57.335 13.359471
57.340 13.99503
57.345 14.669694
57.350 15.106121
57.355 14.814919
57.360 14.808764
57.365 14.361869
57.370 14.099248
57.375 13.631867
57.380 13.396866
57.385 12.635788
57.390 12.487487
57.395 12.510216
57.400 12.489998
57.405 12.92016
57.410 12.58378
57.415 12.466584
57.420 12.761461
57.425 12.760277
57.430 13.10294
57.435 13.648097
57.440 13.399295
57.445 13.633738
57.450 13.670901
57.455 13.72245
57.460 13.519533
57.465 13.193704
57.470 13.138489
57.475 12.809985
57.480 12.824841
57.485 12.785888
57.490 13.293848
57.495 13.525537
57.500 13.464106
57.505 13.091902
57.510 12.694779
57.515 12.566186
57.520 12.189783
57.525 11.384697
57.530 11.555986
57.535 11.337963
57.540 11.923171
57.545 12.151277
57.550 12.501901
57.555 12.852736
57.560 13.057273
57.565 13.553729
57.570 13.534953
57.575 13.292301
57.580 13.429708
57.585 12.829591
57.590 12.926152
57.595 12.792619
57.600 12.357279
57.605 11.969585
57.610 11.708699
57.615 11.594565
57.620 11.872465
57.625 12.531195
57.630 12.710181
57.635 12.801382
57.640 13.349647
57.645 13.206664
57.650 13.356124
57.655 13.315587
57.660 12.875072
57.665 12.739661
57.670 12.556075
57.675 12.314487
57.680 12.776506
57.685 13.13096
57.690 13.495576
57.695 13.624423
57.700 13.794746
57.705 14.142162
57.710 14.864655
57.715 14.674926
57.720 14.535336
57.725 14.51232
57.730 15.078958
57.735 15.188694
57.740 15.246249
57.745 15.108492
57.750 15.540515
57.755 15.523995
57.760 15.099186
57.765 14.748318
57.770 14.513804
57.775 14.321929
57.780 14.556153
57.785 14.393151
57.790 14.690526
57.795 14.679656
57.800 14.304676
57.805 13.920207
57.810 13.836627
57.815 13.475323
57.820 13.573198
57.825 13.184307
57.830 13.252106
57.835 13.300185
57.840 13.31108
57.845 13.531537
57.850 13.375633
57.855 13.275925
57.860 13.320888
57.865 13.27482
57.870 13.656595
57.875 13.924316
57.880 13.779251
57.885 13.425916
57.890 13.405126
57.895 13.317618
57.900 13.160513
57.905 12.905705
57.910 12.685377
57.915 12.477306
57.920 12.357741
57.925 12.019586
57.930 11.948187
57.935 11.927705
57.940 11.784204
57.945 11.770038
57.950 11.722897
57.955 12.019508
57.960 12.292027
57.965 12.717135
57.970 12.917459
57.975 13.20396
57.980 13.246174
57.985 13.453902
57.990 13.628473
57.995 13.623698
58.000 13.34736
58.005 13.000254
58.010 13.621699
58.015 13.840564
58.020 13.556639
58.025 13.273827
58.030 13.523294
58.035 13.833503
58.040 13.727839
58.045 13.213327
58.050 13.550453
58.055 13.990775
58.060 14.472647
58.065 14.695374
58.070 14.572294
58.075 14.709636
58.080 14.855383
58.085 14.618555
58.090 14.519293
58.095 13.777893
58.100 13.069638
58.105 13.683861
58.110 13.412621
58.115 12.959588
58.120 12.991143
58.125 13.200891
58.130 13.660045
58.135 14.074222
58.140 13.846298
58.145 14.228333
58.150 14.342048
58.155 14.340107
58.160 13.803403
58.165 13.429765
58.170 13.340251
58.175 13.513888
58.180 13.526465
58.185 13.363493
58.190 12.944669
58.195 13.164884
58.200 13.543516
58.205 13.413345
58.210 13.405347
58.215 13.660235
58.220 14.284986
58.225 14.824421
58.230 15.075139
58.235 14.940779
58.240 14.818027
58.245 14.622794
58.250 14.25943
58.255 13.579459
58.260 13.59931
58.265 13.565022
58.270 13.536363
58.275 13.775717
58.280 13.400851
58.285 14.008614
58.290 14.498309
58.295 14.283973
58.300 14.33052
58.305 14.631973
58.310 14.778431
58.315 15.015615
58.320 14.65033
58.325 14.364204
58.330 14.387496
58.335 14.626956
58.340 14.404008
58.345 14.6113
58.350 14.171771
58.355 14.167765
58.360 14.367345
58.365 14.375617
58.370 13.937147
58.375 14.006212
58.380 13.81005
58.385 13.803465
58.390 13.490088
58.395 13.293406
58.400 13.222412
58.405 12.977908
58.410 12.302535
58.415 12.052126
58.420 12.536691
58.425 12.658293
58.430 12.498326
58.435 12.230189
58.440 12.186331
58.445 12.406168
58.450 12.489827
58.455 12.888401
58.460 13.440594
58.465 13.662427
58.470 14.472269
58.475 14.529762
58.480 14.614244
58.485 14.50482
58.490 14.304456
58.495 14.635412
58.500 14.315478
58.505 13.672968
58.510 13.709528
58.515 14.059829
58.520 14.258181
58.525 14.387396
58.530 14.383979
58.535 14.497969
58.540 15.051085
58.545 15.562425
58.550 15.0065
58.555 14.268872
58.560 13.35261
58.565 12.93476
58.570 12.92353
58.575 12.767345
58.580 12.40944
58.585 12.72934
58.590 13.098158
58.595 12.796042
58.600 12.62129
58.605 12.680528
58.610 12.588293
58.615 12.645934
58.620 12.715042
58.625 12.940158
58.630 13.941948
58.635 14.08644
58.640 14.012636
58.645 14.202073
58.650 14.626539
58.655 14.605468
58.660 14.676881
58.665 14.699471
58.670 14.719386
58.675 14.258393
58.680 13.75682
58.685 13.438271
58.690 13.634626
58.695 13.691473
58.700 13.077565
58.705 13.150071
58.710 13.515005
58.715 13.672683
58.720 13.528437
58.725 13.897924
58.730 13.775013
58.735 14.107683
58.740 14.473476
58.745 14.397019
58.750 14.787189
58.755 15.049491
58.760 14.810329
58.765 14.80126
58.770 14.981926
58.775 14.413945
58.780 13.966955
58.785 13.278783
58.790 13.213821
58.795 13.502892
58.800 13.102242
58.805 12.660497
58.810 13.143133
58.815 14.095435
58.820 14.814973
58.825 14.595755
58.830 14.414793
58.835 14.687085
58.840 14.807558
58.845 15.156914
58.850 14.819573
58.855 14.9426
58.860 15.440419
58.865 15.522268
58.870 15.675958
58.875 15.539716
58.880 14.980379
58.885 15.110706
58.890 15.091991
58.895 14.731474
58.900 14.995957
58.905 14.616726
58.910 14.829766
58.915 15.281252
58.920 15.266772
58.925 15.552794
58.930 16.016649
58.935 15.718858
58.940 16.350285
58.945 16.449188
58.950 16.072346
58.955 16.61841
58.960 16.704964
58.965 16.347475
58.970 16.606199
58.975 16.252077
58.980 16.947624
58.985 17.303425
58.990 16.916054
58.995 16.446913
59.000 16.561825
59.005 16.128685
59.010 16.562628
59.015 16.323498
59.020 15.917561
59.025 15.405847
59.030 15.510177
59.035 15.016896
59.040 14.893728
59.045 14.820018
59.050 14.734015
59.055 14.877245
59.060 14.320028
59.065 14.263355
59.070 14.890667
59.075 14.826539
59.080 14.608669
59.085 14.688684
59.090 15.121037
59.095 15.749494
59.100 15.154968
59.105 14.947495
59.110 15.065919
59.115 15.070412
59.120 14.436711
59.125 13.710027
59.130 13.524983
59.135 13.921252
59.140 13.752934
59.145 13.839893
59.150 14.061211
59.155 14.382342
59.160 14.495659
59.165 14.863503
59.170 15.092482
59.175 15.497986
59.180 15.076493
59.185 14.773698
59.190 14.797327
59.195 14.923611
59.200 14.975619
59.205 15.495624
59.210 15.573674
59.215 15.810946
59.220 16.03219
59.225 16.53474
59.230 16.963522
59.235 16.832663
59.240 15.774978
59.245 15.386354
59.250 15.558963
59.255 15.435381
59.260 15.132134
59.265 14.906347
59.270 14.890161
59.275 15.603858
59.280 15.768695
59.285 15.358114
59.290 14.645528
59.295 14.544139
59.300 14.493425
59.305 14.346949
59.310 14.142766
59.315 14.521017
59.320 15.1609
59.325 15.854386
59.330 16.045818
59.335 16.100327
59.340 16.003746
59.345 15.813261
59.350 15.734729
59.355 15.515932
59.360 15.456056
59.365 15.679781
59.370 15.582502
59.375 15.515621
59.380 15.527358
59.385 15.578781
59.390 15.889894
59.395 15.914838
59.400 15.810796
59.405 15.725453
59.410 16.019995
59.415 16.219585
59.420 16.027668
59.425 15.911746
59.430 16.044786
59.435 16.155024
59.440 16.777287
59.445 16.826958
59.450 16.861609
59.455 17.155405
59.460 17.768934
59.465 17.703119
59.470 17.698494
59.475 17.603554
59.480 17.665119
59.485 17.92992
59.490 18.174685
59.495 17.871202
59.500 17.995415
59.505 18.104063
59.510 17.793058
59.515 17.646893
59.520 17.268276
59.525 17.06362
59.530 17.10635
59.535 17.015759
59.540 17.068604
59.545 17.547796
59.550 17.522802
59.555 17.591843
59.560 17.55694
59.565 17.408243
59.570 17.180897
59.575 16.917818
59.580 16.83782
59.585 16.557228
59.590 16.383188
59.595 16.412134
59.600 16.557592
59.605 16.978664
59.610 17.435881
59.615 17.688412
59.620 17.856915
59.625 17.729282
59.630 17.579531
59.635 17.458782
59.640 17.535639
59.645 17.384079
59.650 17.485611
59.655 17.654089
59.660 17.764887
59.665 17.731049
59.670 18.439455
59.675 18.423912
59.680 18.862524
59.685 18.663639
59.690 18.766951
59.695 19.082987
59.700 19.982676
59.705 19.331749
59.710 19.180061
59.715 18.953121
59.720 19.394499
59.725 19.296322
59.730 18.873369
59.735 18.097923
59.740 17.971788
59.745 17.526789
59.750 17.185291
59.755 16.282139
59.760 16.245169
59.765 17.003679
59.770 17.829536
59.775 18.365524
59.780 18.620842
59.785 19.072083
59.790 19.954538
59.795 20.111578
59.800 19.551668
59.805 18.172649
59.810 17.689764
59.815 17.577312
59.820 17.244816
59.825 16.864914
59.830 17.056389
59.835 17.166117
59.840 18.663334
59.845 19.917484
59.850 20.208353
59.855 19.94467
59.860 19.477684
59.865 19.343588
59.870 19.086557
59.875 17.668062
59.880 16.856852
59.885 16.773941
59.890 17.433401
59.895 17.771301
59.900 17.638783
59.905 17.772373
59.910 18.338083
59.915 19.054235
59.920 19.195202
59.925 19.137522
59.930 19.474323
59.935 19.351854
59.940 19.702465
59.945 19.620527
59.950 19.264027
59.955 19.220984
59.960 19.253256
59.965 19.074343
59.970 19.148733
59.975 18.684832
59.980 18.843246
59.985 19.205732
59.990 19.56875
59.995 19.785685
60.000 20.122623
60.005 20.296509
60.010 20.589643
60.015 20.249962
60.020 20.130489
60.025 20.273798
60.030 20.387785
60.035 20.331488
60.040 20.224047
60.045 20.543259
60.050 21.131964
60.055 21.176363
60.060 21.560642
60.065 21.576128
60.070 22.099607
60.075 22.271925
60.080 22.621906
60.085 22.392271
60.090 21.735968
60.095 20.955498
60.100 20.972153
60.105 20.761103
60.110 20.854488
60.115 20.45224
60.120 20.087673
60.125 19.725952
60.130 19.26466
60.135 19.364491
60.140 19.409197
60.145 19.311552
60.150 19.218613
60.155 19.696815
60.160 20.391575
60.165 20.533014
60.170 20.957689
60.175 20.913671
60.180 20.705069
60.185 20.499691
60.190 20.402525
60.195 20.008739
60.200 20.18021
60.205 19.863279
60.210 19.765951
60.215 19.706282
60.220 20.23122
60.225 20.306906
60.230 20.987434
60.235 20.945972
60.240 20.712273
60.245 21.277481
60.250 21.502682
60.255 21.127197
60.260 21.27725
60.265 20.727093
60.270 20.530226
60.275 20.054398
60.280 19.838976
60.285 19.709095
60.290 20.144108
60.295 19.803129
60.300 19.997313
60.305 20.626654
60.310 21.275524
60.315 21.113335
60.320 21.506701
60.325 20.989096
60.330 21.01152
60.335 20.764948
60.340 20.613525
60.345 19.966185
60.350 19.387939
60.355 18.880466
60.360 18.439728
60.365 18.895678
60.370 19.158804
60.375 19.069698
60.380 19.408043
60.385 20.018106
60.390 19.800514
60.395 20.039633
60.400 19.855824
60.405 19.84832
60.410 19.91559
60.415 20.093082
60.420 19.563747
60.425 19.665117
60.430 19.530577
60.435 18.84104
60.440 17.96501
60.445 17.414804
60.450 17.424423
60.455 17.600948
60.460 17.928726
60.465 17.808228
60.470 17.970537
60.475 18.189432
60.480 18.313646
60.485 18.182981
60.490 18.106995
60.495 18.296507
60.500 18.837088
60.505 18.861755
60.510 18.983599
60.515 18.626322
60.520 18.253592
60.525 18.663483
60.530 18.648438
60.535 18.448969
60.540 18.778522
60.545 18.627106
60.550 19.363495
60.555 19.852125
60.560 19.515364
60.565 19.149549
60.570 18.315605
60.575 18.106215
60.580 18.462637
60.585 18.104046
60.590 17.792227
60.595 18.105854
60.600 18.281128
60.605 19.097483
60.610 19.390526
60.615 19.39854
60.620 19.891056
60.625 19.802444
60.630 19.538784
60.635 19.340399
60.640 19.210363
60.645 19.648632
60.650 19.831858
60.655 19.605331
60.660 19.4464
60.665 19.583048
60.670 19.702717
60.675 19.313835
60.680 18.284657
60.685 17.570293
60.690 16.940985
60.695 17.044579
60.700 16.744247
60.705 16.777803
60.710 17.163357
60.715 16.890142
60.720 16.891209
60.725 16.734344
60.730 16.442051
60.735 16.699511
60.740 16.524498
60.745 16.549522
60.750 17.185675
60.755 17.572701
60.760 18.162729
60.765 18.316011
60.770 18.081133
60.775 17.407547
60.780 17.164389
60.785 17.161987
60.790 16.740437
60.795 16.615955
60.800 16.838694
60.805 17.015272
60.810 17.948542
60.815 18.212154
60.820 18.18961
60.825 18.852875
60.830 18.948843
60.835 18.412781
60.840 18.291735
60.845 17.916384
60.850 17.804697
60.855 17.626909
60.860 17.325422
60.865 17.348692
60.870 17.413708
60.875 17.704567
60.880 17.423773
60.885 17.284492
60.890 17.396748
60.895 17.259249
60.900 17.628643
60.905 17.816122
60.910 17.78467
60.915 17.900076
60.920 17.740135
60.925 17.448978
60.930 17.109602
60.935 16.404024
60.940 15.963296
60.945 15.393069
60.950 15.158524
60.955 15.27649
60.960 15.529892
60.965 15.902049
60.970 15.946215
60.975 15.923038
60.980 16.169285
60.985 16.319262
60.990 16.151436
60.995 16.279379
61.000 16.029465
61.005 16.1444
61.010 16.386734
61.015 16.925581
61.020 17.165087
61.025 17.336269
61.030 17.322628
61.035 17.288458
61.040 17.6136
61.045 18.031628
61.050 17.639444
61.055 17.414389
61.060 17.371166
61.065 17.391296
61.070 17.071854
61.075 16.781689
61.080 16.775074
61.085 16.427465
61.090 16.30345
61.095 16.316521
61.100 16.39505
61.105 16.907713
61.110 16.312241
61.115 15.672789
61.120 15.771495
61.125 16.43445
61.130 16.504227
61.135 16.344931
61.140 15.996376
61.145 16.062681
61.150 16.117889
61.155 16.120693
61.160 16.486494
61.165 16.911203
61.170 16.718502
61.175 16.733599
61.180 16.820515
61.185 16.768942
61.190 16.488029
61.195 15.752481
61.200 15.97595
61.205 16.490679
61.210 16.798813
61.215 17.041431
61.220 17.083885
61.225 17.407097
61.230 17.599224
61.235 16.861917
61.240 16.688032
61.245 17.106718
61.250 17.264055
61.255 17.746101
61.260 18.029434
61.265 17.887566
61.270 18.199467
61.275 18.171465
61.280 17.380621
61.285 16.859842
61.290 16.879148
61.295 16.70569
61.300 16.803793
61.305 16.222258
61.310 15.985118
61.315 16.83095
61.320 17.000681
61.325 16.293566
61.330 15.457614
61.335 15.199726
61.340 15.67395
61.345 15.558879
61.350 15.490687
61.355 15.75949
61.360 16.089312
61.365 16.641392
61.370 16.601269
61.375 16.111429
61.380 15.613414
61.385 14.937915
61.390 15.138229
61.395 15.350691
61.400 15.606062
61.405 15.243589
61.410 15.960201
61.415 16.691036
61.420 17.130413
61.425 16.873888
61.430 16.693254
61.435 16.625429
61.440 16.819239
61.445 16.548641
61.450 17.06114
61.455 16.884186
61.460 16.687771
61.465 16.358187
61.470 16.410816
61.475 16.46199
61.480 16.347479
61.485 16.071747
61.490 16.531839
61.495 16.602036
61.500 16.601112
61.505 16.574608
61.510 17.516075
61.515 17.713438
61.520 17.23852
61.525 17.059664
61.530 17.804502
61.535 18.035774
61.540 18.037224
61.545 16.682261
61.550 16.16544
61.555 16.046446
61.560 16.046211
61.565 15.471177
61.570 15.604574
61.575 15.644674
61.580 15.998906
61.585 16.251333
61.590 16.643415
61.595 16.500669
61.600 16.687263
61.605 16.413139
61.610 16.803625
61.615 16.727161
61.620 16.591311
61.625 16.450222
61.630 16.066225
61.635 16.05595
61.640 15.97966
61.645 15.907479
61.650 16.152439
61.655 16.005175
61.660 16.292297
61.665 16.922297
61.670 16.986383
61.675 17.360979
61.680 17.163904
61.685 16.777681
61.690 16.721972
61.695 16.267015
61.700 15.890878
61.705 15.810645
61.710 15.64324
61.715 16.120012
61.720 16.631884
61.725 16.93012
61.730 16.904823
61.735 16.799421
61.740 16.340137
61.745 15.736491
61.750 15.286108
61.755 15.286025
61.760 15.344035
61.765 15.355042
61.770 15.904727
61.775 16.342831
61.780 16.481188
61.785 15.788565
61.790 15.494055
61.795 15.456261
61.800 14.987031
61.805 14.956033
61.810 14.976514
61.815 15.425072
61.820 16.41991
61.825 16.425529
61.830 16.386492
61.835 16.866205
61.840 17.358742
61.845 17.353729
61.850 17.18676
61.855 16.586946
61.860 17.134066
61.865 17.369345
61.870 17.204674
61.875 16.475794
61.880 16.608814
61.885 16.540945
61.890 16.802771
61.895 16.756861
61.900 16.623373
61.905 16.777819
61.910 16.784931
61.915 16.391243
61.920 16.987471
61.925 17.082802
61.930 16.240604
61.935 16.392544
61.940 16.47666
61.945 16.870695
61.950 17.589504
61.955 17.019415
61.960 16.463453
61.965 16.889101
61.970 16.886063
61.975 16.723017
61.980 16.426609
61.985 15.819123
61.990 15.584246
61.995 15.120287
62.000 15.123953
62.005 15.626069
62.010 15.426578
62.015 15.447555
62.020 16.013231
62.025 16.612085
62.030 17.217701
62.035 17.180534
62.040 16.703316
62.045 16.974703
62.050 16.620388
62.055 15.940701
62.060 15.843959
62.065 15.882784
62.070 15.876641
62.075 15.618661
62.080 15.139898
62.085 15.099414
62.090 15.221261
62.095 14.664392
62.100 14.619473
62.105 14.685826
62.110 15.247603
62.115 15.809523
62.120 16.342735
62.125 16.593903
62.130 17.185713
62.135 17.33511
62.140 17.037279
62.145 16.819298
62.150 17.058947
62.155 16.826021
62.160 17.16971
62.165 17.359854
62.170 17.851233
62.175 18.065216
62.180 17.701801
62.185 17.029631
62.190 16.963497
62.195 16.436443
62.200 16.404484
62.205 16.115211
62.210 16.379984
62.215 16.66519
62.220 16.750803
62.225 16.743607
62.230 16.924898
62.235 16.40988
62.240 16.549393
62.245 16.392441
62.250 16.163666
62.255 16.123816
62.260 15.791243
62.265 15.611501
62.270 15.527758
62.275 15.175079
62.280 14.598131
62.285 14.585581
62.290 14.603238
62.295 15.275084
62.300 15.328674
62.305 15.626371
62.310 15.6256
62.315 16.193472
62.320 16.468769
62.325 16.093
62.330 15.409037
62.335 15.697455
62.340 15.972661
62.345 16.019785
62.350 15.662795
62.355 15.828068
62.360 16.497786
62.365 17.049858
62.370 16.919584
62.375 16.675106
62.380 17.122459
62.385 16.759899
62.390 15.859754
62.395 15.54263
62.400 15.535067
62.405 15.337728
62.410 15.225999
62.415 14.822021
62.420 15.163099
62.425 15.798541
62.430 16.078812
62.435 16.161533
62.440 16.682245
62.445 17.46467
62.450 18.113144
62.455 18.344282
62.460 18.543568
62.465 18.874825
62.470 19.056751
62.475 19.117252
62.480 18.376196
62.485 17.890976
62.490 17.75815
62.495 17.318483
62.500 16.678446
62.505 16.338785
62.510 15.807367
62.515 16.345482
62.520 16.591362
62.525 17.090647
62.530 17.185987
62.535 16.462839
62.540 15.978501
62.545 16.305283
62.550 16.02335
62.555 16.141022
62.560 15.991905
62.565 16.791544
62.570 17.260395
62.575 17.356693
62.580 17.42547
62.585 17.049837
62.590 16.490282
62.595 16.122419
62.600 15.677378
62.605 15.904997
62.610 15.890896
62.615 15.708263
62.620 16.122252
62.625 16.900333
62.630 17.287043
62.635 17.410286
62.640 17.547235
62.645 17.595757
62.650 17.681921
62.655 18.082512
62.660 17.430029
62.665 16.641497
62.670 16.743349
62.675 16.755014
62.680 16.325737
62.685 15.906244
62.690 15.551723
62.695 15.975483
62.700 16.434484
62.705 16.666655
62.710 17.186413
62.715 17.637444
62.720 17.72208
62.725 17.883615
62.730 17.754904
62.735 17.719374
62.740 16.864668
62.745 16.287182
62.750 16.649153
62.755 16.674355
62.760 16.475962
62.765 16.399303
62.770 16.663193
62.775 16.986437
62.780 17.298624
62.785 17.034664
62.790 17.042347
62.795 16.773664
62.800 17.252728
62.805 17.900314
62.810 18.302582
62.815 17.608727
62.820 17.179443
62.825 16.933226
62.830 16.631348
62.835 16.040401
62.840 15.278529
62.845 15.185401
62.850 15.717315
62.855 16.59429
62.860 16.982414
62.865 17.216343
62.870 16.650043
62.875 16.648706
62.880 16.16987
62.885 15.894551
62.890 15.563898
62.895 15.529465
62.900 15.932739
62.905 16.343328
62.910 16.264906
62.915 16.889532
62.920 17.048117
62.925 16.904766
62.930 16.758022
62.935 16.719103
62.940 16.867123
62.945 16.505259
62.950 16.185497
62.955 16.315157
62.960 16.081541
62.965 16.031265
62.970 16.208443
62.975 16.190008
62.980 16.261347
62.985 16.335138
62.990 16.506672
62.995 16.82622
63.000 17.224144
63.005 17.368267
63.010 17.8437
63.015 17.565025
63.020 17.33197
63.025 17.276426
63.030 17.254839
63.035 16.345789
63.040 15.540366
63.045 15.35322
63.050 15.900748
63.055 16.094061
63.060 15.897018
63.065 15.900954
63.070 16.233248
63.075 16.335138
63.080 16.435318
63.085 16.324251
63.090 16.083973
63.095 15.533514
63.100 14.880579
63.105 14.787588
63.110 15.088061
63.115 15.26284
63.120 14.815305
63.125 14.669203
63.130 15.485768
63.135 15.76927
63.140 15.970876
63.145 15.605118
63.150 15.692934
63.155 16.55076
63.160 16.836313
63.165 16.962486
63.170 17.454887
63.175 18.028036
63.180 18.53702
63.185 18.123356
63.190 17.762302
63.195 17.527655
63.200 17.669193
63.205 17.646702
63.210 17.292181
63.215 17.217943
63.220 17.342657
63.225 16.973862
63.230 17.121796
63.235 16.720091
63.240 16.616243
63.245 16.47131
63.250 16.507496
63.255 17.162958
63.260 17.302414
63.265 16.879026
63.270 17.210211
63.275 17.36924
63.280 17.617764
63.285 17.482508
63.290 17.075487
63.295 17.353088
63.300 17.335846
63.305 17.29821
63.310 17.339043
63.315 17.002424
63.320 16.77154
63.325 16.668447
63.330 16.758165
63.335 16.807526
63.340 16.435104
63.345 16.116577
63.350 15.894189
63.355 16.191471
63.360 16.75211
63.365 17.081726
63.370 17.359673
63.375 17.788021
63.380 18.241247
63.385 18.734015
63.390 18.497477
63.395 17.486233
63.400 16.920126
63.405 16.687757
63.410 16.309048
63.415 15.606299
63.420 15.487843
63.425 15.948478
63.430 16.201128
63.435 16.666672
63.440 17.105625
63.445 17.530905
63.450 18.147213
63.455 18.848701
63.460 18.305742
63.465 18.226986
63.470 17.306473
63.475 16.934788
63.480 16.860037
63.485 16.534391
63.490 16.38776
63.495 16.646757
63.500 16.671415
63.505 17.218645
63.510 17.37332
63.515 17.311653
63.520 17.048798
63.525 16.821161
63.530 16.342962
63.535 16.836536
63.540 17.248095
63.545 17.283535
63.550 17.06568
63.555 16.871407
63.560 17.14595
63.565 17.275211
63.570 17.091261
63.575 17.036505
63.580 16.915585
63.585 16.741468
63.590 17.0795
63.595 17.195181
63.600 17.951017
63.605 17.837164
63.610 17.529236
63.615 17.693108
63.620 18.117271
63.625 17.822803
63.630 17.24015
63.635 17.042145
63.640 17.051208
63.645 17.125694
63.650 17.041735
63.655 17.157736
63.660 17.62138
63.665 18.148188
63.670 18.07164
63.675 17.860609
63.680 17.713863
63.685 17.600742
63.690 17.589855
63.695 17.558537
63.700 17.045916
63.705 17.055386
63.710 17.142851
63.715 17.078554
63.720 17.212248
63.725 17.047905
63.730 16.385773
63.735 16.34516
63.740 16.44602
63.745 16.821178
63.750 17.190439
63.755 16.883009
63.760 16.588818
63.765 16.864746
63.770 16.521023
63.775 16.377132
63.780 16.449282
63.785 16.091745
63.790 15.808325
63.795 16.184423
63.800 16.405663
63.805 16.888914
63.810 16.89686
63.815 16.62414
63.820 16.676163
63.825 17.030085
63.830 17.144762
63.835 17.156368
63.840 17.17635
63.845 16.874424
63.850 16.771912
63.855 16.779522
63.860 16.729248
63.865 16.548641
63.870 16.564875
63.875 16.485891
63.880 16.345533
63.885 16.806683
63.890 16.780933
63.895 17.217293
63.900 17.260286
63.905 17.406488
63.910 17.649721
63.915 17.8937
63.920 17.710331
63.925 17.652678
63.930 17.724262
63.935 17.727982
63.940 17.467009
63.945 17.718584
63.950 17.859867
63.955 18.506556
63.960 19.01869
63.965 19.262808
63.970 19.213692
63.975 19.76231
63.980 19.997852
63.985 20.021788
63.990 19.609776
63.995 19.274309
64.000 18.933109
64.005 19.12611
64.010 19.309166
64.015 19.220789
64.020 19.154041
64.025 18.966629
64.030 18.48213
64.035 19.026575
64.040 18.570692
64.045 17.76071
64.050 17.460802
64.055 17.017031
64.060 17.26096
64.065 17.463764
64.070 16.940025
64.075 17.514517
64.080 17.852329
64.085 17.742594
64.090 17.690147
64.095 17.760063
64.100 17.593876
64.105 17.275145
64.110 17.438808
64.115 16.935041
64.120 17.004015
64.125 17.137823
64.130 17.414131
64.135 18.008602
64.140 17.546167
64.145 16.955072
64.150 17.019165
64.155 17.225159
64.160 17.07328
64.165 16.862684
64.170 16.557058
64.175 17.131851
64.180 17.645239
64.185 17.885162
64.190 17.351755
64.195 17.34548
64.200 17.646385
64.205 17.966261
64.210 17.858845
64.215 17.65522
64.220 17.545441
64.225 18.126276
64.230 18.473738
64.235 18.411026
64.240 18.47788
64.245 18.384068
64.250 18.304392
64.255 19.035475
64.260 19.26108
64.265 18.865757
64.270 18.47806
64.275 18.369547
64.280 19.262978
64.285 19.105782
64.290 18.416536
64.295 18.36471
64.300 18.630451
64.305 18.589386
64.310 18.867729
64.315 18.184942
64.320 18.306601
64.325 18.88509
64.330 18.603407
64.335 17.968977
64.340 18.181288
64.345 17.823277
64.350 18.300869
64.355 18.385715
64.360 18.290108
64.365 18.26033
64.370 18.488277
64.375 18.082287
64.380 17.680813
64.385 17.062687
64.390 16.999165
64.395 16.383478
64.400 17.106667
64.405 17.344919
64.410 17.310375
64.415 17.478859
64.420 17.777571
64.425 17.754972
64.430 17.262247
64.435 16.761209
64.440 17.265759
64.445 18.021292
64.450 18.197035
64.455 18.13048
64.460 18.46501
64.465 19.090887
64.470 19.151016
64.475 18.839859
64.480 19.142523
64.485 19.300549
64.490 19.753386
64.495 19.954481
64.500 20.78496
64.505 20.814489
64.510 20.910995
64.515 20.055904
64.520 19.525732
64.525 18.87812
64.530 18.707188
64.535 17.459705
64.540 16.902672
64.545 16.518137
64.550 16.559301
64.555 17.012053
64.560 16.986742
64.565 17.447569
64.570 18.411692
64.575 19.632421
64.580 20.460817
64.585 21.020172
64.590 21.020802
64.595 21.307943
64.600 20.778179
64.605 20.491682
64.610 19.82984
64.615 19.150763
64.620 19.152269
64.625 19.090017
64.630 19.109766
64.635 19.1642
64.640 19.504227
64.645 19.802605
64.650 20.027634
64.655 19.73634
64.660 20.077227
64.665 20.315739
64.670 20.626789
64.675 20.26524
64.680 20.08946
64.685 20.269426
64.690 20.637281
64.695 20.298479
64.700 19.702005
64.705 19.165699
64.710 19.065796
64.715 18.738117
64.720 18.361553
64.725 18.031584
64.730 18.190308
64.735 18.742298
64.740 18.97694
64.745 18.965322
64.750 19.102768
64.755 19.803188
64.760 20.123358
64.765 19.835972
64.770 19.521704
64.775 19.065561
64.780 19.22949
64.785 19.129431
64.790 18.278772
64.795 17.867859
64.800 18.180996
64.805 18.400738
64.810 18.354353
64.815 19.075645
64.820 19.08407
64.825 19.375717
64.830 19.25449
64.835 19.08503
64.840 19.157494
64.845 19.324009
64.850 18.102386
64.855 18.000048
64.860 18.35589
64.865 18.507591
64.870 18.728024
64.875 19.280798
64.880 20.120983
64.885 21.015051
64.890 21.110893
64.895 20.922981
64.900 21.049349
64.905 21.212513
64.910 20.773485
64.915 20.200914
64.920 20.402664
64.925 20.564373
64.930 20.744389
64.935 21.182863
64.940 21.306248
64.945 21.397795
64.950 21.066198
64.955 21.356693
64.960 21.572264
64.965 21.554037
64.970 21.342283
64.975 20.535576
64.980 20.561131
64.985 20.999146
64.990 20.09931
64.995 20.066149
65.000 20.092398
65.005 19.909338
65.010 20.425556
65.015 20.84367
65.020 21.217047
65.025 21.227644
65.030 20.454304
65.035 20.320261
65.040 20.371981
65.045 20.372576
65.050 20.081032
65.055 19.409781
65.060 19.339491
65.065 19.565571
65.070 20.110332
65.075 20.632132
65.080 20.732012
65.085 20.703176
65.090 20.752951
65.095 21.389105
65.100 21.383543
65.105 20.497175
65.110 20.017021
65.115 20.033781
65.120 19.922491
65.125 19.928501
65.130 19.816929
65.135 20.357784
65.140 20.589367
65.145 20.836584
65.150 20.792532
65.155 21.239559
65.160 21.444363
65.165 21.644772
65.170 21.894194
65.175 21.700256
65.180 21.907728
65.185 22.122992
65.190 22.042866
65.195 22.089474
65.200 22.065969
65.205 21.523594
65.210 21.438093
65.215 20.784613
65.220 20.677673
65.225 20.658773
65.230 21.565952
65.235 21.771706
65.240 21.79875
65.245 22.151445
65.250 22.472773
65.255 22.348215
65.260 22.5009
65.265 22.341423
65.270 22.988728
65.275 23.75622
65.280 24.765079
65.285 24.644135
65.290 24.764601
65.295 24.670687
65.300 24.505381
65.305 24.088467
65.310 23.319736
65.315 22.424856
65.320 22.564299
65.325 22.319254
65.330 22.745264
65.335 22.519485
65.340 22.839064
65.345 23.373831
65.350 23.966177
65.355 24.234615
65.360 24.675297
65.365 24.451429
65.370 24.209272
65.375 24.433773
65.380 24.489946
65.385 24.644764
65.390 24.921797
65.395 25.089046
65.400 24.710361
65.405 24.71525
65.410 25.049608
65.415 24.574947
65.420 24.25536
65.425 23.71999
65.430 23.147303
65.435 23.602268
65.440 23.47562
65.445 23.167288
65.450 23.916437
65.455 23.9662
65.460 24.331881
65.465 25.189161
65.470 25.187674
65.475 25.691376
65.480 25.195509
65.485 24.2115
65.490 24.150991
65.495 23.753813
65.500 23.865047
65.505 24.10759
65.510 24.281231
65.515 24.390747
65.520 24.892185
65.525 25.049517
65.530 25.453447
65.535 25.157154
65.540 25.099285
65.545 25.143131
65.550 25.287043
65.555 25.712704
65.560 25.944889
65.565 26.283737
65.570 26.78624
65.575 27.529911
65.580 27.881657
65.585 27.956558
65.590 27.702015
65.595 28.2999
65.600 28.473862
65.605 29.115633
65.610 29.037632
65.615 29.491585
65.620 30.602448
65.625 30.571873
65.630 30.516165
65.635 30.684902
65.640 30.621597
65.645 30.985735
65.650 30.982489
65.655 31.174511
65.660 32.080666
65.665 32.590187
65.670 33.100098
65.675 32.947254
65.680 32.941193
65.685 33.275986
65.690 33.686554
65.695 33.416946
65.700 33.216961
65.705 33.101318
65.710 32.78595
65.715 32.843136
65.720 32.705849
65.725 32.692039
65.730 33.132355
65.735 33.008278
65.740 32.985191
65.745 33.630634
65.750 33.801785
65.755 33.739738
65.760 33.327831
65.765 33.484093
65.770 34.168961
65.775 34.391792
65.780 34.37595
65.785 34.27877
65.790 35.221375
65.795 35.195042
65.800 34.959064
65.805 34.864502
65.810 35.171204
65.815 35.75499
65.820 36.751869
65.825 36.508625
65.830 36.566174
65.835 36.8395
65.840 36.848091
65.845 37.176556
65.850 37.009167
65.855 36.541969
65.860 36.684238
65.865 37.744179
65.870 37.988598
65.875 37.929688
65.880 37.647606
65.885 37.538074
65.890 37.252205
65.895 37.150558
65.900 36.432594
65.905 36.132206
65.910 35.668312
65.915 35.44799
65.920 35.838242
65.925 36.662037
65.930 36.624355
65.935 37.264938
65.940 37.243198
65.945 37.490627
65.950 37.763115
65.955 38.109989
65.960 37.575562
65.965 38.128323
65.970 37.900604
65.975 38.452438
65.980 38.386375
65.985 37.909756
65.990 37.27113
65.995 36.829254
66.000 36.47517
66.005 36.168087
66.010 36.178864
66.015 36.120773
66.020 36.334179
66.025 36.844349
66.030 37.297886
66.035 37.512882
66.040 37.528099
66.045 36.963703
66.050 36.672577
66.055 35.85659
66.060 35.452755
66.065 36.097805
66.070 35.539131
66.075 35.523006
66.080 35.454929
66.085 35.459969
66.090 36.298325
66.095 36.61832
66.100 36.775879
66.105 36.960667
66.110 36.905933
66.115 37.072948
66.120 37.011337
66.125 36.885971
66.130 36.302547
66.135 35.695831
66.140 36.161533
66.145 36.257458
66.150 35.84597
66.155 35.533188
66.160 35.313671
66.165 35.91053
66.170 35.484848
66.175 35.230259
66.180 34.857208
66.185 35.176567
66.190 36.06432
66.195 35.779446
66.200 34.990582
66.205 34.235909
66.210 34.593414
66.215 34.655933
66.220 35.047844
66.225 34.674564
66.230 34.709003
66.235 35.440174
66.240 36.188442
66.245 35.822392
66.250 36.527184
66.255 35.85704
66.260 35.644199
66.265 35.615307
66.270 34.419182
66.275 33.739059
66.280 33.05275
66.285 32.50351
66.290 32.405247
66.295 32.069267
66.300 31.620615
66.305 32.233463
66.310 32.180344
66.315 31.869938
66.320 31.894062
66.325 31.97727
66.330 32.208614
66.335 32.504066
66.340 31.898954
66.345 31.697945
66.350 31.272753
66.355 31.294436
66.360 31.461056
66.365 31.211824
66.370 30.938562
66.375 30.355804
66.380 30.729567
66.385 30.659357
66.390 29.558336
66.395 29.235449
66.400 29.540503
66.405 29.465107
66.410 30.053017
66.415 30.149424
66.420 30.866079
66.425 31.652788
66.430 31.636389
66.435 31.069279
66.440 31.021433
66.445 30.514267
66.450 29.24297
66.455 28.651297
66.460 27.581465
66.465 27.112478
66.470 26.654827
66.475 26.466089
66.480 26.605198
66.485 27.133932
66.490 27.168625
66.495 27.739649
66.500 27.909496
66.505 27.708101
66.510 27.720692
66.515 27.06842
66.520 26.551649
66.525 26.386728
66.530 25.900721
66.535 26.331438
66.540 27.108131
66.545 27.477615
66.550 28.427017
66.555 28.552523
66.560 28.145355
66.565 28.153063
66.570 27.32373
66.575 26.558817
66.580 25.490135
66.585 24.297407
66.590 24.691118
66.595 24.937664
66.600 24.660273
66.605 25.067066
66.610 25.183224
66.615 25.642986
66.620 25.447365
66.625 24.352823
66.630 24.462168
66.635 23.910715
66.640 24.035917
66.645 24.372639
66.650 24.413982
66.655 24.728315
66.660 24.829599
66.665 24.078005
66.670 24.174828
66.675 23.702307
66.680 23.688435
66.685 23.658627
66.690 23.762201
66.695 24.310614
66.700 24.998051
66.705 25.249994
66.710 25.339611
66.715 24.816814
66.720 25.604345
66.725 25.628448
66.730 25.661783
66.735 25.309153
66.740 24.921644
66.745 24.279947
66.750 24.034515
66.755 22.821024
66.760 22.997156
66.765 23.126629
66.770 22.86429
66.775 22.478277
66.780 22.728073
66.785 22.892454
66.790 23.10387
66.795 23.020206
66.800 23.042698
66.805 23.847343
66.810 24.439573
66.815 24.585037
66.820 24.88291
66.825 24.28269
66.830 24.131943
66.835 23.96446
66.840 23.875935
66.845 24.097841
66.850 23.91234
66.855 23.488525
66.860 24.329931
66.865 23.907333
66.870 23.009794
66.875 22.709848
66.880 22.44523
66.885 22.313715
66.890 22.075317
66.895 21.302261
66.900 21.186291
66.905 21.589916
66.910 21.393663
66.915 21.136362
66.920 21.192446
66.925 20.959803
66.930 20.702639
66.935 21.403715
66.940 21.704517
66.945 22.035112
66.950 22.526257
66.955 23.002983
66.960 23.863535
66.965 24.853167
66.970 24.470854
66.975 24.406509
66.980 24.67943
66.985 24.312172
66.990 23.974785
66.995 23.488169
67.000 23.105402
67.005 22.851158
67.010 22.595118
67.015 22.481905
67.020 22.705219
67.025 22.908693
67.030 22.771431
67.035 22.981445
67.040 23.391428
67.045 23.344931
67.050 23.533833
67.055 23.236761
67.060 23.200754
67.065 23.339634
67.070 22.323534
67.075 22.006241
67.080 22.150673
67.085 21.811546
67.090 21.953966
67.095 21.355759
67.100 21.408819
67.105 22.069977
67.110 22.203938
67.115 21.989283
67.120 22.433882
67.125 22.507254
67.130 22.939184
67.135 23.176781
67.140 22.986347
67.145 23.162878
67.150 23.103359
67.155 22.38887
67.160 22.311361
67.165 22.426764
67.170 22.255419
67.175 22.1327
67.180 22.202715
67.185 22.37142
67.190 22.337669
67.195 22.106815
67.200 21.86824
67.205 21.77949
67.210 22.038931
67.215 21.391754
67.220 21.087896
67.225 21.480827
67.230 21.56563
67.235 21.779928
67.240 21.051453
67.245 20.777224
67.250 20.61899
67.255 20.404743
67.260 19.92852
67.265 19.632647
67.270 19.82295
67.275 20.563061
67.280 21.059175
67.285 21.832094
67.290 21.883705
67.295 22.071606
67.300 22.173237
67.305 22.134222
67.310 21.950848
67.315 21.089876
67.320 20.739485
67.325 21.236151
67.330 21.429211
67.335 21.326494
67.340 20.966187
67.345 20.78055
67.350 21.049547
67.355 20.496164
67.360 20.469896
67.365 20.439854
67.370 20.464083
67.375 20.58633
67.380 20.983603
67.385 21.689423
67.390 21.691271
67.395 21.41214
67.400 21.285028
67.405 20.939274
67.410 20.705179
67.415 20.452635
67.420 20.412725
67.425 20.573139
67.430 20.081766
67.435 20.18115
67.440 20.495577
67.445 20.600084
67.450 20.210875
67.455 20.012091
67.460 19.937664
67.465 20.817934
67.470 20.427217
67.475 20.261408
67.480 20.594854
67.485 20.823603
67.490 20.852707
67.495 21.180801
67.500 20.878967
67.505 21.360058
67.510 21.742178
67.515 21.609634
67.520 21.342478
67.525 21.152727
67.530 20.948147
67.535 20.792887
67.540 20.809786
67.545 20.397957
67.550 20.258007
67.555 20.203791
67.560 19.649338
67.565 19.182367
67.570 19.127489
67.575 18.99931
67.580 19.242374
67.585 19.288729
67.590 19.604519
67.595 20.16909
67.600 21.151726
67.605 20.953453
67.610 20.767527
67.615 21.162779
67.620 21.342073
67.625 21.124483
67.630 20.938324
67.635 20.395348
67.640 20.872931
67.645 20.789522
67.650 20.372868
67.655 20.855772
67.660 21.125044
67.665 21.19997
67.670 21.590246
67.675 21.227325
67.680 21.401129
67.685 21.332264
67.690 20.903002
67.695 21.413307
67.700 21.601158
67.705 21.566076
67.710 21.530159
67.715 21.663025
67.720 21.745644
67.725 22.294773
67.730 22.541338
67.735 22.344944
67.740 22.337343
67.745 22.548948
67.750 22.537174
67.755 22.531517
67.760 21.511791
67.765 20.69272
67.770 20.927488
67.775 21.088753
67.780 21.151148
67.785 21.033861
67.790 21.472725
67.795 21.226479
67.800 21.669167
67.805 21.593077
67.810 21.317419
67.815 21.2974
67.820 21.158373
67.825 20.853758
67.830 21.303473
67.835 20.996695
67.840 20.528648
67.845 20.409121
67.850 20.090117
67.855 20.430557
67.860 20.623779
67.865 20.744022
67.870 20.795298
67.875 20.554131
67.880 20.540634
67.885 21.0667
67.890 20.937805
67.895 20.606859
67.900 20.365629
67.905 20.374638
67.910 20.955849
67.915 21.240492
67.920 20.72315
67.925 20.268848
67.930 20.116468
67.935 20.293331
67.940 20.429998
67.945 20.019585
67.950 19.758427
67.955 20.4331
67.960 20.544333
67.965 20.810368
67.970 21.167984
67.975 21.682188
67.980 21.834276
67.985 21.248186
67.990 20.614241
67.995 20.671253
68.000 20.124624
68.005 19.639906
68.010 19.421011
68.015 19.46389
68.020 19.823177
68.025 19.836735
68.030 19.960522
68.035 20.266281
68.040 20.01734
68.045 19.953119
68.050 19.933966
68.055 20.693052
68.060 20.488474
68.065 20.526152
68.070 20.886938
68.075 21.115538
68.080 20.977278
68.085 20.990061
68.090 20.861959
68.095 21.243116
68.100 21.352831
68.105 21.328125
68.110 21.59642
68.115 21.215378
68.120 20.893089
68.125 20.471798
68.130 19.991573
68.135 19.532717
68.140 19.239048
68.145 18.838041
68.150 19.340343
68.155 19.519234
68.160 19.686605
68.165 19.81019
68.170 20.232988
68.175 20.67803
68.180 21.267992
68.185 21.360674
68.190 21.465672
68.195 21.793808
68.200 22.142872
68.205 22.133907
68.210 21.553909
68.215 21.525896
68.220 21.213699
68.225 21.004423
68.230 20.785028
68.235 20.287657
68.240 19.764025
68.245 19.674686
68.250 20.165794
68.255 20.32114
68.260 19.918619
68.265 20.708786
68.270 20.912794
68.275 20.814081
68.280 21.102903
68.285 21.163647
68.290 21.692101
68.295 21.653337
68.300 20.60301
68.305 20.428501
68.310 20.686289
68.315 20.484194
68.320 19.590816
68.325 18.647612
68.330 19.553236
68.335 20.476101
68.340 21.093164
68.345 21.050531
68.350 21.258455
68.355 21.754303
68.360 22.344271
68.365 21.42359
68.370 20.308458
68.375 19.954889
68.380 19.991259
68.385 19.225225
68.390 18.947695
68.395 18.090897
68.400 17.984192
68.405 18.214418
68.410 18.044249
68.415 18.03735
68.420 18.568493
68.425 18.939035
68.430 19.371693
68.435 19.506348
68.440 19.2432
68.445 19.203653
68.450 19.849705
68.455 20.310263
68.460 20.755287
68.465 21.250948
68.470 21.496784
68.475 21.916389
68.480 21.60272
68.485 20.968475
68.490 19.793612
68.495 18.909004
68.500 18.505762
68.505 18.505194
68.510 18.381636
68.515 18.355944
68.520 19.120325
68.525 20.435431
68.530 21.066816
68.535 21.01907
68.540 21.068836
68.545 21.651773
68.550 21.68619
68.555 20.956816
68.560 20.805161
68.565 21.072304
68.570 21.38813
68.575 21.240112
68.580 21.180403
68.585 21.016302
68.590 20.383953
68.595 19.782639
68.600 19.318203
68.605 19.424631
68.610 20.019167
68.615 19.903433
68.620 20.330051
68.625 21.214834
68.630 21.41571
68.635 21.803259
68.640 21.574423
68.645 21.510036
68.650 21.834412
68.655 21.830406
68.660 21.764481
68.665 21.679129
68.670 21.754852
68.675 21.943893
68.680 21.922029
68.685 22.025818
68.690 21.882725
68.695 22.123392
68.700 22.056313
68.705 21.943895
68.710 21.860645
68.715 21.689022
68.720 21.850271
68.725 21.803253
68.730 20.906555
68.735 20.78471
68.740 20.961994
68.745 21.190844
68.750 21.221973
68.755 21.500284
68.760 21.993307
68.765 22.598803
68.770 23.012989
68.775 22.938814
68.780 22.892872
68.785 22.723419
68.790 22.042513
68.795 21.920218
68.800 21.772673
68.805 21.706642
68.810 21.622488
68.815 21.555061
68.820 21.479237
68.825 21.776178
68.830 21.774435
68.835 22.013935
68.840 22.139257
68.845 22.073004
68.850 22.250414
68.855 22.286846
68.860 22.078936
68.865 22.043985
68.870 21.860136
68.875 21.347408
68.880 21.134758
68.885 20.923754
68.890 21.123253
68.895 21.470514
68.900 21.733957
68.905 22.04854
68.910 22.812757
68.915 22.599268
68.920 23.207172
68.925 23.389786
68.930 23.316641
68.935 22.864637
68.940 22.037785
68.945 20.998318
68.950 21.340298
68.955 21.631577
68.960 21.548
68.965 21.249538
68.970 21.551729
68.975 22.762794
68.980 23.767735
68.985 23.877884
68.990 23.239817
68.995 23.687733
69.000 24.291721
69.005 24.223139
69.010 23.526424
69.015 23.677637
69.020 23.467409
69.025 23.370766
69.030 23.217285
69.035 22.979046
69.040 22.909636
69.045 22.688536
69.050 23.126661
69.055 23.599947
69.060 23.714739
69.065 24.018005
69.070 24.303576
69.075 23.988905
69.080 24.200434
69.085 23.83429
69.090 24.008984
69.095 23.797476
69.100 24.048836
69.105 25.224617
69.110 25.865389
69.115 25.555763
69.120 25.095457
69.125 24.502678
69.130 24.415375
69.135 23.54187
69.140 23.058216
69.145 23.090134
69.150 23.318821
69.155 24.184711
69.160 24.689159
69.165 24.83638
69.170 25.389292
69.175 25.780659
69.180 25.683823
69.185 26.010046
69.190 25.389872
69.195 24.89822
69.200 24.452585
69.205 23.770996
69.210 23.381001
69.215 23.899069
69.220 23.419756
69.225 24.130829
69.230 25.036266
69.235 25.795097
69.240 26.94241
69.245 27.036894
69.250 27.238789
69.255 28.013212
69.260 28.493004
69.265 28.123348
69.270 27.428869
69.275 26.850426
69.280 26.340014
69.285 25.744404
69.290 25.758698
69.295 25.74811
69.300 26.091566
69.305 26.967468
69.310 26.876329
69.315 27.326361
69.320 27.306772
69.325 26.808689
69.330 26.613434
69.335 26.375395
69.340 26.32732
69.345 26.693621
69.350 27.041477
69.355 27.105261
69.360 26.414528
69.365 25.719084
69.370 25.644131
69.375 26.329576
69.380 26.183962
69.385 25.932358
69.390 27.366228
69.395 28.062771
69.400 28.818052
69.405 28.193356
69.410 27.828531
69.415 28.104139
69.420 28.857046
69.425 28.063765
69.430 28.803785
69.435 29.702839
69.440 30.380758
69.445 30.251097
69.450 30.321434
69.455 29.991226
69.460 30.246958
69.465 29.357685
69.470 28.981306
69.475 28.421675
69.480 29.035139
69.485 29.07995
69.490 28.968567
69.495 29.322521
69.500 29.700844
69.505 29.468729
69.510 29.242157
69.515 29.733845
69.520 29.594803
69.525 29.957108
69.530 30.101313
69.535 29.884552
69.540 30.519289
69.545 30.671938
69.550 30.357054
69.555 30.355196
69.560 29.902975
69.565 29.036022
69.570 29.494806
69.575 29.642658
69.580 28.89842
69.585 28.246607
69.590 28.040403
69.595 27.64056
69.600 27.718466
69.605 27.36017
69.610 27.172697
69.615 27.541231
69.620 28.117519
69.625 28.300001
69.630 27.943771
69.635 28.204512
69.640 28.619652
69.645 29.018353
69.650 29.364744
69.655 29.330803
69.660 29.723734
69.665 30.493048
69.670 30.350029
69.675 29.938644
69.680 29.647013
69.685 29.637297
69.690 29.500065
69.695 29.207535
69.700 28.889429
69.705 28.800585
69.710 28.501972
69.715 28.373711
69.720 28.250481
69.725 28.018967
69.730 27.992371
69.735 27.892199
69.740 28.151348
69.745 28.328682
69.750 28.717398
69.755 28.647276
69.760 27.920658
69.765 26.926762
69.770 27.041569
69.775 26.660469
69.780 26.457962
69.785 26.236761
69.790 26.018517
69.795 26.656996
69.800 26.666161
69.805 26.109076
69.810 25.8351
69.815 26.283033
69.820 25.906263
69.825 25.547226
69.830 25.234163
69.835 25.965849
69.840 25.998365
69.845 25.645178
69.850 24.957132
69.855 24.967463
69.860 24.707479
69.865 24.656158
69.870 24.148232
69.875 24.418531
69.880 24.325403
69.885 24.947874
69.890 24.988268
69.895 24.512596
69.900 24.545412
69.905 24.66049
69.910 24.232595
69.915 24.041128
69.920 22.923635
69.925 22.380611
69.930 23.199949
69.935 23.516247
69.940 23.955053
69.945 23.799452
69.950 23.480522
69.955 23.811552
69.960 24.464521
69.965 24.36339
69.970 23.49963
69.975 22.867811
69.980 22.864128
69.985 23.210978
69.990 23.541214
69.995 23.07238
70.000 23.365446
70.005 22.975613
70.010 22.781515
70.015 22.750586
70.020 22.151665
70.025 21.773855
70.030 21.752827
70.035 21.517988
70.040 21.4877
70.045 21.134039
70.050 21.390005
70.055 21.304802
70.060 20.959328
70.065 20.67724
70.070 20.393347
70.075 20.718296
70.080 20.979156
70.085 20.82966
70.090 21.004551
70.095 21.052704
70.100 21.047291
70.105 20.814623
70.110 20.987171
70.115 20.598488
70.120 20.923288
70.125 21.435665
70.130 21.341286
70.135 21.210594
70.140 21.45816
70.145 21.179853
70.150 21.258097
70.155 20.874893
70.160 21.046471
70.165 20.590345
70.170 20.178387
70.175 19.42289
70.180 18.958233
70.185 18.469746
70.190 17.642439
70.195 16.901773
70.200 17.696772
70.205 18.24316
70.210 18.679878
70.215 19.257992
70.220 19.472691
70.225 19.6576
70.230 19.573996
70.235 19.005606
70.240 18.117952
70.245 17.997206
70.250 18.155451
70.255 19.073729
70.260 19.44359
70.265 19.20067
70.270 19.512135
70.275 19.524925
70.280 19.046534
70.285 18.426376
70.290 17.992279
70.295 18.047331
70.300 18.183365
70.305 18.641975
70.310 19.003107
70.315 19.767599
70.320 20.050182
70.325 19.70895
70.330 19.567137
70.335 19.476048
70.340 18.716852
70.345 19.045124
70.350 18.747837
70.355 18.688997
70.360 19.122942
70.365 19.622208
70.370 19.7693
70.375 20.410465
70.380 20.003258
70.385 19.640127
70.390 19.323742
70.395 18.705898
70.400 18.35146
70.405 18.112389
70.410 17.797089
70.415 18.191458
70.420 18.461824
70.425 18.374798
70.430 18.594009
70.435 18.744543
70.440 19.079138
70.445 19.550594
70.450 19.846331
70.455 19.73543
70.460 20.334473
70.465 20.365883
70.470 20.273577
70.475 20.229246
70.480 19.712574
70.485 19.626541
70.490 19.96859
70.495 19.743469
70.500 19.460093
70.505 19.446623
70.510 19.824299
70.515 20.123743
70.520 20.310524
70.525 20.176773
70.530 20.260599
70.535 20.874744
70.540 21.135658
70.545 21.247633
70.550 20.912107
70.555 20.523888
70.560 20.818941
70.565 20.637156
70.570 20.574444
70.575 19.944141
70.580 19.865967
70.585 20.140671
70.590 19.917734
70.595 19.766268
70.600 19.429325
70.605 19.189459
70.610 19.261368
70.615 18.734789
70.620 18.732969
70.625 18.891289
70.630 18.66222
70.635 18.98167
70.640 19.47999
70.645 19.728569
70.650 19.962811
70.655 19.806046
70.660 20.415953
70.665 20.794271
70.670 20.66157
70.675 20.673719
70.680 20.730774
70.685 20.747694
70.690 20.431906
70.695 19.781473
70.700 19.711187
70.705 19.975004
70.710 19.538277
70.715 19.598042
70.720 19.383764
70.725 19.757368
70.730 20.225855
70.735 20.028761
70.740 20.092903
70.745 19.760427
70.750 20.252081
70.755 20.967575
70.760 21.259567
70.765 21.041885
70.770 20.763458
70.775 20.928984
70.780 20.98192
70.785 19.814119
70.790 18.961432
70.795 18.561552
70.800 18.178837
70.805 18.297268
70.810 17.775734
70.815 17.48
70.820 18.597092
70.825 18.866718
70.830 19.453171
70.835 19.669498
70.840 19.461231
70.845 19.737398
70.850 19.562504
70.855 19.307837
70.860 19.824165
70.865 19.076572
70.870 19.279594
70.875 19.645391
70.880 20.174265
70.885 20.659105
70.890 20.300468
70.895 19.996304
70.900 20.444242
70.905 20.009253
70.910 19.839718
70.915 19.372326
70.920 18.945173
70.925 18.59766
70.930 18.20908
70.935 18.244703
70.940 18.357664
70.945 18.075867
70.950 17.894707
70.955 18.092512
70.960 18.485632
70.965 18.763424
70.970 18.770805
70.975 19.045734
70.980 18.878948
70.985 19.348574
70.990 19.483919
70.995 19.51893
71.000 19.490101
71.005 19.363115
71.010 19.331751
71.015 19.33379
71.020 19.264063
71.025 18.89279
71.030 18.241129
71.035 18.702192
71.040 18.662514
71.045 18.902134
71.050 19.320181
71.055 19.566526
71.060 20.015099
71.065 19.910028
71.070 19.253355
71.075 18.752308
71.080 18.291386
71.085 18.094995
71.090 18.143583
71.095 17.858593
71.100 18.06148
71.105 18.669764
71.110 19.0763
71.115 19.143705
71.120 18.774357
71.125 18.896297
71.130 19.362047
71.135 19.000748
71.140 18.756937
71.145 18.582426
71.150 19.183331
71.155 19.274155
71.160 18.750654
71.165 18.669125
71.170 19.142212
71.175 19.828129
71.180 19.600302
71.185 19.287134
71.190 19.753532
71.195 20.593021
71.200 20.356119
71.205 20.390577
71.210 19.875006
71.215 19.583651
71.220 19.21591
71.225 18.404095
71.230 18.702621
71.235 18.229416
71.240 18.31064
71.245 18.607916
71.250 19.568926
71.255 20.58947
71.260 20.112955
71.265 19.703716
71.270 19.887707
71.275 18.917696
71.280 18.463945
71.285 17.775368
71.290 17.562878
71.295 18.091625
71.300 17.94359
71.305 18.302259
71.310 19.063787
71.315 19.055763
71.320 19.087088
71.325 18.843098
71.330 18.401897
71.335 18.760847
71.340 18.867048
71.345 18.798603
71.350 18.779091
71.355 18.423613
71.360 18.542088
71.365 18.472731
71.370 18.106112
71.375 17.508202
71.380 17.58003
71.385 17.056889
71.390 17.243778
71.395 17.242638
71.400 17.489307
71.405 17.569494
71.410 17.440224
71.415 17.546228
71.420 18.058828
71.425 18.104645
71.430 18.25824
71.435 17.972153
71.440 18.386019
71.445 18.657982
71.450 19.205639
71.455 19.291471
71.460 19.421841
71.465 19.181465
71.470 19.253651
71.475 18.997721
71.480 18.982122
71.485 18.657568
71.490 18.237682
71.495 18.083258
71.500 18.334417
71.505 18.351458
71.510 18.101837
71.515 18.11849
71.520 18.404942
71.525 18.822254
71.530 18.780066
71.535 18.455189
71.540 18.568136
71.545 19.49534
71.550 19.599134
71.555 19.554798
71.560 19.433914
71.565 19.205675
71.570 19.82509
71.575 19.808197
71.580 19.050632
71.585 18.632624
71.590 18.151194
71.595 18.455593
71.600 18.858658
71.605 18.596992
71.610 18.427784
71.615 18.090178
71.620 18.387941
71.625 18.747309
71.630 18.760078
71.635 18.440729
71.640 17.902296
71.645 17.774775
71.650 17.903393
71.655 17.051222
71.660 16.594
71.665 16.538427
71.670 16.83972
71.675 17.812048
71.680 18.125828
71.685 19.029015
71.690 19.535992
71.695 19.677532
71.700 19.908892
71.705 19.73699
71.710 19.371305
71.715 19.069492
71.720 18.880163
71.725 18.832098
71.730 19.033564
71.735 18.819679
71.740 18.365259
71.745 18.221222
71.750 18.313782
71.755 18.69286
71.760 18.718243
71.765 18.565491
71.770 18.703606
71.775 19.101086
71.780 18.806051
71.785 18.352163
71.790 17.989187
71.795 18.540377
71.800 18.074669
71.805 18.191412
71.810 18.116688
71.815 18.075909
71.820 18.315052
71.825 17.854496
71.830 17.871464
71.835 18.126324
71.840 17.954084
71.845 18.363762
71.850 19.031414
71.855 19.858868
71.860 19.960745
71.865 19.708002
71.870 19.565283
71.875 20.282406
71.880 19.977678
71.885 19.517384
71.890 18.911985
71.895 18.825779
71.900 19.080065
71.905 18.937584
71.910 18.225536
71.915 17.463356
71.920 17.508671
71.925 16.944504
71.930 16.668756
71.935 16.20406
71.940 16.293039
71.945 16.799971
71.950 17.573572
71.955 18.054422
71.960 18.054033
71.965 17.986879
71.970 18.240129
71.975 18.117489
71.980 18.063175
71.985 17.788279
71.990 17.50201
71.995 18.124546
72.000 18.447701
72.005 18.119434
72.010 18.158974
72.015 18.300247
72.020 18.331081
72.025 18.263149
72.030 18.216827
72.035 17.570475
72.040 18.18438
72.045 17.970219
72.050 17.738939
72.055 17.581741
72.060 17.67658
72.065 18.100233
72.070 18.556704
72.075 18.289576
72.080 18.390135
72.085 17.844185
72.090 18.080774
72.095 17.802685
72.100 18.00009
72.105 17.849957
72.110 17.444479
72.115 17.37359
72.120 17.963785
72.125 18.205721
72.130 18.519138
72.135 17.748722
72.140 18.325657
72.145 18.555477
72.150 18.377272
72.155 18.075945
72.160 17.340067
72.165 17.47443
72.170 17.95171
72.175 17.090422
72.180 16.609394
72.185 16.017141
72.190 16.343916
72.195 16.283718
72.200 15.886289
72.205 15.710854
72.210 16.089294
72.215 16.395264
72.220 16.778925
72.225 16.726358
72.230 16.662388
72.235 16.688169
72.240 16.726618
72.245 16.820093
72.250 16.603413
72.255 16.900713
72.260 17.000818
72.265 16.975431
72.270 16.882275
72.275 16.777718
72.280 17.656614
72.285 17.779448
72.290 17.527891
72.295 17.812853
72.300 18.373386
72.305 18.767965
72.310 18.593327
72.315 18.620096
72.320 18.89113
72.325 18.672775
72.330 18.637989
72.335 18.584871
72.340 18.965794
72.345 19.301434
72.350 19.402735
72.355 19.219326
72.360 19.565874
72.365 19.086357
72.370 18.985832
72.375 18.992533
72.380 18.580059
72.385 18.554296
72.390 18.711979
72.395 18.594723
72.400 18.542364
72.405 17.797625
72.410 17.316269
72.415 17.576488
72.420 17.182617
72.425 16.564377
72.430 16.603079
72.435 17.328375
72.440 17.724667
72.445 18.424089
72.450 18.566784
72.455 19.051289
72.460 19.367115
72.465 19.546923
72.470 18.888235
72.475 18.62949
72.480 18.467611
72.485 18.269339
72.490 17.922043
72.495 17.42701
72.500 16.951597
72.505 17.131601
72.510 17.046568
72.515 16.92469
72.520 17.103811
72.525 17.072903
72.530 17.682997
72.535 18.109676
72.540 18.527601
72.545 18.241299
72.550 18.220421
72.555 19.027262
72.560 19.295322
72.565 18.765577
72.570 18.493927
72.575 18.707554
72.580 19.449596
72.585 19.325485
72.590 19.288
72.595 19.065044
72.600 19.307564
72.605 19.276873
72.610 18.625153
72.615 18.19046
72.620 18.149357
72.625 17.879713
72.630 18.439026
72.635 18.136396
72.640 18.212988
72.645 18.069483
72.650 18.020275
72.655 17.664257
72.660 17.433599
72.665 17.510159
72.670 17.649345
72.675 17.790026
72.680 18.20211
72.685 18.052481
72.690 18.491976
72.695 18.614058
72.700 18.453592
72.705 18.538239
72.710 18.285324
72.715 18.013945
72.720 17.720148
72.725 17.088066
72.730 17.148571
72.735 16.662079
72.740 16.478603
72.745 16.347776
72.750 16.380714
72.755 16.786182
72.760 16.400867
72.765 16.40377
72.770 16.454309
72.775 16.805656
72.780 17.563665
72.785 17.967459
72.790 17.862604
72.795 18.138153
72.800 17.981627
72.805 18.22892
72.810 18.173851
72.815 17.519003
72.820 17.032614
72.825 17.255836
72.830 17.205843
72.835 16.999479
72.840 16.464025
72.845 15.975814
72.850 16.049118
72.855 15.991985
72.860 15.416141
72.865 15.227924
72.870 15.681939
72.875 15.909875
72.880 15.990376
72.885 16.383778
72.890 16.182991
72.895 16.277391
72.900 16.302441
72.905 16.224358
72.910 15.820753
72.915 15.638564
72.920 15.967039
72.925 16.931866
72.930 16.619181
72.935 16.352663
72.940 16.615875
72.945 17.288998
72.950 16.674866
72.955 16.041199
72.960 15.728701
72.965 16.469313
72.970 16.737015
72.975 16.315134
72.980 16.275862
72.985 16.699869
72.990 16.663843
72.995 16.650505
73.000 16.542753
