!@!!GADDS PLOTSO FILE: Chi integration type
!@!!Title/SampleName: map-98
!@!!Comment: ?
!@!!User: Bruker Instrument Administrator
!@!!Site: University of Illinois Chicago
!@!!Frame: map-98_01_000.gfrm
!@!!Wavelengths    1.54184   1.54056   1.54439
!@!!Frame angles: 2Theta: 63.000 Omega: 50.000 Phi: 0.000 Chi: 90.000
!@!!Integration range: 2Theta: 53.000 to 73.000  Gamma: -105.000 to -75.000
!@!!Integration method: bin normalized
!@!N
!@!SS
!@!M
!@!L 0.0 0.0 0.0 0.0
!@!XDegrees
!@!YCounts
53.000 7.455973
53.005 8.030544
53.010 8.603519
53.015 8.738478
53.020 9.100229
53.025 9.557469
53.030 9.677527
53.035 9.647379
53.040 9.507732
53.045 9.566365
53.050 9.428829
53.055 9.179369
53.060 9.000028
53.065 9.017076
53.070 9.224567
53.075 8.931015
53.080 9.190259
53.085 9.100068
53.090 8.923094
53.095 8.94693
53.100 9.021028
53.105 9.101566
53.110 9.120521
53.115 8.828823
53.120 9.083804
53.125 9.185842
53.130 9.482632
53.135 9.69542
53.140 9.695987
53.145 9.856214
53.150 10.177117
53.155 10.237179
53.160 10.394073
53.165 10.700571
53.170 10.30549
53.175 9.765608
53.180 9.451742
53.185 9.375897
53.190 8.818696
53.195 8.518249
53.200 8.285883
53.205 8.265759
53.210 8.439566
53.215 8.645051
53.220 8.548436
53.225 8.888194
53.230 8.710178
53.235 8.581801
53.240 8.856853
53.245 8.779539
53.250 8.717031
53.255 8.316731
53.260 8.423609
53.265 8.607958
53.270 8.561948
53.275 8.559596
53.280 8.711452
53.285 8.79934
53.290 9.057288
53.295 8.859885
53.300 9.047668
53.305 9.269984
53.310 9.371674
53.315 9.172559
53.320 9.418878
53.325 9.626245
53.330 9.850595
53.335 10.124799
53.340 10.103037
53.345 10.33534
53.350 10.065551
53.355 10.067375
53.360 9.853495
53.365 9.193852
53.370 8.755068
53.375 8.715966
53.380 8.54076
53.385 8.551251
53.390 8.288798
53.395 8.68994
53.400 9.068737
53.405 8.983052
53.410 9.023236
53.415 9.492664
53.420 9.783019
53.425 9.690826
53.430 8.963319
53.435 9.122903
53.440 9.422469
53.445 9.458774
53.450 9.309168
53.455 9.675136
53.460 10.206886
53.465 10.580565
53.470 10.755354
53.475 10.57326
53.480 10.357347
53.485 10.326438
53.490 10.175838
53.495 9.925566
53.500 10.138103
53.505 9.921627
53.510 10.27383
53.515 10.684604
53.520 10.414408
53.525 10.180172
53.530 9.943934
53.535 9.465525
53.540 9.435403
53.545 9.17451
53.550 8.987499
53.555 9.03735
53.560 9.180355
53.565 9.334569
53.570 9.381009
53.575 9.47341
53.580 9.667931
53.585 9.654568
53.590 9.567615
53.595 9.786972
53.600 9.640895
53.605 9.059341
53.610 8.744549
53.615 8.656723
53.620 8.659716
53.625 8.778826
53.630 8.49647
53.635 8.748801
53.640 9.038569
53.645 9.224225
53.650 9.542861
53.655 10.107979
53.660 10.342514
53.665 10.34891
53.670 10.143183
53.675 10.283525
53.680 10.262025
53.685 9.729142
53.690 8.950352
53.695 8.945459
53.700 9.577126
53.705 9.761962
53.710 9.382444
53.715 9.200022
53.720 9.432811
53.725 9.423349
53.730 9.515729
53.735 9.293479
53.740 9.391901
53.745 9.838974
53.750 10.188352
53.755 10.15103
53.760 10.324333
53.765 9.872673
53.770 9.642071
53.775 9.749337
53.780 9.154974
53.785 8.847193
53.790 9.251015
53.795 9.404501
53.800 9.423176
53.805 9.569075
53.810 9.810094
53.815 9.949125
53.820 10.078442
53.825 9.491206
53.830 9.144822
53.835 9.21112
53.840 9.033038
53.845 9.305742
53.850 9.283525
53.855 8.8676
53.860 9.104641
53.865 9.192996
53.870 9.541586
53.875 9.458429
53.880 9.319462
53.885 9.643074
53.890 9.620558
53.895 9.762201
53.900 9.640322
53.905 9.610107
53.910 9.313
53.915 9.339803
53.920 9.575106
53.925 9.634729
53.930 9.90967
53.935 10.584264
53.940 10.593023
53.945 10.579464
53.950 10.29442
53.955 10.11922
53.960 10.347998
53.965 9.678939
53.970 9.352407
53.975 9.233908
53.980 9.24185
53.985 9.706391
53.990 9.618719
53.995 9.921618
54.000 10.089222
54.005 10.43216
54.010 10.80609
54.015 10.93113
54.020 10.966747
54.025 10.736207
54.030 10.944166
54.035 10.575399
54.040 10.017194
54.045 9.884315
54.050 9.569563
54.055 9.642563
54.060 9.669368
54.065 9.513954
54.070 9.724489
54.075 9.989649
54.080 10.219257
54.085 10.205596
54.090 10.371549
54.095 10.45163
54.100 10.524979
54.105 10.645841
54.110 10.472483
54.115 9.989252
54.120 10.012291
54.125 9.910114
54.130 9.454685
54.135 9.24811
54.140 9.305853
54.145 9.539211
54.150 9.494837
54.155 9.115219
54.160 9.048476
54.165 9.071248
54.170 9.064853
54.175 9.193789
54.180 9.406322
54.185 9.738383
54.190 9.699615
54.195 9.55937
54.200 9.383488
54.205 9.072729
54.210 8.975932
54.215 8.410759
54.220 8.234223
54.225 8.416719
54.230 9.161224
54.235 9.886911
54.240 9.815757
54.245 9.699392
54.250 9.956697
54.255 10.455936
54.260 10.29039
54.265 10.098764
54.270 10.156701
54.275 10.27868
54.280 10.050959
54.285 10.42156
54.290 10.331429
54.295 10.497824
54.300 10.402549
54.305 10.236446
54.310 9.980624
54.315 10.063177
54.320 9.936344
54.325 9.971914
54.330 9.974184
54.335 10.393266
54.340 10.728572
54.345 11.429552
54.350 11.54061
54.355 11.206572
54.360 11.295296
54.365 11.330565
54.370 11.219472
54.375 11.190508
54.380 11.094162
54.385 11.372458
54.390 11.559952
54.395 11.333827
54.400 11.390293
54.405 11.155968
54.410 10.592655
54.415 10.615479
54.420 10.491881
54.425 10.207315
54.430 9.608936
54.435 8.800527
54.440 8.66705
54.445 9.22674
54.450 9.104636
54.455 9.023008
54.460 9.370889
54.465 9.624867
54.470 10.571882
54.475 10.669017
54.480 10.413872
54.485 10.180352
54.490 10.63049
54.495 10.66014
54.500 10.787646
54.505 9.945941
54.510 10.016558
54.515 10.458739
54.520 10.818345
54.525 10.560144
54.530 10.623329
54.535 10.744607
54.540 10.644782
54.545 10.332074
54.550 9.665516
54.555 9.70986
54.560 9.799525
54.565 10.006392
54.570 10.304868
54.575 10.990495
54.580 11.524896
54.585 12.106863
54.590 11.992737
54.595 11.985944
54.600 11.919462
54.605 11.983604
54.610 11.831405
54.615 11.888804
54.620 11.113379
54.625 10.885746
54.630 10.574692
54.635 10.410177
54.640 10.264983
54.645 9.876615
54.650 9.518253
54.655 9.9549
54.660 10.216172
54.665 10.389624
54.670 10.114336
54.675 10.298429
54.680 10.703844
54.685 11.091444
54.690 10.874257
54.695 10.738144
54.700 10.979757
54.705 11.248667
54.710 11.158094
54.715 10.909795
54.720 10.771386
54.725 10.825069
54.730 11.291185
54.735 11.619598
54.740 11.45897
54.745 11.782554
54.750 11.857016
54.755 11.935484
54.760 12.139524
54.765 11.678188
54.770 11.676398
54.775 11.943138
54.780 11.84126
54.785 11.930533
54.790 11.77808
54.795 11.320299
54.800 11.428497
54.805 11.13098
54.810 10.554595
54.815 10.024977
54.820 9.842324
54.825 10.358114
54.830 10.339183
54.835 10.524732
54.840 10.770261
54.845 11.333721
54.850 11.660772
54.855 11.914804
54.860 11.557269
54.865 11.704109
54.870 11.392884
54.875 10.980316
54.880 10.965755
54.885 10.813133
54.890 10.461516
54.895 11.047486
54.900 10.60688
54.905 10.584555
54.910 10.813605
54.915 10.5509
54.920 10.78371
54.925 10.926157
54.930 10.353492
54.935 10.696097
54.940 10.877692
54.945 11.138152
54.950 11.533825
54.955 11.522396
54.960 11.535297
54.965 11.895584
54.970 11.960279
54.975 12.1654
54.980 12.155152
54.985 12.305815
54.990 12.218394
54.995 11.952419
55.000 11.646195
55.005 10.711764
55.010 10.290372
55.015 10.214563
55.020 10.218595
55.025 10.331397
55.030 10.456266
55.035 10.847836
55.040 11.348448
55.045 11.422076
55.050 11.157979
55.055 10.988106
55.060 10.993387
55.065 11.373713
55.070 11.624623
55.075 11.983133
55.080 11.800992
55.085 11.809221
55.090 11.708267
55.095 11.635365
55.100 11.274783
55.105 11.150868
55.110 10.942786
55.115 10.798715
55.120 10.363058
55.125 10.098216
55.130 10.087943
55.135 9.95859
55.140 9.943562
55.145 9.650522
55.150 9.871892
55.155 10.251699
55.160 10.396502
55.165 10.268895
55.170 10.611382
55.175 10.906531
55.180 11.106021
55.185 11.115421
55.190 11.268468
55.195 11.31445
55.200 11.435256
55.205 11.296775
55.210 11.248422
55.215 10.942734
55.220 10.765259
55.225 10.648658
55.230 10.766442
55.235 10.833995
55.240 10.67111
55.245 10.744882
55.250 11.5849
55.255 11.962783
55.260 12.348573
55.265 12.439762
55.270 12.388995
55.275 12.715676
55.280 12.854125
55.285 12.701325
55.290 12.563746
55.295 12.190855
55.300 12.27926
55.305 12.235813
55.310 11.887145
55.315 11.381601
55.320 11.264847
55.325 11.084981
55.330 11.381268
55.335 11.011387
55.340 11.113642
55.345 11.329585
55.350 11.439453
55.355 11.474478
55.360 11.55168
55.365 11.819232
55.370 11.828561
55.375 11.562585
55.380 11.158278
55.385 11.21448
55.390 10.84365
55.395 10.544259
55.400 10.42602
55.405 10.47736
55.410 10.848158
55.415 11.109264
55.420 10.944009
55.425 10.758715
55.430 10.478124
55.435 10.031281
55.440 10.017987
55.445 9.766454
55.450 9.977373
55.455 10.024744
55.460 10.116726
55.465 10.773396
55.470 11.119657
55.475 10.913085
55.480 10.857302
55.485 10.765617
55.490 11.147618
55.495 11.491578
55.500 11.446229
55.505 12.011434
55.510 11.889018
55.515 11.854034
55.520 11.851729
55.525 11.957809
55.530 11.957253
55.535 11.844
55.540 11.539937
55.545 11.945402
55.550 12.22195
55.555 12.004491
55.560 11.288501
55.565 10.691248
55.570 10.749014
55.575 10.963171
55.580 11.055576
55.585 10.975043
55.590 11.491644
55.595 12.191683
55.600 12.757685
55.605 13.031246
55.610 12.938459
55.615 13.109516
55.620 13.430425
55.625 13.216886
55.630 12.766728
55.635 12.371997
55.640 12.230336
55.645 11.859536
55.650 11.643102
55.655 11.243169
55.660 11.054579
55.665 11.217283
55.670 10.982423
55.675 10.755907
55.680 11.216763
55.685 11.155325
55.690 11.397655
55.695 11.545615
55.700 11.356277
55.705 11.529793
55.710 11.803747
55.715 11.788313
55.720 12.033071
55.725 11.910914
55.730 11.891368
55.735 12.382453
55.740 12.548252
55.745 12.230292
55.750 11.994463
55.755 11.483202
55.760 11.395012
55.765 11.348187
55.770 10.975885
55.775 10.883663
55.780 10.552382
55.785 10.509562
55.790 10.358046
55.795 10.7192
55.800 10.966909
55.805 11.002109
55.810 11.008767
55.815 11.538585
55.820 11.907808
55.825 12.251345
55.830 12.113975
55.835 12.371757
55.840 12.32493
55.845 12.21142
55.850 11.805854
55.855 11.547525
55.860 11.132463
55.865 10.910236
55.870 10.655765
55.875 10.647861
55.880 10.980206
55.885 11.681012
55.890 11.921593
55.895 12.425508
55.900 12.777931
55.905 13.053297
55.910 13.130099
55.915 13.065229
55.920 12.777587
55.925 12.502592
55.930 12.376463
55.935 12.184826
55.940 12.108235
55.945 11.869206
55.950 11.242258
55.955 11.283711
55.960 11.862041
55.965 11.562812
55.970 11.503522
55.975 11.758617
55.980 11.984634
55.985 12.139262
55.990 12.023226
55.995 11.678363
56.000 11.825849
56.005 12.071907
56.010 11.627667
56.015 11.828362
56.020 12.124349
56.025 12.222236
56.030 12.220743
56.035 12.070965
56.040 11.77821
56.045 11.890203
56.050 12.448486
56.055 12.408553
56.060 12.304481
56.065 12.380446
56.070 12.788355
56.075 12.409836
56.080 12.167067
56.085 11.886507
56.090 12.140095
56.095 12.086833
56.100 11.874835
56.105 11.729795
56.110 12.028101
56.115 11.588241
56.120 11.51569
56.125 11.362595
56.130 11.757597
56.135 11.732611
56.140 12.249311
56.145 12.141561
56.150 12.031604
56.155 12.030283
56.160 12.482409
56.165 12.521199
56.170 12.396195
56.175 11.962511
56.180 12.395138
56.185 12.596422
56.190 12.155655
56.195 11.967541
56.200 12.582027
56.205 12.670209
56.210 13.042181
56.215 12.965439
56.220 12.974378
56.225 13.341677
56.230 12.591913
56.235 12.332402
56.240 12.571788
56.245 12.246998
56.250 12.476384
56.255 12.440644
56.260 12.224889
56.265 12.680489
56.270 12.449322
56.275 12.221142
56.280 11.962477
56.285 11.890208
56.290 12.095321
56.295 12.297786
56.300 12.30517
56.305 12.342677
56.310 12.40579
56.315 12.73946
56.320 12.624036
56.325 12.603768
56.330 12.468838
56.335 11.967072
56.340 11.589038
56.345 11.486082
56.350 11.148992
56.355 11.255104
56.360 11.031969
56.365 11.101528
56.370 11.484842
56.375 11.96336
56.380 12.095048
56.385 12.284032
56.390 12.347917
56.395 12.614303
56.400 12.737334
56.405 12.851756
56.410 12.665545
56.415 12.701332
56.420 13.458884
56.425 13.796375
56.430 14.045162
56.435 14.196379
56.440 14.053614
56.445 13.912737
56.450 13.423516
56.455 13.101254
56.460 12.879401
56.465 12.198306
56.470 12.575265
56.475 12.579766
56.480 13.001557
56.485 13.097527
56.490 12.915152
56.495 12.919348
56.500 13.041851
56.505 12.597795
56.510 12.901282
56.515 13.021684
56.520 13.57205
56.525 13.4049
56.530 13.312643
56.535 13.334476
56.540 13.144389
56.545 12.654888
56.550 12.439521
56.555 11.596734
56.560 11.946364
56.565 12.238642
56.570 12.134146
56.575 13.026967
56.580 13.507152
56.585 13.541181
56.590 13.92086
56.595 13.924422
56.600 14.320344
56.605 14.14019
56.610 13.467134
56.615 13.139013
56.620 12.989771
56.625 13.287151
56.630 13.014602
56.635 12.667522
56.640 12.473025
56.645 12.681164
56.650 12.989986
56.655 12.757416
56.660 12.399749
56.665 12.196217
56.670 12.197467
56.675 12.585173
56.680 12.732507
56.685 12.78716
56.690 13.374153
56.695 13.475844
56.700 13.332705
56.705 13.180762
56.710 13.273904
56.715 13.152949
56.720 13.14025
56.725 13.145994
56.730 13.182152
56.735 13.777195
56.740 14.00512
56.745 13.594868
56.750 13.479274
56.755 13.426281
56.760 13.335771
56.765 13.123064
56.770 13.232731
56.775 12.808802
56.780 13.07999
56.785 12.997345
56.790 12.600702
56.795 12.471093
56.800 12.529974
56.805 12.678275
56.810 13.196157
56.815 12.829479
56.820 12.735884
56.825 13.14502
56.830 13.483406
56.835 13.748713
56.840 13.590521
56.845 13.642793
56.850 13.720782
56.855 13.910604
56.860 13.518757
56.865 13.210232
56.870 12.983959
56.875 12.760881
56.880 12.581841
56.885 12.303492
56.890 12.120028
56.895 12.400532
56.900 13.022696
56.905 13.139166
56.910 13.311615
56.915 13.372252
56.920 13.584303
56.925 13.540063
56.930 13.24129
56.935 12.325895
56.940 12.518672
56.945 12.376465
56.950 12.598229
56.955 12.78632
56.960 13.069245
56.965 13.28096
56.970 13.809856
56.975 13.302903
56.980 13.19778
56.985 12.963037
56.990 13.304394
56.995 13.334427
57.000 13.169301
57.005 12.877824
57.010 12.479873
57.015 12.267045
57.020 12.102823
57.025 11.792365
57.030 12.154132
57.035 12.331059
57.040 12.574347
57.045 13.29524
57.050 13.352023
57.055 13.139962
57.060 12.67788
57.065 12.192632
57.070 12.481567
57.075 12.033108
57.080 11.685486
57.085 12.148452
57.090 12.959198
57.095 13.652863
57.100 13.962636
57.105 13.995887
57.110 14.45001
57.115 14.252851
57.120 14.031856
57.125 13.343344
57.130 13.035307
57.135 12.524816
57.140 12.498214
57.145 12.609019
57.150 12.564713
57.155 12.327844
57.160 12.750648
57.165 12.849954
57.170 13.311057
57.175 13.574526
57.180 13.623421
57.185 13.912333
57.190 14.348447
57.195 14.169137
57.200 13.858658
57.205 13.700765
57.210 13.655823
57.215 13.91291
57.220 14.597199
57.225 14.820827
57.230 15.141343
57.235 15.445596
57.240 15.775389
57.245 14.900111
57.250 14.427578
57.255 13.351866
57.260 13.348681
57.265 13.800505
57.270 14.177541
57.275 13.80298
57.280 14.327851
57.285 14.803114
57.290 15.008214
57.295 14.616545
57.300 14.156465
57.305 13.639709
57.310 13.696435
57.315 13.319274
57.320 13.236573
57.325 13.621178
57.330 13.605472
57.335 13.551679
57.340 13.408
57.345 13.696618
57.350 13.975142
57.355 14.018032
57.360 14.002076
57.365 13.936334
57.370 13.887958
57.375 13.860009
57.380 14.029277
57.385 14.18338
57.390 14.493019
57.395 14.859268
57.400 14.988196
57.405 14.887508
57.410 14.994778
57.415 14.867157
57.420 14.427949
57.425 13.607115
57.430 13.322545
57.435 13.488957
57.440 14.115934
57.445 14.436767
57.450 14.784081
57.455 14.922662
57.460 14.922119
57.465 15.056529
57.470 14.696736
57.475 13.946913
57.480 13.639332
57.485 13.744083
57.490 13.851495
57.495 14.298227
57.500 14.549127
57.505 14.820742
57.510 15.288724
57.515 15.388611
57.520 14.938874
57.525 14.982192
57.530 14.499667
57.535 13.997918
57.540 14.067765
57.545 14.114297
57.550 13.857859
57.555 14.197141
57.560 14.12544
57.565 14.142088
57.570 14.151326
57.575 14.082096
57.580 13.818674
57.585 14.281612
57.590 14.359504
57.595 14.619302
57.600 14.960158
57.605 14.492612
57.610 14.433048
57.615 14.404004
57.620 14.122039
57.625 14.122504
57.630 14.211542
57.635 14.287678
57.640 14.473694
57.645 14.170833
57.650 14.382605
57.655 14.874944
57.660 14.802646
57.665 14.022526
57.670 13.930214
57.675 14.240215
57.680 14.472953
57.685 14.334617
57.690 13.75596
57.695 13.376392
57.700 14.195441
57.705 14.123428
57.710 13.863683
57.715 13.859252
57.720 13.709522
57.725 14.037832
57.730 14.528471
57.735 14.579956
57.740 14.573649
57.745 14.751099
57.750 14.585291
57.755 14.344538
57.760 14.078205
57.765 13.997498
57.770 13.767042
57.775 14.156394
57.780 14.069725
57.785 14.091138
57.790 14.62466
57.795 14.519878
57.800 14.118445
57.805 13.237592
57.810 13.085036
57.815 13.301958
57.820 13.581447
57.825 13.513921
57.830 13.870292
57.835 14.867338
57.840 15.88174
57.845 15.830832
57.850 15.665172
57.855 15.862301
57.860 15.7422
57.865 15.514982
57.870 15.269139
57.875 14.548902
57.880 14.649308
57.885 14.414477
57.890 13.927985
57.895 13.999119
57.900 13.622358
57.905 13.31311
57.910 13.320503
57.915 13.006838
57.920 13.414048
57.925 13.585262
57.930 13.801208
57.935 14.028364
57.940 14.329214
57.945 14.993938
57.950 15.095834
57.955 14.903915
57.960 14.768998
57.965 14.839721
57.970 15.074772
57.975 15.576237
57.980 15.861881
57.985 16.424536
57.990 16.216463
57.995 16.0397
58.000 15.972581
58.005 15.795597
58.010 15.48321
58.015 15.267437
58.020 15.255192
58.025 15.477992
58.030 15.911654
58.035 16.09129
58.040 16.664827
58.045 16.986845
58.050 16.894472
58.055 17.215208
58.060 17.575151
58.065 17.585184
58.070 17.875574
58.075 17.566555
58.080 16.891272
58.085 16.615303
58.090 15.66258
58.095 15.145929
58.100 14.882992
58.105 15.113817
58.110 15.501594
58.115 15.588861
58.120 16.200016
58.125 16.411413
58.130 16.585503
58.135 16.741751
58.140 16.351421
58.145 16.490252
58.150 16.931625
58.155 17.01618
58.160 17.806328
58.165 17.750044
58.170 18.442932
58.175 18.593451
58.180 18.337393
58.185 18.374163
58.190 18.474157
58.195 19.05839
58.200 19.586128
58.205 19.108982
58.210 18.546036
58.215 18.641451
58.220 18.727783
58.225 18.585365
58.230 17.833431
58.235 17.608679
58.240 17.309025
58.245 17.196672
58.250 17.528236
58.255 17.672182
58.260 17.328684
58.265 17.24674
58.270 17.678976
58.275 17.945677
58.280 18.433969
58.285 17.641449
58.290 18.113914
58.295 18.124016
58.300 18.264042
58.305 18.208611
58.310 18.37365
58.315 18.090448
58.320 18.566586
58.325 18.563324
58.330 18.902473
58.335 19.113651
58.340 18.976357
58.345 18.92288
58.350 19.603962
58.355 19.684504
58.360 19.755325
58.365 20.008171
58.370 19.852764
58.375 20.12743
58.380 20.036604
58.385 20.23473
58.390 20.527752
58.395 21.020563
58.400 20.95422
58.405 20.974375
58.410 21.495913
58.415 21.757299
58.420 21.580753
58.425 22.378313
58.430 22.815176
58.435 23.261446
58.440 23.781841
58.445 24.100252
58.450 24.890047
58.455 25.144836
58.460 24.286066
58.465 23.568293
58.470 24.115437
58.475 24.389009
58.480 24.588942
58.485 24.67099
58.490 25.834679
58.495 27.12355
58.500 27.702831
58.505 28.127558
58.510 28.239391
58.515 28.900064
58.520 29.133829
58.525 29.055016
58.530 29.943991
58.535 30.738913
58.540 30.913822
58.545 31.233471
58.550 30.918465
58.555 30.808228
58.560 30.703907
58.565 30.575848
58.570 31.547928
58.575 32.279957
58.580 32.824318
58.585 33.381603
58.590 33.931408
58.595 34.899281
58.600 35.24144
58.605 35.52319
58.610 35.613548
58.615 35.487907
58.620 35.789486
58.625 36.438869
58.630 36.500584
58.635 36.007858
58.640 36.135025
58.645 36.248745
58.650 36.350674
58.655 36.520851
58.660 37.585587
58.665 37.40102
58.670 37.018791
58.675 36.458538
58.680 37.210117
58.685 37.394707
58.690 36.77269
58.695 35.942738
58.700 35.403915
58.705 35.726791
58.710 35.223278
58.715 33.869274
58.720 33.443115
58.725 33.8634
58.730 33.361168
58.735 33.950081
58.740 33.21917
58.745 32.641869
58.750 31.864649
58.755 31.391495
58.760 30.764555
58.765 30.335745
58.770 29.797985
58.775 29.89102
58.780 30.202051
58.785 30.40118
58.790 29.977161
58.795 29.852161
58.800 28.680433
58.805 28.386166
58.810 28.196825
58.815 28.341347
58.820 27.588856
58.825 27.49415
58.830 27.104208
58.835 26.976469
58.840 26.540146
58.845 26.382454
58.850 26.027969
58.855 26.441383
58.860 26.292114
58.865 25.994974
58.870 25.944283
58.875 25.634371
58.880 25.075289
58.885 25.374628
58.890 24.80513
58.895 24.250963
58.900 23.550795
58.905 23.298605
58.910 22.843567
58.915 22.135155
58.920 21.476236
58.925 21.64291
58.930 21.73205
58.935 22.101347
58.940 21.76557
58.945 21.590837
58.950 21.256416
58.955 20.447243
58.960 20.220846
58.965 20.109098
58.970 19.696426
58.975 19.54694
58.980 19.440781
58.985 19.317236
58.990 19.41428
58.995 19.013538
59.000 18.550888
59.005 18.614384
59.010 17.971014
59.015 17.588093
59.020 17.311373
59.025 17.052502
59.030 17.040932
59.035 17.167288
59.040 16.939705
59.045 16.791945
59.050 16.743963
59.055 17.154102
59.060 17.451635
59.065 17.786903
59.070 17.92902
59.075 18.222725
59.080 18.493372
59.085 17.927111
59.090 17.605612
59.095 17.316523
59.100 16.949299
59.105 16.423582
59.110 15.468457
59.115 15.004073
59.120 15.187399
59.125 14.951409
59.130 14.963395
59.135 14.756413
59.140 14.679306
59.145 15.412747
59.150 15.767134
59.155 16.182726
59.160 16.341627
59.165 16.088821
59.170 16.216709
59.175 16.669516
59.180 16.075617
59.185 16.535635
59.190 16.362514
59.195 16.32877
59.200 16.351528
59.205 16.562441
59.210 16.421989
59.215 16.349277
59.220 15.641878
59.225 14.934007
59.230 14.825739
59.235 14.801884
59.240 14.872725
59.245 15.314418
59.250 15.112045
59.255 15.3718
59.260 16.410471
59.265 16.432247
59.270 15.933838
59.275 15.942833
59.280 15.495226
59.285 16.089544
59.290 16.263918
59.295 15.87117
59.300 15.70869
59.305 15.898634
59.310 15.790052
59.315 15.508839
59.320 15.229212
59.325 15.086704
59.330 14.795343
59.335 14.871119
59.340 14.966448
59.345 14.593749
59.350 14.832983
59.355 14.647315
59.360 14.113547
59.365 14.17711
59.370 14.111702
59.375 13.781567
59.380 13.657176
59.385 13.798796
59.390 14.096511
59.395 14.402975
59.400 14.181193
59.405 13.945804
59.410 14.170123
59.415 14.543549
59.420 14.484983
59.425 14.591649
59.430 14.733448
59.435 14.797404
59.440 15.643209
59.445 15.974521
59.450 15.93521
59.455 15.44691
59.460 14.861804
59.465 15.02517
59.470 15.177723
59.475 15.055882
59.480 15.261525
59.485 15.497863
59.490 15.960563
59.495 16.375858
59.500 16.650343
59.505 16.772797
59.510 16.208143
59.515 15.664625
59.520 15.528942
59.525 15.448915
59.530 14.655305
59.535 14.064358
59.540 13.642074
59.545 13.474759
59.550 13.431707
59.555 13.533259
59.560 13.203843
59.565 13.287809
59.570 13.324336
59.575 13.351194
59.580 13.331094
59.585 13.113103
59.590 13.209316
59.595 13.947543
59.600 14.295891
59.605 14.614154
59.610 15.298699
59.615 15.732924
59.620 15.910523
59.625 15.547839
59.630 15.58551
59.635 15.478501
59.640 15.468356
59.645 15.503174
59.650 15.650694
59.655 16.031395
59.660 16.057016
59.665 16.031
59.670 16.267298
59.675 16.037844
59.680 15.814806
59.685 15.661936
59.690 15.171416
59.695 14.910253
59.700 15.590942
59.705 15.630528
59.710 15.76166
59.715 15.907718
59.720 16.008909
59.725 16.16066
59.730 16.444944
59.735 15.849948
59.740 16.147839
59.745 16.787504
59.750 16.329363
59.755 16.313013
59.760 16.100563
59.765 16.295691
59.770 16.215878
59.775 16.75234
59.780 16.388657
59.785 16.738907
59.790 16.997509
59.795 17.444132
59.800 16.949739
59.805 16.617662
59.810 15.643227
59.815 15.4749
59.820 15.715251
59.825 15.596746
59.830 15.580151
59.835 16.137432
59.840 16.232431
59.845 16.673779
59.850 17.024101
59.855 16.691311
59.860 16.85232
59.865 16.222189
59.870 15.763199
59.875 15.099481
59.880 14.843341
59.885 14.833833
59.890 14.764241
59.895 14.2511
59.900 14.445092
59.905 14.447296
59.910 14.806761
59.915 14.912254
59.920 14.428598
59.925 14.261563
59.930 14.482004
59.935 14.845658
59.940 14.984484
59.945 15.002394
59.950 14.817887
59.955 14.923395
59.960 15.143796
59.965 15.522186
59.970 15.551801
59.975 15.452363
59.980 15.109712
59.985 14.932137
59.990 14.910306
59.995 15.490709
60.000 15.445476
60.005 15.507008
60.010 15.446169
60.015 15.391183
60.020 15.383838
60.025 14.811556
60.030 14.491177
60.035 13.983916
60.040 13.862082
60.045 14.33323
60.050 14.610231
60.055 14.519836
60.060 14.516859
60.065 14.29452
60.070 14.418394
60.075 14.35066
60.080 14.032687
60.085 14.114343
60.090 14.409326
60.095 15.096186
60.100 15.116096
60.105 15.500485
60.110 15.307877
60.115 14.827473
60.120 14.163575
60.125 14.022577
60.130 13.980236
60.135 13.472913
60.140 13.729908
60.145 14.448734
60.150 15.189625
60.155 15.649386
60.160 15.713067
60.165 15.898505
60.170 16.685143
60.175 16.355963
60.180 16.433498
60.185 16.997364
60.190 16.832689
60.195 16.783607
60.200 16.577801
60.205 16.50552
60.210 16.332531
60.215 15.839874
60.220 16.23432
60.225 17.270239
60.230 17.473457
60.235 17.391291
60.240 17.17453
60.245 17.554909
60.250 17.768547
60.255 16.3316
60.260 15.550236
60.265 15.528674
60.270 15.756518
60.275 15.51007
60.280 14.728399
60.285 14.584585
60.290 15.168508
60.295 14.575639
60.300 14.242838
60.305 14.268705
60.310 14.214458
60.315 14.542912
60.320 14.517225
60.325 13.877076
60.330 14.032679
60.335 14.592315
60.340 14.321465
60.345 15.167768
60.350 15.427654
60.355 15.587984
60.360 16.365292
60.365 16.854263
60.370 16.762438
60.375 17.078251
60.380 16.331953
60.385 16.502008
60.390 16.342497
60.395 16.101233
60.400 15.595268
60.405 14.952027
60.410 14.07486
60.415 14.094723
60.420 13.688271
60.425 13.680158
60.430 13.640298
60.435 13.499076
60.440 13.512941
60.445 13.994137
60.450 13.987053
60.455 14.401417
60.460 14.535151
60.465 14.553259
60.470 14.889597
60.475 14.929469
60.480 15.012292
60.485 14.667635
60.490 14.22226
60.495 14.129352
60.500 14.16815
60.505 14.020331
60.510 14.206987
60.515 14.155227
60.520 14.186297
60.525 14.254464
60.530 14.434204
60.535 14.785137
60.540 15.217097
60.545 15.513367
60.550 15.971747
60.555 15.955161
60.560 16.037739
60.565 16.238764
60.570 16.015345
60.575 15.915315
60.580 15.731804
60.585 15.945637
60.590 16.191837
60.595 16.393358
60.600 16.19381
60.605 16.264786
60.610 15.850987
60.615 15.817185
60.620 15.671897
60.625 16.028605
60.630 16.151081
60.635 16.053358
60.640 16.343744
60.645 17.127695
60.650 16.827215
60.655 16.679502
60.660 16.600254
60.665 16.320595
60.670 16.025614
60.675 15.467043
60.680 15.408993
60.685 15.176072
60.690 14.635666
60.695 14.28959
60.700 14.119039
60.705 14.672765
60.710 14.566763
60.715 14.358272
60.720 14.813141
60.725 15.075864
60.730 15.07481
60.735 15.222344
60.740 14.968517
60.745 15.319643
60.750 15.908288
60.755 16.113165
60.760 16.222544
60.765 16.899912
60.770 17.107735
60.775 17.308687
60.780 17.290731
60.785 16.832073
60.790 16.474276
60.795 16.883265
60.800 16.550739
60.805 16.354073
60.810 16.341341
60.815 16.145973
60.820 16.107956
60.825 16.43396
60.830 16.192411
60.835 15.840638
60.840 15.463875
60.845 15.569502
60.850 15.558818
60.855 15.421705
60.860 15.210392
60.865 14.964598
60.870 14.814196
60.875 15.278091
60.880 15.563033
60.885 15.844705
60.890 16.378996
60.895 16.109802
60.900 16.335159
60.905 16.682522
60.910 16.510241
60.915 15.660469
60.920 15.111919
60.925 14.628698
60.930 15.258225
60.935 15.418484
60.940 15.69463
60.945 15.708303
60.950 16.454439
60.955 16.368269
60.960 16.261454
60.965 15.574265
60.970 14.924187
60.975 14.828656
60.980 15.107802
60.985 14.938887
60.990 15.375069
60.995 15.494955
61.000 16.048468
61.005 16.035816
61.010 15.693423
61.015 15.583326
61.020 15.855043
61.025 15.992661
61.030 16.536713
61.035 16.591894
61.040 16.791548
61.045 16.823217
61.050 16.129795
61.055 15.627183
61.060 14.70543
61.065 14.114805
61.070 13.852383
61.075 13.783043
61.080 14.079111
61.085 14.369488
61.090 14.332788
61.095 15.298326
61.100 15.663394
61.105 15.892635
61.110 16.167126
61.115 16.355591
61.120 16.440018
61.125 17.126381
61.130 16.980995
61.135 16.8269
61.140 16.603483
61.145 16.700645
61.150 16.478109
61.155 16.137434
61.160 15.268825
61.165 14.690156
61.170 14.806669
61.175 15.092665
61.180 14.383939
61.185 13.77819
61.190 13.582166
61.195 14.456511
61.200 15.042659
61.205 15.258525
61.210 15.811347
61.215 16.315647
61.220 16.59609
61.225 16.934273
61.230 17.233555
61.235 16.973904
61.240 16.450209
61.245 15.836009
61.250 16.072336
61.255 16.333397
61.260 16.215971
61.265 16.013296
61.270 16.217026
61.275 16.376287
61.280 16.440092
61.285 16.364401
61.290 16.521576
61.295 16.682699
61.300 16.160685
61.305 15.961932
61.310 16.274654
61.315 16.201921
61.320 16.382627
61.325 16.524456
61.330 16.644711
61.335 16.290565
61.340 15.928551
61.345 15.579226
61.350 15.650308
61.355 15.079978
61.360 14.711418
61.365 14.436306
61.370 14.760524
61.375 14.698463
61.380 14.690358
61.385 14.29248
61.390 14.544904
61.395 14.595798
61.400 14.875333
61.405 14.62682
61.410 14.675942
61.415 15.053518
61.420 15.446164
61.425 15.680956
61.430 15.43062
61.435 15.164147
61.440 15.194285
61.445 15.016487
61.450 14.495417
61.455 14.562641
61.460 14.576171
61.465 14.851185
61.470 15.364377
61.475 16.115578
61.480 16.947262
61.485 16.8333
61.490 16.696289
61.495 16.780899
61.500 16.727718
61.505 16.849724
61.510 16.980667
61.515 16.578808
61.520 16.529984
61.525 16.616648
61.530 16.404251
61.535 16.633821
61.540 16.119076
61.545 16.489737
61.550 16.25091
61.555 16.467804
61.560 16.412102
61.565 16.26441
61.570 16.236376
61.575 16.111557
61.580 15.910827
61.585 16.504875
61.590 16.386293
61.595 16.211765
61.600 16.102167
61.605 15.986469
61.610 16.171848
61.615 15.875404
61.620 15.443568
61.625 15.53756
61.630 15.62006
61.635 15.606076
61.640 15.539795
61.645 15.699515
61.650 15.912037
61.655 16.108971
61.660 16.181971
61.665 16.319685
61.670 16.351631
61.675 16.694981
61.680 16.429379
61.685 16.629757
61.690 16.558704
61.695 16.650103
61.700 16.516863
61.705 16.648823
61.710 16.37335
61.715 16.577059
61.720 16.318008
61.725 16.457478
61.730 15.95481
61.735 15.557897
61.740 15.526392
61.745 15.298658
61.750 14.544962
61.755 14.213752
61.760 14.497724
61.765 14.760975
61.770 15.029459
61.775 15.069715
61.780 14.852619
61.785 14.978259
61.790 15.479833
61.795 15.586999
61.800 16.156815
61.805 16.198891
61.810 16.504744
61.815 17.08217
61.820 17.02519
61.825 17.061565
61.830 16.441935
61.835 16.031988
61.840 15.597079
61.845 14.96034
61.850 14.798978
61.855 15.153131
61.860 15.044606
61.865 15.550073
61.870 16.072529
61.875 16.550682
61.880 17.112165
61.885 17.227833
61.890 17.198458
61.895 16.612652
61.900 16.215799
61.905 16.010103
61.910 16.370861
61.915 16.264942
61.920 15.585484
61.925 15.270045
61.930 15.351964
61.935 15.137696
61.940 15.01616
61.945 14.832632
61.950 14.788359
61.955 15.617199
61.960 16.144485
61.965 16.6719
61.970 16.69676
61.975 16.658882
61.980 16.38492
61.985 16.720627
61.990 16.681358
61.995 16.443323
62.000 16.168558
62.005 16.346224
62.010 16.482063
62.015 16.07127
62.020 15.137422
62.025 14.915446
62.030 14.905072
62.035 15.110514
62.040 14.937455
62.045 15.179159
62.050 15.424679
62.055 15.80197
62.060 15.697497
62.065 15.948097
62.070 15.66366
62.075 15.633377
62.080 15.512699
62.085 15.690192
62.090 15.69658
62.095 15.341145
62.100 14.73583
62.105 14.444523
62.110 14.715257
62.115 14.814721
62.120 15.307624
62.125 15.841
62.130 15.934225
62.135 16.662355
62.140 17.237209
62.145 17.193558
62.150 17.408369
62.155 17.438057
62.160 17.172215
62.165 17.410744
62.170 17.343462
62.175 17.049656
62.180 16.887564
62.185 16.520668
62.190 16.506744
62.195 16.310961
62.200 15.817353
62.205 15.927725
62.210 16.293755
62.215 16.374132
62.220 16.080479
62.225 15.523874
62.230 15.780253
62.235 16.130901
62.240 16.027643
62.245 16.158241
62.250 16.621653
62.255 17.269907
62.260 17.569103
62.265 16.994059
62.270 16.792383
62.275 16.310671
62.280 15.650334
62.285 15.284451
62.290 14.851963
62.295 15.06418
62.300 15.33674
62.305 15.286839
62.310 15.596124
62.315 15.657657
62.320 15.882517
62.325 15.923743
62.330 15.971769
62.335 16.353027
62.340 16.467003
62.345 16.829176
62.350 17.1005
62.355 16.751513
62.360 16.805397
62.365 17.173325
62.370 17.097736
62.375 16.868916
62.380 16.236788
62.385 15.926394
62.390 15.933219
62.395 15.623096
62.400 15.582497
62.405 15.95485
62.410 16.262009
62.415 16.700151
62.420 16.565611
62.425 16.878578
62.430 16.981937
62.435 16.370512
62.440 16.082132
62.445 16.477371
62.450 16.84683
62.455 16.530691
62.460 16.007164
62.465 16.020918
62.470 16.0975
62.475 16.00638
62.480 15.514188
62.485 15.314427
62.490 16.042345
62.495 16.197065
62.500 16.098921
62.505 15.90331
62.510 16.065413
62.515 15.923729
62.520 15.6138
62.525 15.695791
62.530 15.91015
62.535 15.794868
62.540 15.933426
62.545 15.636788
62.550 15.696754
62.555 16.000584
62.560 15.681618
62.565 15.465535
62.570 15.877871
62.575 15.725011
62.580 15.370034
62.585 15.276612
62.590 15.209234
62.595 14.96204
62.600 15.200252
62.605 15.025405
62.610 15.588537
62.615 15.933429
62.620 16.435907
62.625 16.65486
62.630 17.038656
62.635 17.339369
62.640 17.967234
62.645 17.825983
62.650 18.297167
62.655 17.632833
62.660 17.350876
62.665 17.569536
62.670 17.226748
62.675 16.797909
62.680 16.70615
62.685 16.47295
62.690 16.878874
62.695 16.269947
62.700 15.557099
62.705 16.026415
62.710 15.592731
62.715 15.484723
62.720 15.665411
62.725 16.268255
62.730 17.060446
62.735 17.436066
62.740 17.115799
62.745 17.763607
62.750 18.025862
62.755 18.100571
62.760 18.451555
62.765 18.42267
62.770 17.917881
62.775 17.360033
62.780 17.311642
62.785 17.190826
62.790 16.936375
62.795 16.455887
62.800 16.309254
62.805 17.413872
62.810 17.612921
62.815 17.162163
62.820 16.976242
62.825 16.843012
62.830 16.991467
62.835 17.246523
62.840 17.102751
62.845 17.884138
62.850 18.246609
62.855 18.374826
62.860 17.933083
62.865 17.830191
62.870 17.72011
62.875 17.048115
62.880 15.772739
62.885 15.48169
62.890 15.2879
62.895 15.466184
62.900 15.72095
62.905 15.805264
62.910 15.572783
62.915 16.206844
62.920 16.51107
62.925 16.834381
62.930 16.857628
62.935 16.832567
62.940 16.805389
62.945 17.195669
62.950 17.192677
62.955 17.258383
62.960 17.17569
62.965 17.150511
62.970 16.961508
62.975 16.775421
62.980 16.862558
62.985 16.733534
62.990 16.888535
62.995 17.467087
63.000 17.156897
63.005 17.336525
63.010 17.008726
63.015 16.717548
63.020 16.782366
63.025 16.867069
63.030 17.04932
63.035 18.070219
63.040 17.963236
63.045 18.217312
63.050 18.469189
63.055 18.502359
63.060 18.904457
63.065 18.493639
63.070 17.646164
63.075 17.298069
63.080 17.512796
63.085 17.797052
63.090 17.337484
63.095 16.633778
63.100 16.197647
63.105 15.8224
63.110 16.001726
63.115 16.20742
63.120 16.105566
63.125 15.824705
63.130 15.6736
63.135 15.66977
63.140 16.172276
63.145 15.834541
63.150 15.317382
63.155 15.50187
63.160 15.826799
63.165 16.316772
63.170 16.946518
63.175 16.781845
63.180 17.186531
63.185 17.71541
63.190 17.70587
63.195 18.073097
63.200 17.946732
63.205 17.516264
63.210 18.041727
63.215 17.680086
63.220 17.046371
63.225 16.546583
63.230 15.966865
63.235 15.717976
63.240 15.955321
63.245 15.791039
63.250 16.304226
63.255 16.580624
63.260 16.750546
63.265 16.761534
63.270 16.468861
63.275 16.118477
63.280 15.400888
63.285 15.047122
63.290 14.848226
63.295 14.92294
63.300 15.289757
63.305 15.947567
63.310 16.539387
63.315 17.519964
63.320 17.63315
63.325 17.904188
63.330 18.220991
63.335 18.567488
63.340 18.204271
63.345 17.719856
63.350 17.548004
63.355 17.74328
63.360 17.666636
63.365 17.486862
63.370 17.4779
63.375 17.845091
63.380 18.152483
63.385 18.581347
63.390 18.862165
63.395 18.991257
63.400 18.986332
63.405 18.565594
63.410 18.380695
63.415 17.849995
63.420 17.282345
63.425 17.214241
63.430 16.953156
63.435 17.15605
63.440 17.012863
63.445 17.322872
63.450 18.03311
63.455 18.010719
63.460 17.618692
63.465 17.537882
63.470 17.443377
63.475 18.007555
63.480 18.215805
63.485 17.715132
63.490 18.028578
63.495 18.283606
63.500 18.340096
63.505 18.633038
63.510 18.388174
63.515 18.036465
63.520 18.153252
63.525 17.952917
63.530 18.260099
63.535 18.54076
63.540 18.687075
63.545 18.560789
63.550 18.230606
63.555 18.230427
63.560 18.384111
63.565 17.816172
63.570 17.799561
63.575 17.790249
63.580 17.589432
63.585 17.941965
63.590 18.75131
63.595 18.865971
63.600 18.796627
63.605 18.711809
63.610 18.514297
63.615 18.960966
63.620 19.214075
63.625 18.644716
63.630 19.006411
63.635 19.422401
63.640 19.51281
63.645 19.567532
63.650 19.234955
63.655 19.257374
63.660 19.089886
63.665 18.291706
63.670 18.065557
63.675 17.819447
63.680 18.061556
63.685 18.815319
63.690 18.84454
63.695 18.873898
63.700 18.679506
63.705 18.32843
63.710 18.128033
63.715 17.913868
63.720 16.978151
63.725 16.654951
63.730 17.153769
63.735 17.221781
63.740 17.72514
63.745 17.745461
63.750 17.70676
63.755 18.136976
63.760 18.728985
63.765 18.354328
63.770 18.639664
63.775 18.556555
63.780 18.728279
63.785 18.915239
63.790 18.337658
63.795 18.102568
63.800 18.349657
63.805 18.40214
63.810 18.376003
63.815 17.911209
63.820 17.479357
63.825 17.815304
63.830 18.156546
63.835 18.02072
63.840 18.768345
63.845 19.261333
63.850 19.925644
63.855 20.519377
63.860 20.461443
63.865 20.08853
63.870 20.53101
63.875 19.934401
63.880 19.493021
63.885 19.568766
63.890 19.425814
63.895 19.666561
63.900 19.376207
63.905 19.049805
63.910 19.308393
63.915 18.984867
63.920 18.802189
63.925 18.677952
63.930 18.610775
63.935 18.958952
63.940 19.04855
63.945 19.196264
63.950 19.810644
63.955 19.924484
63.960 20.00968
63.965 20.047037
63.970 19.993177
63.975 20.031599
63.980 20.155514
63.985 20.197813
63.990 20.057541
63.995 20.953457
64.000 21.167049
64.005 21.295364
64.010 21.525087
64.015 21.929373
64.020 22.079041
64.025 22.832462
64.030 22.068911
64.035 21.603611
64.040 21.575964
64.045 21.80475
64.050 22.108164
64.055 22.286898
64.060 21.949608
64.065 22.157887
64.070 22.487423
64.075 22.473759
64.080 22.81279
64.085 22.658852
64.090 22.268885
64.095 22.528568
64.100 23.09396
64.105 23.604656
64.110 24.42461
64.115 25.356749
64.120 26.586992
64.125 27.459789
64.130 27.883541
64.135 28.617554
64.140 29.518684
64.145 29.387115
64.150 28.287502
64.155 27.89064
64.160 28.176126
64.165 28.462717
64.170 27.743769
64.175 27.999107
64.180 27.794779
64.185 28.661142
64.190 28.9618
64.195 30.05699
64.200 30.992493
64.205 32.278763
64.210 32.568211
64.215 33.22604
64.220 34.941559
64.225 36.519867
64.230 36.715233
64.235 36.308178
64.240 36.184429
64.245 36.536118
64.250 36.708191
64.255 36.45491
64.260 36.740192
64.265 37.22134
64.270 38.381504
64.275 38.740475
64.280 38.955112
64.285 40.189526
64.290 41.731865
64.295 42.009087
64.300 41.842567
64.305 41.631649
64.310 42.484402
64.315 42.705269
64.320 42.502796
64.325 41.805073
64.330 41.849873
64.335 42.70018
64.340 43.705433
64.345 43.762428
64.350 44.242508
64.355 44.303936
64.360 44.748398
64.365 44.944817
64.370 44.757961
64.375 45.337124
64.380 46.276627
64.385 46.401562
64.390 46.09108
64.395 46.433685
64.400 47.336021
64.405 47.113274
64.410 47.014923
64.415 46.963619
64.420 47.228065
64.425 48.138153
64.430 48.576237
64.435 48.076458
64.440 48.588356
64.445 48.805824
64.450 48.858337
64.455 48.870071
64.460 48.590153
64.465 48.959576
64.470 49.185429
64.475 48.029076
64.480 47.454861
64.485 48.129326
64.490 48.55592
64.495 48.849354
64.500 48.324062
64.505 47.158752
64.510 47.439564
64.515 47.370789
64.520 47.147865
64.525 46.866264
64.530 45.971527
64.535 44.788132
64.540 45.73505
64.545 45.942089
64.550 44.029335
64.555 42.538101
64.560 41.452454
64.565 40.604416
64.570 39.749741
64.575 39.103764
64.580 38.061028
64.585 38.119476
64.590 37.683285
64.595 37.252518
64.600 36.910873
64.605 36.719414
64.610 37.016003
64.615 36.839577
64.620 36.250721
64.625 36.041504
64.630 35.872925
64.635 35.220566
64.640 34.317719
64.645 32.666885
64.650 32.289063
64.655 32.080357
64.660 31.0417
64.665 30.71736
64.670 30.529068
64.675 29.884472
64.680 29.524683
64.685 29.552345
64.690 29.874287
64.695 30.015831
64.700 30.154854
64.705 29.921549
64.710 29.590984
64.715 29.437803
64.720 28.571548
64.725 27.485762
64.730 27.320515
64.735 26.708803
64.740 26.426531
64.745 26.181782
64.750 25.85709
64.755 24.918934
64.760 24.902964
64.765 24.749084
64.770 24.611113
64.775 24.103363
64.780 23.534508
64.785 23.627068
64.790 24.115742
64.795 24.179321
64.800 24.285908
64.805 24.128994
64.810 24.053436
64.815 24.144445
64.820 23.747005
64.825 23.481695
64.830 22.952841
64.835 23.148243
64.840 23.287058
64.845 23.048065
64.850 22.679277
64.855 22.841801
64.860 22.876387
64.865 22.355221
64.870 21.782171
64.875 22.226952
64.880 22.609808
64.885 22.671129
64.890 22.542883
64.895 22.457687
64.900 23.086058
64.905 23.268282
64.910 22.936911
64.915 22.804352
64.920 22.838633
64.925 22.590876
64.930 23.17524
64.935 23.531931
64.940 23.23004
64.945 23.351717
64.950 23.123091
64.955 22.983156
64.960 23.92778
64.965 23.651148
64.970 23.117954
64.975 23.248495
64.980 23.711714
64.985 24.984127
64.990 25.80393
64.995 25.294218
65.000 25.980963
65.005 27.121668
65.010 28.135042
65.015 28.484747
65.020 28.878208
65.025 28.785412
65.030 28.673304
65.035 28.57744
65.040 28.930902
65.045 28.984949
65.050 29.19507
65.055 29.079187
65.060 29.371315
65.065 30.823996
65.070 30.726704
65.075 30.22648
65.080 30.109911
65.085 30.738661
65.090 31.271019
65.095 32.025528
65.100 32.277115
65.105 32.976242
65.110 32.92057
65.115 33.062126
65.120 32.589386
65.125 32.081161
65.130 31.834473
65.135 32.009834
65.140 32.636532
65.145 33.460217
65.150 34.041412
65.155 34.368767
65.160 34.725056
65.165 34.86211
65.170 34.330734
65.175 34.252712
65.180 34.354805
65.185 33.784859
65.190 34.177429
65.195 34.840038
65.200 35.252369
65.205 36.223179
65.210 35.496735
65.215 34.966209
65.220 35.125309
65.225 34.366283
65.230 34.366394
65.235 34.282204
65.240 33.610115
65.245 33.439583
65.250 33.21859
65.255 33.587429
65.260 34.231598
65.265 33.330467
65.270 32.663731
65.275 32.512085
65.280 33.034214
65.285 33.987072
65.290 34.450516
65.295 34.594154
65.300 35.612534
65.305 36.183735
65.310 36.640491
65.315 36.737381
65.320 36.02211
65.325 35.265396
65.330 35.096207
65.335 35.38895
65.340 35.443039
65.345 35.009605
65.350 35.02013
65.355 34.896049
65.360 34.950729
65.365 34.923279
65.370 34.378716
65.375 34.343338
65.380 34.881783
65.385 34.912525
65.390 35.123814
65.395 35.721279
65.400 35.768318
65.405 35.836056
65.410 35.714195
65.415 36.24564
65.420 36.182922
65.425 36.43504
65.430 35.986919
65.435 35.962574
65.440 36.476646
65.445 36.35677
65.450 35.101631
65.455 34.927242
65.460 34.847401
65.465 35.159885
65.470 34.835052
65.475 33.936405
65.480 33.548771
65.485 33.515522
65.490 34.033821
65.495 34.054817
65.500 34.105701
65.505 34.224964
65.510 35.094196
65.515 35.884731
65.520 36.240288
65.525 35.960064
65.530 35.57246
65.535 35.965546
65.540 35.917656
65.545 35.392517
65.550 35.220387
65.555 35.385387
65.560 35.997395
65.565 36.544445
65.570 36.346413
65.575 36.783371
65.580 37.495193
65.585 37.065136
65.590 36.503422
65.595 35.987072
65.600 35.934326
65.605 36.141273
65.610 36.31493
65.615 36.063061
65.620 36.773895
65.625 37.260155
65.630 37.754822
65.635 37.923367
65.640 37.358734
65.645 36.871059
65.650 37.648499
65.655 38.210728
65.660 38.29097
65.665 38.683502
65.670 39.407879
65.675 40.34927
65.680 40.247692
65.685 39.24963
65.690 38.685104
65.695 37.891575
65.700 36.726265
65.705 35.551697
65.710 34.959988
65.715 34.724457
65.720 35.031422
65.725 35.228077
65.730 35.409248
65.735 35.378216
65.740 34.916267
65.745 35.041607
65.750 35.129974
65.755 35.039124
65.760 35.281559
65.765 34.960922
65.770 34.718578
65.775 34.801907
65.780 34.420578
65.785 34.059681
65.790 33.752186
65.795 33.091553
65.800 33.217911
65.805 33.17757
65.810 32.541214
65.815 32.758434
65.820 32.586071
65.825 32.467999
65.830 32.619473
65.835 32.040413
65.840 32.188408
65.845 32.50182
65.850 32.34882
65.855 32.016617
65.860 31.460726
65.865 30.835073
65.870 30.627851
65.875 30.411215
65.880 30.012823
65.885 29.464317
65.890 29.337046
65.895 28.514141
65.900 28.360781
65.905 28.403223
65.910 28.543743
65.915 28.291645
65.920 28.230843
65.925 27.814516
65.930 27.557764
65.935 27.21608
65.940 26.814554
65.945 25.853827
65.950 26.06097
65.955 26.431562
65.960 26.810925
65.965 26.970522
65.970 27.138571
65.975 26.930132
65.980 27.326813
65.985 26.936121
65.990 26.101143
65.995 25.099148
66.000 24.811115
66.005 24.520636
66.010 24.263695
66.015 23.811584
66.020 23.643732
66.025 23.539736
66.030 23.9403
66.035 23.897478
66.040 23.564642
66.045 23.636858
66.050 23.590454
66.055 23.826771
66.060 23.757248
66.065 23.683014
66.070 23.68399
66.075 23.602858
66.080 23.789265
66.085 24.351124
66.090 24.414654
66.095 24.352411
66.100 23.663738
66.105 23.727345
66.110 24.075113
66.115 23.861526
66.120 22.987123
66.125 21.93924
66.130 21.436531
66.135 21.135738
66.140 20.419046
66.145 20.008907
66.150 19.851254
66.155 19.612616
66.160 19.752052
66.165 19.425089
66.170 19.755831
66.175 19.774097
66.180 19.929295
66.185 19.887259
66.190 19.946156
66.195 19.683641
66.200 20.153542
66.205 19.893604
66.210 19.725433
66.215 19.723375
66.220 20.126657
66.225 20.163097
66.230 20.098433
66.235 19.894499
66.240 20.122866
66.245 20.576544
66.250 20.233522
66.255 19.54513
66.260 19.909554
66.265 20.00322
66.270 20.215294
66.275 20.494228
66.280 20.247585
66.285 20.112883
66.290 20.114161
66.295 19.878328
66.300 19.991753
66.305 20.000786
66.310 20.034384
66.315 19.551348
66.320 18.972956
66.325 19.00061
66.330 18.821512
66.335 18.517954
66.340 18.431713
66.345 18.1642
66.350 18.845221
66.355 18.997196
66.360 19.300386
66.365 19.629702
66.370 19.417755
66.375 18.908003
66.380 18.683718
66.385 18.580025
66.390 18.3472
66.395 17.880482
66.400 17.718834
66.405 18.337696
66.410 18.329832
66.415 18.218845
66.420 18.323246
66.425 18.018169
66.430 18.137838
66.435 18.390835
66.440 17.973911
66.445 18.367016
66.450 18.895973
66.455 19.036694
66.460 19.422831
66.465 19.525936
66.470 19.757612
66.475 19.487976
66.480 19.387762
66.485 19.132208
66.490 18.976381
66.495 19.300806
66.500 18.957748
66.505 18.766624
66.510 19.36842
66.515 19.263281
66.520 18.935728
66.525 18.757795
66.530 18.729845
66.535 18.683794
66.540 18.502911
66.545 17.788782
66.550 17.767376
66.555 18.34111
66.560 18.544991
66.565 18.63743
66.570 18.878241
66.575 19.183987
66.580 19.368416
66.585 18.698271
66.590 18.676865
66.595 18.737505
66.600 18.131765
66.605 18.102766
66.610 18.167484
66.615 18.131878
66.620 18.418787
66.625 18.612425
66.630 18.41691
66.635 18.563744
66.640 18.354847
66.645 18.276997
66.650 18.29113
66.655 18.663507
66.660 18.063303
66.665 18.589083
66.670 18.749132
66.675 18.630363
66.680 18.478424
66.685 18.216494
66.690 17.598963
66.695 17.235981
66.700 16.960785
66.705 17.029779
66.710 17.276274
66.715 17.566772
66.720 18.395407
66.725 19.073221
66.730 19.111593
66.735 18.623503
66.740 18.917742
66.745 18.567503
66.750 18.215868
66.755 17.245493
66.760 17.440948
66.765 17.865896
66.770 18.438112
66.775 18.469179
66.780 18.63386
66.785 18.75013
66.790 19.328602
66.795 19.099728
66.800 19.458927
66.805 19.360607
66.810 19.584171
66.815 19.616436
66.820 19.644337
66.825 19.268499
66.830 19.219473
66.835 18.694239
66.840 18.389111
66.845 17.797148
66.850 17.625097
66.855 17.922596
66.860 17.469692
66.865 17.170635
66.870 17.425589
66.875 17.373827
66.880 18.09359
66.885 18.462341
66.890 18.024336
66.895 18.480219
66.900 18.304247
66.905 18.309254
66.910 18.560108
66.915 17.84704
66.920 17.479557
66.925 17.860069
66.930 18.083195
66.935 18.302797
66.940 18.112715
66.945 18.175705
66.950 18.367027
66.955 18.317406
66.960 17.549473
66.965 17.22257
66.970 17.372578
66.975 17.736885
66.980 17.566235
66.985 17.620203
66.990 18.240669
66.995 18.79949
67.000 18.758131
67.005 18.473372
67.010 18.197006
67.015 18.148706
67.020 17.785816
67.025 17.333364
67.030 17.301525
67.035 17.633057
67.040 17.581591
67.045 17.713722
67.050 17.513063
67.055 17.867117
67.060 17.576635
67.065 17.387295
67.070 17.304441
67.075 17.621883
67.080 17.273924
67.085 17.30098
67.090 17.443476
67.095 18.191288
67.100 18.724785
67.105 19.016106
67.110 19.402369
67.115 20.049322
67.120 20.596556
67.125 20.378305
67.130 19.842514
67.135 19.800467
67.140 19.396877
67.145 19.036654
67.150 19.026396
67.155 18.615582
67.160 18.80632
67.165 19.34791
67.170 19.041677
67.175 19.703297
67.180 19.642992
67.185 19.270313
67.190 19.473379
67.195 19.533888
67.200 19.125645
67.205 19.19334
67.210 18.715166
67.215 18.700777
67.220 18.496464
67.225 18.037966
67.230 17.817966
67.235 17.733343
67.240 17.274168
67.245 17.195133
67.250 16.815102
67.255 17.196255
67.260 16.993326
67.265 16.924074
67.270 17.366484
67.275 17.323441
67.280 17.612722
67.285 17.489202
67.290 17.562761
67.295 18.229702
67.300 18.085016
67.305 17.686121
67.310 17.456657
67.315 17.597349
67.320 18.080555
67.325 17.909964
67.330 17.332317
67.335 16.972708
67.340 16.914619
67.345 17.031128
67.350 16.619627
67.355 16.250122
67.360 16.84203
67.365 17.327415
67.370 18.08733
67.375 18.221252
67.380 18.409981
67.385 18.724854
67.390 18.268591
67.395 17.865595
67.400 17.896345
67.405 17.501835
67.410 17.524403
67.415 17.269428
67.420 16.533613
67.425 16.229546
67.430 15.842516
67.435 15.755546
67.440 16.222469
67.445 16.571959
67.450 16.953373
67.455 17.584736
67.460 17.966242
67.465 18.233067
67.470 18.137379
67.475 17.47744
67.480 17.652485
67.485 17.630281
67.490 17.720722
67.495 18.445343
67.500 19.048021
67.505 19.28792
67.510 19.494234
67.515 19.244732
67.520 18.997482
67.525 19.22122
67.530 18.972839
67.535 18.565247
67.540 18.232773
67.545 18.265148
67.550 18.479254
67.555 18.92473
67.560 18.62006
67.565 18.105011
67.570 18.175154
67.575 18.616024
67.580 18.713751
67.585 18.459435
67.590 18.339933
67.595 18.514708
67.600 18.700584
67.605 18.304033
67.610 18.574131
67.615 18.532465
67.620 19.215876
67.625 19.832188
67.630 19.914597
67.635 20.099697
67.640 20.780521
67.645 20.891768
67.650 21.08637
67.655 20.488174
67.660 19.697287
67.665 19.238348
67.670 19.036968
67.675 18.532784
67.680 17.994007
67.685 17.897884
67.690 17.646891
67.695 18.363874
67.700 18.621204
67.705 18.689791
67.710 18.512274
67.715 18.865789
67.720 18.695169
67.725 19.043074
67.730 19.048788
67.735 18.953592
67.740 19.177137
67.745 19.11064
67.750 18.991056
67.755 19.068804
67.760 18.792448
67.765 18.920153
67.770 18.959173
67.775 18.779913
67.780 18.651928
67.785 18.324442
67.790 18.120468
67.795 17.439737
67.800 16.938347
67.805 17.345669
67.810 17.869017
67.815 18.386791
67.820 18.798332
67.825 18.429588
67.830 18.826725
67.835 18.805225
67.840 17.633873
67.845 17.585241
67.850 17.542044
67.855 18.032116
67.860 18.489153
67.865 18.735914
67.870 18.908888
67.875 19.555811
67.880 19.639666
67.885 19.428955
67.890 19.576981
67.895 19.444138
67.900 19.293295
67.905 19.179605
67.910 19.224461
67.915 18.888344
67.920 18.816471
67.925 18.194967
67.930 18.487257
67.935 19.396072
67.940 20.124006
67.945 19.578152
67.950 19.704443
67.955 19.414183
67.960 19.103603
67.965 18.556149
67.970 17.498564
67.975 17.215322
67.980 17.631422
67.985 17.882721
67.990 18.05332
67.995 18.375004
68.000 18.74773
68.005 18.780457
68.010 18.886818
68.015 18.411991
68.020 18.040619
68.025 18.35463
68.030 18.186127
68.035 18.086637
68.040 18.19154
68.045 18.679579
68.050 18.557371
68.055 18.797533
68.060 19.017994
68.065 19.141047
68.070 19.530352
68.075 19.405357
68.080 19.931839
68.085 20.653904
68.090 20.522585
68.095 20.613428
68.100 20.678123
68.105 20.256456
68.110 19.685278
68.115 18.837126
68.120 18.447779
68.125 18.227934
68.130 18.264973
68.135 18.24024
68.140 19.024027
68.145 18.938787
68.150 18.751219
68.155 18.962072
68.160 18.585674
68.165 18.625196
68.170 18.390326
68.175 18.033047
68.180 18.597467
68.185 18.742498
68.190 19.463108
68.195 20.777119
68.200 20.824511
68.205 20.959007
68.210 21.095909
68.215 21.303041
68.220 21.520046
68.225 20.856554
68.230 20.325739
68.235 20.281195
68.240 19.962391
68.245 20.574478
68.250 20.676001
68.255 21.300491
68.260 21.501911
68.265 21.540981
68.270 22.094673
68.275 22.359669
68.280 22.195351
68.285 22.008362
68.290 22.054853
68.295 22.313263
68.300 22.382328
68.305 22.580486
68.310 22.650146
68.315 22.34824
68.320 22.755291
68.325 22.695187
68.330 23.062763
68.335 23.437803
68.340 23.891371
68.345 24.710657
68.350 25.270174
68.355 25.056572
68.360 24.775621
68.365 24.499596
68.370 24.261652
68.375 23.782427
68.380 23.848219
68.385 24.313135
68.390 24.998495
68.395 25.562513
68.400 25.600706
68.405 25.981117
68.410 26.988813
68.415 27.532757
68.420 27.350544
68.425 27.209185
68.430 27.012197
68.435 26.578545
68.440 27.121197
68.445 27.024181
68.450 26.314524
68.455 27.322294
68.460 27.90761
68.465 28.71818
68.470 29.509476
68.475 29.503067
68.480 29.491259
68.485 30.207909
68.490 29.620163
68.495 29.41757
68.500 29.72513
68.505 30.178066
68.510 29.702742
68.515 29.50374
68.520 29.67716
68.525 29.901125
68.530 30.053402
68.535 29.815857
68.540 30.270361
68.545 30.188622
68.550 30.314974
68.555 30.22003
68.560 30.704138
68.565 30.76458
68.570 30.59248
68.575 29.615154
68.580 30.000633
68.585 30.160149
68.590 31.442236
68.595 31.429852
68.600 31.728813
68.605 31.653906
68.610 32.176456
68.615 32.169975
68.620 32.183945
68.625 31.418457
68.630 30.993103
68.635 31.1731
68.640 31.716116
68.645 32.399082
68.650 32.699123
68.655 32.130409
68.660 31.6752
68.665 31.831921
68.670 32.229088
68.675 32.357761
68.680 32.093483
68.685 31.723476
68.690 32.68264
68.695 33.935806
68.700 33.684799
68.705 33.02047
68.710 33.089466
68.715 33.256557
68.720 34.120106
68.725 33.974613
68.730 33.202148
68.735 32.992096
68.740 32.74551
68.745 32.144318
68.750 31.555538
68.755 31.084471
68.760 30.836227
68.765 30.402693
68.770 30.184324
68.775 30.510996
68.780 30.690329
68.785 31.131487
68.790 31.448399
68.795 31.388439
68.800 32.382946
68.805 33.641964
68.810 34.013599
68.815 34.927216
68.820 34.882324
68.825 35.014454
68.830 35.965118
68.835 36.082157
68.840 36.287113
68.845 36.082405
68.850 35.567581
68.855 35.260109
68.860 35.655987
68.865 35.851707
68.870 35.87645
68.875 35.867268
68.880 35.532841
68.885 35.427105
68.890 35.031601
68.895 34.395412
68.900 34.887981
68.905 35.21888
68.910 34.931446
68.915 35.182388
68.920 35.190147
68.925 35.542152
68.930 35.335583
68.935 33.665199
68.940 33.171349
68.945 32.521717
68.950 32.295464
68.955 32.073654
68.960 31.7943
68.965 32.000916
68.970 32.229053
68.975 32.015839
68.980 32.121895
68.985 31.838472
68.990 31.951876
68.995 31.60537
69.000 32.106995
69.005 32.218338
69.010 31.879223
69.015 31.735836
69.020 31.561731
69.025 31.352043
69.030 31.294415
69.035 29.886543
69.040 29.860214
69.045 29.039591
69.050 29.399822
69.055 29.434019
69.060 29.353195
69.065 29.885584
69.070 29.584209
69.075 29.599098
69.080 30.216705
69.085 29.491793
69.090 29.757822
69.095 29.570438
69.100 29.70739
69.105 29.550158
69.110 30.209412
69.115 30.177824
69.120 30.471325
69.125 30.205841
69.130 29.662384
69.135 29.075205
69.140 28.535221
69.145 27.03405
69.150 26.781008
69.155 26.429377
69.160 26.536728
69.165 26.31241
69.170 26.099516
69.175 25.549156
69.180 25.314747
69.185 25.987099
69.190 26.476646
69.195 25.957029
69.200 25.379173
69.205 25.818172
69.210 26.301922
69.215 26.343866
69.220 26.107527
69.225 25.823166
69.230 25.677011
69.235 26.280512
69.240 25.602535
69.245 25.253817
69.250 24.995634
69.255 24.030933
69.260 23.558027
69.265 23.440794
69.270 22.994234
69.275 23.163183
69.280 22.96154
69.285 22.349585
69.290 22.220867
69.295 21.301094
69.300 21.275311
69.305 21.202526
69.310 20.623549
69.315 20.486607
69.320 21.034996
69.325 21.37406
69.330 22.197798
69.335 21.849123
69.340 21.383459
69.345 21.176046
69.350 21.172569
69.355 21.077774
69.360 21.469946
69.365 21.487852
69.370 21.72191
69.375 21.882595
69.380 22.41794
69.385 22.881086
69.390 23.134199
69.395 22.523714
69.400 21.749269
69.405 21.428984
69.410 21.119461
69.415 20.640915
69.420 19.624702
69.425 19.262085
69.430 19.515764
69.435 19.759636
69.440 19.912735
69.445 20.223597
69.450 20.882391
69.455 20.907375
69.460 20.350397
69.465 19.479286
69.470 19.244276
69.475 19.277578
69.480 19.158806
69.485 18.386406
69.490 17.738153
69.495 18.438974
69.500 19.039053
69.505 19.079782
69.510 19.037687
69.515 18.714275
69.520 18.97328
69.525 19.570124
69.530 18.749491
69.535 18.696682
69.540 18.552975
69.545 18.829168
69.550 18.427105
69.555 17.88102
69.560 17.556967
69.565 17.959454
69.570 18.297729
69.575 18.687685
69.580 18.598776
69.585 18.938707
69.590 19.633547
69.595 19.710375
69.600 19.589628
69.605 19.99909
69.610 20.328588
69.615 20.34852
69.620 20.328894
69.625 20.041565
69.630 20.039755
69.635 19.509958
69.640 18.305134
69.645 17.929106
69.650 18.135635
69.655 18.510799
69.660 18.342928
69.665 18.198881
69.670 18.848633
69.675 19.269167
69.680 19.088217
69.685 18.858788
69.690 18.284231
69.695 18.401525
69.700 18.592793
69.705 18.488615
69.710 18.735806
69.715 18.74296
69.720 18.65041
69.725 18.607086
69.730 18.615301
69.735 18.751339
69.740 19.107891
69.745 19.057264
69.750 19.044813
69.755 19.05394
69.760 19.836264
69.765 19.917793
69.770 19.625172
69.775 19.379877
69.780 19.284714
69.785 19.659245
69.790 20.1059
69.795 19.657019
69.800 19.268255
69.805 18.940847
69.810 18.32229
69.815 17.998222
69.820 18.420637
69.825 17.961767
69.830 17.966009
69.835 18.195684
69.840 18.271847
69.845 18.317709
69.850 18.185963
69.855 17.440258
69.860 17.867855
69.865 17.707907
69.870 18.033579
69.875 18.608498
69.880 18.767754
69.885 18.896887
69.890 19.018257
69.895 18.599888
69.900 18.779285
69.905 18.604456
69.910 18.431408
69.915 18.451338
69.920 17.92272
69.925 17.329096
69.930 17.986673
69.935 18.277613
69.940 18.270605
69.945 18.672453
69.950 18.804991
69.955 19.697796
69.960 20.062643
69.965 19.519943
69.970 19.790741
69.975 19.205299
69.980 18.946997
69.985 19.128201
69.990 18.874144
69.995 18.925488
70.000 18.824942
70.005 18.656885
70.010 18.83666
70.015 18.666199
70.020 18.669241
70.025 18.876396
70.030 18.761082
70.035 19.069561
70.040 19.374409
70.045 19.205198
70.050 18.994467
70.055 18.280115
70.060 17.453703
70.065 17.649063
70.070 17.671099
70.075 17.635033
70.080 18.165615
70.085 18.701614
70.090 19.111317
70.095 19.539209
70.100 19.398277
70.105 19.455774
70.110 19.282677
70.115 19.00288
70.120 19.198128
70.125 18.948235
70.130 19.316414
70.135 18.797699
70.140 18.127232
70.145 18.019957
70.150 18.236542
70.155 18.131752
70.160 18.327501
70.165 18.296675
70.170 18.5443
70.175 18.755733
70.180 18.697844
70.185 17.984262
70.190 18.098928
70.195 17.810524
70.200 17.467369
70.205 17.001726
70.210 16.906334
70.215 17.091721
70.220 17.24972
70.225 16.808117
70.230 16.990211
70.235 17.312061
70.240 17.326971
70.245 17.888041
70.250 17.887888
70.255 17.939383
70.260 17.604889
70.265 17.504232
70.270 17.315533
70.275 17.644892
70.280 17.130463
70.285 17.392277
70.290 17.973635
70.295 18.097786
70.300 18.196491
70.305 18.515345
70.310 18.687637
70.315 18.882639
70.320 18.757973
70.325 19.027668
70.330 19.193262
70.335 19.294941
70.340 19.51438
70.345 19.443497
70.350 19.67458
70.355 19.506107
70.360 19.464964
70.365 19.42725
70.370 19.167669
70.375 18.915203
70.380 18.53721
70.385 18.326525
70.390 18.079218
70.395 18.19208
70.400 18.36904
70.405 18.330273
70.410 17.750317
70.415 17.859571
70.420 18.031055
70.425 18.033979
70.430 17.842607
70.435 17.817644
70.440 18.848492
70.445 19.763998
70.450 19.846876
70.455 19.117315
70.460 19.219732
70.465 19.259954
70.470 19.037903
70.475 19.028763
70.480 18.526505
70.485 18.379505
70.490 18.91453
70.495 18.820158
70.500 19.168095
70.505 19.423512
70.510 19.184956
70.515 19.674301
70.520 20.324095
70.525 19.92971
70.530 19.899597
70.535 19.244539
70.540 18.626461
70.545 18.541842
70.550 18.153841
70.555 17.727398
70.560 18.182394
70.565 18.596115
70.570 19.337465
70.575 19.866396
70.580 20.088041
70.585 20.120316
70.590 20.12612
70.595 19.482815
70.600 19.221975
70.605 18.417562
70.610 17.75363
70.615 17.469614
70.620 17.735525
70.625 17.782801
70.630 17.891331
70.635 18.222721
70.640 18.848864
70.645 18.783968
70.650 18.230505
70.655 17.19532
70.660 16.863556
70.665 16.74316
70.670 16.283133
70.675 16.202274
70.680 15.787837
70.685 15.708146
70.690 16.135889
70.695 16.215309
70.700 15.92322
70.705 15.643921
70.710 15.668777
70.715 16.270941
70.720 16.771645
70.725 16.761606
70.730 16.541056
70.735 16.715393
70.740 16.328526
70.745 16.50716
70.750 16.642509
70.755 16.771002
70.760 17.19162
70.765 17.669899
70.770 17.577291
70.775 17.737614
70.780 17.723055
70.785 17.891714
70.790 18.401037
70.795 17.753923
70.800 17.877407
70.805 18.753059
70.810 18.616423
70.815 18.605198
70.820 18.480076
70.825 18.187824
70.830 18.745287
70.835 18.45512
70.840 18.313007
70.845 18.328903
70.850 18.552198
70.855 17.934683
70.860 17.702784
70.865 18.126751
70.870 18.20167
70.875 17.81402
70.880 17.593515
70.885 17.719681
70.890 18.061413
70.895 17.92135
70.900 17.153893
70.905 17.199295
70.910 17.172026
70.915 16.892908
70.920 17.0373
70.925 17.041941
70.930 16.79365
70.935 16.644802
70.940 16.638737
70.945 17.252726
70.950 17.867256
70.955 17.789257
70.960 18.031446
70.965 18.281704
70.970 18.39357
70.975 18.496429
70.980 18.217087
70.985 17.368269
70.990 17.069256
70.995 17.067898
71.000 16.840731
71.005 16.517206
71.010 16.515604
71.015 16.414463
71.020 16.537493
71.025 16.353201
71.030 16.413197
71.035 17.343376
71.040 17.350748
71.045 17.278418
71.050 17.825912
71.055 17.642101
71.060 18.437469
71.065 17.820541
71.070 17.663363
71.075 18.042664
71.080 17.757479
71.085 17.430664
71.090 17.457073
71.095 17.540962
71.100 18.189501
71.105 17.643673
71.110 17.45146
71.115 17.856741
71.120 18.077158
71.125 17.563753
71.130 16.754841
71.135 16.737299
71.140 17.423935
71.145 17.564568
71.150 16.74188
71.155 16.553728
71.160 17.036652
71.165 17.437307
71.170 17.239132
71.175 17.022251
71.180 17.122261
71.185 17.805828
71.190 17.618811
71.195 17.644472
71.200 18.231136
71.205 18.195993
71.210 18.011709
71.215 18.128065
71.220 18.642473
71.225 19.206841
71.230 18.909035
71.235 18.419373
71.240 18.899374
71.245 18.704941
71.250 18.066629
71.255 17.812664
71.260 17.971376
71.265 18.597471
71.270 18.101263
71.275 17.854933
71.280 18.079224
71.285 17.701933
71.290 17.566339
71.295 17.045305
71.300 16.993553
71.305 17.247004
71.310 17.423079
71.315 17.723028
71.320 17.807505
71.325 16.974379
71.330 17.049351
71.335 17.269577
71.340 17.445387
71.345 17.50173
71.350 18.138491
71.355 18.840658
71.360 19.36277
71.365 18.666264
71.370 17.788435
71.375 17.552296
71.380 17.401852
71.385 17.466274
71.390 17.202126
71.395 17.141081
71.400 17.889233
71.405 18.456896
71.410 18.812252
71.415 18.829956
71.420 18.736162
71.425 19.389664
71.430 19.886801
71.435 18.952866
71.440 18.513472
71.445 18.441637
71.450 17.923479
71.455 17.600698
71.460 17.581358
71.465 17.470575
71.470 17.729126
71.475 17.873016
71.480 17.904974
71.485 17.775944
71.490 17.351843
71.495 16.852104
71.500 17.149441
71.505 17.594536
71.510 17.840019
71.515 18.078901
71.520 18.524984
71.525 19.118393
71.530 19.447668
71.535 19.690435
71.540 19.515024
71.545 19.073725
71.550 18.48757
71.555 17.860443
71.560 17.518312
71.565 17.011326
71.570 17.136059
71.575 17.214252
71.580 18.008747
71.585 18.435301
71.590 18.705503
71.595 18.589388
71.600 18.799532
71.605 18.652834
71.610 18.605944
71.615 17.3445
71.620 17.275799
71.625 17.132912
71.630 17.275391
71.635 16.828943
71.640 16.533749
71.645 17.083691
71.650 17.675306
71.655 17.504354
71.660 17.236891
71.665 16.708668
71.670 17.243109
71.675 17.453163
71.680 17.387377
71.685 17.152218
71.690 17.286295
71.695 17.401325
71.700 17.582853
71.705 16.573303
71.710 16.106466
71.715 16.513664
71.720 16.831181
71.725 17.161901
71.730 17.590548
71.735 17.438595
71.740 18.166325
71.745 18.118906
71.750 17.682383
71.755 17.514393
71.760 17.644266
71.765 17.897684
71.770 17.914236
71.775 17.731834
71.780 18.022053
71.785 18.529131
71.790 18.668121
71.795 18.498549
71.800 18.268738
71.805 18.342224
71.810 18.582899
71.815 18.487328
71.820 18.362209
71.825 18.051294
71.830 17.650688
71.835 17.577709
71.840 17.098404
71.845 16.692591
71.850 16.278606
71.855 16.299072
71.860 16.350328
71.865 16.855354
71.870 17.122362
71.875 17.29991
71.880 17.693464
71.885 17.557028
71.890 16.98761
71.895 16.945244
71.900 17.014128
71.905 16.901779
71.910 17.00639
71.915 16.773228
71.920 17.12829
71.925 17.526005
71.930 17.875204
71.935 17.754255
71.940 17.454239
71.945 17.841717
71.950 17.865974
71.955 17.849072
71.960 17.641861
71.965 17.292336
71.970 17.420179
71.975 17.032642
71.980 16.995827
71.985 17.709951
71.990 17.85746
71.995 18.037895
72.000 18.216921
72.005 18.500185
72.010 18.734396
72.015 17.895088
72.020 17.40132
72.025 17.148151
72.030 16.981852
72.035 16.837496
72.040 16.9664
72.045 17.521212
72.050 17.493822
72.055 17.389656
72.060 17.956345
72.065 18.045811
72.070 17.675522
72.075 17.067451
72.080 16.945543
72.085 17.448662
72.090 17.046272
72.095 16.542601
72.100 16.908405
72.105 17.009834
72.110 17.028505
72.115 16.972244
72.120 17.055824
72.125 17.74155
72.130 17.452972
72.135 17.838556
72.140 18.6612
72.145 18.906506
72.150 18.732092
72.155 18.33815
72.160 17.770348
72.165 17.648405
72.170 17.195671
72.175 16.586151
72.180 16.45801
72.185 16.135757
72.190 16.599436
72.195 16.736794
72.200 16.864649
72.205 17.285728
72.210 17.846664
72.215 17.926201
72.220 17.741955
72.225 17.540611
72.230 17.549967
72.235 17.124302
72.240 16.912224
72.245 16.98167
72.250 17.028696
72.255 16.943687
72.260 16.595036
72.265 17.204176
72.270 17.893509
72.275 17.399326
72.280 17.322077
72.285 17.553406
72.290 18.034527
72.295 18.046616
72.300 17.941822
72.305 17.625921
72.310 17.612
72.315 17.782028
72.320 18.414097
72.325 18.590925
72.330 19.114178
72.335 18.699091
72.340 19.327267
72.345 19.683668
72.350 19.81435
72.355 19.506872
72.360 19.371164
72.365 18.745806
72.370 18.693533
72.375 18.197819
72.380 18.337236
72.385 18.107719
72.390 18.009365
72.395 18.218809
72.400 18.869955
72.405 18.789122
72.410 19.06032
72.415 18.456547
72.420 18.033642
72.425 18.207775
72.430 17.870584
72.435 17.475555
72.440 16.601339
72.445 16.23856
72.450 16.606958
72.455 16.17544
72.460 15.214543
72.465 15.201062
72.470 15.478268
72.475 16.14871
72.480 16.146547
72.485 16.386093
72.490 17.520134
72.495 17.775486
72.500 17.880705
72.505 17.77112
72.510 17.445023
72.515 17.385582
72.520 17.370481
72.525 17.465261
72.530 17.845896
72.535 17.734783
72.540 17.676348
72.545 17.76619
72.550 17.662786
72.555 17.290958
72.560 17.448973
72.565 17.385904
72.570 17.413832
72.575 17.42687
72.580 17.507656
72.585 17.959267
72.590 18.164799
72.595 17.818655
72.600 17.65962
72.605 17.848675
72.610 17.707102
72.615 17.319746
72.620 16.696974
72.625 16.806707
72.630 16.638302
72.635 16.396984
72.640 16.036585
72.645 16.384754
72.650 16.327108
72.655 16.452265
72.660 16.029366
72.665 16.076458
72.670 16.259327
72.675 16.10166
72.680 15.671102
72.685 15.785476
72.690 15.284198
72.695 15.990497
72.700 16.091715
72.705 16.184719
72.710 16.886076
72.715 16.928183
72.720 16.753271
72.725 16.039534
72.730 15.417667
72.735 15.161286
72.740 15.128607
72.745 14.74759
72.750 14.848645
72.755 15.471179
72.760 16.16387
72.765 16.487577
72.770 16.91997
72.775 16.606745
72.780 16.836048
72.785 17.407307
72.790 17.183722
72.795 16.574087
72.800 16.476627
72.805 17.039684
72.810 17.369133
72.815 17.22543
72.820 17.211102
72.825 17.110413
72.830 17.499704
72.835 16.77429
72.840 16.698215
72.845 17.165522
72.850 17.164713
72.855 16.585926
72.860 16.115997
72.865 15.942635
72.870 16.312481
72.875 15.467907
72.880 14.654646
72.885 14.79959
72.890 15.190213
72.895 15.841
72.900 15.859879
72.905 15.698527
72.910 15.906085
72.915 16.134548
72.920 16.022629
72.925 16.678295
72.930 16.599098
72.935 16.575626
72.940 17.001713
72.945 17.271517
72.950 17.19326
72.955 16.764103
72.960 15.887668
72.965 15.521747
72.970 15.6704
72.975 15.576896
72.980 15.190685
72.985 15.466146
72.990 15.645941
72.995 16.062502
73.000 16.188248
