!@!!GADDS PLOTSO FILE: Chi integration type
!@!!Title/SampleName: map-e8
!@!!Comment: ?
!@!!User: Bruker Instrument Administrator
!@!!Site: University of Illinois Chicago
!@!!Frame: map-e8_01_000.gfrm
!@!!Wavelengths    1.54184   1.54056   1.54439
!@!!Frame angles: 2Theta: 63.000 Omega: 50.000 Phi: 0.000 Chi: 90.000
!@!!Integration range: 2Theta: 53.000 to 73.000  Gamma: -105.000 to -75.000
!@!!Integration method: bin normalized
!@!N
!@!SS
!@!M
!@!L 0.0 0.0 0.0 0.0
!@!XDegrees
!@!YCounts
53.000 5.441827
53.005 5.141794
53.010 5.016881
53.015 4.784967
53.020 5.113361
53.025 5.250183
53.030 5.245942
53.035 5.455068
53.040 5.629138
53.045 5.991073
53.050 6.498173
53.055 6.462182
53.060 6.465802
53.065 6.698529
53.070 6.836251
53.075 6.819763
53.080 6.671848
53.085 6.962711
53.090 7.324684
53.095 7.336411
53.100 7.45612
53.105 7.948321
53.110 8.292057
53.115 7.995219
53.120 7.824758
53.125 8.168357
53.130 8.070802
53.135 7.821726
53.140 7.346104
53.145 7.159087
53.150 7.213653
53.155 6.76599
53.160 6.684956
53.165 7.240928
53.170 7.359915
53.175 7.495921
53.180 7.43549
53.185 7.037859
53.190 7.089854
53.195 7.128622
53.200 6.64071
53.205 6.244305
53.210 6.08518
53.215 6.034134
53.220 6.27386
53.225 6.000239
53.230 5.631246
53.235 5.93926
53.240 6.137416
53.245 6.265539
53.250 6.667107
53.255 6.967819
53.260 7.110949
53.265 7.201261
53.270 7.12682
53.275 7.056787
53.280 6.812366
53.285 6.435518
53.290 6.278419
53.295 6.067477
53.300 6.1578
53.305 6.414933
53.310 6.465652
53.315 6.799559
53.320 7.129895
53.325 7.130108
53.330 7.940527
53.335 7.662266
53.340 7.639173
53.345 7.304926
53.350 7.269979
53.355 7.481364
53.360 7.336839
53.365 6.658578
53.370 6.975343
53.375 7.223761
53.380 7.082556
53.385 6.597161
53.390 6.133578
53.395 6.114106
53.400 6.108833
53.405 5.914392
53.410 5.779698
53.415 5.678145
53.420 5.91628
53.425 6.459801
53.430 6.73212
53.435 6.988237
53.440 6.924774
53.445 6.830754
53.450 7.131338
53.455 7.452904
53.460 7.447338
53.465 7.474227
53.470 7.619625
53.475 7.96826
53.480 8.390119
53.485 8.230774
53.490 8.040358
53.495 8.085799
53.500 7.778164
53.505 7.732711
53.510 7.65674
53.515 7.914606
53.520 8.174584
53.525 7.616131
53.530 7.263901
53.535 7.283682
53.540 7.113538
53.545 6.85062
53.550 6.133826
53.555 6.064557
53.560 6.566699
53.565 6.8399
53.570 6.72764
53.575 6.877279
53.580 6.933387
53.585 7.148926
53.590 7.194642
53.595 7.169983
53.600 7.294215
53.605 7.231049
53.610 7.375832
53.615 7.660128
53.620 7.650977
53.625 7.178424
53.630 6.727415
53.635 6.548429
53.640 6.523245
53.645 6.487047
53.650 6.738899
53.655 6.738352
53.660 7.256557
53.665 7.667349
53.670 7.950004
53.675 8.007291
53.680 8.169731
53.685 7.984688
53.690 8.350424
53.695 8.295128
53.700 8.067322
53.705 8.318004
53.710 8.094582
53.715 7.935233
53.720 7.929772
53.725 8.333575
53.730 8.431747
53.735 8.271008
53.740 8.00771
53.745 7.647257
53.750 7.921217
53.755 7.704558
53.760 7.088063
53.765 6.914646
53.770 6.928966
53.775 7.169323
53.780 7.431935
53.785 7.427254
53.790 7.821749
53.795 8.548055
53.800 9.339547
53.805 9.586102
53.810 9.505772
53.815 8.862069
53.820 8.7954
53.825 8.356134
53.830 7.651158
53.835 7.374298
53.840 7.387455
53.845 7.919841
53.850 8.247244
53.855 7.970388
53.860 8.027967
53.865 8.233706
53.870 8.469517
53.875 8.291144
53.880 7.861049
53.885 7.940292
53.890 8.025581
53.895 7.979712
53.900 7.53428
53.905 7.25336
53.910 7.421591
53.915 7.812208
53.920 8.012169
53.925 8.306015
53.930 8.646752
53.935 8.7162
53.940 8.837398
53.945 8.292661
53.950 7.851836
53.955 7.581211
53.960 7.119992
53.965 6.819364
53.970 7.120337
53.975 7.410294
53.980 7.656646
53.985 7.775739
53.990 7.975049
53.995 8.179624
54.000 8.060814
54.005 7.648231
54.010 7.395184
54.015 7.362873
54.020 7.322766
54.025 7.061159
54.030 7.284743
54.035 7.521256
54.040 7.551734
54.045 7.420123
54.050 7.373388
54.055 7.492051
54.060 7.01071
54.065 6.841132
54.070 6.881837
54.075 6.742404
54.080 7.277214
54.085 7.56641
54.090 7.913909
54.095 8.416665
54.100 8.369203
54.105 8.52049
54.110 8.845138
54.115 8.553315
54.120 8.406924
54.125 8.153061
54.130 8.077362
54.135 8.242917
54.140 8.280293
54.145 8.195905
54.150 7.933354
54.155 7.796944
54.160 7.975734
54.165 7.737769
54.170 7.564206
54.175 7.634334
54.180 7.914951
54.185 8.230438
54.190 8.410965
54.195 8.86033
54.200 8.905723
54.205 8.694337
54.210 8.097495
54.215 7.810432
54.220 7.596229
54.225 7.080425
54.230 7.202706
54.235 7.445096
54.240 7.700436
54.245 8.122709
54.250 8.395456
54.255 8.883585
54.260 9.224415
54.265 9.042221
54.270 9.11141
54.275 9.409155
54.280 9.576334
54.285 9.409791
54.290 9.098891
54.295 8.824595
54.300 8.891614
54.305 8.842907
54.310 8.653325
54.315 8.807692
54.320 8.947227
54.325 9.379178
54.330 9.614063
54.335 9.892013
54.340 10.006287
54.345 9.694407
54.350 9.549857
54.355 9.1508
54.360 8.856975
54.365 8.52247
54.370 8.166644
54.375 7.928747
54.380 7.849321
54.385 8.003093
54.390 8.254877
54.395 8.257065
54.400 8.600558
54.405 9.109321
54.410 9.385108
54.415 9.618329
54.420 9.156927
54.425 8.794148
54.430 8.796402
54.435 8.563162
54.440 8.513192
54.445 8.294956
54.450 8.290178
54.455 8.514931
54.460 8.555063
54.465 8.310241
54.470 8.165178
54.475 8.063388
54.480 8.01254
54.485 7.91171
54.490 7.893159
54.495 7.761502
54.500 7.815584
54.505 7.900257
54.510 8.072344
54.515 7.9203
54.520 7.952234
54.525 8.143441
54.530 8.739909
54.535 8.772954
54.540 8.918155
54.545 8.945689
54.550 9.254871
54.555 9.424777
54.560 9.380337
54.565 8.939502
54.570 8.85609
54.575 8.774102
54.580 8.757103
54.585 8.547399
54.590 8.210947
54.595 8.472251
54.600 8.49965
54.605 8.259135
54.610 7.792233
54.615 7.960329
54.620 7.898439
54.625 8.022071
54.630 8.018266
54.635 7.846509
54.640 8.277741
54.645 8.696686
54.650 8.930074
54.655 9.321243
54.660 8.925353
54.665 8.961533
54.670 9.097371
54.675 8.514572
54.680 8.113248
54.685 7.738646
54.690 7.739381
54.695 7.734457
54.700 7.771997
54.705 7.893427
54.710 8.274471
54.715 8.522759
54.720 8.619205
54.725 8.428502
54.730 8.899518
54.735 9.030149
54.740 9.349888
54.745 9.593879
54.750 9.696351
54.755 9.984744
54.760 10.079899
54.765 9.939346
54.770 9.754212
54.775 9.522185
54.780 9.096922
54.785 8.659698
54.790 8.670425
54.795 8.426338
54.800 7.985796
54.805 7.914341
54.810 7.788042
54.815 7.942166
54.820 8.074436
54.825 8.106133
54.830 8.257866
54.835 8.667595
54.840 8.647496
54.845 8.225849
54.850 8.315977
54.855 7.898742
54.860 8.083823
54.865 8.425035
54.870 8.689849
54.875 8.815105
54.880 9.06078
54.885 8.98107
54.890 9.239878
54.895 8.696197
54.900 8.357031
54.905 8.072859
54.910 8.461396
54.915 8.818509
54.920 8.738605
54.925 8.035145
54.930 7.824767
54.935 7.412609
54.940 7.476004
54.945 7.362948
54.950 7.849406
54.955 8.404324
54.960 9.162424
54.965 9.333448
54.970 9.528513
54.975 9.746457
54.980 9.894388
54.985 9.548729
54.990 9.850095
54.995 9.935833
55.000 9.682548
55.005 9.389388
55.010 9.047313
55.015 8.776174
55.020 8.984611
55.025 8.794248
55.030 9.143703
55.035 9.916092
55.040 10.082298
55.045 10.017744
55.050 9.689738
55.055 9.211034
55.060 8.753484
55.065 8.790175
55.070 8.690579
55.075 8.85209
55.080 9.176788
55.085 9.323674
55.090 9.286678
55.095 9.2805
55.100 8.808504
55.105 8.440865
55.110 8.336572
55.115 8.444717
55.120 8.65771
55.125 8.624876
55.130 8.54869
55.135 9.066793
55.140 9.324498
55.145 9.279048
55.150 9.004848
55.155 8.193532
55.160 8.311313
55.165 8.295054
55.170 8.334555
55.175 8.483681
55.180 8.541841
55.185 9.089966
55.190 9.469168
55.195 9.386188
55.200 9.740513
55.205 9.492018
55.210 9.437641
55.215 9.1491
55.220 8.606468
55.225 8.925866
55.230 8.950124
55.235 8.773076
55.240 9.185964
55.245 8.786108
55.250 8.577739
55.255 9.236143
55.260 8.976789
55.265 8.936689
55.270 8.674788
55.275 8.451525
55.280 8.933117
55.285 8.769813
55.290 8.281029
55.295 8.553787
55.300 8.758514
55.305 8.545115
55.310 8.957945
55.315 9.025468
55.320 9.580313
55.325 9.871106
55.330 9.650643
55.335 9.578516
55.340 9.659109
55.345 9.319261
55.350 9.320694
55.355 9.070889
55.360 9.160299
55.365 9.496682
55.370 9.432876
55.375 9.499762
55.380 9.208699
55.385 9.522186
55.390 9.933663
55.395 10.123383
55.400 10.085391
55.405 10.186533
55.410 10.313511
55.415 10.49985
55.420 10.449027
55.425 10.266508
55.430 9.69311
55.435 9.537003
55.440 9.717701
55.445 9.904892
55.450 10.157337
55.455 9.863716
55.460 10.164469
55.465 10.848952
55.470 11.690111
55.475 11.235848
55.480 10.372646
55.485 9.981416
55.490 10.186635
55.495 10.032875
55.500 9.604068
55.505 9.402968
55.510 9.928209
55.515 10.462275
55.520 10.595791
55.525 10.539981
55.530 10.512252
55.535 11.102162
55.540 11.040827
55.545 10.840465
55.550 10.715281
55.555 10.570033
55.560 10.324585
55.565 10.088223
55.570 9.463779
55.575 9.312306
55.580 9.524125
55.585 9.33677
55.590 9.271705
55.595 9.394477
55.600 9.235474
55.605 9.08097
55.610 9.069046
55.615 9.207028
55.620 9.815545
55.625 10.008836
55.630 10.638174
55.635 10.975745
55.640 10.875624
55.645 10.753089
55.650 10.324752
55.655 10.158016
55.660 9.921916
55.665 9.476109
55.670 9.20546
55.675 8.924696
55.680 8.944137
55.685 9.001313
55.690 8.843458
55.695 8.56991
55.700 8.074159
55.705 8.413101
55.710 8.903231
55.715 9.212369
55.720 9.615222
55.725 9.886847
55.730 9.917394
55.735 9.937679
55.740 9.68207
55.745 9.273103
55.750 8.956573
55.755 9.118896
55.760 8.935969
55.765 9.167734
55.770 9.54743
55.775 9.942693
55.780 10.271667
55.785 10.881571
55.790 10.901994
55.795 11.223009
55.800 10.978183
55.805 11.033028
55.810 11.268797
55.815 11.513263
55.820 10.919829
55.825 10.865262
55.830 10.973045
55.835 11.613472
55.840 11.347195
55.845 10.930068
55.850 10.506146
55.855 10.235306
55.860 10.258948
55.865 10.104791
55.870 9.565248
55.875 9.738802
55.880 9.877853
55.885 10.079109
55.890 9.703161
55.895 9.304899
55.900 9.287422
55.905 9.341364
55.910 9.006269
55.915 9.003532
55.920 9.038161
55.925 9.481814
55.930 9.86224
55.935 10.783069
55.940 11.182371
55.945 11.59305
55.950 11.698257
55.955 11.63613
55.960 11.619562
55.965 11.230205
55.970 11.046294
55.975 10.744037
55.980 10.357376
55.985 10.014488
55.990 10.193521
55.995 9.746805
56.000 9.692046
56.005 9.335194
56.010 9.274081
56.015 9.488213
56.020 9.659389
56.025 9.862932
56.030 10.023925
56.035 10.193576
56.040 10.234358
56.045 9.937057
56.050 9.984384
56.055 9.827194
56.060 9.635568
56.065 9.752142
56.070 9.617102
56.075 9.273274
56.080 9.777935
56.085 10.195239
56.090 10.48078
56.095 10.634992
56.100 10.574221
56.105 10.391175
56.110 10.692084
56.115 10.441398
56.120 9.874092
56.125 9.709907
56.130 9.824544
56.135 9.782413
56.140 10.251547
56.145 10.254825
56.150 10.455619
56.155 11.143074
56.160 11.353155
56.165 11.470766
56.170 11.697709
56.175 11.636779
56.180 11.27885
56.185 10.848113
56.190 10.337998
56.195 10.445522
56.200 10.620692
56.205 10.258221
56.210 9.999832
56.215 9.853712
56.220 9.685691
56.225 9.588677
56.230 9.536165
56.235 9.3638
56.240 9.755898
56.245 10.203705
56.250 10.50253
56.255 10.858655
56.260 11.33728
56.265 11.389581
56.270 11.426744
56.275 11.297165
56.280 11.503158
56.285 11.647086
56.290 11.859982
56.295 11.506248
56.300 11.521013
56.305 11.488254
56.310 11.355541
56.315 11.340828
56.320 11.343248
56.325 11.037247
56.330 11.397222
56.335 11.76713
56.340 11.483795
56.345 11.318308
56.350 11.331472
56.355 11.006487
56.360 10.839633
56.365 10.454261
56.370 10.198953
56.375 10.087651
56.380 9.931156
56.385 9.620904
56.390 10.075049
56.395 10.619145
56.400 10.215752
56.405 10.125723
56.410 10.400862
56.415 10.356601
56.420 10.460938
56.425 10.402636
56.430 9.954694
56.435 10.256168
56.440 10.639771
56.445 10.805976
56.450 11.185888
56.455 11.229611
56.460 10.969389
56.465 10.853597
56.470 10.462682
56.475 9.833176
56.480 9.661019
56.485 10.056722
56.490 10.327307
56.495 10.614611
56.500 10.769548
56.505 11.159277
56.510 11.290785
56.515 10.886342
56.520 10.423897
56.525 10.441097
56.530 10.635687
56.535 10.671398
56.540 10.563498
56.545 10.423538
56.550 10.692892
56.555 10.484522
56.560 10.163874
56.565 10.051975
56.570 10.537951
56.575 10.724339
56.580 11.026943
56.585 11.216739
56.590 11.316144
56.595 11.161261
56.600 10.554276
56.605 10.399414
56.610 10.387681
56.615 10.475767
56.620 10.46363
56.625 10.797404
56.630 11.300365
56.635 11.426257
56.640 11.001552
56.645 10.952336
56.650 10.947181
56.655 11.297965
56.660 11.095599
56.665 10.869744
56.670 11.094037
56.675 11.469197
56.680 11.370389
56.685 11.468464
56.690 10.853102
56.695 10.69169
56.700 11.339172
56.705 11.136713
56.710 11.126503
56.715 11.280149
56.720 11.380898
56.725 11.96162
56.730 12.224157
56.735 11.845764
56.740 12.093878
56.745 12.197103
56.750 12.372113
56.755 12.383147
56.760 12.333093
56.765 12.740727
56.770 12.88409
56.775 13.202601
56.780 13.454937
56.785 13.740104
56.790 13.661378
56.795 13.409953
56.800 13.452753
56.805 13.985777
56.810 13.458486
56.815 13.382109
56.820 13.070445
56.825 12.975773
56.830 12.731503
56.835 12.124844
56.840 11.103431
56.845 11.354576
56.850 10.96344
56.855 10.944574
56.860 11.281998
56.865 11.364712
56.870 11.567044
56.875 12.098039
56.880 12.259159
56.885 12.354457
56.890 12.275502
56.895 12.001852
56.900 12.02492
56.905 11.927485
56.910 11.276801
56.915 10.738128
56.920 10.382812
56.925 10.634607
56.930 10.946095
56.935 10.912997
56.940 11.11638
56.945 11.178298
56.950 11.215527
56.955 11.002522
56.960 10.680914
56.965 10.691002
56.970 11.082039
56.975 11.118525
56.980 11.352081
56.985 11.347283
56.990 11.163618
56.995 11.206369
57.000 10.758262
57.005 10.947986
57.010 10.870041
57.015 11.07736
57.020 11.346384
57.025 11.881175
57.030 12.1302
57.035 12.424676
57.040 12.058978
57.045 12.236944
57.050 12.214398
57.055 12.403428
57.060 12.153375
57.065 12.02624
57.070 11.93918
57.075 11.960422
57.080 11.744992
57.085 11.436162
57.090 11.364362
57.095 11.598011
57.100 11.246382
57.105 10.939991
57.110 10.566304
57.115 10.69481
57.120 11.158779
57.125 11.610159
57.130 11.662614
57.135 12.029763
57.140 12.038086
57.145 11.99073
57.150 11.715948
57.155 11.084131
57.160 10.766235
57.165 10.869032
57.170 11.128137
57.175 11.506879
57.180 11.703663
57.185 11.961885
57.190 12.07026
57.195 11.683679
57.200 11.381861
57.205 11.296339
57.210 11.265183
57.215 11.460859
57.220 11.418605
57.225 11.573693
57.230 11.664809
57.235 11.977503
57.240 12.329917
57.245 12.278626
57.250 12.468738
57.255 12.571935
57.260 12.411491
57.265 12.755656
57.270 12.138829
57.275 11.281395
57.280 11.547451
57.285 11.876761
57.290 11.802964
57.295 12.071008
57.300 12.060607
57.305 12.317577
57.310 12.752765
57.315 12.253453
57.320 12.51937
57.325 12.905615
57.330 13.327465
57.335 13.120942
57.340 12.978309
57.345 12.90759
57.350 12.978342
57.355 12.012019
57.360 11.312256
57.365 11.022188
57.370 11.619167
57.375 11.998149
57.380 12.364803
57.385 13.038791
57.390 13.527554
57.395 13.611941
57.400 13.370049
57.405 13.350048
57.410 12.612487
57.415 12.187859
57.420 11.913819
57.425 11.664589
57.430 11.784682
57.435 11.544236
57.440 11.338633
57.445 11.993807
57.450 12.14899
57.455 12.221444
57.460 12.517395
57.465 12.986787
57.470 12.94517
57.475 12.974845
57.480 13.348338
57.485 12.914174
57.490 12.750734
57.495 12.921295
57.500 12.923779
57.505 13.599608
57.510 13.599962
57.515 13.325923
57.520 13.084352
57.525 12.866471
57.530 12.580873
57.535 12.722413
57.540 12.451719
57.545 12.120098
57.550 12.165229
57.555 12.649616
57.560 12.715618
57.565 12.883037
57.570 12.853583
57.575 12.987135
57.580 13.356833
57.585 13.580129
57.590 13.791181
57.595 13.798338
57.600 13.280138
57.605 12.756926
57.610 12.871015
57.615 12.950596
57.620 12.74404
57.625 12.812479
57.630 12.797143
57.635 12.521347
57.640 12.352272
57.645 11.828967
57.650 11.647223
57.655 11.97095
57.660 11.873828
57.665 11.893634
57.670 12.352529
57.675 12.664224
57.680 13.371328
57.685 13.340364
57.690 13.22303
57.695 13.934593
57.700 14.072716
57.705 14.026567
57.710 14.124919
57.715 14.236573
57.720 14.378361
57.725 14.378402
57.730 13.628325
57.735 13.684731
57.740 13.661427
57.745 13.307868
57.750 12.861655
57.755 12.912525
57.760 13.172379
57.765 13.74333
57.770 14.043154
57.775 14.475276
57.780 14.726015
57.785 14.714837
57.790 14.599768
57.795 14.234702
57.800 14.14451
57.805 14.259101
57.810 14.407883
57.815 14.387253
57.820 14.422298
57.825 14.194715
57.830 14.442024
57.835 14.097569
57.840 13.608408
57.845 13.639433
57.850 13.612082
57.855 13.907151
57.860 13.89403
57.865 13.288425
57.870 13.402925
57.875 13.552054
57.880 13.751908
57.885 13.911993
57.890 14.138661
57.895 14.353754
57.900 14.990482
57.905 15.062989
57.910 14.611959
57.915 14.478835
57.920 14.315593
57.925 14.132302
57.930 14.358311
57.935 14.361206
57.940 14.266681
57.945 14.679551
57.950 14.535555
57.955 14.502081
57.960 14.337666
57.965 14.086774
57.970 13.639782
57.975 13.518308
57.980 13.100774
57.985 12.911661
57.990 12.655046
57.995 12.323341
58.000 12.351471
58.005 13.528379
58.010 14.163966
58.015 14.897085
58.020 15.484226
58.025 15.648505
58.030 16.220556
58.035 16.119616
58.040 15.801379
58.045 15.159792
58.050 14.10789
58.055 13.637583
58.060 13.716423
58.065 13.857336
58.070 13.830841
58.075 12.980651
58.080 13.767307
58.085 14.331886
58.090 13.97051
58.095 13.906653
58.100 13.904015
58.105 14.217292
58.110 14.703727
58.115 14.467823
58.120 14.160692
58.125 14.596225
58.130 14.28046
58.135 13.863557
58.140 13.67745
58.145 13.586394
58.150 13.351602
58.155 13.578928
58.160 13.277261
58.165 13.324841
58.170 13.457347
58.175 13.583266
58.180 13.546183
58.185 13.842405
58.190 14.088534
58.195 14.739667
58.200 14.782322
58.205 14.578769
58.210 14.295965
58.215 14.341846
58.220 14.418401
58.225 14.140291
58.230 13.887792
58.235 14.544389
58.240 14.929677
58.245 15.189667
58.250 15.580008
58.255 15.401328
58.260 15.623851
58.265 15.651169
58.270 15.450321
58.275 15.962905
58.280 16.670956
58.285 16.750977
58.290 16.963833
58.295 17.45067
58.300 17.831789
58.305 17.628231
58.310 17.209505
58.315 17.10589
58.320 17.219898
58.325 17.608736
58.330 17.57061
58.335 17.877468
58.340 18.359587
58.345 18.727255
58.350 18.39473
58.355 18.64889
58.360 19.421333
58.365 19.838024
58.370 20.080748
58.375 20.806076
58.380 20.730806
58.385 21.587498
58.390 22.368805
58.395 22.546083
58.400 22.551397
58.405 22.319511
58.410 22.287468
58.415 23.233063
58.420 24.259666
58.425 24.26137
58.430 24.330376
58.435 24.488327
58.440 24.763546
58.445 25.009848
58.450 25.26343
58.455 25.170078
58.460 26.198978
58.465 26.16334
58.470 26.006479
58.475 26.380655
58.480 26.903013
58.485 26.939375
58.490 27.310656
58.495 27.59565
58.500 28.162979
58.505 28.849258
58.510 28.805672
58.515 28.640701
58.520 28.394722
58.525 27.407995
58.530 26.922508
58.535 26.942526
58.540 27.193087
58.545 27.391621
58.550 26.62513
58.555 27.131445
58.560 27.472218
58.565 27.726864
58.570 28.188059
58.575 27.890472
58.580 27.770838
58.585 28.345215
58.590 28.663811
58.595 29.009501
58.600 28.703354
58.605 28.499447
58.610 29.130426
58.615 29.84087
58.620 29.742363
58.625 29.740829
58.630 30.268829
58.635 29.883364
58.640 29.595528
58.645 29.306965
58.650 28.813158
58.655 29.18989
58.660 28.918348
58.665 28.377062
58.670 27.644644
58.675 27.36079
58.680 26.922365
58.685 26.756113
58.690 26.575964
58.695 26.146097
58.700 26.004402
58.705 25.974546
58.710 24.68511
58.715 24.12776
58.720 23.155632
58.725 22.516651
58.730 22.250834
58.735 21.853579
58.740 22.597103
58.745 23.564539
58.750 24.256298
58.755 24.696564
58.760 24.667086
58.765 24.408678
58.770 23.465315
58.775 22.510868
58.780 22.320877
58.785 21.478748
58.790 20.779764
58.795 20.123358
58.800 19.565817
58.805 19.943825
58.810 20.450552
58.815 20.275675
58.820 20.272705
58.825 21.005604
58.830 21.544382
58.835 21.608446
58.840 21.520741
58.845 21.111115
58.850 20.277514
58.855 19.899691
58.860 19.186129
58.865 18.62171
58.870 18.448372
58.875 18.88588
58.880 18.512871
58.885 18.520248
58.890 18.228378
58.895 17.726416
58.900 17.1005
58.905 17.150398
58.910 16.48922
58.915 16.071486
58.920 16.629206
58.925 16.239756
58.930 16.918594
58.935 17.492151
58.940 16.575104
58.945 15.980176
58.950 15.65707
58.955 15.279592
58.960 15.667304
58.965 15.611174
58.970 16.209307
58.975 17.111977
58.980 17.968008
58.985 18.376045
58.990 18.471113
58.995 17.966232
59.000 17.090181
59.005 16.486849
59.010 16.535736
59.015 16.132162
59.020 16.051945
59.025 16.046144
59.030 16.2484
59.035 16.230707
59.040 16.116266
59.045 15.593915
59.050 15.409757
59.055 15.145581
59.060 15.128198
59.065 15.381544
59.070 15.53309
59.075 15.676632
59.080 16.12475
59.085 16.493332
59.090 16.8412
59.095 16.72224
59.100 17.232111
59.105 17.097681
59.110 16.428024
59.115 15.825261
59.120 15.925666
59.125 15.730527
59.130 15.247081
59.135 15.055243
59.140 15.486104
59.145 15.30373
59.150 14.888883
59.155 14.225671
59.160 14.005547
59.165 14.186115
59.170 13.397727
59.175 13.100476
59.180 13.390532
59.185 13.823134
59.190 13.989847
59.195 14.510272
59.200 14.289448
59.205 14.545631
59.210 14.381014
59.215 14.392958
59.220 14.145848
59.225 13.84646
59.230 13.844267
59.235 14.328393
59.240 14.03102
59.245 13.718863
59.250 13.574116
59.255 14.121196
59.260 14.391589
59.265 14.08112
59.270 13.919839
59.275 14.680727
59.280 15.029398
59.285 15.303935
59.290 15.463922
59.295 15.726228
59.300 16.132565
59.305 16.063171
59.310 16.098772
59.315 16.032219
59.320 15.52728
59.325 14.169907
59.330 13.681835
59.335 13.333691
59.340 13.553035
59.345 13.198094
59.350 13.067215
59.355 13.139682
59.360 14.190989
59.365 14.349897
59.370 14.448506
59.375 14.226232
59.380 14.240141
59.385 14.498098
59.390 14.432672
59.395 13.601268
59.400 13.611373
59.405 13.943879
59.410 14.050049
59.415 14.340954
59.420 14.200073
59.425 14.337783
59.430 14.85759
59.435 14.847987
59.440 14.601242
59.445 14.56972
59.450 14.123303
59.455 14.495327
59.460 14.56333
59.465 14.582218
59.470 14.607652
59.475 14.28496
59.480 14.28981
59.485 14.722471
59.490 14.806815
59.495 15.277035
59.500 15.151144
59.505 14.600382
59.510 14.708307
59.515 14.547869
59.520 14.313185
59.525 13.553326
59.530 12.707398
59.535 12.563814
59.540 12.662212
59.545 12.707462
59.550 12.571942
59.555 12.017321
59.560 12.967373
59.565 13.413557
59.570 13.371376
59.575 13.800576
59.580 13.715375
59.585 13.8253
59.590 13.760565
59.595 12.971291
59.600 12.691284
59.605 13.127578
59.610 13.33643
59.615 13.299463
59.620 13.628588
59.625 13.90903
59.630 14.483951
59.635 14.567183
59.640 13.923069
59.645 13.723941
59.650 13.664757
59.655 13.792173
59.660 14.022696
59.665 14.232576
59.670 14.376707
59.675 14.831622
59.680 14.868076
59.685 14.757325
59.690 14.661395
59.695 14.424376
59.700 15.006916
59.705 15.047049
59.710 14.999108
59.715 14.922196
59.720 15.323134
59.725 15.289766
59.730 15.605495
59.735 15.197789
59.740 15.639744
59.745 15.645251
59.750 15.809203
59.755 15.569404
59.760 15.348158
59.765 15.326273
59.770 15.081622
59.775 14.940982
59.780 14.668311
59.785 14.374075
59.790 14.505341
59.795 14.363704
59.800 13.75187
59.805 13.147507
59.810 13.023408
59.815 13.341987
59.820 13.338507
59.825 13.186463
59.830 13.1956
59.835 13.021975
59.840 13.447163
59.845 13.337372
59.850 13.385143
59.855 13.309885
59.860 13.581079
59.865 14.23858
59.870 14.232888
59.875 13.798774
59.880 14.146038
59.885 14.152652
59.890 14.190645
59.895 13.923864
59.900 13.553024
59.905 13.662014
59.910 14.04026
59.915 13.495971
59.920 13.419972
59.925 13.526017
59.930 13.821517
59.935 13.967378
59.940 14.35947
59.945 13.794772
59.950 13.694771
59.955 13.598619
59.960 13.295274
59.965 13.530738
59.970 13.621106
59.975 13.691115
59.980 14.31972
59.985 14.508327
59.990 14.548914
59.995 14.218503
60.000 13.662187
60.005 13.558163
60.010 13.537967
60.015 13.602166
60.020 14.320525
60.025 14.670635
60.030 15.245261
60.035 15.552629
60.040 15.814604
60.045 15.894629
60.050 15.625296
60.055 14.88678
60.060 14.585662
60.065 14.427548
60.070 14.253758
60.075 13.86473
60.080 13.752743
60.085 13.961449
60.090 14.153083
60.095 14.270917
60.100 14.243587
60.105 14.096355
60.110 14.074433
60.115 14.379517
60.120 14.50753
60.125 14.505221
60.130 14.327557
60.135 13.983477
60.140 13.65458
60.145 13.396948
60.150 13.15506
60.155 13.233213
60.160 13.233234
60.165 13.568143
60.170 14.182351
60.175 14.376055
60.180 14.763747
60.185 14.889099
60.190 14.224554
60.195 13.682347
60.200 13.301151
60.205 13.133029
60.210 13.131696
60.215 12.586322
60.220 12.678966
60.225 12.929577
60.230 13.334983
60.235 13.606012
60.240 13.581363
60.245 13.34514
60.250 12.968426
60.255 12.808302
60.260 13.15346
60.265 13.585484
60.270 13.416969
60.275 13.156917
60.280 13.304551
60.285 13.876014
60.290 14.614967
60.295 14.756445
60.300 14.708448
60.305 15.283247
60.310 15.819122
60.315 16.470919
60.320 16.543764
60.325 15.659505
60.330 14.703572
60.335 14.320265
60.340 13.952775
60.345 13.785586
60.350 13.479597
60.355 13.099653
60.360 13.350955
60.365 14.354648
60.370 14.442318
60.375 14.936212
60.380 15.315816
60.385 15.228867
60.390 15.570242
60.395 16.127798
60.400 15.421652
60.405 15.267731
60.410 14.704494
60.415 14.515588
60.420 14.708676
60.425 14.341205
60.430 13.803677
60.435 13.798291
60.440 13.913728
60.445 14.191839
60.450 13.654841
60.455 13.66645
60.460 13.921749
60.465 13.537371
60.470 13.708462
60.475 13.484834
60.480 13.289082
60.485 13.856892
60.490 14.460723
60.495 15.078545
60.500 15.295652
60.505 15.64923
60.510 15.809885
60.515 16.032835
60.520 15.875844
60.525 14.983822
60.530 14.697763
60.535 14.423685
60.540 13.830431
60.545 13.259945
60.550 13.005806
60.555 13.103307
60.560 13.226986
60.565 13.170765
60.570 14.051224
60.575 14.672724
60.580 14.966809
60.585 15.08204
60.590 14.818666
60.595 14.41986
60.600 14.085519
60.605 13.256662
60.610 12.94628
60.615 13.382332
60.620 13.343182
60.625 13.672941
60.630 13.848604
60.635 14.091655
60.640 14.318237
60.645 14.532957
60.650 14.255058
60.655 14.116881
60.660 13.676156
60.665 13.879653
60.670 13.596217
60.675 13.579185
60.680 13.338666
60.685 13.176297
60.690 13.332685
60.695 13.522962
60.700 13.774194
60.705 14.118836
60.710 14.507849
60.715 14.520969
60.720 14.746707
60.725 14.595291
60.730 14.630543
60.735 14.695079
60.740 14.540905
60.745 14.2848
60.750 14.482945
60.755 14.575479
60.760 14.733812
60.765 14.759039
60.770 14.773706
60.775 15.189503
60.780 15.53681
60.785 15.511643
60.790 15.475021
60.795 15.793094
60.800 15.640506
60.805 15.175523
60.810 14.76983
60.815 14.663685
60.820 14.385195
60.825 14.935029
60.830 14.98035
60.835 15.004736
60.840 15.43397
60.845 15.403513
60.850 15.619122
60.855 16.425274
60.860 15.600631
60.865 15.332531
60.870 15.209729
60.875 15.072544
60.880 15.072055
60.885 14.43239
60.890 14.490454
60.895 15.113303
60.900 15.3587
60.905 15.848256
60.910 15.915163
60.915 15.465334
60.920 15.344028
60.925 14.822639
60.930 14.19883
60.935 13.811649
60.940 13.525213
60.945 13.635583
60.950 14.198952
60.955 14.845349
60.960 14.863057
60.965 15.106393
60.970 15.188941
60.975 15.231292
60.980 14.84032
60.985 14.715837
60.990 14.588306
60.995 14.735572
61.000 14.634288
61.005 15.123843
61.010 15.089167
61.015 15.122213
61.020 14.92877
61.025 14.526287
61.030 14.87832
61.035 15.238124
61.040 14.213711
61.045 13.876227
61.050 14.044989
61.055 13.626488
61.060 13.599425
61.065 12.953244
61.070 12.88732
61.075 13.17493
61.080 13.147198
61.085 13.076933
61.090 13.695162
61.095 14.029375
61.100 13.535423
61.105 12.872223
61.110 12.79693
61.115 13.220393
61.120 13.5884
61.125 13.143925
61.130 12.638158
61.135 13.221152
61.140 13.797186
61.145 14.175056
61.150 14.081128
61.155 13.97977
61.160 14.379263
61.165 14.511573
61.170 14.554322
61.175 14.646487
61.180 14.810012
61.185 15.087798
61.190 15.188579
61.195 15.564528
61.200 15.880305
61.205 15.786002
61.210 15.696933
61.215 15.575316
61.220 15.38848
61.225 15.854685
61.230 15.685799
61.235 15.620258
61.240 15.587238
61.245 16.116577
61.250 16.052416
61.255 16.033508
61.260 15.347836
61.265 15.185583
61.270 15.505353
61.275 15.441926
61.280 15.170538
61.285 15.211428
61.290 15.212383
61.295 15.375563
61.300 15.405503
61.305 15.125027
61.310 14.884933
61.315 14.739511
61.320 14.589098
61.325 14.278219
61.330 14.037118
61.335 14.242941
61.340 15.070354
61.345 15.317867
61.350 15.226008
61.355 15.227317
61.360 15.489322
61.365 15.683162
61.370 15.812121
61.375 14.952424
61.380 14.694145
61.385 14.583198
61.390 14.796514
61.395 14.613124
61.400 14.121033
61.405 13.681163
61.410 13.609303
61.415 13.948326
61.420 13.913178
61.425 13.394561
61.430 13.72883
61.435 13.956924
61.440 13.991737
61.445 14.161756
61.450 14.282757
61.455 14.681633
61.460 15.331182
61.465 15.303471
61.470 15.407402
61.475 16.000587
61.480 16.596975
61.485 16.437761
61.490 15.980812
61.495 15.96514
61.500 15.798595
61.505 16.201614
61.510 15.753422
61.515 15.38157
61.520 15.470949
61.525 15.557187
61.530 15.572339
61.535 15.893349
61.540 15.178787
61.545 14.650475
61.550 14.567257
61.555 14.913299
61.560 15.294812
61.565 15.241414
61.570 15.224387
61.575 15.758579
61.580 15.935429
61.585 15.98851
61.590 15.384013
61.595 15.135509
61.600 15.116166
61.605 15.340676
61.610 15.081526
61.615 15.135869
61.620 15.355904
61.625 15.091506
61.630 14.620215
61.635 14.438074
61.640 13.946373
61.645 13.686546
61.650 13.888478
61.655 13.576306
61.660 14.770498
61.665 15.553725
61.670 16.154833
61.675 16.460428
61.680 16.816036
61.685 16.904686
61.690 17.407663
61.695 16.809923
61.700 16.446743
61.705 16.043907
61.710 15.896566
61.715 16.014938
61.720 15.540185
61.725 14.937188
61.730 14.901477
61.735 14.698648
61.740 14.293414
61.745 14.317519
61.750 14.257448
61.755 15.046831
61.760 14.909907
61.765 15.135691
61.770 15.249769
61.775 15.083653
61.780 15.284305
61.785 15.398669
61.790 15.424207
61.795 15.537519
61.800 15.026513
61.805 15.160773
61.810 15.596984
61.815 15.649954
61.820 15.763
61.825 15.139417
61.830 15.213656
61.835 15.017774
61.840 15.258927
61.845 15.381021
61.850 15.370472
61.855 15.404049
61.860 15.381718
61.865 15.536198
61.870 15.570028
61.875 15.509204
61.880 15.509642
61.885 15.581475
61.890 15.457993
61.895 15.371694
61.900 15.339857
61.905 15.16077
61.910 14.911783
61.915 13.929039
61.920 13.177794
61.925 13.30226
61.930 13.700706
61.935 13.719007
61.940 13.766979
61.945 14.080834
61.950 14.87138
61.955 15.413424
61.960 15.424092
61.965 15.526692
61.970 15.823681
61.975 16.052206
61.980 15.659551
61.985 15.171528
61.990 15.050176
61.995 14.841084
62.000 14.95755
62.005 14.914909
62.010 14.562683
62.015 14.93155
62.020 15.279484
62.025 15.358212
62.030 15.139535
62.035 15.059715
62.040 15.037774
62.045 14.857872
62.050 14.354068
62.055 14.299349
62.060 14.005038
62.065 14.193386
62.070 14.274556
62.075 14.4345
62.080 15.023985
62.085 14.954796
62.090 14.872972
62.095 14.975012
62.100 15.069282
62.105 15.344481
62.110 15.452396
62.115 15.334596
62.120 15.999827
62.125 16.120646
62.130 16.084736
62.135 15.55827
62.140 15.284255
62.145 14.679762
62.150 14.604943
62.155 14.777574
62.160 15.253687
62.165 15.671448
62.170 16.058601
62.175 16.37899
62.180 17.454851
62.185 17.698366
62.190 17.374826
62.195 17.282013
62.200 17.045734
62.205 16.944027
62.210 16.484789
62.215 15.764082
62.220 15.543828
62.225 15.526834
62.230 15.269317
62.235 15.538669
62.240 15.550278
62.245 15.419392
62.250 15.42476
62.255 15.252638
62.260 14.904867
62.265 14.703185
62.270 14.080149
62.275 13.954597
62.280 14.338007
62.285 13.748779
62.290 13.485479
62.295 13.387362
62.300 13.302627
62.305 13.357919
62.310 13.071951
62.315 13.087196
62.320 13.974993
62.325 14.223809
62.330 14.201622
62.335 13.941112
62.340 14.664664
62.345 14.703395
62.350 14.206311
62.355 14.216609
62.360 14.413424
62.365 14.644381
62.370 14.147125
62.375 13.836767
62.380 14.30035
62.385 14.40257
62.390 14.51276
62.395 14.65773
62.400 14.547132
62.405 15.10496
62.410 14.984252
62.415 14.929379
62.420 15.627703
62.425 15.935245
62.430 15.847256
62.435 16.035688
62.440 16.331062
62.445 16.920685
62.450 17.242912
62.455 16.977467
62.460 16.709547
62.465 17.247875
62.470 17.64753
62.475 17.73448
62.480 17.620085
62.485 17.465528
62.490 17.496822
62.495 17.303791
62.500 16.883095
62.505 16.172062
62.510 15.724504
62.515 15.505579
62.520 14.926564
62.525 14.054354
62.530 13.980058
62.535 14.317988
62.540 14.213316
62.545 14.019145
62.550 13.787641
62.555 14.147585
62.560 14.324576
62.565 14.164509
62.570 13.921926
62.575 14.069795
62.580 14.310353
62.585 14.253406
62.590 14.15012
62.595 14.780613
62.600 14.625013
62.605 14.747844
62.610 15.235682
62.615 15.427148
62.620 15.529033
62.625 15.884438
62.630 15.574109
62.635 15.627018
62.640 15.29589
62.645 15.052348
62.650 14.807873
62.655 15.350077
62.660 14.860539
62.665 15.107595
62.670 15.364953
62.675 16.00736
62.680 16.318474
62.685 16.252527
62.690 15.813683
62.695 16.006592
62.700 15.867073
62.705 16.090555
62.710 16.122717
62.715 15.962832
62.720 16.046934
62.725 15.772802
62.730 16.028397
62.735 15.932415
62.740 15.905861
62.745 15.9702
62.750 15.68078
62.755 15.75041
62.760 15.872674
62.765 15.801851
62.770 16.203236
62.775 15.89307
62.780 15.854128
62.785 16.201403
62.790 15.972921
62.795 16.309364
62.800 16.240931
62.805 16.328676
62.810 16.584627
62.815 16.302654
62.820 16.559431
62.825 16.362452
62.830 16.297443
62.835 16.306051
62.840 15.923171
62.845 15.270608
62.850 14.806219
62.855 14.65156
62.860 14.958938
62.865 14.763135
62.870 14.881118
62.875 14.816783
62.880 14.900191
62.885 15.538144
62.890 15.113873
62.895 14.616566
62.900 14.720572
62.905 14.358121
62.910 14.38657
62.915 14.459463
62.920 14.709912
62.925 15.295766
62.930 15.249338
62.935 14.678263
62.940 14.965992
62.945 14.637403
62.950 14.814781
62.955 14.752726
62.960 14.494091
62.965 14.661482
62.970 15.056736
62.975 15.089486
62.980 15.975066
62.985 16.179502
62.990 16.41679
62.995 16.913424
63.000 17.035307
63.005 17.275839
63.010 17.129221
63.015 16.733105
63.020 16.634735
63.025 16.159084
63.030 16.073677
63.035 15.728405
63.040 15.608166
63.045 15.433207
63.050 15.271085
63.055 14.828856
63.060 14.804059
63.065 15.271091
63.070 15.888553
63.075 16.584061
63.080 16.502232
63.085 16.52861
63.090 16.446171
63.095 16.61808
63.100 15.92041
63.105 15.940073
63.110 15.502279
63.115 16.111477
63.120 16.8592
63.125 17.278385
63.130 17.027655
63.135 17.297607
63.140 16.849634
63.145 17.022476
63.150 16.530626
63.155 15.861925
63.160 16.081041
63.165 16.315332
63.170 16.609428
63.175 16.962109
63.180 16.39683
63.185 16.541424
63.190 16.827562
63.195 17.087296
63.200 17.311502
63.205 17.033548
63.210 17.441317
63.215 17.976168
63.220 18.087553
63.225 18.315777
63.230 18.063211
63.235 17.967892
63.240 17.854258
63.245 17.202145
63.250 16.65398
63.255 16.612022
63.260 15.745747
63.265 15.205867
63.270 15.092044
63.275 15.152232
63.280 15.266866
63.285 15.553523
63.290 15.903694
63.295 16.541121
63.300 17.258198
63.305 17.839283
63.310 18.00024
63.315 18.274641
63.320 18.572132
63.325 18.561396
63.330 18.370394
63.335 18.200069
63.340 17.605536
63.345 17.220186
63.350 17.208864
63.355 17.047886
63.360 16.636662
63.365 17.334108
63.370 17.552139
63.375 17.74888
63.380 18.319412
63.385 18.448063
63.390 17.84901
63.395 17.922304
63.400 17.589132
63.405 17.052702
63.410 16.788317
63.415 16.546465
63.420 16.533138
63.425 17.055239
63.430 17.102018
63.435 16.959358
63.440 16.837912
63.445 16.881943
63.450 16.955719
63.455 16.788401
63.460 17.044325
63.465 17.668642
63.470 17.560614
63.475 17.843143
63.480 17.893042
63.485 17.611477
63.490 17.622046
63.495 17.123011
63.500 15.924484
63.505 16.022034
63.510 15.817381
63.515 15.897148
63.520 15.687973
63.525 15.360868
63.530 15.674942
63.535 16.567131
63.540 16.39814
63.545 16.222088
63.550 15.852499
63.555 15.870187
63.560 16.006466
63.565 15.996084
63.570 15.911096
63.575 15.864013
63.580 16.445089
63.585 16.902575
63.590 17.657356
63.595 17.685541
63.600 17.529657
63.605 17.898006
63.610 17.78796
63.615 18.024683
63.620 17.989378
63.625 17.682348
63.630 17.161823
63.635 16.289803
63.640 16.06761
63.645 16.338827
63.650 16.146255
63.655 16.269199
63.660 16.475454
63.665 17.364662
63.670 18.165487
63.675 17.934673
63.680 17.769306
63.685 17.512159
63.690 17.827929
63.695 17.558088
63.700 17.696901
63.705 17.15588
63.710 16.563095
63.715 16.506666
63.720 16.298819
63.725 15.904494
63.730 15.38061
63.735 15.260832
63.740 15.880301
63.745 16.294895
63.750 16.344719
63.755 16.278864
63.760 15.913468
63.765 16.255804
63.770 16.279202
63.775 17.203367
63.780 17.66301
63.785 18.194679
63.790 18.599781
63.795 18.944206
63.800 18.512514
63.805 18.138666
63.810 16.880522
63.815 16.397379
63.820 16.376896
63.825 16.752771
63.830 17.442749
63.835 18.634661
63.840 19.558268
63.845 20.796871
63.850 21.448963
63.855 21.624565
63.860 21.618179
63.865 21.442577
63.870 21.103308
63.875 20.794752
63.880 20.615467
63.885 20.312555
63.890 20.571102
63.895 20.893621
63.900 21.163233
63.905 21.14576
63.910 20.884569
63.915 20.135817
63.920 19.968998
63.925 19.340511
63.930 18.84301
63.935 18.716991
63.940 19.087955
63.945 20.025507
63.950 20.680273
63.955 21.454041
63.960 22.055107
63.965 22.403456
63.970 22.518597
63.975 22.817677
63.980 22.889942
63.985 23.301004
63.990 22.55562
63.995 22.416451
64.000 22.727852
64.005 23.25675
64.010 23.936146
64.015 24.463209
64.020 25.317709
64.025 26.241476
64.030 27.258888
64.035 28.014114
64.040 27.885111
64.045 27.992603
64.050 27.742487
64.055 27.597775
64.060 28.039148
64.065 28.932985
64.070 29.324919
64.075 30.299452
64.080 31.436951
64.085 32.22731
64.090 32.749855
64.095 33.50816
64.100 33.181671
64.105 33.023949
64.110 33.389565
64.115 32.921745
64.120 34.059166
64.125 34.272671
64.130 33.809261
64.135 34.795471
64.140 35.814911
64.145 35.696724
64.150 36.616154
64.155 36.625614
64.160 36.884159
64.165 38.010063
64.170 37.675529
64.175 38.263294
64.180 38.632717
64.185 38.346043
64.190 38.495823
64.195 38.433323
64.200 37.389633
64.205 37.628296
64.210 37.260216
64.215 38.133327
64.220 38.720558
64.225 39.386909
64.230 40.125877
64.235 41.109722
64.240 40.858734
64.245 40.918625
64.250 40.156433
64.255 39.94693
64.260 40.474373
64.265 40.701817
64.270 40.337399
64.275 40.590126
64.280 39.996696
64.285 39.791782
64.290 39.435139
64.295 37.817265
64.300 38.212502
64.305 38.915833
64.310 38.529469
64.315 38.469486
64.320 39.140289
64.325 40.30711
64.330 40.808014
64.335 40.299328
64.340 39.929901
64.345 40.56039
64.350 41.701107
64.355 41.409843
64.360 41.271809
64.365 41.037163
64.370 40.131798
64.375 39.393616
64.380 38.444324
64.385 36.828671
64.390 36.021248
64.395 34.953854
64.400 34.28952
64.405 34.209614
64.410 33.876198
64.415 33.182243
64.420 33.273483
64.425 32.833553
64.430 32.116001
64.435 31.699383
64.440 31.354231
64.445 31.461287
64.450 31.222387
64.455 30.425205
64.460 29.87137
64.465 29.641869
64.470 30.074585
64.475 29.867983
64.480 29.539579
64.485 29.5483
64.490 29.877937
64.495 30.779942
64.500 31.071537
64.505 30.296303
64.510 29.697485
64.515 29.401691
64.520 28.757254
64.525 28.698212
64.530 27.793861
64.535 26.797461
64.540 26.436611
64.545 26.854187
64.550 26.764122
64.555 26.981874
64.560 26.950249
64.565 26.783524
64.570 26.333668
64.575 26.741219
64.580 25.976713
64.585 25.984608
64.590 25.696012
64.595 25.15942
64.600 25.71736
64.605 25.862402
64.610 25.13484
64.615 24.706797
64.620 23.653378
64.625 23.173637
64.630 22.835623
64.635 22.193459
64.640 21.335352
64.645 21.215361
64.650 21.335049
64.655 21.813124
64.660 21.88555
64.665 21.678488
64.670 21.399881
64.675 21.859156
64.680 21.327192
64.685 20.801702
64.690 20.152391
64.695 20.285755
64.700 20.409723
64.705 20.143021
64.710 19.814117
64.715 20.904039
64.720 21.681494
64.725 21.971367
64.730 21.252268
64.735 20.359974
64.740 20.127071
64.745 19.775732
64.750 18.749485
64.755 17.736492
64.760 17.623686
64.765 18.210329
64.770 18.499599
64.775 18.811275
64.780 18.707069
64.785 19.205452
64.790 20.217316
64.795 19.863459
64.800 19.651596
64.805 19.965744
64.810 19.977243
64.815 20.620222
64.820 20.195507
64.825 19.611237
64.830 19.765821
64.835 19.540668
64.840 18.928444
64.845 18.066244
64.850 18.362782
64.855 19.133755
64.860 19.534845
64.865 19.48147
64.870 19.549345
64.875 20.468107
64.880 21.107616
64.885 19.859999
64.890 18.805088
64.895 18.611382
64.900 18.948523
64.905 18.606934
64.910 17.934467
64.915 18.001257
64.920 18.802784
64.925 18.507763
64.930 18.33477
64.935 18.483528
64.940 18.76903
64.945 19.212152
64.950 19.153399
64.955 19.1357
64.960 19.568432
64.965 19.332056
64.970 19.103859
64.975 19.478027
64.980 20.133274
64.985 20.015806
64.990 20.392147
64.995 20.710875
65.000 21.221825
65.005 20.939528
65.010 20.487719
65.015 19.663761
65.020 19.668877
65.025 19.229897
65.030 19.242527
65.035 18.963043
65.040 18.991465
65.045 19.178928
65.050 19.226816
65.055 19.007034
65.060 18.837734
65.065 18.830595
65.070 18.731169
65.075 18.414621
65.080 18.113392
65.085 18.487747
65.090 19.163136
65.095 20.006981
65.100 19.914282
65.105 20.645563
65.110 21.172329
65.115 21.545023
65.120 21.503819
65.125 21.415842
65.130 20.935732
65.135 20.987471
65.140 20.484249
65.145 20.174398
65.150 19.818302
65.155 19.913691
65.160 20.304443
65.165 19.842079
65.170 20.036303
65.175 20.621607
65.180 21.19137
65.185 21.815388
65.190 22.208105
65.195 21.654329
65.200 22.796558
65.205 23.174824
65.210 22.859148
65.215 22.938194
65.220 23.206684
65.225 22.94376
65.230 23.156315
65.235 22.629353
65.240 22.006924
65.245 22.102972
65.250 21.805826
65.255 21.498112
65.260 21.550819
65.265 21.336817
65.270 21.701605
65.275 22.083038
65.280 22.247074
65.285 22.584459
65.290 21.937757
65.295 22.072151
65.300 23.532587
65.305 23.850395
65.310 23.761431
65.315 23.820646
65.320 23.429485
65.325 23.194799
65.330 22.992973
65.335 22.181768
65.340 21.770037
65.345 22.29866
65.350 22.654783
65.355 22.691162
65.360 23.402555
65.365 23.248962
65.370 22.834259
65.375 23.102568
65.380 23.403677
65.385 23.512678
65.390 24.569666
65.395 25.03536
65.400 25.489302
65.405 26.636889
65.410 27.132086
65.415 26.964882
65.420 27.672159
65.425 27.762016
65.430 27.812269
65.435 28.720219
65.440 28.536022
65.445 28.10211
65.450 28.387306
65.455 28.151022
65.460 28.976538
65.465 29.039839
65.470 28.671276
65.475 28.806536
65.480 29.496927
65.485 28.839022
65.490 28.668205
65.495 28.517809
65.500 29.415743
65.505 29.661947
65.510 31.01947
65.515 30.888138
65.520 31.970428
65.525 32.558613
65.530 32.576374
65.535 32.344467
65.540 33.061981
65.545 33.672653
65.550 34.498219
65.555 34.912716
65.560 35.164787
65.565 35.218861
65.570 35.56839
65.575 35.736736
65.580 36.303432
65.585 36.36829
65.590 35.686306
65.595 34.877266
65.600 35.305801
65.605 35.597939
65.610 35.447811
65.615 34.796974
65.620 36.05975
65.625 36.883076
65.630 38.218193
65.635 38.07354
65.640 38.431114
65.645 38.636799
65.650 39.327057
65.655 38.68214
65.660 38.538857
65.665 38.611877
65.670 38.716095
65.675 38.628311
65.680 38.443905
65.685 38.156292
65.690 38.251301
65.695 38.569904
65.700 37.940258
65.705 37.766422
65.710 38.189484
65.715 38.503578
65.720 39.272385
65.725 39.888859
65.730 40.177376
65.735 40.765778
65.740 41.2202
65.745 40.72094
65.750 40.412327
65.755 39.95908
65.760 39.488083
65.765 39.955635
65.770 40.19379
65.775 40.492107
65.780 40.571377
65.785 40.320221
65.790 40.107899
65.795 39.796806
65.800 39.674088
65.805 39.425575
65.810 39.026939
65.815 39.370514
65.820 39.717213
65.825 40.812641
65.830 40.849342
65.835 40.420506
65.840 39.854263
65.845 39.503578
65.850 39.016193
65.855 38.314762
65.860 38.045555
65.865 37.631145
65.870 37.626793
65.875 37.706314
65.880 37.0028
65.885 37.064678
65.890 37.060661
65.895 36.375572
65.900 35.968739
65.905 35.187828
65.910 34.892395
65.915 34.791618
65.920 34.718056
65.925 34.505726
65.930 33.902561
65.935 34.155956
65.940 34.674042
65.945 34.532383
65.950 34.545563
65.955 34.908573
65.960 34.700989
65.965 34.174206
65.970 33.876205
65.975 33.725918
65.980 34.140961
65.985 33.502235
65.990 32.31377
65.995 31.699656
66.000 31.618996
66.005 31.63674
66.010 31.006115
66.015 30.682089
66.020 30.867132
66.025 31.171377
66.030 31.854353
66.035 32.205795
66.040 31.839567
66.045 31.73951
66.050 31.336155
66.055 31.395769
66.060 30.919025
66.065 30.802956
66.070 30.524309
66.075 30.109543
66.080 30.091791
66.085 29.771791
66.090 29.104149
66.095 28.713417
66.100 27.590757
66.105 27.425035
66.110 27.857838
66.115 28.140966
66.120 28.363564
66.125 28.746159
66.130 28.041077
66.135 28.053133
66.140 27.772449
66.145 27.35833
66.150 25.944208
66.155 25.232622
66.160 24.771694
66.165 25.067989
66.170 24.612822
66.175 24.761614
66.180 24.73514
66.185 25.325865
66.190 25.330082
66.195 25.333849
66.200 25.125584
66.205 25.193062
66.210 24.526527
66.215 23.879953
66.220 23.186098
66.225 22.886549
66.230 22.233986
66.235 22.037056
66.240 22.108849
66.245 21.725643
66.250 21.454639
66.255 21.492496
66.260 21.261026
66.265 21.664143
66.270 21.835611
66.275 21.028896
66.280 20.687521
66.285 20.635544
66.290 20.400742
66.295 20.191799
66.300 19.923883
66.305 19.516855
66.310 19.781542
66.315 20.702484
66.320 20.713646
66.325 20.480333
66.330 20.366886
66.335 20.00111
66.340 20.040495
66.345 20.377567
66.350 19.845564
66.355 19.722559
66.360 20.431141
66.365 20.556482
66.370 20.486601
66.375 19.590864
66.380 19.203165
66.385 19.097319
66.390 19.334311
66.395 19.182873
66.400 19.412766
66.405 19.577423
66.410 20.474613
66.415 20.331547
66.420 20.901365
66.425 20.90362
66.430 20.739592
66.435 20.318821
66.440 19.883776
66.445 18.911077
66.450 18.205534
66.455 17.309235
66.460 17.141758
66.465 17.541279
66.470 17.981739
66.475 18.262728
66.480 18.571537
66.485 19.102419
66.490 20.017836
66.495 20.125092
66.500 19.501444
66.505 19.243807
66.510 18.88525
66.515 19.434948
66.520 19.270193
66.525 18.938221
66.530 19.294483
66.535 19.588837
66.540 19.195047
66.545 19.573395
66.550 19.397755
66.555 19.073711
66.560 18.590429
66.565 17.751799
66.570 18.066662
66.575 18.742245
66.580 18.057774
66.585 17.518612
66.590 17.74502
66.595 18.243093
66.600 18.728277
66.605 18.172808
66.610 17.797447
66.615 17.673586
66.620 18.154022
66.625 18.236237
66.630 17.949299
66.635 17.565767
66.640 17.812983
66.645 17.633593
66.650 17.923515
66.655 17.725441
66.660 17.275043
66.665 16.903738
66.670 16.406984
66.675 16.232344
66.680 16.651659
66.685 16.67515
66.690 16.719858
66.695 17.540237
66.700 17.676722
66.705 18.160732
66.710 18.731485
66.715 19.150908
66.720 19.040157
66.725 18.817022
66.730 18.10549
66.735 17.817577
66.740 17.597607
66.745 17.455753
66.750 17.374428
66.755 17.261765
66.760 17.54579
66.765 17.512434
66.770 17.538532
66.775 17.27704
66.780 16.671394
66.785 16.011324
66.790 15.532819
66.795 15.300206
66.800 15.649652
66.805 16.022833
66.810 15.835633
66.815 15.888044
66.820 16.414282
66.825 17.139011
66.830 17.527939
66.835 17.820936
66.840 17.93084
66.845 18.246538
66.850 17.972071
66.855 17.519087
66.860 16.574636
66.865 16.152744
66.870 15.693828
66.875 16.05176
66.880 16.143
66.885 16.528543
66.890 16.868372
66.895 17.701967
66.900 18.070282
66.905 18.14105
66.910 18.050085
66.915 17.707222
66.920 17.540842
66.925 17.496349
66.930 17.422268
66.935 17.207378
66.940 16.511953
66.945 16.32324
66.950 16.819454
66.955 17.491566
66.960 17.124481
66.965 16.571463
66.970 16.642859
66.975 17.038778
66.980 17.089497
66.985 16.908278
66.990 16.622866
66.995 17.080715
67.000 17.543699
67.005 17.867044
67.010 18.007748
67.015 18.836218
67.020 18.909332
67.025 18.714539
67.030 18.967339
67.035 18.929359
67.040 18.63254
67.045 18.840534
67.050 18.330029
67.055 18.036259
67.060 18.008217
67.065 17.92975
67.070 18.233774
67.075 18.976305
67.080 19.020742
67.085 18.587996
67.090 18.631233
67.095 18.356045
67.100 18.188604
67.105 18.054037
67.110 17.620663
67.115 17.369421
67.120 17.673956
67.125 17.624081
67.130 17.424788
67.135 17.413437
67.140 17.442091
67.145 17.497896
67.150 17.394768
67.155 17.694725
67.160 18.24048
67.165 18.497784
67.170 18.34
67.175 17.859156
67.180 17.733786
67.185 18.085939
67.190 18.279757
67.195 18.04842
67.200 18.194099
67.205 18.453123
67.210 18.676397
67.215 18.574844
67.220 18.510889
67.225 18.105648
67.230 17.719524
67.235 17.30386
67.240 17.075676
67.245 16.922693
67.250 16.796
67.255 16.118073
67.260 16.126461
67.265 16.236362
67.270 16.59251
67.275 17.484222
67.280 17.69627
67.285 17.980892
67.290 18.51544
67.295 18.881662
67.300 18.92037
67.305 18.851227
67.310 18.427036
67.315 18.515549
67.320 18.103958
67.325 17.582991
67.330 17.315588
67.335 17.456747
67.340 17.658867
67.345 17.74136
67.350 17.68622
67.355 18.019434
67.360 18.265322
67.365 18.479706
67.370 18.229187
67.375 17.951441
67.380 17.620131
67.385 17.742739
67.390 17.775793
67.395 17.382805
67.400 17.249458
67.405 17.46456
67.410 17.484142
67.415 17.1677
67.420 17.135349
67.425 17.379343
67.430 17.561399
67.435 17.828171
67.440 17.882776
67.445 17.442486
67.450 17.065865
67.455 16.459045
67.460 16.38423
67.465 16.500319
67.470 16.453058
67.475 16.825724
67.480 17.52216
67.485 17.922007
67.490 18.074936
67.495 17.974884
67.500 18.36977
67.505 18.075052
67.510 17.734426
67.515 17.981533
67.520 17.855309
67.525 18.075872
67.530 18.342518
67.535 18.24069
67.540 18.386112
67.545 18.404922
67.550 18.673717
67.555 19.10033
67.560 19.552414
67.565 19.089888
67.570 19.157534
67.575 19.355686
67.580 19.079708
67.585 18.607203
67.590 17.978506
67.595 17.497307
67.600 17.837194
67.605 17.522568
67.610 17.301611
67.615 17.586805
67.620 18.053225
67.625 18.630207
67.630 18.92424
67.635 18.749249
67.640 18.716284
67.645 19.26544
67.650 19.164886
67.655 18.878649
67.660 18.372177
67.665 17.653805
67.670 18.033764
67.675 18.005381
67.680 17.267883
67.685 17.102034
67.690 17.311789
67.695 17.466606
67.700 17.723644
67.705 17.362432
67.710 17.082947
67.715 17.541071
67.720 17.87565
67.725 17.64168
67.730 17.674744
67.735 18.283501
67.740 18.475885
67.745 18.243153
67.750 17.979856
67.755 17.511906
67.760 17.351265
67.765 16.391384
67.770 15.278802
67.775 15.213997
67.780 15.75806
67.785 15.700594
67.790 15.444661
67.795 15.677725
67.800 16.826536
67.805 17.538691
67.810 17.720228
67.815 17.645479
67.820 17.780424
67.825 18.466145
67.830 18.918455
67.835 18.862133
67.840 18.843157
67.845 18.369432
67.850 18.248857
67.855 17.981064
67.860 17.858067
67.865 17.580055
67.870 17.219831
67.875 16.983541
67.880 17.074383
67.885 17.315285
67.890 16.984602
67.895 17.05398
67.900 16.977201
67.905 16.99094
67.910 16.956352
67.915 16.731922
67.920 16.934097
67.925 17.161293
67.930 17.065149
67.935 16.997614
67.940 17.354019
67.945 17.800396
67.950 17.694801
67.955 18.059315
67.960 17.615658
67.965 17.626133
67.970 17.566858
67.975 17.532202
67.980 17.381607
67.985 17.349401
67.990 17.228975
67.995 17.695036
68.000 18.130365
68.005 18.331945
68.010 18.318377
68.015 18.283888
68.020 18.418333
68.025 17.5987
68.030 17.141371
68.035 16.622
68.040 15.96356
68.045 15.851477
68.050 15.467815
68.055 15.226461
68.060 15.936243
68.065 16.467567
68.070 16.393761
68.075 17.085154
68.080 17.223532
68.085 17.795094
68.090 18.203974
68.095 18.295273
68.100 18.640287
68.105 19.047985
68.110 18.924707
68.115 18.6429
68.120 18.622618
68.125 18.395905
68.130 17.814159
68.135 17.613047
68.140 17.297575
68.145 17.039658
68.150 17.019161
68.155 17.711445
68.160 18.111889
68.165 18.406147
68.170 18.04003
68.175 18.249256
68.180 17.856743
68.185 17.904623
68.190 17.849432
68.195 17.99387
68.200 17.978586
68.205 18.311769
68.210 18.717199
68.215 19.135897
68.220 19.32662
68.225 19.162897
68.230 18.821661
68.235 18.900164
68.240 18.847441
68.245 18.75779
68.250 18.757124
68.255 18.589104
68.260 18.495148
68.265 19.01173
68.270 19.181767
68.275 19.243744
68.280 19.195032
68.285 19.202473
68.290 18.574358
68.295 18.526302
68.300 18.533327
68.305 18.89035
68.310 19.169024
68.315 19.555208
68.320 19.369595
68.325 19.496269
68.330 19.935728
68.335 19.536272
68.340 19.202211
68.345 19.087515
68.350 18.567823
68.355 19.065432
68.360 18.967731
68.365 18.033827
68.370 18.294348
68.375 18.409105
68.380 18.226109
68.385 18.662437
68.390 18.258944
68.395 18.501659
68.400 19.042379
68.405 19.434263
68.410 20.127993
68.415 20.482153
68.420 20.431469
68.425 21.007849
68.430 21.269892
68.435 20.91674
68.440 20.289692
68.445 19.628771
68.450 19.779713
68.455 20.055702
68.460 19.74859
68.465 20.167347
68.470 20.241222
68.475 19.960529
68.480 19.515593
68.485 19.680758
68.490 19.601137
68.495 20.000128
68.500 20.057621
68.505 20.313625
68.510 20.9751
68.515 21.511938
68.520 20.966087
68.525 20.74284
68.530 20.595695
68.535 20.423008
68.540 20.283798
68.545 19.928663
68.550 19.700356
68.555 20.121149
68.560 21.15304
68.565 21.149937
68.570 21.513653
68.575 21.71586
68.580 21.726532
68.585 22.107462
68.590 21.955225
68.595 20.925938
68.600 20.623201
68.605 20.660063
68.610 20.498419
68.615 21.200411
68.620 22.120087
68.625 22.813076
68.630 23.318747
68.635 23.62454
68.640 23.538124
68.645 24.255743
68.650 24.024527
68.655 23.6716
68.660 23.522953
68.665 23.634066
68.670 24.153692
68.675 25.051712
68.680 25.71549
68.685 26.289484
68.690 26.084183
68.695 26.409029
68.700 26.73971
68.705 26.867098
68.710 26.647821
68.715 26.380316
68.720 26.675369
68.725 28.092039
68.730 28.711672
68.735 28.911707
68.740 28.289536
68.745 28.206533
68.750 28.238216
68.755 27.650942
68.760 26.955736
68.765 27.800932
68.770 29.499672
68.775 30.223314
68.780 29.785004
68.785 30.310247
68.790 30.744913
68.795 31.026121
68.800 29.997297
68.805 29.342676
68.810 29.50868
68.815 30.433601
68.820 30.022339
68.825 30.202526
68.830 30.768198
68.835 30.96216
68.840 31.102121
68.845 31.531933
68.850 31.382481
68.855 31.611216
68.860 30.96896
68.865 31.36305
68.870 31.732918
68.875 31.901716
68.880 32.118168
68.885 32.389965
68.890 32.800877
68.895 33.7113
68.900 33.792412
68.905 34.227524
68.910 34.45892
68.915 34.67046
68.920 35.222061
68.925 34.841007
68.930 34.923363
68.935 34.541058
68.940 34.227688
68.945 33.985825
68.950 34.277172
68.955 34.49678
68.960 34.904053
68.965 35.308624
68.970 35.818649
68.975 36.586994
68.980 36.721439
68.985 36.424442
68.990 37.282673
68.995 37.014263
69.000 36.500973
69.005 36.200123
69.010 35.286274
69.015 35.05695
69.020 34.548885
69.025 33.835911
69.030 34.715702
69.035 35.15992
69.040 34.668221
69.045 34.613899
69.050 35.482197
69.055 35.17915
69.060 35.026878
69.065 34.22506
69.070 34.064583
69.075 35.592987
69.080 35.692093
69.085 35.402954
69.090 35.869308
69.095 35.616859
69.100 35.789352
69.105 35.129654
69.110 33.336807
69.115 33.282227
69.120 32.98996
69.125 32.704395
69.130 32.661488
69.135 32.592972
69.140 33.031631
69.145 33.728764
69.150 33.132465
69.155 33.100895
69.160 33.215088
69.165 32.603134
69.170 32.286678
69.175 32.660278
69.180 33.21706
69.185 33.583939
69.190 33.08181
69.195 33.081417
69.200 33.473957
69.205 33.737381
69.210 33.425568
69.215 31.840099
69.220 31.877026
69.225 32.315968
69.230 32.225899
69.235 31.214113
69.240 30.582947
69.245 29.574327
69.250 29.824278
69.255 29.402317
69.260 28.529408
69.265 28.158937
69.270 28.547268
69.275 28.320154
69.280 27.743315
69.285 27.591793
69.290 27.134487
69.295 27.048841
69.300 26.891771
69.305 26.956202
69.310 26.739542
69.315 27.059885
69.320 26.896791
69.325 26.583725
69.330 26.134583
69.335 25.75839
69.340 25.68618
69.345 26.11545
69.350 25.703053
69.355 24.742521
69.360 25.12505
69.365 25.25708
69.370 25.12886
69.375 24.570883
69.380 23.153376
69.385 22.936115
69.390 22.774738
69.395 21.907536
69.400 22.334452
69.405 22.040478
69.410 21.678297
69.415 22.269722
69.420 22.642042
69.425 23.083338
69.430 22.901598
69.435 22.856949
69.440 22.974823
69.445 23.57847
69.450 23.020391
69.455 22.451807
69.460 22.154234
69.465 22.08814
69.470 21.899511
69.475 21.686563
69.480 20.648146
69.485 20.44449
69.490 20.347279
69.495 20.376083
69.500 19.621141
69.505 19.222628
69.510 19.452019
69.515 20.560722
69.520 20.834927
69.525 21.227425
69.530 21.503744
69.535 21.769535
69.540 22.117813
69.545 21.65403
69.550 20.928881
69.555 20.60751
69.560 20.18222
69.565 20.393318
69.570 20.704914
69.575 20.711851
69.580 20.675159
69.585 21.072319
69.590 21.065237
69.595 20.680513
69.600 20.040899
69.605 20.003328
69.610 20.4517
69.615 20.875124
69.620 20.809443
69.625 20.951723
69.630 21.486313
69.635 22.139297
69.640 21.892401
69.645 21.422922
69.650 20.559572
69.655 20.519318
69.660 20.340979
69.665 20.613047
69.670 20.279385
69.675 19.9865
69.680 19.365433
69.685 19.713528
69.690 19.966709
69.695 20.081202
69.700 19.483902
69.705 19.248674
69.710 18.749886
69.715 19.415203
69.720 19.28883
69.725 19.209568
69.730 18.864902
69.735 18.364244
69.740 17.902225
69.745 18.306095
69.750 18.117441
69.755 18.308243
69.760 18.182478
69.765 18.359535
69.770 19.198229
69.775 19.542454
69.780 19.118616
69.785 19.066856
69.790 18.727564
69.795 18.18362
69.800 18.021736
69.805 17.865374
69.810 17.795918
69.815 17.749146
69.820 17.741751
69.825 17.462742
69.830 17.680439
69.835 17.524734
69.840 17.401562
69.845 18.004917
69.850 18.291719
69.855 17.96097
69.860 18.143471
69.865 18.093515
69.870 18.406689
69.875 18.452229
69.880 18.332865
69.885 18.527569
69.890 18.848549
69.895 18.848921
69.900 18.69627
69.905 18.790976
69.910 18.587069
69.915 18.332973
69.920 18.189312
69.925 18.462091
69.930 18.153069
69.935 18.299509
69.940 18.043449
69.945 17.911966
69.950 17.996168
69.955 17.880978
69.960 17.884674
69.965 18.416016
69.970 18.170444
69.975 18.209703
69.980 18.602365
69.985 19.204731
69.990 19.221283
69.995 19.013794
70.000 18.741533
70.005 18.790424
70.010 18.481783
70.015 17.878086
70.020 17.100948
70.025 16.85294
70.030 16.94743
70.035 16.932465
70.040 17.24819
70.045 17.693939
70.050 18.051249
70.055 18.816111
70.060 19.332977
70.065 19.05423
70.070 18.947533
70.075 18.606014
70.080 17.834007
70.085 17.356829
70.090 16.71419
70.095 16.202721
70.100 16.279659
70.105 16.396358
70.110 16.793976
70.115 17.267286
70.120 17.126184
70.125 17.276281
70.130 17.846346
70.135 17.909105
70.140 17.610348
70.145 17.483511
70.150 17.328602
70.155 17.386389
70.160 17.57748
70.165 17.083969
70.170 17.121767
70.175 17.045481
70.180 17.207874
70.185 17.370445
70.190 17.225685
70.195 16.702341
70.200 16.604555
70.205 16.505821
70.210 16.542055
70.215 16.524742
70.220 16.883139
70.225 17.142727
70.230 17.500328
70.235 17.546347
70.240 17.659349
70.245 17.775349
70.250 17.713638
70.255 17.862003
70.260 18.124983
70.265 18.087297
70.270 17.564661
70.275 17.543873
70.280 17.577049
70.285 17.396057
70.290 16.47287
70.295 15.919517
70.300 16.207634
70.305 16.590384
70.310 16.512615
70.315 16.676516
70.320 17.285589
70.325 17.497364
70.330 17.417959
70.335 17.606625
70.340 18.28915
70.345 18.96431
70.350 18.506735
70.355 18.594004
70.360 18.700712
70.365 19.098679
70.370 18.98233
70.375 17.937675
70.380 16.879499
70.385 16.677406
70.390 16.464243
70.395 16.797243
70.400 16.811798
70.405 16.578981
70.410 17.104908
70.415 17.720436
70.420 17.41382
70.425 16.863033
70.430 16.182964
70.435 15.866078
70.440 16.126043
70.445 16.29426
70.450 15.586219
70.455 16.047543
70.460 16.13954
70.465 16.520508
70.470 16.659294
70.475 16.848652
70.480 16.861792
70.485 17.174931
70.490 17.134651
70.495 17.611746
70.500 17.454979
70.505 17.329239
70.510 17.16087
70.515 17.461977
70.520 18.102213
70.525 18.355703
70.530 18.234512
70.535 18.403616
70.540 18.756372
70.545 19.261148
70.550 18.699348
70.555 18.31218
70.560 18.237471
70.565 17.777033
70.570 17.572453
70.575 17.444221
70.580 17.220831
70.585 18.053587
70.590 17.864685
70.595 17.910322
70.600 18.445534
70.605 18.207762
70.610 18.185347
70.615 17.882036
70.620 17.509247
70.625 17.401585
70.630 17.558506
70.635 17.470858
70.640 17.525953
70.645 17.707363
70.650 17.787132
70.655 17.677015
70.660 17.648926
70.665 17.643286
70.670 17.931969
70.675 18.40967
70.680 17.805183
70.685 16.988865
70.690 16.720491
70.695 16.872725
70.700 16.673986
70.705 16.436781
70.710 16.008821
70.715 16.417484
70.720 17.500801
70.725 18.349499
70.730 18.986677
70.735 19.26873
70.740 19.549812
70.745 19.494925
70.750 19.314987
70.755 18.961098
70.760 18.747982
70.765 18.168106
70.770 17.825727
70.775 17.872858
70.780 17.714115
70.785 18.357862
70.790 18.200325
70.795 17.830023
70.800 18.011034
70.805 18.084684
70.810 18.068975
70.815 17.991516
70.820 18.097391
70.825 18.10951
70.830 17.880766
70.835 17.758057
70.840 17.312233
70.845 16.859056
70.850 17.204006
70.855 16.685722
70.860 15.610595
70.865 15.940488
70.870 15.6387
70.875 15.906023
70.880 15.859645
70.885 14.945993
70.890 15.732802
70.895 16.59347
70.900 16.360172
70.905 16.133818
70.910 15.978413
70.915 15.94329
70.920 16.215494
70.925 16.02516
70.930 16.117088
70.935 16.449427
70.940 17.16115
70.945 17.534182
70.950 17.671051
70.955 17.608063
70.960 17.657225
70.965 17.796476
70.970 17.83629
70.975 17.647213
70.980 17.747124
70.985 17.873997
70.990 17.936598
70.995 17.309753
71.000 17.350653
71.005 17.51952
71.010 17.213188
71.015 17.121458
71.020 17.768675
71.025 18.265703
71.030 18.818079
71.035 18.76232
71.040 18.742893
71.045 19.408955
71.050 18.983902
71.055 18.230377
71.060 17.735815
71.065 16.871056
71.070 16.219517
71.075 16.261589
71.080 16.048862
71.085 16.224934
71.090 16.438623
71.095 17.233496
71.100 17.634176
71.105 17.472418
71.110 16.671814
71.115 16.270594
71.120 16.51619
71.125 16.478012
71.130 16.50252
71.135 16.989864
71.140 17.55554
71.145 17.96744
71.150 18.198559
71.155 17.886364
71.160 17.513035
71.165 17.518044
71.170 17.316351
71.175 17.390467
71.180 17.507935
71.185 17.549648
71.190 17.950764
71.195 18.30932
71.200 17.744261
71.205 18.045431
71.210 17.661518
71.215 17.278368
71.220 17.290161
71.225 17.31525
71.230 17.102533
71.235 17.012238
71.240 16.407015
71.245 16.428747
71.250 16.929636
71.255 16.599644
71.260 16.732948
71.265 17.206161
71.270 16.644356
71.275 16.926508
71.280 16.700651
71.285 16.823803
71.290 16.801373
71.295 16.290375
71.300 16.563927
71.305 16.551401
71.310 16.51745
71.315 16.76148
71.320 16.738752
71.325 16.409279
71.330 16.335091
71.335 16.039568
71.340 16.567507
71.345 16.644409
71.350 16.350359
71.355 16.369585
71.360 16.677301
71.365 17.462997
71.370 17.505625
71.375 17.535868
71.380 17.50211
71.385 17.569595
71.390 17.807442
71.395 17.574556
71.400 17.142281
71.405 17.876467
71.410 18.086222
71.415 18.173891
71.420 18.18198
71.425 18.602894
71.430 18.758692
71.435 18.544691
71.440 18.251278
71.445 18.08493
71.450 18.568144
71.455 18.783518
71.460 18.226606
71.465 17.866833
71.470 18.033522
71.475 17.720051
71.480 17.653214
71.485 17.328022
71.490 16.743336
71.495 16.733688
71.500 16.70726
71.505 16.390553
71.510 16.845907
71.515 16.465822
71.520 16.355028
71.525 16.846401
71.530 16.916445
71.535 17.730989
71.540 18.037327
71.545 17.522764
71.550 17.831446
71.555 18.029757
71.560 17.866051
71.565 17.69739
71.570 17.359631
71.575 18.123125
71.580 18.22331
71.585 18.487022
71.590 18.396961
71.595 18.571348
71.600 18.023836
71.605 17.514978
71.610 16.657394
71.615 16.688086
71.620 16.403807
71.625 16.094114
71.630 16.56813
71.635 16.976442
71.640 16.87866
71.645 17.025858
71.650 17.3272
71.655 16.999672
71.660 17.062918
71.665 16.797859
71.670 16.587646
71.675 16.980793
71.680 16.768665
71.685 16.265678
71.690 16.435963
71.695 16.695017
71.700 17.190592
71.705 17.106163
71.710 16.242138
71.715 16.401747
71.720 16.627367
71.725 16.09462
71.730 15.813994
71.735 15.978123
71.740 16.589096
71.745 17.038109
71.750 16.858419
71.755 17.139984
71.760 17.774864
71.765 17.451302
71.770 17.166979
71.775 16.990576
71.780 17.239304
71.785 17.040346
71.790 17.362562
71.795 17.407717
71.800 17.629753
71.805 17.459816
71.810 17.684658
71.815 17.720137
71.820 17.759911
71.825 17.015383
71.830 17.221785
71.835 17.443432
71.840 17.42868
71.845 17.424801
71.850 17.281815
71.855 16.650942
71.860 16.334164
71.865 15.696097
71.870 15.632295
71.875 16.350826
71.880 16.419842
71.885 16.886204
71.890 17.284698
71.895 17.62586
71.900 17.585556
71.905 17.230227
71.910 16.185308
71.915 15.953779
71.920 16.157158
71.925 16.709177
71.930 16.583149
71.935 16.902439
71.940 17.349962
71.945 17.223387
71.950 17.233559
71.955 17.343554
71.960 16.871368
71.965 17.187145
71.970 16.985771
71.975 17.104034
71.980 17.170729
71.985 16.612314
71.990 16.299524
71.995 16.561916
72.000 16.008301
72.005 15.27662
72.010 15.48006
72.015 16.175064
72.020 16.491102
72.025 16.506531
72.030 16.597866
72.035 16.777496
72.040 17.447357
72.045 17.703436
72.050 17.730427
72.055 17.816769
72.060 17.267363
72.065 17.395763
72.070 17.905733
72.075 17.162619
72.080 16.876474
72.085 16.656464
72.090 16.468609
72.095 16.764902
72.100 16.313957
72.105 15.914165
72.110 16.352329
72.115 15.594147
72.120 15.265597
72.125 15.236738
72.130 15.621406
72.135 15.579303
72.140 15.581666
72.145 15.034446
72.150 15.307683
72.155 16.018776
72.160 16.505367
72.165 16.690538
72.170 17.481302
72.175 17.56369
72.180 18.597197
72.185 18.699123
72.190 18.375767
72.195 18.126347
72.200 17.629961
72.205 17.34094
72.210 17.482517
72.215 16.43557
72.220 15.876388
72.225 15.575903
72.230 15.370688
72.235 15.637528
72.240 15.882595
72.245 16.556591
72.250 16.776855
72.255 17.10544
72.260 17.323042
72.265 17.422033
72.270 17.630758
72.275 17.360891
72.280 17.133347
72.285 17.238829
72.290 17.675974
72.295 17.526417
72.300 17.252226
72.305 16.78244
72.310 16.458681
72.315 16.714674
72.320 16.88695
72.325 17.01808
72.330 17.252913
72.335 17.684303
72.340 18.056438
72.345 18.094692
72.350 18.076677
72.355 18.278866
72.360 17.998552
72.365 17.497019
72.370 17.255234
72.375 17.226097
72.380 17.58988
72.385 17.360001
72.390 17.584139
72.395 17.986103
72.400 17.821951
72.405 17.344046
72.410 17.016785
72.415 16.616159
72.420 16.164066
72.425 15.277538
72.430 15.008062
72.435 15.689232
72.440 15.910662
72.445 16.500395
72.450 16.934658
72.455 16.692982
72.460 17.352724
72.465 17.338604
72.470 16.927113
72.475 16.585533
72.480 15.895268
72.485 16.16065
72.490 16.629606
72.495 16.28145
72.500 17.034586
72.505 17.40843
72.510 17.587496
72.515 17.814531
72.520 17.639862
72.525 17.431175
72.530 17.635887
72.535 16.774555
72.540 17.244686
72.545 17.400536
72.550 17.833771
72.555 18.037682
72.560 17.843222
72.565 17.55644
72.570 17.719709
72.575 17.562551
72.580 17.386992
72.585 17.515591
72.590 17.899126
72.595 17.975225
72.600 18.54932
72.605 18.432667
72.610 18.254509
72.615 18.241421
72.620 17.632689
72.625 18.012182
72.630 18.467325
72.635 17.760458
72.640 17.453896
72.645 16.995876
72.650 16.663151
72.655 16.996044
72.660 16.441525
72.665 16.456375
72.670 16.685944
72.675 17.304356
72.680 17.406584
72.685 17.293667
72.690 17.432289
72.695 16.948862
72.700 16.517506
72.705 16.578218
72.710 16.436733
72.715 16.368389
72.720 16.055859
72.725 15.921178
72.730 16.501556
72.735 16.220591
72.740 16.033857
72.745 16.104763
72.750 16.754025
72.755 16.576033
72.760 16.143232
72.765 16.260387
72.770 16.349234
72.775 16.452877
72.780 16.57151
72.785 16.155983
72.790 16.399633
72.795 16.364187
72.800 16.085127
72.805 16.566715
72.810 16.271128
72.815 15.963887
72.820 16.013498
72.825 15.777393
72.830 15.653843
72.835 16.147245
72.840 15.865275
72.845 15.880162
72.850 15.807403
72.855 15.904537
72.860 15.878019
72.865 15.248093
72.870 15.117899
72.875 15.217412
72.880 15.212163
72.885 14.860683
72.890 14.738835
72.895 15.015492
72.900 14.648588
72.905 14.645961
72.910 15.011976
72.915 15.065651
72.920 15.413236
72.925 15.201082
72.930 15.646457
72.935 16.111639
72.940 16.030487
72.945 15.878549
72.950 16.322048
72.955 16.762484
72.960 16.493551
72.965 16.474976
72.970 16.582878
72.975 16.356661
72.980 16.01996
72.985 15.581635
72.990 15.301195
72.995 15.287776
73.000 15.128214
