!@!!GADDS PLOTSO FILE: Chi integration type
!@!!Title/SampleName: map-42
!@!!Comment: ?
!@!!User: Bruker Instrument Administrator
!@!!Site: University of Illinois Chicago
!@!!Frame: map-42_01_000.gfrm
!@!!Wavelengths    1.54184   1.54056   1.54439
!@!!Frame angles: 2Theta: 63.000 Omega: 50.000 Phi: 0.000 Chi: 90.000
!@!!Integration range: 2Theta: 53.000 to 73.000  Gamma: -105.000 to -75.000
!@!!Integration method: bin normalized
!@!N
!@!SS
!@!M
!@!L 0.0 0.0 0.0 0.0
!@!XDegrees
!@!YCounts
53.000 7.441802
53.005 7.421975
53.010 7.243579
53.015 6.831988
53.020 6.60939
53.025 6.850443
53.030 6.778639
53.035 7.480103
53.040 7.572853
53.045 7.564729
53.050 7.774393
53.055 7.786583
53.060 7.687273
53.065 7.374336
53.070 6.650324
53.075 6.63116
53.080 6.770728
53.085 6.946241
53.090 6.882153
53.095 7.223037
53.100 7.661787
53.105 8.383334
53.110 8.541155
53.115 8.700933
53.120 8.546082
53.125 8.359607
53.130 8.310052
53.135 8.270477
53.140 7.701046
53.145 7.265829
53.150 6.791884
53.155 6.74982
53.160 6.756519
53.165 6.638715
53.170 6.744019
53.175 6.668402
53.180 7.488807
53.185 8.202025
53.190 8.399401
53.195 8.624487
53.200 8.516286
53.205 8.655934
53.210 8.996719
53.215 8.27592
53.220 8.095088
53.225 8.059372
53.230 8.064754
53.235 8.108068
53.240 8.092731
53.245 8.359295
53.250 8.247093
53.255 8.204664
53.260 8.396236
53.265 8.264874
53.270 8.44474
53.275 8.155651
53.280 8.179736
53.285 8.420034
53.290 8.332528
53.295 7.804949
53.300 7.509264
53.305 7.419126
53.310 7.483381
53.315 7.736818
53.320 7.904047
53.325 7.777202
53.330 8.056254
53.335 8.114562
53.340 8.073549
53.345 8.300166
53.350 8.477766
53.355 8.550679
53.360 8.73853
53.365 8.53653
53.370 8.395705
53.375 8.547504
53.380 7.79219
53.385 7.407755
53.390 7.698356
53.395 7.697645
53.400 7.978356
53.405 8.340618
53.410 8.119913
53.415 8.582646
53.420 8.568852
53.425 8.254319
53.430 8.325198
53.435 7.932518
53.440 7.787797
53.445 7.854146
53.450 7.877068
53.455 7.92497
53.460 8.013428
53.465 8.273745
53.470 8.682286
53.475 8.761903
53.480 8.649499
53.485 8.755251
53.490 8.403663
53.495 8.00762
53.500 7.605758
53.505 7.558839
53.510 7.789432
53.515 7.564573
53.520 7.425989
53.525 7.979056
53.530 8.420437
53.535 9.026731
53.540 9.334915
53.545 9.07351
53.550 9.32727
53.555 9.532825
53.560 9.101006
53.565 9.179966
53.570 8.859439
53.575 8.940421
53.580 9.267115
53.585 8.78336
53.590 8.63817
53.595 8.394584
53.600 7.546469
53.605 7.201278
53.610 7.3774
53.615 7.399085
53.620 7.605468
53.625 7.987618
53.630 8.633681
53.635 9.434442
53.640 9.143223
53.645 8.772242
53.650 8.524255
53.655 8.282001
53.660 8.551562
53.665 8.697186
53.670 8.48343
53.675 8.824646
53.680 8.767327
53.685 8.859631
53.690 8.728009
53.695 8.431564
53.700 8.290843
53.705 8.398622
53.710 8.014512
53.715 8.006079
53.720 8.685738
53.725 9.331824
53.730 9.458573
53.735 9.385212
53.740 9.194508
53.745 9.360759
53.750 9.151018
53.755 8.465018
53.760 8.375977
53.765 8.154719
53.770 8.0232
53.775 7.986828
53.780 7.946273
53.785 7.845843
53.790 7.86074
53.795 7.672671
53.800 7.692545
53.805 7.880713
53.810 8.08545
53.815 8.111479
53.820 7.788149
53.825 7.533855
53.830 7.279016
53.835 7.521937
53.840 8.052673
53.845 8.465711
53.850 8.422721
53.855 8.516382
53.860 8.762031
53.865 8.977967
53.870 8.495872
53.875 7.954858
53.880 7.768329
53.885 8.169211
53.890 8.349873
53.895 8.248297
53.900 8.013342
53.905 8.319818
53.910 8.204197
53.915 8.101205
53.920 7.888375
53.925 7.93107
53.930 8.163882
53.935 8.281805
53.940 8.040487
53.945 8.296769
53.950 8.462223
53.955 8.763698
53.960 8.895371
53.965 8.836002
53.970 8.748427
53.975 8.639701
53.980 8.601426
53.985 8.3008
53.990 7.798451
53.995 7.826538
54.000 7.612554
54.005 7.497227
54.010 7.609452
54.015 7.679435
54.020 8.003162
54.025 7.891667
54.030 7.9014
54.035 8.408304
54.040 8.552123
54.045 8.800559
54.050 9.060296
54.055 9.269637
54.060 9.432879
54.065 9.607926
54.070 9.244305
54.075 8.98486
54.080 8.71626
54.085 8.348107
54.090 8.000178
54.095 8.123448
54.100 8.081174
54.105 8.432528
54.110 8.71
54.115 8.933037
54.120 9.11976
54.125 9.35766
54.130 8.802641
54.135 8.554217
54.140 8.561797
54.145 8.355585
54.150 8.108716
54.155 8.019557
54.160 8.244002
54.165 8.438938
54.170 8.61
54.175 8.421008
54.180 8.360731
54.185 8.169333
54.190 8.465033
54.195 8.223319
54.200 8.152253
54.205 8.44786
54.210 8.833747
54.215 9.039021
54.220 9.08494
54.225 9.064063
54.230 9.54509
54.235 9.929976
54.240 9.928585
54.245 9.979504
54.250 10.21041
54.255 10.251258
54.260 10.324704
54.265 10.08172
54.270 10.076303
54.275 9.878806
54.280 9.456561
54.285 9.210087
54.290 9.358101
54.295 8.959584
54.300 9.253973
54.305 9.227025
54.310 9.399739
54.315 9.658792
54.320 9.293225
54.325 9.009784
54.330 8.964791
54.335 9.120092
54.340 9.283251
54.345 9.177132
54.350 9.432137
54.355 9.735119
54.360 9.639199
54.365 9.557384
54.370 9.063063
54.375 8.926418
54.380 8.809752
54.385 8.69801
54.390 8.726118
54.395 9.062041
54.400 9.275447
54.405 9.058707
54.410 9.032602
54.415 8.72757
54.420 8.656621
54.425 8.751191
54.430 8.634229
54.435 8.491121
54.440 8.745763
54.445 9.090551
54.450 9.555442
54.455 10.154054
54.460 10.286336
54.465 10.178323
54.470 10.236982
54.475 9.906849
54.480 9.305379
54.485 9.050934
54.490 8.480377
54.495 8.686022
54.500 8.418531
54.505 8.066617
54.510 8.312054
54.515 8.387885
54.520 8.105245
54.525 8.04691
54.530 8.055115
54.535 8.831195
54.540 9.170116
54.545 9.153913
54.550 9.163591
54.555 9.44553
54.560 9.838119
54.565 9.615492
54.570 9.264605
54.575 9.343231
54.580 9.838131
54.585 10.308912
54.590 10.324925
54.595 10.094205
54.600 9.877872
54.605 9.918968
54.610 9.51397
54.615 9.379765
54.620 9.321307
54.625 9.337211
54.630 9.588971
54.635 9.972401
54.640 9.960039
54.645 10.034245
54.650 9.952306
54.655 9.844478
54.660 10.081722
54.665 10.070481
54.670 10.342351
54.675 10.289792
54.680 10.475217
54.685 10.558362
54.690 10.597155
54.695 10.110996
54.700 9.811648
54.705 9.663575
54.710 9.627497
54.715 9.505932
54.720 9.467968
54.725 9.332608
54.730 9.543162
54.735 9.809278
54.740 9.877971
54.745 9.935125
54.750 10.102756
54.755 9.732958
54.760 9.847611
54.765 9.894791
54.770 10.112173
54.775 10.195936
54.780 9.864508
54.785 9.685631
54.790 9.209914
54.795 8.919991
54.800 9.178301
54.805 8.762983
54.810 9.166465
54.815 9.52726
54.820 10.238594
54.825 11.246861
54.830 11.175511
54.835 11.103948
54.840 10.619355
54.845 10.250731
54.850 10.660523
54.855 10.526174
54.860 10.50126
54.865 10.225578
54.870 10.296818
54.875 10.848023
54.880 11.264482
54.885 11.073503
54.890 10.897605
54.895 10.986956
54.900 10.944513
54.905 10.955701
54.910 10.851563
54.915 10.231347
54.920 10.307779
54.925 10.413871
54.930 10.458897
54.935 10.969171
54.940 11.021842
54.945 11.252183
54.950 11.200719
54.955 10.651162
54.960 10.67678
54.965 10.134562
54.970 10.035994
54.975 9.942867
54.980 9.940332
54.985 10.168973
54.990 10.173198
54.995 10.142934
55.000 10.838505
55.005 10.813241
55.010 10.446343
55.015 10.426353
55.020 10.671959
55.025 10.768715
55.030 10.502739
55.035 10.241472
55.040 10.189787
55.045 10.272334
55.050 10.536296
55.055 10.805286
55.060 11.061609
55.065 11.175155
55.070 10.746057
55.075 10.720239
55.080 11.060937
55.085 10.547696
55.090 10.07841
55.095 10.184941
55.100 10.037515
55.105 10.366681
55.110 10.360585
55.115 10.634997
55.120 10.848031
55.125 11.068994
55.130 10.997788
55.135 11.259419
55.140 11.033284
55.145 10.882596
55.150 10.769981
55.155 10.81654
55.160 10.433532
55.165 10.07945
55.170 9.932673
55.175 9.700949
55.180 9.542405
55.185 8.959226
55.190 8.627959
55.195 8.804432
55.200 9.154558
55.205 9.695595
55.210 10.322207
55.215 10.562019
55.220 10.786928
55.225 10.939504
55.230 11.076588
55.235 11.067855
55.240 10.475655
55.245 10.365744
55.250 10.097432
55.255 9.884466
55.260 9.738363
55.265 9.582516
55.270 9.779822
55.275 9.963749
55.280 10.055934
55.285 9.955085
55.290 10.70247
55.295 11.039103
55.300 10.94944
55.305 11.166571
55.310 10.939837
55.315 10.478739
55.320 10.473466
55.325 10.375148
55.330 10.037427
55.335 9.94208
55.340 9.420558
55.345 9.437444
55.350 9.968918
55.355 10.070093
55.360 9.918029
55.365 9.892947
55.370 9.751059
55.375 9.643416
55.380 10.304382
55.385 10.896298
55.390 11.235279
55.395 11.559018
55.400 11.957092
55.405 12.125125
55.410 11.961375
55.415 11.162958
55.420 10.900237
55.425 10.664618
55.430 10.222736
55.435 10.126419
55.440 10.809624
55.445 11.427693
55.450 11.082856
55.455 10.489252
55.460 10.271826
55.465 10.352569
55.470 10.169855
55.475 9.615487
55.480 9.610561
55.485 10.232762
55.490 10.332907
55.495 10.765256
55.500 11.015862
55.505 10.975157
55.510 11.213435
55.515 10.831384
55.520 10.570272
55.525 10.610342
55.530 10.350491
55.535 10.081592
55.540 9.896822
55.545 9.528744
55.550 9.856608
55.555 10.348063
55.560 10.326808
55.565 10.797806
55.570 10.765757
55.575 10.76188
55.580 10.693063
55.585 10.40403
55.590 10.304868
55.595 9.969731
55.600 9.800075
55.605 9.696299
55.610 9.989678
55.615 10.571349
55.620 10.578613
55.625 10.728085
55.630 10.912025
55.635 10.767217
55.640 10.478603
55.645 10.243377
55.650 10.037361
55.655 9.905171
55.660 9.673478
55.665 8.989018
55.670 8.437601
55.675 8.846122
55.680 9.19191
55.685 9.056627
55.690 9.140659
55.695 9.330475
55.700 10.145446
55.705 11.016088
55.710 11.180856
55.715 10.876589
55.720 10.636991
55.725 10.452136
55.730 10.27658
55.735 10.398094
55.740 10.376227
55.745 10.131473
55.750 10.335228
55.755 10.870586
55.760 10.938476
55.765 10.882398
55.770 10.660652
55.775 10.521894
55.780 10.306196
55.785 10.69422
55.790 10.712067
55.795 11.023314
55.800 11.815235
55.805 12.018161
55.810 12.636115
55.815 12.683086
55.820 12.922266
55.825 12.963307
55.830 12.849533
55.835 12.625593
55.840 12.527837
55.845 12.206815
55.850 11.939283
55.855 11.010629
55.860 10.886552
55.865 10.619175
55.870 10.150126
55.875 9.765065
55.880 9.114619
55.885 8.95757
55.890 9.417884
55.895 9.658568
55.900 9.594435
55.905 9.793308
55.910 9.842694
55.915 10.608789
55.920 11.052173
55.925 10.713828
55.930 10.832305
55.935 11.194678
55.940 11.684462
55.945 12.624233
55.950 12.746028
55.955 12.711224
55.960 13.036363
55.965 12.836903
55.970 12.627359
55.975 12.587555
55.980 11.918621
55.985 11.871945
55.990 11.51228
55.995 11.269376
56.000 11.144697
56.005 10.922449
56.010 10.480758
56.015 10.644712
56.020 10.724524
56.025 10.818232
56.030 10.710019
56.035 10.656972
56.040 10.72033
56.045 10.640021
56.050 10.248397
56.055 10.263112
56.060 10.503398
56.065 10.92036
56.070 11.326049
56.075 11.777991
56.080 12.103236
56.085 12.537576
56.090 12.359002
56.095 12.217272
56.100 11.655993
56.105 11.852316
56.110 11.517931
56.115 11.08111
56.120 10.929259
56.125 11.155931
56.130 11.310273
56.135 12.014799
56.140 12.103291
56.145 11.9814
56.150 12.551138
56.155 12.199062
56.160 11.918505
56.165 11.670173
56.170 10.979415
56.175 10.49502
56.180 10.532943
56.185 9.913141
56.190 9.857452
56.195 9.572586
56.200 9.627253
56.205 9.483693
56.210 9.565198
56.215 9.992185
56.220 10.757438
56.225 11.280132
56.230 11.888129
56.235 12.291617
56.240 12.819641
56.245 12.905221
56.250 12.393837
56.255 12.629847
56.260 12.925895
56.265 12.728599
56.270 12.304151
56.275 11.998885
56.280 11.738115
56.285 11.886717
56.290 11.554209
56.295 11.395144
56.300 11.470429
56.305 11.116367
56.310 10.785564
56.315 10.795555
56.320 11.392509
56.325 11.572118
56.330 11.744448
56.335 11.61369
56.340 11.822077
56.345 12.300249
56.350 12.421325
56.355 11.948185
56.360 12.098449
56.365 11.983164
56.370 12.261164
56.375 12.802834
56.380 12.964657
56.385 13.333879
56.390 12.674319
56.395 12.32449
56.400 12.182788
56.405 12.245901
56.410 12.085275
56.415 11.46256
56.420 11.314785
56.425 11.40385
56.430 11.492346
56.435 11.352213
56.440 11.152569
56.445 11.24736
56.450 11.643163
56.455 11.364377
56.460 11.458393
56.465 12.088469
56.470 12.209938
56.475 12.305698
56.480 11.837745
56.485 11.644162
56.490 11.982435
56.495 11.887456
56.500 11.29055
56.505 11.554793
56.510 11.604008
56.515 11.642239
56.520 11.686425
56.525 11.461407
56.530 11.325629
56.535 11.302784
56.540 10.757994
56.545 10.626879
56.550 11.010982
56.555 10.929615
56.560 10.773225
56.565 10.794753
56.570 10.959396
56.575 11.404777
56.580 11.233731
56.585 11.062107
56.590 11.040812
56.595 11.321513
56.600 11.511435
56.605 11.872432
56.610 12.247825
56.615 12.625285
56.620 12.732285
56.625 12.843694
56.630 12.511379
56.635 12.50786
56.640 11.809829
56.645 11.357656
56.650 11.073366
56.655 11.175925
56.660 11.747413
56.665 11.751171
56.670 11.850911
56.675 12.170622
56.680 12.22211
56.685 12.321405
56.690 12.279109
56.695 11.797757
56.700 12.277762
56.705 12.062042
56.710 12.073988
56.715 12.507945
56.720 12.65901
56.725 12.946986
56.730 13.427732
56.735 13.797674
56.740 13.881958
56.745 13.611236
56.750 13.752681
56.755 13.874327
56.760 13.776649
56.765 13.603843
56.770 13.482041
56.775 13.309303
56.780 13.38063
56.785 12.787374
56.790 12.429234
56.795 12.023853
56.800 11.551702
56.805 11.684448
56.810 11.844088
56.815 11.882352
56.820 12.096875
56.825 11.945482
56.830 12.296456
56.835 12.284202
56.840 12.016324
56.845 11.605516
56.850 11.204489
56.855 11.394848
56.860 11.662354
56.865 11.705086
56.870 11.487853
56.875 11.774582
56.880 12.03827
56.885 12.011284
56.890 11.565955
56.895 11.393094
56.900 11.402943
56.905 12.077873
56.910 11.659559
56.915 11.662141
56.920 11.771644
56.925 11.733171
56.930 12.133493
56.935 12.138724
56.940 11.546547
56.945 11.76529
56.950 11.82215
56.955 11.647279
56.960 11.861243
56.965 11.491435
56.970 11.293463
56.975 11.646677
56.980 11.804284
56.985 11.892619
56.990 12.545215
56.995 12.510934
57.000 12.285434
57.005 12.762106
57.010 12.757125
57.015 12.814672
57.020 12.55157
57.025 12.922212
57.030 13.041734
57.035 13.266625
57.040 12.015199
57.045 11.313081
57.050 11.427978
57.055 11.597942
57.060 11.052763
57.065 10.647109
57.070 10.85013
57.075 11.786969
57.080 12.325216
57.085 12.112912
57.090 11.851451
57.095 11.773769
57.100 12.018667
57.105 12.083163
57.110 12.163612
57.115 11.997209
57.120 11.998294
57.125 12.010373
57.130 12.304657
57.135 12.426348
57.140 12.036423
57.145 11.648194
57.150 11.659621
57.155 11.36533
57.160 11.602779
57.165 11.116201
57.170 11.142613
57.175 11.439284
57.180 11.878572
57.185 12.241545
57.190 12.594943
57.195 12.800493
57.200 13.30691
57.205 13.498817
57.210 13.679774
57.215 13.756813
57.220 13.910175
57.225 13.932791
57.230 14.085249
57.235 13.547899
57.240 12.973635
57.245 12.614659
57.250 12.132988
57.255 11.9383
57.260 11.552948
57.265 11.344816
57.270 11.794173
57.275 11.935133
57.280 11.550293
57.285 11.215
57.290 10.922971
57.295 11.060787
57.300 11.497035
57.305 11.7201
57.310 11.981172
57.315 12.213084
57.320 12.514633
57.325 12.54043
57.330 12.149432
57.335 11.76901
57.340 11.638243
57.345 11.25624
57.350 11.709089
57.355 12.252279
57.360 12.505095
57.365 12.796116
57.370 12.637081
57.375 12.828894
57.380 13.558679
57.385 13.352602
57.390 13.138388
57.395 13.514918
57.400 13.969055
57.405 14.092311
57.410 13.971617
57.415 13.64652
57.420 13.608467
57.425 14.041521
57.430 13.884027
57.435 13.712636
57.440 13.656188
57.445 13.803411
57.450 14.001171
57.455 14.503145
57.460 14.244411
57.465 14.577886
57.470 15.094454
57.475 15.136828
57.480 15.314728
57.485 15.416884
57.490 14.721993
57.495 14.234467
57.500 13.262524
57.505 12.924187
57.510 12.328945
57.515 11.933941
57.520 11.75127
57.525 11.903033
57.530 11.761754
57.535 11.82729
57.540 11.819123
57.545 12.661018
57.550 13.412892
57.555 13.534922
57.560 13.81332
57.565 14.242406
57.570 14.306179
57.575 14.280934
57.580 13.860709
57.585 13.529822
57.590 13.750531
57.595 13.382189
57.600 13.235114
57.605 13.48095
57.610 13.513208
57.615 13.325698
57.620 12.617389
57.625 12.436792
57.630 12.684412
57.635 13.017122
57.640 13.154108
57.645 13.268806
57.650 13.910019
57.655 14.397837
57.660 14.06913
57.665 13.600968
57.670 13.082804
57.675 13.207188
57.680 13.137418
57.685 12.467976
57.690 12.576775
57.695 12.653771
57.700 12.947598
57.705 13.080878
57.710 12.897559
57.715 13.232298
57.720 13.438744
57.725 13.299298
57.730 13.792714
57.735 14.01055
57.740 13.580383
57.745 13.142132
57.750 12.784728
57.755 12.860301
57.760 13.080276
57.765 12.983112
57.770 13.599358
57.775 14.37741
57.780 14.429918
57.785 14.478168
57.790 14.78261
57.795 14.923581
57.800 14.590231
57.805 14.135705
57.810 13.748894
57.815 13.598603
57.820 13.520576
57.825 13.091165
57.830 12.798216
57.835 12.425014
57.840 12.082807
57.845 11.995752
57.850 12.475547
57.855 12.219021
57.860 11.804421
57.865 11.853982
57.870 11.795958
57.875 12.040198
57.880 12.347468
57.885 12.459915
57.890 12.98106
57.895 12.992273
57.900 12.883841
57.905 12.983694
57.910 13.077869
57.915 12.890232
57.920 12.530142
57.925 11.942133
57.930 11.960448
57.935 12.237135
57.940 12.221624
57.945 12.366348
57.950 12.585821
57.955 12.556322
57.960 13.265927
57.965 13.865818
57.970 13.127968
57.975 12.879178
57.980 12.688273
57.985 12.756388
57.990 13.164684
57.995 12.648273
58.000 12.668655
58.005 13.537739
58.010 13.792671
58.015 13.617507
58.020 13.502336
58.025 13.653409
58.030 13.634334
58.035 13.632577
58.040 13.150295
58.045 13.286537
58.050 13.323473
58.055 13.505888
58.060 13.396522
58.065 13.61509
58.070 13.370306
58.075 14.097514
58.080 14.050165
58.085 13.785933
58.090 13.696783
58.095 13.850674
58.100 13.925246
58.105 14.076686
58.110 13.548224
58.115 13.697208
58.120 13.740169
58.125 13.817255
58.130 13.969396
58.135 14.013471
58.140 14.262672
58.145 14.392454
58.150 14.786739
58.155 15.143599
58.160 14.974652
58.165 14.537278
58.170 14.50312
58.175 14.744036
58.180 15.046188
58.185 14.864104
58.190 14.638311
58.195 14.581632
58.200 15.11641
58.205 15.121981
58.210 14.673312
58.215 14.259736
58.220 14.313006
58.225 14.435417
58.230 14.886213
58.235 15.010805
58.240 14.617657
58.245 14.207468
58.250 14.800199
58.255 14.587742
58.260 14.534767
58.265 14.096134
58.270 13.669814
58.275 14.225683
58.280 14.732683
58.285 14.234573
58.290 14.127668
58.295 13.875527
58.300 14.189864
58.305 14.56063
58.310 14.223437
58.315 13.967662
58.320 13.88465
58.325 14.213778
58.330 14.200815
58.335 13.722362
58.340 13.685525
58.345 13.897019
58.350 14.13041
58.355 14.539788
58.360 14.421745
58.365 14.233109
58.370 14.397021
58.375 13.955868
58.380 13.884407
58.385 13.812119
58.390 13.426216
58.395 13.651958
58.400 13.863865
58.405 13.546013
58.410 13.74771
58.415 13.443077
58.420 13.154799
58.425 13.326243
58.430 13.065104
58.435 12.971356
58.440 13.643971
58.445 14.268562
58.450 14.607957
58.455 14.333101
58.460 14.361966
58.465 14.812274
58.470 14.92313
58.475 14.30199
58.480 13.737051
58.485 13.687971
58.490 13.902357
58.495 13.77921
58.500 13.559628
58.505 13.463971
58.510 13.805135
58.515 14.325141
58.520 14.292521
58.525 14.08571
58.530 14.241699
58.535 13.96228
58.540 13.741328
58.545 13.584952
58.550 13.280087
58.555 13.408217
58.560 13.823562
58.565 13.915404
58.570 14.339325
58.575 14.351775
58.580 14.073338
58.585 14.139352
58.590 14.559904
58.595 14.831367
58.600 14.653638
58.605 14.638103
58.610 14.722945
58.615 14.784488
58.620 14.615386
58.625 14.592158
58.630 14.367982
58.635 14.726785
58.640 14.705089
58.645 14.376187
58.650 14.509962
58.655 14.58714
58.660 14.178378
58.665 13.319351
58.670 12.687645
58.675 12.441185
58.680 12.811624
58.685 12.792767
58.690 12.92376
58.695 13.294231
58.700 13.795047
58.705 14.266736
58.710 14.274651
58.715 14.459991
58.720 14.287845
58.725 14.226682
58.730 14.194331
58.735 14.498864
58.740 14.580701
58.745 14.715147
58.750 14.589085
58.755 14.892489
58.760 14.828731
58.765 14.760186
58.770 14.585711
58.775 15.174517
58.780 15.763245
58.785 16.100662
58.790 16.034245
58.795 15.982813
58.800 16.281986
58.805 16.185064
58.810 15.292979
58.815 14.869459
58.820 14.423081
58.825 14.572152
58.830 14.598649
58.835 14.026298
58.840 13.876055
58.845 14.101347
58.850 13.973058
58.855 14.225027
58.860 13.751199
58.865 13.812279
58.870 14.87618
58.875 14.871906
58.880 14.778726
58.885 14.983347
58.890 14.865549
58.895 14.95573
58.900 14.942581
58.905 14.899718
58.910 15.236133
58.915 15.178106
58.920 15.15727
58.925 15.337704
58.930 15.473176
58.935 15.126661
58.940 14.625429
58.945 14.608809
58.950 14.576539
58.955 14.436193
58.960 14.531248
58.965 14.614746
58.970 14.512938
58.975 14.412041
58.980 14.329231
58.985 14.847755
58.990 14.996386
58.995 15.003169
59.000 14.824677
59.005 15.412418
59.010 15.534604
59.015 15.77802
59.020 15.068585
59.025 14.744601
59.030 14.796116
59.035 15.283874
59.040 15.984376
59.045 16.646862
59.050 16.848104
59.055 16.921003
59.060 16.61265
59.065 16.420914
59.070 15.704752
59.075 14.751955
59.080 14.195521
59.085 14.261955
59.090 14.606419
59.095 14.925194
59.100 15.258792
59.105 15.871126
59.110 15.631243
59.115 15.34454
59.120 15.145746
59.125 15.372339
59.130 15.120191
59.135 14.93027
59.140 14.547654
59.145 14.851505
59.150 14.850136
59.155 14.864002
59.160 14.372127
59.165 14.288426
59.170 14.101074
59.175 14.118645
59.180 14.136433
59.185 14.297581
59.190 14.547657
59.195 14.467906
59.200 14.898784
59.205 15.084877
59.210 15.394475
59.215 15.240802
59.220 15.458477
59.225 15.444515
59.230 16.310246
59.235 16.363594
59.240 16.062197
59.245 15.651902
59.250 15.218675
59.255 15.202946
59.260 15.104025
59.265 14.864646
59.270 14.634112
59.275 14.693034
59.280 15.450653
59.285 15.319786
59.290 15.120558
59.295 14.669812
59.300 14.146629
59.305 14.389501
59.310 14.531872
59.315 14.323421
59.320 15.11494
59.325 15.0335
59.330 15.821795
59.335 16.079695
59.340 15.402785
59.345 15.43287
59.350 15.552711
59.355 15.989887
59.360 16.286955
59.365 16.605377
59.370 16.910418
59.375 17.018169
59.380 16.845551
59.385 16.834045
59.390 16.9837
59.395 16.452122
59.400 15.475604
59.405 15.281046
59.410 15.346313
59.415 15.207689
59.420 14.528005
59.425 13.991911
59.430 14.628176
59.435 15.412987
59.440 15.634487
59.445 15.619779
59.450 16.013494
59.455 16.738796
59.460 17.343258
59.465 17.179173
59.470 17.221031
59.475 17.343531
59.480 17.478405
59.485 17.318922
59.490 17.357687
59.495 17.73311
59.500 17.835976
59.505 17.473331
59.510 17.902891
59.515 17.967253
59.520 18.203056
59.525 17.742756
59.530 16.879736
59.535 16.879042
59.540 16.866507
59.545 17.243456
59.550 17.536776
59.555 17.190973
59.560 17.299232
59.565 17.554693
59.570 17.576344
59.575 17.789171
59.580 17.166788
59.585 17.092138
59.590 17.073069
59.595 17.203033
59.600 17.245632
59.605 16.946518
59.610 16.500736
59.615 16.012733
59.620 16.456593
59.625 17.353088
59.630 17.72986
59.635 17.598663
59.640 18.016039
59.645 18.584337
59.650 19.160702
59.655 18.780001
59.660 17.97547
59.665 17.534973
59.670 17.555147
59.675 17.892235
59.680 17.393482
59.685 17.179672
59.690 17.220375
59.695 17.079847
59.700 17.621389
59.705 18.449669
59.710 18.233904
59.715 18.265287
59.720 18.19969
59.725 18.535706
59.730 19.232002
59.735 19.592453
59.740 19.034016
59.745 19.326624
59.750 20.030951
59.755 20.260923
59.760 20.347336
59.765 19.886087
59.770 19.625885
59.775 19.361523
59.780 19.033735
59.785 18.697588
59.790 18.475847
59.795 18.367224
59.800 18.380037
59.805 18.630598
59.810 19.333714
59.815 19.936956
59.820 20.375265
59.825 20.283365
59.830 20.652819
59.835 20.612089
59.840 20.311277
59.845 20.507317
59.850 20.462557
59.855 20.26346
59.860 20.438343
59.865 20.433256
59.870 20.52828
59.875 20.285643
59.880 20.150873
59.885 20.223152
59.890 20.342918
59.895 20.728262
59.900 20.457487
59.905 20.776144
59.910 20.961317
59.915 20.877869
59.920 20.562845
59.925 21.061056
59.930 21.207991
59.935 21.159765
59.940 20.549747
59.945 20.527256
59.950 20.892595
59.955 21.528534
59.960 21.170534
59.965 20.785721
59.970 20.946856
59.975 21.43322
59.980 21.220657
59.985 20.911781
59.990 20.570633
59.995 20.663296
60.000 20.313765
60.005 20.469582
60.010 21.018167
60.015 21.478523
60.020 21.577587
60.025 21.237453
60.030 21.214334
60.035 21.507927
60.040 21.571035
60.045 21.36652
60.050 21.092237
60.055 20.690363
60.060 20.826479
60.065 21.18589
60.070 21.644745
60.075 21.743942
60.080 21.915575
60.085 22.33189
60.090 22.665695
60.095 22.043829
60.100 21.451424
60.105 21.626144
60.110 21.868061
60.115 21.745026
60.120 21.258461
60.125 21.888111
60.130 23.131395
60.135 23.80328
60.140 23.872803
60.145 23.787748
60.150 23.513683
60.155 23.719538
60.160 23.781792
60.165 23.671597
60.170 23.50691
60.175 22.932632
60.180 23.251696
60.185 23.819357
60.190 23.311285
60.195 22.172035
60.200 21.806417
60.205 21.914375
60.210 22.243517
60.215 21.954769
60.220 20.504057
60.225 20.530306
60.230 20.952942
60.235 20.791971
60.240 20.497925
60.245 20.247408
60.250 19.617241
60.255 20.575197
60.260 20.670979
60.265 20.614885
60.270 20.512932
60.275 20.067966
60.280 19.734545
60.285 20.473087
60.290 20.498068
60.295 19.966362
60.300 19.466522
60.305 19.449699
60.310 19.307817
60.315 19.669075
60.320 19.218876
60.325 19.699276
60.330 20.609522
60.335 20.842163
60.340 21.061207
60.345 21.592129
60.350 21.706314
60.355 22.051392
60.360 21.694893
60.365 21.560316
60.370 21.606945
60.375 21.398527
60.380 20.968336
60.385 20.298901
60.390 20.134212
60.395 20.504326
60.400 19.652809
60.405 19.780943
60.410 19.815889
60.415 19.995653
60.420 19.908272
60.425 19.618315
60.430 19.726757
60.435 20.36145
60.440 19.884956
60.445 20.04335
60.450 19.588718
60.455 19.85103
60.460 19.57786
60.465 18.770641
60.470 18.480127
60.475 18.61302
60.480 18.426731
60.485 18.39282
60.490 18.076075
60.495 18.243336
60.500 18.545197
60.505 18.624598
60.510 18.525171
60.515 18.233593
60.520 19.000578
60.525 19.665131
60.530 19.503838
60.535 19.371082
60.540 19.652918
60.545 19.720486
60.550 19.630011
60.555 19.022654
60.560 18.92198
60.565 19.138458
60.570 18.44243
60.575 18.106112
60.580 18.714945
60.585 19.415535
60.590 19.519178
60.595 18.978655
60.600 19.099089
60.605 19.813124
60.610 19.963081
60.615 19.468077
60.620 19.390144
60.625 19.182856
60.630 19.206358
60.635 18.686966
60.640 18.554497
60.645 18.250402
60.650 18.185886
60.655 18.038162
60.660 18.219011
60.665 18.490686
60.670 18.583725
60.675 18.486588
60.680 18.600731
60.685 18.098707
60.690 17.566368
60.695 16.767513
60.700 16.346287
60.705 16.269156
60.710 16.588388
60.715 16.64835
60.720 16.949089
60.725 16.891352
60.730 17.456686
60.735 18.091454
60.740 18.449883
60.745 17.930414
60.750 18.310913
60.755 18.174328
60.760 18.222313
60.765 17.972776
60.770 17.608461
60.775 17.029814
60.780 16.836765
60.785 16.999016
60.790 17.624489
60.795 17.620743
60.800 17.933811
60.805 17.640505
60.810 17.832272
60.815 18.077772
60.820 17.198301
60.825 17.549702
60.830 17.666218
60.835 17.419783
60.840 18.108751
60.845 18.496101
60.850 18.399565
60.855 18.42514
60.860 18.168461
60.865 18.257055
60.870 18.346916
60.875 18.076256
60.880 18.082863
60.885 18.09458
60.890 18.027042
60.895 17.375839
60.900 17.143661
60.905 16.983725
60.910 16.669971
60.915 16.163301
60.920 16.388571
60.925 16.854006
60.930 17.425167
60.935 17.445583
60.940 17.694408
60.945 17.688723
60.950 17.756693
60.955 17.834259
60.960 17.298067
60.965 17.170095
60.970 16.984638
60.975 16.868286
60.980 17.044575
60.985 16.886421
60.990 16.219856
60.995 16.61285
61.000 17.240347
61.005 17.469637
61.010 17.358145
61.015 17.407019
61.020 18.108673
61.025 18.01306
61.030 17.221657
61.035 16.399136
61.040 16.146973
61.045 15.731065
61.050 15.153609
61.055 14.433146
61.060 14.535507
61.065 14.897289
61.070 15.649342
61.075 15.652275
61.080 16.02129
61.085 16.806108
61.090 17.196774
61.095 17.856274
61.100 18.004946
61.105 17.079447
61.110 17.32527
61.115 17.140327
61.120 16.470978
61.125 16.080709
61.130 15.495127
61.135 15.432355
61.140 16.008009
61.145 16.109613
61.150 16.212639
61.155 16.180733
61.160 16.456833
61.165 16.268116
61.170 15.627604
61.175 15.197639
61.180 14.966096
61.185 15.215758
61.190 15.501126
61.195 15.86084
61.200 16.070946
61.205 16.763103
61.210 17.196522
61.215 17.363821
61.220 17.226927
61.225 17.145008
61.230 17.843464
61.235 17.989613
61.240 17.743618
61.245 17.512985
61.250 17.529839
61.255 17.764414
61.260 17.668888
61.265 16.489187
61.270 16.595972
61.275 16.62793
61.280 16.669062
61.285 16.769754
61.290 16.612549
61.295 16.409796
61.300 16.619984
61.305 16.773333
61.310 16.76119
61.315 16.2229
61.320 15.563078
61.325 15.218613
61.330 14.870373
61.335 14.467706
61.340 13.973802
61.345 13.456715
61.350 13.358291
61.355 13.187315
61.360 13.362949
61.365 14.005637
61.370 14.17582
61.375 14.032406
61.380 14.589437
61.385 15.170835
61.390 15.566747
61.395 15.464791
61.400 15.22261
61.405 14.858747
61.410 15.313601
61.415 15.217193
61.420 14.683106
61.425 14.831347
61.430 14.930973
61.435 14.616819
61.440 14.797149
61.445 14.972706
61.450 15.480862
61.455 16.308329
61.460 15.803847
61.465 16.444883
61.470 16.926306
61.475 17.167953
61.480 17.127317
61.485 16.487976
61.490 16.611624
61.495 17.097773
61.500 17.084785
61.505 17.095201
61.510 16.656054
61.515 16.571074
61.520 16.388063
61.525 15.936783
61.530 15.704348
61.535 15.295685
61.540 15.37658
61.545 15.836467
61.550 16.277803
61.555 16.811518
61.560 17.236437
61.565 17.120052
61.570 17.185055
61.575 17.514292
61.580 17.547619
61.585 16.816193
61.590 16.474194
61.595 16.120625
61.600 16.062727
61.605 16.054218
61.610 15.669125
61.615 15.082332
61.620 15.437517
61.625 15.563014
61.630 15.867629
61.635 16.060387
61.640 15.99505
61.645 15.831595
61.650 16.167973
61.655 16.181726
61.660 16.13339
61.665 15.663595
61.670 15.608767
61.675 15.371054
61.680 15.392187
61.685 15.554591
61.690 15.300813
61.695 15.369827
61.700 15.690034
61.705 15.651781
61.710 15.43009
61.715 16.024477
61.720 16.372746
61.725 16.549013
61.730 16.438383
61.735 16.67168
61.740 16.929403
61.745 17.31469
61.750 16.957397
61.755 16.530907
61.760 16.493151
61.765 16.081293
61.770 15.888132
61.775 15.506814
61.780 15.431543
61.785 15.334242
61.790 14.822306
61.795 14.841589
61.800 15.533706
61.805 15.810797
61.810 16.136005
61.815 16.46401
61.820 16.754526
61.825 17.633562
61.830 17.564583
61.835 16.866837
61.840 17.010485
61.845 16.853388
61.850 16.374056
61.855 16.091557
61.860 16.081448
61.865 16.737526
61.870 17.16923
61.875 16.898542
61.880 17.160883
61.885 17.534132
61.890 17.712015
61.895 17.188404
61.900 16.287228
61.905 16.448795
61.910 16.509363
61.915 15.917564
61.920 15.190428
61.925 15.187805
61.930 15.401474
61.935 15.860561
61.940 15.51505
61.945 15.47804
61.950 15.725294
61.955 16.166504
61.960 16.092503
61.965 16.045929
61.970 15.958808
61.975 16.005754
61.980 15.896793
61.985 16.375856
61.990 16.410879
61.995 16.692053
62.000 16.442991
62.005 16.233837
62.010 16.256712
62.015 16.167181
62.020 15.535028
62.025 15.454706
62.030 15.286849
62.035 15.214611
62.040 15.392732
62.045 15.627257
62.050 15.937277
62.055 16.263845
62.060 16.421595
62.065 16.312473
62.070 16.216801
62.075 15.896945
62.080 15.504299
62.085 15.635145
62.090 16.197212
62.095 16.244896
62.100 16.411293
62.105 16.464535
62.110 16.344225
62.115 16.21006
62.120 15.961673
62.125 16.258989
62.130 16.684797
62.135 16.910849
62.140 16.962498
62.145 16.923927
62.150 17.222034
62.155 16.841145
62.160 15.951393
62.165 15.453835
62.170 15.570854
62.175 15.704501
62.180 16.169645
62.185 16.27268
62.190 16.991682
62.195 17.176849
62.200 16.670176
62.205 16.499075
62.210 16.625088
62.215 16.530079
62.220 16.139202
62.225 16.323862
62.230 16.369946
62.235 16.543949
62.240 16.27389
62.245 16.284771
62.250 16.044281
62.255 15.927202
62.260 15.134764
62.265 15.011543
62.270 15.099931
62.275 15.316525
62.280 15.22132
62.285 15.894234
62.290 16.103127
62.295 16.159214
62.300 16.191935
62.305 16.118397
62.310 15.986082
62.315 15.835293
62.320 15.636437
62.325 15.371246
62.330 15.781991
62.335 15.736213
62.340 15.667597
62.345 15.273458
62.350 14.977163
62.355 14.949662
62.360 15.164443
62.365 14.386985
62.370 14.447319
62.375 14.473982
62.380 15.200422
62.385 15.73982
62.390 15.614605
62.395 15.552364
62.400 16.199902
62.405 16.473463
62.410 17.309134
62.415 17.299522
62.420 17.399918
62.425 17.423122
62.430 16.843256
62.435 16.099871
62.440 15.695119
62.445 15.803535
62.450 16.148577
62.455 16.893749
62.460 17.14312
62.465 17.877396
62.470 18.477137
62.475 18.579779
62.480 17.576523
62.485 16.973381
62.490 16.262794
62.495 16.096161
62.500 15.998886
62.505 15.87176
62.510 16.3311
62.515 16.388502
62.520 16.209093
62.525 16.138142
62.530 16.605476
62.535 16.705606
62.540 16.53933
62.545 16.351133
62.550 15.839702
62.555 15.42759
62.560 15.387433
62.565 15.413391
62.570 15.482445
62.575 15.801203
62.580 15.450687
62.585 16.264378
62.590 16.346323
62.595 16.300783
62.600 15.422194
62.605 15.217663
62.610 14.828481
62.615 14.541924
62.620 14.467652
62.625 14.782132
62.630 14.582637
62.635 15.382108
62.640 15.524819
62.645 15.653586
62.650 16.00831
62.655 16.154131
62.660 15.820794
62.665 16.05987
62.670 15.694448
62.675 16.040983
62.680 16.575771
62.685 16.85354
62.690 16.956329
62.695 17.141418
62.700 17.084185
62.705 16.975857
62.710 16.125401
62.715 15.694199
62.720 15.287614
62.725 15.21676
62.730 15.393396
62.735 15.420491
62.740 15.340985
62.745 15.652448
62.750 15.880644
62.755 16.125998
62.760 16.007233
62.765 15.823783
62.770 16.037514
62.775 16.300257
62.780 16.521955
62.785 16.062572
62.790 16.146553
62.795 16.028748
62.800 16.313211
62.805 16.540691
62.810 15.914429
62.815 15.856839
62.820 15.943766
62.825 15.827979
62.830 16.092798
62.835 15.869591
62.840 15.833289
62.845 16.110376
62.850 15.92434
62.855 15.607466
62.860 15.656862
62.865 15.969475
62.870 15.404572
62.875 15.361599
62.880 15.722218
62.885 15.850902
62.890 15.954542
62.895 15.864142
62.900 15.712816
62.905 15.732585
62.910 15.128119
62.915 15.445909
62.920 15.694493
62.925 16.222755
62.930 16.253778
62.935 16.785316
62.940 17.479898
62.945 17.937479
62.950 17.771107
62.955 17.954165
62.960 18.009115
62.965 18.477562
62.970 18.734402
62.975 18.690712
62.980 17.773338
62.985 17.274809
62.990 17.333754
62.995 17.224796
63.000 16.244625
63.005 15.721165
63.010 15.958064
63.015 16.601545
63.020 16.782843
63.025 16.490511
63.030 16.513073
63.035 16.78623
63.040 16.647873
63.045 16.814573
63.050 17.19978
63.055 17.20529
63.060 17.385529
63.065 17.263004
63.070 17.218109
63.075 17.17761
63.080 16.719851
63.085 16.447578
63.090 15.878455
63.095 15.851488
63.100 16.080235
63.105 16.199209
63.110 16.180626
63.115 15.774365
63.120 15.622233
63.125 16.50317
63.130 16.499012
63.135 16.169403
63.140 15.659291
63.145 15.403174
63.150 16.134756
63.155 16.813757
63.160 16.503046
63.165 16.218706
63.170 16.573359
63.175 16.916214
63.180 17.572035
63.185 17.304039
63.190 16.561749
63.195 16.262457
63.200 16.035662
63.205 15.910722
63.210 15.803912
63.215 15.679733
63.220 15.842323
63.225 16.14426
63.230 16.128002
63.235 16.145889
63.240 16.190351
63.245 15.907543
63.250 16.158228
63.255 16.75997
63.260 17.02459
63.265 17.151924
63.270 17.321785
63.275 17.463869
63.280 17.505306
63.285 16.973488
63.290 16.226522
63.295 16.062824
63.300 16.551912
63.305 16.707706
63.310 17.283764
63.315 17.675676
63.320 17.924854
63.325 18.165409
63.330 17.941727
63.335 17.455021
63.340 17.67444
63.345 17.690887
63.350 17.953955
63.355 18.006853
63.360 18.129446
63.365 17.991749
63.370 18.03499
63.375 18.233025
63.380 18.235458
63.385 18.347469
63.390 18.009933
63.395 17.471241
63.400 17.933382
63.405 17.481083
63.410 16.644739
63.415 15.859501
63.420 15.260148
63.425 15.415973
63.430 15.593024
63.435 15.098959
63.440 15.376285
63.445 16.472059
63.450 17.26473
63.455 17.683943
63.460 17.557447
63.465 17.13517
63.470 17.109289
63.475 17.18965
63.480 16.561275
63.485 16.560993
63.490 16.503164
63.495 16.848608
63.500 17.687325
63.505 18.699642
63.510 19.418377
63.515 19.330883
63.520 19.447569
63.525 19.064625
63.530 18.625355
63.535 18.284092
63.540 17.353817
63.545 16.22221
63.550 15.533565
63.555 15.100144
63.560 15.376446
63.565 15.663401
63.570 15.674998
63.575 15.471286
63.580 16.037333
63.585 16.407349
63.590 16.706371
63.595 17.249329
63.600 17.50625
63.605 17.720772
63.610 17.769264
63.615 17.78968
63.620 17.660931
63.625 17.176891
63.630 16.516182
63.635 16.276533
63.640 16.234509
63.645 16.95932
63.650 16.74839
63.655 16.652927
63.660 16.713877
63.665 16.74556
63.670 16.645199
63.675 16.713779
63.680 15.958327
63.685 16.103168
63.690 16.153219
63.695 15.73536
63.700 15.759814
63.705 15.840228
63.710 15.806644
63.715 16.088827
63.720 15.781244
63.725 15.431026
63.730 15.614276
63.735 15.917512
63.740 16.069023
63.745 16.162769
63.750 16.219946
63.755 16.723944
63.760 17.242958
63.765 16.968079
63.770 16.043013
63.775 15.773917
63.780 15.837721
63.785 15.478754
63.790 15.001393
63.795 15.224401
63.800 15.740977
63.805 16.811178
63.810 17.040335
63.815 16.99843
63.820 16.849178
63.825 16.714199
63.830 16.045942
63.835 15.708668
63.840 16.07082
63.845 16.547239
63.850 16.518295
63.855 16.450026
63.860 16.338354
63.865 16.963156
63.870 16.615938
63.875 16.092648
63.880 15.518962
63.885 15.816245
63.890 16.626192
63.895 16.775743
63.900 16.427788
63.905 16.768396
63.910 16.420618
63.915 16.407494
63.920 16.467171
63.925 16.250109
63.930 16.546217
63.935 17.088305
63.940 17.144129
63.945 17.335663
63.950 17.686043
63.955 17.779388
63.960 18.061396
63.965 17.894758
63.970 17.762573
63.975 18.38023
63.980 18.724791
63.985 18.344086
63.990 18.032618
63.995 18.377193
64.000 18.918802
64.005 19.302668
64.010 19.328228
64.015 19.413727
64.020 19.707174
64.025 20.294893
64.030 20.360151
64.035 20.103001
64.040 19.717852
64.045 19.04627
64.050 18.692896
64.055 18.337286
64.060 17.710094
64.065 17.127048
64.070 17.095003
64.075 16.895521
64.080 17.030231
64.085 17.516811
64.090 17.560574
64.095 17.903015
64.100 18.344481
64.105 18.363377
64.110 18.77858
64.115 18.869682
64.120 18.955769
64.125 18.460852
64.130 17.895147
64.135 17.868876
64.140 17.434952
64.145 16.621473
64.150 16.04966
64.155 15.758818
64.160 15.949661
64.165 16.085119
64.170 15.703185
64.175 15.579579
64.180 15.65924
64.185 15.280956
64.190 15.187225
64.195 15.38291
64.200 15.07321
64.205 15.016973
64.210 14.799365
64.215 14.864766
64.220 15.371782
64.225 15.391714
64.230 15.624063
64.235 15.340116
64.240 15.173399
64.245 15.956923
64.250 16.523636
64.255 16.785454
64.260 16.73193
64.265 16.857841
64.270 17.657248
64.275 17.676542
64.280 17.406776
64.285 17.284395
64.290 17.218643
64.295 17.076399
64.300 16.931538
64.305 16.661194
64.310 16.93342
64.315 17.064537
64.320 17.605591
64.325 17.393255
64.330 17.655151
64.335 17.908781
64.340 18.232141
64.345 18.681112
64.350 18.991486
64.355 18.633316
64.360 19.041359
64.365 19.349789
64.370 19.651478
64.375 19.877073
64.380 19.717609
64.385 19.232361
64.390 18.683964
64.395 18.654409
64.400 18.284676
64.405 18.055277
64.410 18.050703
64.415 18.025379
64.420 18.391489
64.425 18.823128
64.430 18.53508
64.435 18.194183
64.440 18.459778
64.445 18.404079
64.450 19.162306
64.455 19.481098
64.460 19.102013
64.465 19.343895
64.470 19.652225
64.475 19.384348
64.480 18.952456
64.485 18.434992
64.490 17.706459
64.495 17.824266
64.500 18.175131
64.505 18.321545
64.510 18.577639
64.515 18.615816
64.520 18.22208
64.525 18.286423
64.530 18.555307
64.535 18.5112
64.540 18.237715
64.545 18.105698
64.550 18.113873
64.555 18.52063
64.560 18.936247
64.565 19.033461
64.570 18.902794
64.575 19.018169
64.580 18.978918
64.585 19.012405
64.590 19.115032
64.595 18.936449
64.600 18.410673
64.605 17.726526
64.610 17.873684
64.615 17.569204
64.620 18.179827
64.625 18.542063
64.630 18.729025
64.635 18.923176
64.640 19.527697
64.645 19.696175
64.650 20.842339
64.655 20.277449
64.660 19.678606
64.665 19.141211
64.670 19.171408
64.675 19.467562
64.680 19.569136
64.685 18.856876
64.690 18.739183
64.695 19.018209
64.700 19.402697
64.705 19.451015
64.710 19.477516
64.715 18.946354
64.720 18.474569
64.725 18.557411
64.730 18.703104
64.735 18.861456
64.740 18.633026
64.745 18.482901
64.750 18.35869
64.755 18.519014
64.760 18.653236
64.765 18.493738
64.770 18.616148
64.775 18.460119
64.780 18.57172
64.785 18.831284
64.790 19.349222
64.795 19.699312
64.800 19.521158
64.805 19.399376
64.810 19.829845
64.815 19.676828
64.820 19.868452
64.825 19.585835
64.830 19.385075
64.835 19.631382
64.840 20.06002
64.845 19.868744
64.850 19.386635
64.855 19.234051
64.860 19.545223
64.865 19.172709
64.870 18.795053
64.875 17.993589
64.880 18.23452
64.885 18.451782
64.890 18.652309
64.895 18.753275
64.900 19.328094
64.905 19.947334
64.910 20.286495
64.915 20.439945
64.920 20.667242
64.925 19.918402
64.930 20.050718
64.935 19.545683
64.940 19.011042
64.945 19.296156
64.950 19.005211
64.955 18.725435
64.960 18.8887
64.965 18.581438
64.970 18.314827
64.975 18.619951
64.980 18.376022
64.985 18.892269
64.990 19.685408
64.995 19.762468
65.000 19.444218
65.005 20.216413
65.010 20.715639
65.015 20.776537
65.020 20.613874
65.025 20.471266
65.030 21.017904
65.035 22.22707
65.040 22.836266
65.045 22.623156
65.050 22.996151
65.055 22.812895
65.060 22.809574
65.065 22.664362
65.070 21.539104
65.075 20.668304
65.080 20.506683
65.085 20.284781
65.090 19.948664
65.095 20.209816
65.100 19.921623
65.105 20.404575
65.110 20.824286
65.115 21.022234
65.120 20.967957
65.125 21.534536
65.130 21.622829
65.135 21.71615
65.140 21.574371
65.145 21.239874
65.150 21.653572
65.155 22.392668
65.160 22.798506
65.165 23.049225
65.170 23.428631
65.175 23.529253
65.180 23.620045
65.185 22.986126
65.190 22.146839
65.195 21.633917
65.200 21.2097
65.205 21.515471
65.210 22.136339
65.215 22.419369
65.220 22.553648
65.225 23.246767
65.230 23.105436
65.235 23.010393
65.240 22.619448
65.245 22.234787
65.250 22.09384
65.255 22.037348
65.260 21.895014
65.265 22.162287
65.270 22.623573
65.275 22.762733
65.280 22.265999
65.285 22.140968
65.290 22.611528
65.295 22.91057
65.300 22.357683
65.305 22.19524
65.310 22.660826
65.315 23.214338
65.320 23.380943
65.325 22.899645
65.330 22.262682
65.335 22.273348
65.340 21.812357
65.345 21.279371
65.350 20.717737
65.355 20.802357
65.360 20.770725
65.365 21.068384
65.370 21.462362
65.375 21.422361
65.380 21.905888
65.385 22.48909
65.390 22.549103
65.395 23.094904
65.400 23.07217
65.405 23.916182
65.410 24.202099
65.415 23.933083
65.420 23.806805
65.425 23.946442
65.430 24.281021
65.435 24.309696
65.440 24.191681
65.445 24.242937
65.450 24.075499
65.455 24.085985
65.460 23.866381
65.465 23.642071
65.470 23.970011
65.475 23.32169
65.480 23.168928
65.485 23.514662
65.490 23.542154
65.495 23.827593
65.500 24.283489
65.505 24.480036
65.510 24.849081
65.515 25.219046
65.520 25.109863
65.525 25.023056
65.530 25.526752
65.535 25.413475
65.540 24.922953
65.545 25.139217
65.550 25.392801
65.555 25.850172
65.560 26.032997
65.565 25.889992
65.570 26.334463
65.575 27.167387
65.580 28.258951
65.585 29.236202
65.590 29.691147
65.595 29.877884
65.600 29.73044
65.605 29.699991
65.610 29.550852
65.615 29.34272
65.620 29.144279
65.625 29.432528
65.630 30.083591
65.635 31.063316
65.640 30.857609
65.645 31.200747
65.650 30.590616
65.655 30.994669
65.660 31.147333
65.665 30.925978
65.670 30.746128
65.675 31.207973
65.680 31.223688
65.685 32.05965
65.690 32.178188
65.695 31.771065
65.700 31.629383
65.705 31.664923
65.710 31.961983
65.715 32.367722
65.720 33.58971
65.725 34.414783
65.730 35.02636
65.735 35.920589
65.740 35.850811
65.745 36.17569
65.750 35.345192
65.755 33.876728
65.760 33.777847
65.765 34.445511
65.770 34.136322
65.775 34.074768
65.780 34.117474
65.785 34.90152
65.790 35.768967
65.795 35.273624
65.800 34.70945
65.805 35.573936
65.810 35.731285
65.815 35.260818
65.820 35.575592
65.825 35.975689
65.830 35.711285
65.835 35.77029
65.840 35.76675
65.845 36.547276
65.850 37.322395
65.855 36.609917
65.860 35.944397
65.865 36.493984
65.870 36.559338
65.875 36.235828
65.880 35.919891
65.885 36.165806
65.890 37.319511
65.895 37.829113
65.900 37.64328
65.905 37.326183
65.910 37.208824
65.915 37.865173
65.920 38.063438
65.925 38.231915
65.930 38.467636
65.935 39.559406
65.940 40.045555
65.945 40.393314
65.950 40.397541
65.955 39.375652
65.960 39.284382
65.965 39.359798
65.970 39.154896
65.975 39.440121
65.980 39.544125
65.985 39.36478
65.990 39.825077
65.995 39.686958
66.000 39.370911
66.005 38.739395
66.010 38.420006
66.015 38.655998
66.020 39.288822
66.025 39.894722
66.030 40.389057
66.035 40.561447
66.040 40.924469
66.045 40.261753
66.050 40.321499
66.055 40.148643
66.060 40.042233
66.065 39.769871
66.070 40.034008
66.075 40.334946
66.080 41.357697
66.085 40.833431
66.090 40.042969
66.095 39.525864
66.100 39.983723
66.105 39.746929
66.110 39.34203
66.115 38.849419
66.120 38.365051
66.125 39.303543
66.130 38.90522
66.135 37.38615
66.140 37.457371
66.145 37.43589
66.150 37.313942
66.155 37.068752
66.160 36.00172
66.165 36.161926
66.170 36.669331
66.175 35.887016
66.180 35.903675
66.185 36.422047
66.190 36.307262
66.195 36.345165
66.200 36.106609
66.205 36.27499
66.210 36.856514
66.215 36.005608
66.220 35.718884
66.225 36.196457
66.230 36.17178
66.235 36.535507
66.240 36.2565
66.245 35.990646
66.250 35.634819
66.255 34.940331
66.260 35.020679
66.265 35.410919
66.270 35.225697
66.275 34.56575
66.280 34.530235
66.285 34.925091
66.290 34.429493
66.295 33.610619
66.300 33.919754
66.305 33.375877
66.310 32.671654
66.315 32.541538
66.320 32.596573
66.325 32.807289
66.330 32.86927
66.335 31.834698
66.340 32.035866
66.345 32.384281
66.350 32.402042
66.355 32.476765
66.360 32.438442
66.365 31.883455
66.370 32.135441
66.375 32.025921
66.380 31.596504
66.385 31.079931
66.390 30.414621
66.395 30.20286
66.400 29.986816
66.405 29.352266
66.410 30.069632
66.415 30.795576
66.420 30.721308
66.425 31.234037
66.430 31.191404
66.435 31.029921
66.440 30.81702
66.445 29.75411
66.450 29.072803
66.455 28.719105
66.460 28.112268
66.465 27.816587
66.470 28.393414
66.475 28.653589
66.480 28.206453
66.485 28.471476
66.490 28.482468
66.495 28.759966
66.500 28.70685
66.505 28.33008
66.510 27.757427
66.515 27.903536
66.520 27.46208
66.525 27.003958
66.530 26.877085
66.535 27.462095
66.540 27.350389
66.545 27.290487
66.550 27.847778
66.555 28.29104
66.560 28.766975
66.565 29.051979
66.570 29.321024
66.575 29.532684
66.580 28.848972
66.585 27.822685
66.590 27.547024
66.595 26.932001
66.600 26.191074
66.605 25.435375
66.610 25.028654
66.615 25.121614
66.620 25.054096
66.625 25.052816
66.630 25.287632
66.635 25.423452
66.640 25.540491
66.645 25.398722
66.650 25.880402
66.655 25.945127
66.660 25.225756
66.665 24.252708
66.670 23.764433
66.675 23.825338
66.680 24.200739
66.685 23.50585
66.690 22.891245
66.695 22.579165
66.700 22.667995
66.705 22.693632
66.710 22.110743
66.715 21.450277
66.720 21.298206
66.725 21.129997
66.730 21.656116
66.735 21.370653
66.740 20.845984
66.745 20.757164
66.750 20.990704
66.755 21.850435
66.760 22.224802
66.765 22.27655
66.770 22.849834
66.775 23.310472
66.780 24.147266
66.785 24.375843
66.790 24.021978
66.795 23.932966
66.800 23.55835
66.805 23.200306
66.810 23.249088
66.815 22.797922
66.820 22.868797
66.825 22.825516
66.830 22.851488
66.835 22.420006
66.840 22.415995
66.845 21.450802
66.850 21.09145
66.855 20.939917
66.860 21.615776
66.865 21.519051
66.870 22.027586
66.875 21.717936
66.880 22.114752
66.885 22.220631
66.890 21.744686
66.895 21.305702
66.900 21.75992
66.905 21.69865
66.910 22.371096
66.915 22.774582
66.920 23.107594
66.925 23.206373
66.930 22.81101
66.935 22.647615
66.940 22.558195
66.945 21.681986
66.950 21.479864
66.955 21.608864
66.960 21.742207
66.965 21.635675
66.970 21.466936
66.975 21.537498
66.980 21.929272
66.985 22.071819
66.990 21.720381
66.995 21.62776
67.000 21.03117
67.005 21.569605
67.010 21.909151
67.015 22.217901
67.020 21.86698
67.025 21.615866
67.030 21.077055
67.035 21.262152
67.040 20.549103
67.045 20.222284
67.050 19.566948
67.055 19.427143
67.060 20.320749
67.065 21.082462
67.070 21.171345
67.075 21.316078
67.080 21.195404
67.085 21.537882
67.090 20.878912
67.095 20.188068
67.100 19.789639
67.105 20.029322
67.110 20.360439
67.115 20.685125
67.120 21.108412
67.125 21.406094
67.130 21.56794
67.135 21.995749
67.140 21.702057
67.145 21.43092
67.150 21.006613
67.155 20.92659
67.160 21.071247
67.165 21.453411
67.170 21.488544
67.175 21.386824
67.180 21.601652
67.185 21.660458
67.190 21.588343
67.195 21.100679
67.200 20.758781
67.205 20.507448
67.210 20.351377
67.215 19.950054
67.220 20.182541
67.225 20.502731
67.230 20.663092
67.235 20.699678
67.240 21.056086
67.245 21.67415
67.250 22.235807
67.255 21.962683
67.260 21.454922
67.265 21.46957
67.270 20.715261
67.275 20.275171
67.280 19.719141
67.285 19.54549
67.290 19.579309
67.295 19.678604
67.300 20.325874
67.305 20.806389
67.310 20.908178
67.315 21.21221
67.320 20.56809
67.325 20.044151
67.330 19.951435
67.335 19.416759
67.340 19.293884
67.345 19.02737
67.350 19.192751
67.355 20.11578
67.360 20.38442
67.365 20.675573
67.370 20.730921
67.375 20.606663
67.380 20.758121
67.385 20.575256
67.390 20.573751
67.395 21.080576
67.400 21.660952
67.405 21.805429
67.410 21.606785
67.415 21.071859
67.420 21.068716
67.425 21.30022
67.430 21.021177
67.435 20.390713
67.440 20.444666
67.445 21.499851
67.450 22.03203
67.455 21.449804
67.460 20.598085
67.465 20.396149
67.470 20.501698
67.475 21.355099
67.480 21.272341
67.485 20.852066
67.490 21.102884
67.495 21.376326
67.500 22.157831
67.505 21.877182
67.510 20.661303
67.515 20.486961
67.520 21.476374
67.525 21.417719
67.530 21.308983
67.535 20.858824
67.540 20.67547
67.545 20.551073
67.550 20.445255
67.555 20.292412
67.560 20.579165
67.565 20.480356
67.570 19.727598
67.575 19.960062
67.580 20.099838
67.585 20.172991
67.590 20.266222
67.595 20.268963
67.600 20.756746
67.605 21.436359
67.610 21.783546
67.615 22.222593
67.620 22.091808
67.625 21.848421
67.630 21.749435
67.635 21.435684
67.640 21.58074
67.645 21.211432
67.650 20.742777
67.655 20.551399
67.660 20.192369
67.665 19.915342
67.670 19.884487
67.675 19.803892
67.680 19.786894
67.685 20.209419
67.690 20.794847
67.695 21.544943
67.700 21.949989
67.705 21.847395
67.710 21.701145
67.715 21.630394
67.720 21.512247
67.725 20.695892
67.730 20.015316
67.735 19.771097
67.740 20.16972
67.745 19.969416
67.750 19.978777
67.755 19.971327
67.760 20.596956
67.765 20.632523
67.770 21.101513
67.775 21.050472
67.780 21.502012
67.785 21.838972
67.790 21.900848
67.795 22.112766
67.800 22.900362
67.805 22.775616
67.810 22.752966
67.815 23.125196
67.820 23.072325
67.825 22.81251
67.830 22.48217
67.835 21.722477
67.840 21.144302
67.845 20.653221
67.850 20.375938
67.855 20.017601
67.860 19.918495
67.865 19.863489
67.870 19.830032
67.875 20.301672
67.880 19.991468
67.885 19.65906
67.890 19.79941
67.895 20.061216
67.900 20.002506
67.905 19.887577
67.910 20.029694
67.915 20.867161
67.920 20.671633
67.925 20.730795
67.930 20.171471
67.935 19.476381
67.940 19.564939
67.945 19.503977
67.950 18.78108
67.955 19.362959
67.960 19.184982
67.965 19.808325
67.970 20.496521
67.975 20.770571
67.980 20.483385
67.985 20.912092
67.990 20.771456
67.995 21.059097
68.000 20.923677
68.005 20.917114
68.010 20.234629
68.015 19.877108
68.020 19.946121
68.025 20.197941
68.030 20.203163
68.035 20.831322
68.040 21.151979
68.045 22.120991
68.050 22.632633
68.055 22.108536
68.060 21.548767
68.065 21.462812
68.070 20.836527
68.075 20.721466
68.080 20.270189
68.085 20.562344
68.090 20.558977
68.095 20.857141
68.100 20.848602
68.105 20.644567
68.110 21.030083
68.115 21.206207
68.120 21.287935
68.125 21.255423
68.130 21.216692
68.135 21.204781
68.140 20.35857
68.145 19.477236
68.150 19.096678
68.155 18.807264
68.160 18.647228
68.165 18.308512
68.170 18.269266
68.175 19.279493
68.180 19.92001
68.185 20.421198
68.190 20.637972
68.195 20.82943
68.200 20.636446
68.205 20.650047
68.210 21.114998
68.215 21.064478
68.220 21.113892
68.225 20.865347
68.230 20.92907
68.235 21.109812
68.240 21.211435
68.245 21.249489
68.250 20.915836
68.255 20.954161
68.260 21.272551
68.265 21.59457
68.270 22.186621
68.275 21.460773
68.280 20.244341
68.285 20.463701
68.290 20.011906
68.295 19.423368
68.300 19.233551
68.305 18.98699
68.310 19.682001
68.315 20.538389
68.320 20.68412
68.325 21.241835
68.330 21.668015
68.335 20.91238
68.340 20.728724
68.345 20.530573
68.350 20.003033
68.355 19.336805
68.360 19.262341
68.365 19.821499
68.370 20.274469
68.375 20.647366
68.380 21.176413
68.385 22.346746
68.390 22.94368
68.395 22.84277
68.400 22.424295
68.405 22.324184
68.410 22.242319
68.415 21.502073
68.420 20.601887
68.425 20.351328
68.430 19.996174
68.435 19.960886
68.440 20.179277
68.445 20.29493
68.450 19.954346
68.455 19.855579
68.460 19.60486
68.465 19.485714
68.470 19.141188
68.475 18.892857
68.480 19.012363
68.485 19.751663
68.490 19.750561
68.495 20.380854
68.500 20.813749
68.505 21.453381
68.510 21.038527
68.515 20.418335
68.520 19.930016
68.525 19.400826
68.530 18.299133
68.535 18.259453
68.540 18.248138
68.545 19.14922
68.550 19.665899
68.555 19.777901
68.560 20.386152
68.565 20.548166
68.570 20.213036
68.575 20.185005
68.580 19.83676
68.585 19.259909
68.590 19.359085
68.595 19.372782
68.600 20.204599
68.605 20.370661
68.610 20.026024
68.615 19.693312
68.620 20.011873
68.625 19.887733
68.630 19.649359
68.635 20.087887
68.640 20.675781
68.645 21.101141
68.650 21.460037
68.655 21.552753
68.660 21.867813
68.665 22.116949
68.670 21.583853
68.675 21.58304
68.680 21.4254
68.685 21.612963
68.690 21.312811
68.695 21.421974
68.700 21.623003
68.705 21.656603
68.710 21.24637
68.715 21.492098
68.720 21.72274
68.725 23.130177
68.730 23.394152
68.735 23.223221
68.740 23.038284
68.745 23.126717
68.750 23.010361
68.755 22.445629
68.760 21.368849
68.765 21.619993
68.770 21.484604
68.775 21.568579
68.780 21.150715
68.785 21.043688
68.790 21.645824
68.795 21.975506
68.800 21.842651
68.805 21.300529
68.810 21.444902
68.815 21.739271
68.820 21.874411
68.825 21.653433
68.830 21.338057
68.835 21.232979
68.840 21.986835
68.845 22.253698
68.850 22.387396
68.855 22.468466
68.860 22.125919
68.865 21.965227
68.870 22.121542
68.875 21.931814
68.880 22.058146
68.885 21.981514
68.890 22.003372
68.895 22.643047
68.900 22.98941
68.905 23.041815
68.910 22.292849
68.915 22.548508
68.920 22.688316
68.925 22.748997
68.930 22.209923
68.935 21.668081
68.940 21.456999
68.945 21.802536
68.950 21.374838
68.955 21.335861
68.960 21.382843
68.965 22.019146
68.970 22.60006
68.975 22.616993
68.980 23.102175
68.985 23.027981
68.990 23.02029
68.995 23.438997
69.000 24.104809
69.005 24.326269
69.010 24.878193
69.015 24.872652
69.020 24.804199
69.025 24.929312
69.030 24.238586
69.035 23.590382
69.040 23.253199
69.045 22.399971
69.050 21.791172
69.055 22.101675
69.060 22.088074
69.065 22.112631
69.070 21.981237
69.075 21.710032
69.080 22.032436
69.085 22.714975
69.090 22.776215
69.095 22.627293
69.100 22.990559
69.105 24.155766
69.110 24.812933
69.115 25.36692
69.120 25.652952
69.125 25.574949
69.130 26.405293
69.135 26.539007
69.140 26.349625
69.145 26.829964
69.150 26.866093
69.155 26.438717
69.160 26.807203
69.165 25.852247
69.170 25.782555
69.175 25.660305
69.180 25.50169
69.185 26.109301
69.190 26.338421
69.195 25.920555
69.200 25.704576
69.205 25.240555
69.210 24.779325
69.215 24.143183
69.220 23.320145
69.225 23.062908
69.230 23.532181
69.235 24.156336
69.240 24.345356
69.245 25.051689
69.250 25.625626
69.255 26.28163
69.260 26.8221
69.265 27.149162
69.270 27.580132
69.275 27.735439
69.280 27.632498
69.285 27.848822
69.290 27.61829
69.295 27.533329
69.300 27.265135
69.305 27.183086
69.310 27.612471
69.315 26.911373
69.320 25.868118
69.325 25.747814
69.330 26.00395
69.335 25.80934
69.340 25.391758
69.345 25.617781
69.350 26.721548
69.355 27.196123
69.360 27.446222
69.365 27.465303
69.370 28.055922
69.375 28.295519
69.380 28.011417
69.385 27.665813
69.390 28.386318
69.395 28.035589
69.400 27.710205
69.405 27.214796
69.410 26.778645
69.415 26.866852
69.420 26.764816
69.425 26.274668
69.430 26.524107
69.435 27.270277
69.440 28.365232
69.445 29.364946
69.450 30.20966
69.455 31.409447
69.460 32.188328
69.465 32.737122
69.470 32.441738
69.475 32.07444
69.480 31.841444
69.485 31.49424
69.490 31.142982
69.495 30.860147
69.500 30.396168
69.505 30.291777
69.510 30.315512
69.515 30.547144
69.520 30.552267
69.525 30.401276
69.530 30.431433
69.535 29.912357
69.540 29.929117
69.545 29.758692
69.550 29.62591
69.555 29.636703
69.560 29.772308
69.565 29.829319
69.570 30.873966
69.575 30.718599
69.580 30.373957
69.585 30.135468
69.590 30.052559
69.595 29.537012
69.600 29.384531
69.605 28.564945
69.610 28.889254
69.615 28.903437
69.620 29.254745
69.625 29.255875
69.630 29.098141
69.635 28.790016
69.640 29.627756
69.645 29.636494
69.650 30.091595
69.655 28.959694
69.660 28.19828
69.665 28.75289
69.670 29.258739
69.675 29.070824
69.680 28.627306
69.685 28.637224
69.690 29.138149
69.695 28.852301
69.700 28.593243
69.705 27.654369
69.710 27.200584
69.715 27.118389
69.720 26.544844
69.725 26.618689
69.730 27.23317
69.735 26.764135
69.740 26.999138
69.745 27.822634
69.750 27.945019
69.755 27.924198
69.760 28.787262
69.765 28.04151
69.770 28.234852
69.775 27.655975
69.780 26.644646
69.785 26.886093
69.790 26.955246
69.795 26.401348
69.800 26.192987
69.805 25.715816
69.810 26.390388
69.815 26.8578
69.820 26.400778
69.825 26.087
69.830 26.544767
69.835 27.480919
69.840 27.804066
69.845 27.146862
69.850 26.783283
69.855 26.568541
69.860 25.969101
69.865 25.332472
69.870 24.435902
69.875 23.946955
69.880 23.850275
69.885 24.333385
69.890 24.694353
69.895 25.111855
69.900 25.110191
69.905 25.678411
69.910 25.678951
69.915 25.845514
69.920 25.257164
69.925 24.841486
69.930 24.368109
69.935 24.337183
69.940 23.970255
69.945 23.733908
69.950 23.464363
69.955 23.423426
69.960 23.63542
69.965 23.435066
69.970 22.85128
69.975 22.791119
69.980 22.203434
69.985 21.649147
69.990 22.04694
69.995 22.019001
70.000 22.121923
70.005 21.848097
70.010 22.371122
70.015 22.410288
70.020 21.95606
70.025 21.305969
70.030 21.432251
70.035 21.243763
70.040 21.145386
70.045 20.360744
70.050 20.527555
70.055 20.449362
70.060 19.894844
70.065 19.843281
70.070 20.193226
70.075 20.085596
70.080 20.084982
70.085 19.898676
70.090 20.428608
70.095 21.202812
70.100 20.432961
70.105 20.002983
70.110 20.072065
70.115 20.63455
70.120 21.072538
70.125 20.779902
70.130 20.354485
70.135 20.796429
70.140 20.813601
70.145 20.947634
70.150 21.076715
70.155 21.175535
70.160 21.156668
70.165 20.868057
70.170 20.967627
70.175 20.721813
70.180 20.268919
70.185 20.417606
70.190 20.60763
70.195 20.006355
70.200 20.132429
70.205 20.032099
70.210 20.721386
70.215 21.132334
70.220 20.201429
70.225 19.770473
70.230 19.855618
70.235 20.060699
70.240 19.92399
70.245 19.446882
70.250 18.670149
70.255 19.402403
70.260 20.078684
70.265 20.469326
70.270 19.68675
70.275 18.966646
70.280 19.454208
70.285 19.681414
70.290 18.966097
70.295 18.439449
70.300 18.892601
70.305 19.364937
70.310 20.097111
70.315 19.818886
70.320 19.370499
70.325 19.871994
70.330 20.19618
70.335 19.926357
70.340 19.804367
70.345 19.124479
70.350 19.32959
70.355 19.527361
70.360 19.007566
70.365 18.957535
70.370 19.062567
70.375 19.53862
70.380 20.190914
70.385 20.314093
70.390 20.714476
70.395 21.116903
70.400 21.179811
70.405 20.654598
70.410 20.517342
70.415 20.419834
70.420 20.225168
70.425 19.913616
70.430 19.707438
70.435 19.26573
70.440 19.841873
70.445 19.259253
70.450 19.275295
70.455 19.495653
70.460 19.428818
70.465 19.4795
70.470 19.741453
70.475 19.724821
70.480 20.338701
70.485 19.915901
70.490 19.993317
70.495 19.5142
70.500 19.367224
70.505 19.359798
70.510 19.167027
70.515 18.642195
70.520 18.48395
70.525 18.638531
70.530 19.3386
70.535 19.611761
70.540 19.329498
70.545 19.262646
70.550 19.349995
70.555 19.354513
70.560 18.737295
70.565 18.84161
70.570 18.887411
70.575 19.028406
70.580 19.77651
70.585 19.684517
70.590 19.367254
70.595 20.164333
70.600 20.312122
70.605 19.941401
70.610 19.503023
70.615 19.109846
70.620 19.135838
70.625 19.751955
70.630 19.549416
70.635 18.743137
70.640 19.013184
70.645 19.105011
70.650 18.931114
70.655 19.594795
70.660 19.355188
70.665 19.149744
70.670 19.093864
70.675 19.037962
70.680 18.985567
70.685 18.704208
70.690 17.98118
70.695 17.800152
70.700 18.062178
70.705 18.745562
70.710 18.89146
70.715 19.164097
70.720 19.431034
70.725 19.717085
70.730 19.690008
70.735 19.240808
70.740 19.094152
70.745 18.501602
70.750 18.108547
70.755 18.235579
70.760 18.396912
70.765 18.991764
70.770 19.320557
70.775 19.375933
70.780 20.369619
70.785 20.580986
70.790 20.88452
70.795 20.687775
70.800 20.113447
70.805 19.707308
70.810 19.121199
70.815 18.946539
70.820 19.01149
70.825 18.692177
70.830 18.420401
70.835 18.736174
70.840 18.963495
70.845 19.309921
70.850 18.97294
70.855 18.589714
70.860 18.217316
70.865 18.12084
70.870 17.752338
70.875 17.561501
70.880 17.152374
70.885 17.620195
70.890 17.988024
70.895 18.569548
70.900 19.022646
70.905 19.816364
70.910 20.020527
70.915 20.723196
70.920 19.837553
70.925 19.472435
70.930 18.901503
70.935 17.70458
70.940 17.436903
70.945 17.698252
70.950 17.651274
70.955 18.002972
70.960 18.099707
70.965 18.901127
70.970 19.489685
70.975 19.097431
70.980 18.779718
70.985 18.421997
70.990 18.208412
70.995 18.461
71.000 18.844049
71.005 18.937632
71.010 18.926641
71.015 19.102015
71.020 19.086805
71.025 19.156963
71.030 19.018908
71.035 18.940594
71.040 18.951023
71.045 19.505018
71.050 19.675076
71.055 19.758598
71.060 19.761751
71.065 19.003407
71.070 18.581995
71.075 18.103622
71.080 17.396486
71.085 17.621798
71.090 17.956293
71.095 18.207567
71.100 18.956865
71.105 18.971846
71.110 19.187
71.115 19.148268
71.120 19.100513
71.125 19.282053
71.130 19.250404
71.135 19.021162
71.140 19.414095
71.145 19.5441
71.150 19.922337
71.155 19.824852
71.160 19.902273
71.165 19.421425
71.170 19.165815
71.175 19.060873
71.180 19.010723
71.185 18.891727
71.190 18.826153
71.195 19.055359
71.200 19.485531
71.205 19.442274
71.210 19.53618
71.215 19.838175
71.220 20.023964
71.225 19.346052
71.230 19.449186
71.235 19.949409
71.240 20.239538
71.245 19.795135
71.250 19.297262
71.255 19.333479
71.260 19.142422
71.265 19.288097
71.270 19.130243
71.275 19.129766
71.280 19.024088
71.285 19.284655
71.290 19.159174
71.295 19.094851
71.300 18.522707
71.305 18.811508
71.310 19.016596
71.315 18.710432
71.320 18.833557
71.325 18.892271
71.330 18.397451
71.335 17.862516
71.340 16.67186
71.345 16.718798
71.350 17.084679
71.355 16.993357
71.360 17.034151
71.365 17.197079
71.370 17.176493
71.375 17.488514
71.380 17.247477
71.385 17.411604
71.390 16.805819
71.395 16.78351
71.400 16.531521
71.405 16.936211
71.410 17.778002
71.415 17.674501
71.420 17.698442
71.425 17.94795
71.430 17.827593
71.435 18.448269
71.440 18.207867
71.445 17.550505
71.450 17.359293
71.455 17.106588
71.460 17.421415
71.465 17.573702
71.470 17.667871
71.475 17.414364
71.480 18.089037
71.485 18.863401
71.490 19.679193
71.495 20.119577
71.500 20.454338
71.505 20.665197
71.510 20.582947
71.515 20.017359
71.520 19.796928
71.525 19.218302
71.530 18.985048
71.535 18.624514
71.540 18.669741
71.545 18.590467
71.550 18.531521
71.555 18.404682
71.560 18.317387
71.565 17.928429
71.570 17.209581
71.575 16.702135
71.580 16.631247
71.585 16.631096
71.590 17.329203
71.595 17.467566
71.600 17.627394
71.605 17.911406
71.610 18.129839
71.615 18.496616
71.620 18.28681
71.625 17.84907
71.630 18.131189
71.635 18.807476
71.640 19.547916
71.645 19.116798
71.650 18.948259
71.655 18.647024
71.660 18.67712
71.665 18.474539
71.670 18.030272
71.675 17.935972
71.680 18.550907
71.685 18.478901
71.690 18.624819
71.695 18.08886
71.700 18.106146
71.705 18.008894
71.710 17.804054
71.715 17.659222
71.720 17.726597
71.725 17.444664
71.730 17.431543
71.735 17.139622
71.740 17.707661
71.745 18.215439
71.750 17.736897
71.755 17.771023
71.760 18.392683
71.765 18.886621
71.770 19.31134
71.775 19.041962
71.780 18.81778
71.785 19.373404
71.790 19.224815
71.795 18.956059
71.800 19.064072
71.805 19.017717
71.810 18.99762
71.815 18.866812
71.820 18.589163
71.825 18.897907
71.830 18.377924
71.835 17.862381
71.840 17.616585
71.845 17.363787
71.850 16.897968
71.855 16.652611
71.860 16.756124
71.865 17.408699
71.870 17.580265
71.875 17.499102
71.880 18.220688
71.885 19.056389
71.890 19.235123
71.895 19.170965
71.900 19.080215
71.905 19.379906
71.910 19.602751
71.915 19.421061
71.920 19.520548
71.925 19.642708
71.930 19.325733
71.935 18.882105
71.940 18.931149
71.945 19.421844
71.950 18.855675
71.955 18.387878
71.960 18.226099
71.965 18.57086
71.970 18.419209
71.975 17.408949
71.980 16.472397
71.985 16.461157
71.990 16.25379
71.995 16.130657
72.000 16.342623
72.005 16.683979
72.010 17.191786
72.015 17.923443
72.020 18.060978
72.025 18.603189
72.030 18.84906
72.035 19.165279
72.040 18.956051
72.045 18.725384
72.050 18.641617
72.055 19.366585
72.060 19.217789
72.065 18.952063
72.070 18.626572
72.075 18.525299
72.080 18.247938
72.085 18.548117
72.090 18.077221
72.095 18.55035
72.100 18.413929
72.105 18.33198
72.110 18.414787
72.115 18.741562
72.120 18.217915
72.125 18.519154
72.130 18.505299
72.135 18.746145
72.140 18.969341
72.145 19.04446
72.150 19.062004
72.155 18.974073
72.160 18.82613
72.165 18.572565
72.170 18.536457
72.175 18.680225
72.180 18.447886
72.185 18.611887
72.190 18.572592
72.195 18.062576
72.200 18.165945
72.205 17.961393
72.210 17.637577
72.215 17.292604
72.220 16.784235
72.225 16.246962
72.230 16.532917
72.235 16.507702
72.240 16.307213
72.245 16.515245
72.250 17.208799
72.255 17.757832
72.260 17.986328
72.265 18.03701
72.270 17.735853
72.275 18.382036
72.280 18.690306
72.285 18.265041
72.290 18.46092
72.295 18.488499
72.300 18.648718
72.305 18.820057
72.310 18.790426
72.315 18.676413
72.320 18.419868
72.325 18.100199
72.330 18.283314
72.335 18.498915
72.340 18.096737
72.345 17.663298
72.350 17.723448
72.355 17.758404
72.360 17.72086
72.365 17.696659
72.370 17.547434
72.375 17.820238
72.380 18.110914
72.385 18.126289
72.390 18.278959
72.395 18.438778
72.400 18.296242
72.405 18.498211
72.410 18.640512
72.415 18.450798
72.420 18.403231
72.425 17.926682
72.430 17.429962
72.435 17.305687
72.440 17.143261
72.445 17.194786
72.450 17.056818
72.455 16.442337
72.460 16.386213
72.465 16.525076
72.470 17.110788
72.475 16.710171
72.480 16.569618
72.485 17.730408
72.490 18.974913
72.495 19.243032
72.500 19.055668
72.505 19.16634
72.510 19.344398
72.515 19.131454
72.520 18.950571
72.525 18.65843
72.530 18.203764
72.535 18.138521
72.540 17.96821
72.545 18.161957
72.550 18.115978
72.555 18.019699
72.560 18.418289
72.565 18.734545
72.570 18.139311
72.575 17.984465
72.580 18.136683
72.585 18.503647
72.590 17.882528
72.595 17.312149
72.600 17.187962
72.605 18.102749
72.610 17.752127
72.615 16.913652
72.620 16.707569
72.625 17.245325
72.630 17.552105
72.635 17.63019
72.640 17.445198
72.645 18.012545
72.650 18.216394
72.655 18.036608
72.660 18.086489
72.665 18.532299
72.670 18.453033
72.675 18.05122
72.680 17.510366
72.685 17.219503
72.690 16.979053
72.695 16.834021
72.700 16.339846
72.705 16.516443
72.710 17.055836
72.715 17.285389
72.720 17.573181
72.725 17.692423
72.730 18.233582
72.735 18.002214
72.740 18.194756
72.745 17.794077
72.750 18.069714
72.755 17.902666
72.760 18.024542
72.765 17.744204
72.770 17.510992
72.775 17.810108
72.780 17.660896
72.785 17.534122
72.790 17.304804
72.795 16.84199
72.800 16.901613
72.805 17.312464
72.810 17.202045
72.815 17.551466
72.820 17.258089
72.825 16.687468
72.830 16.224354
72.835 16.249292
72.840 16.217543
72.845 16.077848
72.850 15.542376
72.855 15.5081
72.860 16.318298
72.865 16.460615
72.870 16.607573
72.875 16.36203
72.880 16.459591
72.885 16.997244
72.890 17.178595
72.895 17.051596
72.900 17.030127
72.905 16.68775
72.910 16.831448
72.915 16.911999
72.920 16.806372
72.925 16.81221
72.930 16.980396
72.935 17.008976
72.940 17.03545
72.945 16.553677
72.950 16.434992
72.955 16.170444
72.960 16.080408
72.965 16.304691
72.970 16.146502
72.975 16.427675
72.980 16.545023
72.985 16.4746
72.990 17.255499
72.995 16.725044
73.000 16.499214
