!@!!GADDS PLOTSO FILE: Chi integration type
!@!!Title/SampleName: map-5d
!@!!Comment: ?
!@!!User: Bruker Instrument Administrator
!@!!Site: University of Illinois Chicago
!@!!Frame: map-5d_01_000.gfrm
!@!!Wavelengths    1.54184   1.54056   1.54439
!@!!Frame angles: 2Theta: 63.000 Omega: 50.000 Phi: 0.000 Chi: 90.000
!@!!Integration range: 2Theta: 53.000 to 73.000  Gamma: -105.000 to -75.000
!@!!Integration method: bin normalized
!@!N
!@!SS
!@!M
!@!L 0.0 0.0 0.0 0.0
!@!XDegrees
!@!YCounts
53.000 8.666619
53.005 8.452594
53.010 8.398121
53.015 8.275113
53.020 8.69613
53.025 9.063086
53.030 9.040838
53.035 9.085979
53.040 9.063301
53.045 9.473245
53.050 9.487819
53.055 8.885571
53.060 8.557
53.065 8.836625
53.070 8.618168
53.075 8.68433
53.080 8.779222
53.085 9.02112
53.090 9.234357
53.095 9.306164
53.100 9.072471
53.105 9.177956
53.110 9.11978
53.115 8.925797
53.120 8.504226
53.125 8.226701
53.130 8.224486
53.135 8.282742
53.140 8.559843
53.145 8.662359
53.150 9.08269
53.155 9.735997
53.160 9.674941
53.165 9.325734
53.170 9.078053
53.175 8.779463
53.180 8.778657
53.185 9.03269
53.190 8.84897
53.195 9.074775
53.200 9.602408
53.205 9.807467
53.210 9.815659
53.215 9.44909
53.220 9.396955
53.225 9.47464
53.230 9.267316
53.235 9.111233
53.240 8.958944
53.245 9.27549
53.250 9.441613
53.255 9.411475
53.260 9.475647
53.265 10.076707
53.270 10.084093
53.275 9.987219
53.280 9.796591
53.285 9.443405
53.290 9.360093
53.295 9.304593
53.300 9.211749
53.305 9.054546
53.310 9.156247
53.315 9.200434
53.320 9.098089
53.325 9.173441
53.330 8.636662
53.335 8.493721
53.340 8.449314
53.345 8.250099
53.350 8.512725
53.355 8.457074
53.360 7.981305
53.365 8.465491
53.370 8.841245
53.375 8.892589
53.380 9.166486
53.385 8.995621
53.390 9.597177
53.395 10.001615
53.400 9.282566
53.405 8.713359
53.410 8.501791
53.415 8.078779
53.420 7.783575
53.425 7.475168
53.430 7.988282
53.435 8.568805
53.440 9.100463
53.445 9.493692
53.450 9.752594
53.455 10.021924
53.460 9.923587
53.465 9.978909
53.470 9.876482
53.475 9.847149
53.480 9.786438
53.485 9.869182
53.490 9.473914
53.495 9.242122
53.500 9.143843
53.505 9.249615
53.510 8.930943
53.515 8.459103
53.520 9.059694
53.525 9.107024
53.530 9.160499
53.535 9.588327
53.540 10.232581
53.545 10.614787
53.550 11.031154
53.555 10.825124
53.560 11.356081
53.565 11.162523
53.570 10.436338
53.575 10.200443
53.580 10.536551
53.585 10.100474
53.590 9.735691
53.595 9.66521
53.600 9.74369
53.605 10.03345
53.610 10.045935
53.615 9.615065
53.620 9.808928
53.625 10.153475
53.630 9.983364
53.635 10.292118
53.640 10.684647
53.645 10.912618
53.650 11.613818
53.655 11.78349
53.660 11.637348
53.665 11.094628
53.670 10.5619
53.675 10.00696
53.680 9.680231
53.685 9.631366
53.690 9.433632
53.695 9.604409
53.700 10.244469
53.705 10.391259
53.710 10.509362
53.715 10.349925
53.720 10.22174
53.725 10.091728
53.730 10.41862
53.735 9.857915
53.740 9.713444
53.745 9.915742
53.750 10.128745
53.755 9.83707
53.760 9.843973
53.765 9.593277
53.770 9.664909
53.775 9.348835
53.780 8.965447
53.785 8.62149
53.790 8.784057
53.795 8.901521
53.800 9.154681
53.805 9.366021
53.810 9.842789
53.815 10.03371
53.820 10.257701
53.825 10.259651
53.830 10.165615
53.835 9.815282
53.840 9.494709
53.845 9.205188
53.850 9.212246
53.855 9.270154
53.860 9.191304
53.865 9.105172
53.870 9.250784
53.875 9.538177
53.880 9.917941
53.885 10.147141
53.890 10.369587
53.895 10.548961
53.900 11.034155
53.905 11.846029
53.910 11.742192
53.915 10.918059
53.920 10.745845
53.925 11.060698
53.930 11.022365
53.935 10.45802
53.940 9.703634
53.945 10.017605
53.950 10.333644
53.955 9.833689
53.960 9.75339
53.965 10.025229
53.970 10.202003
53.975 10.144942
53.980 10.119467
53.985 10.390173
53.990 10.523866
53.995 10.385175
54.000 10.441634
54.005 10.864895
54.010 11.016842
54.015 10.846464
54.020 10.97674
54.025 10.844259
54.030 11.350565
54.035 11.523552
54.040 11.560556
54.045 11.920931
54.050 11.87921
54.055 11.83342
54.060 11.784826
54.065 11.339761
54.070 11.110446
54.075 10.704525
54.080 10.643713
54.085 11.052812
54.090 10.964789
54.095 10.93912
54.100 11.493644
54.105 11.430682
54.110 11.622453
54.115 11.296865
54.120 10.859495
54.125 10.878853
54.130 10.566827
54.135 10.316187
54.140 10.173292
54.145 9.54059
54.150 9.522283
54.155 9.568377
54.160 9.70424
54.165 9.55567
54.170 9.598
54.175 10.458839
54.180 10.875488
54.185 10.830332
54.190 10.82509
54.195 10.917419
54.200 11.489023
54.205 11.141325
54.210 10.907269
54.215 10.955669
54.220 10.802415
54.225 10.729847
54.230 10.235302
54.235 10.245883
54.240 10.087974
54.245 9.678733
54.250 9.539225
54.255 9.906829
54.260 10.290846
54.265 10.411242
54.270 10.536436
54.275 10.78519
54.280 11.41034
54.285 11.625631
54.290 11.241901
54.295 11.27287
54.300 11.225051
54.305 10.770698
54.310 10.367428
54.315 9.932224
54.320 10.27304
54.325 10.687863
54.330 10.301438
54.335 10.262679
54.340 10.80502
54.345 11.552732
54.350 11.516227
54.355 11.296382
54.360 11.300094
54.365 11.463177
54.370 11.996099
54.375 11.954991
54.380 11.885401
54.385 11.822524
54.390 11.788636
54.395 11.959671
54.400 11.646358
54.405 10.914942
54.410 10.458342
54.415 10.322187
54.420 10.20683
54.425 9.761055
54.430 9.757666
54.435 9.738857
54.440 9.68642
54.445 9.986521
54.450 9.669552
54.455 9.830584
54.460 9.631124
54.465 9.62079
54.470 9.798206
54.475 9.942187
54.480 10.158331
54.485 10.236073
54.490 10.153369
54.495 10.543895
54.500 10.902382
54.505 11.056752
54.510 10.853022
54.515 10.984186
54.520 11.576045
54.525 11.908413
54.530 11.852495
54.535 11.591078
54.540 11.734589
54.545 11.609793
54.550 10.712295
54.555 10.260686
54.560 10.394438
54.565 10.623584
54.570 10.597171
54.575 10.41284
54.580 10.71039
54.585 11.238969
54.590 11.258454
54.595 10.910757
54.600 10.771482
54.605 10.75176
54.610 10.614209
54.615 10.601105
54.620 10.746518
54.625 10.19418
54.630 9.821934
54.635 10.03794
54.640 10.296098
54.645 10.417921
54.650 10.153143
54.655 10.126389
54.660 10.98903
54.665 11.203247
54.670 11.361019
54.675 10.847354
54.680 10.531946
54.685 10.905454
54.690 11.095884
54.695 10.979132
54.700 10.682651
54.705 10.704164
54.710 10.910054
54.715 11.561757
54.720 11.545961
54.725 11.202776
54.730 11.378728
54.735 11.760326
54.740 11.750342
54.745 11.590672
54.750 10.841709
54.755 10.584669
54.760 10.722488
54.765 10.654984
54.770 10.839868
54.775 10.980326
54.780 11.62561
54.785 11.885078
54.790 12.236319
54.795 12.473104
54.800 12.385895
54.805 11.868196
54.810 11.784397
54.815 12.024459
54.820 12.286444
54.825 12.429758
54.830 12.770214
54.835 12.914155
54.840 12.889346
54.845 12.254315
54.850 11.827488
54.855 11.4177
54.860 10.837016
54.865 10.794444
54.870 10.417696
54.875 10.546188
54.880 11.153657
54.885 11.159622
54.890 11.716348
54.895 11.737206
54.900 11.010565
54.905 11.011411
54.910 11.028658
54.915 10.927716
54.920 11.029113
54.925 10.716324
54.930 10.580523
54.935 10.880809
54.940 11.066313
54.945 10.839714
54.950 11.069781
54.955 11.099077
54.960 11.104753
54.965 11.09234
54.970 10.78903
54.975 10.377898
54.980 10.488973
54.985 10.221056
54.990 10.314492
54.995 10.438107
55.000 10.698457
55.005 11.557382
55.010 12.034698
55.015 12.063472
55.020 12.421861
55.025 12.612124
55.030 12.76756
55.035 12.88864
55.040 12.353866
55.045 12.461481
55.050 12.741681
55.055 12.26746
55.060 12.295667
55.065 12.126453
55.070 12.102884
55.075 12.738936
55.080 12.515706
55.085 12.541651
55.090 12.51949
55.095 12.300523
55.100 11.837914
55.105 11.940974
55.110 11.831573
55.115 12.172043
55.120 12.349653
55.125 11.935865
55.130 11.975767
55.135 12.384279
55.140 12.140856
55.145 11.832736
55.150 11.787813
55.155 11.771787
55.160 12.179604
55.165 12.21225
55.170 11.841482
55.175 12.322179
55.180 11.946668
55.185 11.571071
55.190 11.111174
55.195 10.816781
55.200 11.127262
55.205 10.719508
55.210 10.559869
55.215 11.389618
55.220 11.575493
55.225 11.989391
55.230 12.16447
55.235 11.928234
55.240 11.89845
55.245 11.705029
55.250 11.139802
55.255 11.10094
55.260 10.953941
55.265 11.221053
55.270 11.603177
55.275 11.699224
55.280 11.530052
55.285 11.699914
55.290 12.086554
55.295 11.825815
55.300 11.72348
55.305 11.636149
55.310 11.803701
55.315 11.878718
55.320 11.478284
55.325 10.996478
55.330 11.146954
55.335 11.574198
55.340 11.815091
55.345 11.731546
55.350 11.659712
55.355 11.563272
55.360 11.545717
55.365 11.245004
55.370 10.810047
55.375 10.667765
55.380 10.666399
55.385 10.731919
55.390 10.961196
55.395 10.899453
55.400 10.624267
55.405 10.331407
55.410 10.940993
55.415 11.18942
55.420 11.070745
55.425 11.352088
55.430 11.415797
55.435 12.047435
55.440 12.34656
55.445 11.686625
55.450 11.620415
55.455 12.225298
55.460 12.373219
55.465 12.127778
55.470 11.738268
55.475 11.582102
55.480 11.809895
55.485 11.450279
55.490 10.884539
55.495 10.411055
55.500 10.915519
55.505 11.3539
55.510 11.453917
55.515 11.541339
55.520 11.923026
55.525 12.303088
55.530 12.297597
55.535 12.588018
55.540 12.235075
55.545 12.093271
55.550 11.935428
55.555 11.420375
55.560 11.366371
55.565 11.607811
55.570 11.023984
55.575 11.28537
55.580 11.275485
55.585 11.637658
55.590 11.948967
55.595 12.055611
55.600 11.897142
55.605 11.635467
55.610 11.433944
55.615 11.269933
55.620 10.929668
55.625 10.657243
55.630 10.433722
55.635 10.466236
55.640 10.648231
55.645 10.647436
55.650 11.347565
55.655 11.574148
55.660 11.608289
55.665 11.934756
55.670 11.728578
55.675 11.440019
55.680 11.503849
55.685 11.810409
55.690 12.392297
55.695 12.659595
55.700 12.247088
55.705 12.582474
55.710 12.849656
55.715 12.567312
55.720 11.400789
55.725 10.871427
55.730 11.104918
55.735 11.403926
55.740 11.460589
55.745 11.493423
55.750 12.068636
55.755 12.716043
55.760 12.660439
55.765 12.237209
55.770 11.582269
55.775 11.494438
55.780 11.527886
55.785 11.242772
55.790 11.254533
55.795 11.999187
55.800 12.499972
55.805 13.177009
55.810 13.113693
55.815 12.796685
55.820 12.529264
55.825 12.184782
55.830 11.819309
55.835 11.59137
55.840 11.593322
55.845 11.634968
55.850 11.911014
55.855 11.940746
55.860 11.98731
55.865 12.124416
55.870 11.743998
55.875 11.344577
55.880 11.189597
55.885 11.066489
55.890 11.263848
55.895 11.42108
55.900 11.617043
55.905 11.868609
55.910 12.205346
55.915 12.349006
55.920 12.574324
55.925 12.86231
55.930 12.520987
55.935 12.251096
55.940 12.095269
55.945 12.249671
55.950 12.264356
55.955 11.967425
55.960 11.817267
55.965 12.44952
55.970 12.660227
55.975 12.595717
55.980 12.178788
55.985 12.426809
55.990 12.78385
55.995 12.810992
56.000 12.201797
56.005 12.399796
56.010 12.808175
56.015 13.011488
56.020 12.738451
56.025 12.316581
56.030 11.723695
56.035 11.524021
56.040 11.034966
56.045 11.099077
56.050 11.166458
56.055 11.11653
56.060 11.401963
56.065 11.847589
56.070 11.970662
56.075 12.370027
56.080 12.040013
56.085 11.765879
56.090 11.558715
56.095 11.214462
56.100 11.680365
56.105 11.930448
56.110 11.842956
56.115 12.1492
56.120 12.116296
56.125 12.128497
56.130 11.869191
56.135 11.506272
56.140 11.269324
56.145 11.448174
56.150 11.639502
56.155 12.021728
56.160 12.121539
56.165 12.196414
56.170 12.211712
56.175 12.015329
56.180 12.046214
56.185 11.58656
56.190 11.730001
56.195 12.217888
56.200 12.000417
56.205 11.961108
56.210 12.314628
56.215 12.438241
56.220 12.978116
56.225 13.018883
56.230 13.152714
56.235 13.614904
56.240 13.970373
56.245 13.876739
56.250 13.692121
56.255 12.956965
56.260 12.519393
56.265 12.619736
56.270 12.687549
56.275 12.934636
56.280 12.780062
56.285 12.612946
56.290 13.250154
56.295 13.354691
56.300 13.078403
56.305 13.104147
56.310 13.167683
56.315 13.363439
56.320 13.82071
56.325 13.703156
56.330 13.65545
56.335 13.909655
56.340 13.72773
56.345 13.407091
56.350 13.510753
56.355 13.099418
56.360 13.133053
56.365 13.115097
56.370 13.441373
56.375 13.994328
56.380 13.93541
56.385 13.592567
56.390 13.842975
56.395 13.986158
56.400 13.745124
56.405 13.489186
56.410 12.816944
56.415 12.850285
56.420 13.27757
56.425 13.074078
56.430 12.855229
56.435 13.097988
56.440 12.74332
56.445 12.949977
56.450 13.284042
56.455 13.92194
56.460 14.394489
56.465 14.708481
56.470 14.638032
56.475 14.673935
56.480 14.309687
56.485 13.736169
56.490 13.357809
56.495 13.032364
56.500 13.157477
56.505 13.294707
56.510 13.240006
56.515 13.610869
56.520 13.394788
56.525 13.25961
56.530 13.394289
56.535 13.136889
56.540 13.284945
56.545 13.267888
56.550 13.098706
56.555 13.475914
56.560 13.546451
56.565 13.213952
56.570 13.029901
56.575 12.637292
56.580 12.762963
56.585 12.886168
56.590 12.270237
56.595 11.862464
56.600 11.749606
56.605 11.755278
56.610 11.899278
56.615 11.868265
56.620 11.970536
56.625 12.55715
56.630 12.898066
56.635 12.939155
56.640 12.923217
56.645 12.859668
56.650 12.51827
56.655 12.684107
56.660 12.480466
56.665 12.219948
56.670 12.23282
56.675 12.69661
56.680 12.762899
56.685 12.480096
56.690 12.331897
56.695 12.226933
56.700 12.250323
56.705 12.641401
56.710 12.371407
56.715 12.546934
56.720 12.978353
56.725 12.986339
56.730 13.523501
56.735 13.675096
56.740 13.943032
56.745 14.120687
56.750 14.075951
56.755 14.267321
56.760 13.794175
56.765 13.59853
56.770 13.786103
56.775 13.465425
56.780 13.581388
56.785 13.906387
56.790 14.039554
56.795 13.908861
56.800 14.117266
56.805 14.484144
56.810 14.415965
56.815 14.346827
56.820 13.920651
56.825 13.551615
56.830 13.442329
56.835 13.295795
56.840 12.789476
56.845 12.687789
56.850 12.526423
56.855 12.859243
56.860 13.09587
56.865 13.924427
56.870 14.029712
56.875 14.277998
56.880 14.253902
56.885 14.166868
56.890 13.970857
56.895 14.241228
56.900 14.020168
56.905 13.793327
56.910 13.766182
56.915 13.885951
56.920 13.689501
56.925 12.990131
56.930 12.776577
56.935 12.318794
56.940 12.362042
56.945 12.658875
56.950 13.013775
56.955 13.544094
56.960 13.987657
56.965 13.897637
56.970 13.925312
56.975 14.163556
56.980 13.82159
56.985 13.772967
56.990 13.416063
56.995 13.070189
57.000 12.974181
57.005 13.218386
57.010 12.946051
57.015 12.901549
57.020 12.867267
57.025 12.655809
57.030 12.6913
57.035 12.373345
57.040 12.286579
57.045 11.935478
57.050 11.904663
57.055 12.07742
57.060 12.107847
57.065 12.245497
57.070 12.453327
57.075 12.499585
57.080 13.040144
57.085 12.887918
57.090 13.296779
57.095 13.919183
57.100 14.151969
57.105 14.027413
57.110 13.975856
57.115 13.513509
57.120 13.708684
57.125 13.565727
57.130 14.19235
57.135 14.399273
57.140 14.455715
57.145 13.973832
57.150 13.390844
57.155 12.955782
57.160 12.750558
57.165 11.69843
57.170 10.901799
57.175 10.969153
57.180 11.640169
57.185 12.455211
57.190 12.637992
57.195 12.448536
57.200 12.985122
57.205 13.876876
57.210 14.289097
57.215 14.408231
57.220 14.53384
57.225 14.277696
57.230 14.319563
57.235 14.027549
57.240 14.06044
57.245 14.215046
57.250 13.852649
57.255 13.538954
57.260 13.501833
57.265 13.739297
57.270 13.723919
57.275 13.102848
57.280 13.13912
57.285 13.08068
57.290 13.473798
57.295 13.711287
57.300 13.594097
57.305 13.910316
57.310 13.842625
57.315 13.54835
57.320 13.875734
57.325 14.042087
57.330 14.212546
57.335 14.481977
57.340 14.35204
57.345 14.58407
57.350 14.827355
57.355 14.512115
57.360 13.75875
57.365 13.546066
57.370 13.557839
57.375 13.641303
57.380 13.483638
57.385 13.300989
57.390 13.928822
57.395 14.335506
57.400 14.388172
57.405 14.539895
57.410 14.987218
57.415 15.024663
57.420 14.734091
57.425 14.271604
57.430 13.915092
57.435 13.807614
57.440 13.633357
57.445 13.249823
57.450 12.811923
57.455 12.60216
57.460 12.901625
57.465 12.943324
57.470 13.196303
57.475 12.879144
57.480 12.942208
57.485 13.645719
57.490 13.915822
57.495 14.053676
57.500 14.180825
57.505 13.814019
57.510 14.111002
57.515 14.450051
57.520 14.602554
57.525 14.984931
57.530 14.994271
57.535 15.137831
57.540 15.326664
57.545 15.024977
57.550 14.799883
57.555 14.693521
57.560 14.047191
57.565 13.781309
57.570 14.140299
57.575 14.044108
57.580 14.101147
57.585 14.035473
57.590 14.059148
57.595 14.287737
57.600 14.005608
57.605 13.352898
57.610 13.709093
57.615 13.863928
57.620 13.994443
57.625 13.927966
57.630 14.182812
57.635 14.234806
57.640 14.444462
57.645 14.360723
57.650 14.392407
57.655 14.552842
57.660 14.386278
57.665 14.45611
57.670 14.693371
57.675 14.507375
57.680 14.033317
57.685 13.690536
57.690 13.436626
57.695 13.315729
57.700 12.601695
57.705 12.319003
57.710 12.695844
57.715 13.568273
57.720 14.094749
57.725 14.071285
57.730 14.564488
57.735 14.929751
57.740 15.152519
57.745 14.767243
57.750 14.268508
57.755 14.246417
57.760 14.254209
57.765 14.136447
57.770 14.341419
57.775 14.467904
57.780 14.85793
57.785 14.714436
57.790 14.378306
57.795 14.623794
57.800 14.911222
57.805 14.517338
57.810 14.123425
57.815 14.335864
57.820 14.594512
57.825 14.62024
57.830 14.334365
57.835 13.96201
57.840 14.369316
57.845 14.631115
57.850 14.604507
57.855 15.039269
57.860 15.193564
57.865 15.187569
57.870 15.164205
57.875 14.225721
57.880 13.574864
57.885 13.30902
57.890 12.712413
57.895 12.303457
57.900 12.140886
57.905 13.116004
57.910 14.003933
57.915 14.231585
57.920 14.265981
57.925 15.12124
57.930 15.761916
57.935 15.930167
57.940 15.37172
57.945 15.434893
57.950 15.877051
57.955 15.931973
57.960 15.267835
57.965 15.053336
57.970 14.969428
57.975 14.981555
57.980 14.906811
57.985 14.427576
57.990 14.10275
57.995 14.403833
58.000 14.476092
58.005 14.476163
58.010 14.12891
58.015 14.109799
58.020 14.172962
58.025 14.543938
58.030 14.354012
58.035 14.362249
58.040 14.719886
58.045 14.755336
58.050 14.799745
58.055 15.008493
58.060 14.536596
58.065 14.32947
58.070 14.327369
58.075 14.342777
58.080 14.761059
58.085 14.866308
58.090 14.565678
58.095 14.594004
58.100 14.646827
58.105 14.665942
58.110 14.326655
58.115 13.728317
58.120 13.907676
58.125 14.271214
58.130 14.513894
58.135 14.979117
58.140 15.446189
58.145 15.74032
58.150 16.115282
58.155 16.470791
58.160 16.338408
58.165 16.170612
58.170 15.903927
58.175 15.459847
58.180 15.798564
58.185 16.0758
58.190 15.608518
58.195 15.593871
58.200 15.61102
58.205 15.979225
58.210 16.364655
58.215 16.277699
58.220 15.883192
58.225 15.536937
58.230 15.289751
58.235 15.205115
58.240 15.230034
58.245 15.041814
58.250 15.043152
58.255 15.273751
58.260 15.290835
58.265 15.448623
58.270 15.207666
58.275 14.884748
58.280 14.774096
58.285 14.683151
58.290 14.735351
58.295 14.987798
58.300 15.551609
58.305 15.990318
58.310 15.40142
58.315 14.724692
58.320 14.413669
58.325 14.270861
58.330 13.825502
58.335 13.637082
58.340 14.057239
58.345 14.478168
58.350 14.940199
58.355 14.964952
58.360 15.208016
58.365 15.549738
58.370 15.211747
58.375 14.868034
58.380 14.974134
58.385 15.405367
58.390 15.790186
58.395 15.758045
58.400 16.176155
58.405 16.699099
58.410 16.794346
58.415 16.587177
58.420 16.238951
58.425 16.070229
58.430 16.09808
58.435 15.272321
58.440 14.72435
58.445 14.274586
58.450 14.541829
58.455 14.709872
58.460 14.7336
58.465 14.64876
58.470 14.88897
58.475 14.888268
58.480 15.370207
58.485 15.111447
58.490 14.704406
58.495 14.70233
58.500 14.552875
58.505 14.085186
58.510 14.112597
58.515 13.399961
58.520 13.40072
58.525 13.923512
58.530 13.912504
58.535 14.028425
58.540 14.0132
58.545 13.698219
58.550 13.89658
58.555 14.272058
58.560 14.625909
58.565 14.777883
58.570 14.702352
58.575 15.339583
58.580 15.609639
58.585 15.812976
58.590 15.974221
58.595 15.451715
58.600 15.747893
58.605 15.879915
58.610 15.585184
58.615 16.072617
58.620 16.391285
58.625 16.258787
58.630 16.452429
58.635 16.694687
58.640 16.747154
58.645 17.099878
58.650 16.805265
58.655 16.55928
58.660 16.468967
58.665 16.654455
58.670 16.4321
58.675 16.581141
58.680 16.720726
58.685 16.922346
58.690 17.0821
58.695 17.140457
58.700 16.096464
58.705 15.79173
58.710 15.360348
58.715 14.910781
58.720 14.759454
58.725 14.347817
58.730 13.992649
58.735 14.37886
58.740 14.45399
58.745 15.032036
58.750 15.450855
58.755 15.539974
58.760 16.088646
58.765 16.176695
58.770 16.054775
58.775 15.742465
58.780 15.256053
58.785 15.005033
58.790 14.824203
58.795 14.632662
58.800 15.079845
58.805 15.837466
58.810 16.766598
58.815 17.250118
58.820 17.456711
58.825 17.601389
58.830 17.578199
58.835 17.416723
58.840 17.258995
58.845 16.756588
58.850 16.606756
58.855 16.477543
58.860 16.143896
58.865 16.012806
58.870 15.079215
58.875 14.515121
58.880 14.67903
58.885 14.718554
58.890 14.765645
58.895 14.731151
58.900 14.680891
58.905 15.156357
58.910 15.819032
58.915 15.633284
58.920 15.911894
58.925 15.873456
58.930 15.68121
58.935 16.252087
58.940 16.98815
58.945 16.950724
58.950 17.031765
58.955 16.981972
58.960 17.802139
58.965 18.154846
58.970 17.939753
58.975 17.035292
58.980 16.082188
58.985 15.716698
58.990 15.277205
58.995 14.85239
59.000 15.026773
59.005 14.982541
59.010 15.857678
59.015 16.707159
59.020 16.717665
59.025 16.81703
59.030 16.715616
59.035 16.74143
59.040 17.359129
59.045 17.529114
59.050 17.449919
59.055 16.94693
59.060 16.870472
59.065 16.357979
59.070 15.786786
59.075 15.301763
59.080 14.819278
59.085 14.781326
59.090 15.280297
59.095 15.56698
59.100 15.983147
59.105 15.620138
59.110 15.473713
59.115 15.238702
59.120 15.300645
59.125 15.292633
59.130 15.146469
59.135 15.244644
59.140 15.885497
59.145 16.163975
59.150 16.818466
59.155 16.727959
59.160 16.995674
59.165 16.919191
59.170 16.869076
59.175 16.60923
59.180 16.298346
59.185 16.197197
59.190 16.855705
59.195 16.818125
59.200 16.730717
59.205 16.677349
59.210 17.097857
59.215 17.03896
59.220 17.400606
59.225 17.11412
59.230 16.760372
59.235 17.119831
59.240 16.901159
59.245 16.575895
59.250 16.64172
59.255 15.691388
59.260 15.694127
59.265 15.940998
59.270 15.534025
59.275 15.448617
59.280 15.24032
59.285 14.620735
59.290 14.801861
59.295 14.186564
59.300 14.203712
59.305 14.648642
59.310 14.800136
59.315 14.616491
59.320 15.368834
59.325 15.026484
59.330 15.411446
59.335 15.514439
59.340 15.52863
59.345 15.773084
59.350 15.654943
59.355 15.473805
59.360 16.504797
59.365 16.681992
59.370 16.635986
59.375 16.510654
59.380 16.718157
59.385 17.237371
59.390 17.446039
59.395 16.859173
59.400 16.888292
59.405 17.032644
59.410 17.190073
59.415 17.17927
59.420 16.880728
59.425 16.869957
59.430 16.524519
59.435 16.162046
59.440 16.182507
59.445 16.375544
59.450 16.199625
59.455 16.443888
59.460 16.624233
59.465 17.37855
59.470 17.506372
59.475 17.553276
59.480 17.166075
59.485 17.330715
59.490 17.346954
59.495 16.686689
59.500 16.386646
59.505 16.661236
59.510 17.050503
59.515 17.883205
59.520 18.185728
59.525 18.424276
59.530 18.598631
59.535 18.376169
59.540 18.253546
59.545 18.136011
59.550 17.721399
59.555 17.167463
59.560 16.960596
59.565 17.078842
59.570 17.401945
59.575 17.236113
59.580 16.375566
59.585 16.497021
59.590 17.463335
59.595 17.643944
59.600 17.560806
59.605 17.256977
59.610 16.861179
59.615 17.350859
59.620 17.246216
59.625 16.602613
59.630 16.618795
59.635 16.60491
59.640 17.08688
59.645 17.527077
59.650 17.213215
59.655 16.991577
59.660 17.118933
59.665 17.521265
59.670 17.417141
59.675 17.696203
59.680 17.923592
59.685 18.243755
59.690 18.445608
59.695 18.324202
59.700 18.139456
59.705 18.282316
59.710 18.326925
59.715 18.657671
59.720 18.37174
59.725 18.301167
59.730 18.560637
59.735 19.069189
59.740 19.041857
59.745 18.874828
59.750 18.429256
59.755 18.571407
59.760 18.275469
59.765 18.375269
59.770 17.953369
59.775 18.171476
59.780 17.772362
59.785 17.843401
59.790 17.891514
59.795 18.246641
59.800 17.633705
59.805 17.507757
59.810 17.667902
59.815 18.238678
59.820 18.478491
59.825 18.822189
59.830 19.120584
59.835 20.290752
59.840 20.284147
59.845 19.767176
59.850 19.484503
59.855 19.44083
59.860 19.565613
59.865 19.501455
59.870 19.123838
59.875 19.711588
59.880 19.757191
59.885 20.079212
59.890 20.702671
59.895 20.460396
59.900 20.668091
59.905 20.730732
59.910 20.725393
59.915 20.736212
59.920 20.200426
59.925 18.963871
59.930 19.05517
59.935 19.003244
59.940 18.564865
59.945 18.634233
59.950 19.017691
59.955 19.702797
59.960 20.861107
59.965 20.940479
59.970 21.042961
59.975 21.521978
59.980 21.529408
59.985 21.195147
59.990 20.774912
59.995 20.537071
60.000 20.657869
60.005 20.343521
60.010 20.130791
60.015 20.337736
60.020 20.072289
60.025 20.134901
60.030 19.904329
60.035 20.015444
60.040 20.170803
60.045 20.105965
60.050 20.075258
60.055 20.783731
60.060 21.227114
60.065 21.16991
60.070 20.869268
60.075 21.16419
60.080 21.506989
60.085 21.862717
60.090 21.374517
60.095 20.814295
60.100 21.314451
60.105 21.972435
60.110 21.918859
60.115 21.609688
60.120 21.225153
60.125 21.307806
60.130 21.673494
60.135 21.703033
60.140 21.656151
60.145 21.856924
60.150 22.736256
60.155 23.033531
60.160 23.072937
60.165 22.524099
60.170 22.279434
60.175 22.022903
60.180 21.522238
60.185 21.179121
60.190 21.623581
60.195 21.801113
60.200 21.64793
60.205 21.587574
60.210 21.148415
60.215 20.962421
60.220 20.302887
60.225 19.936279
60.230 20.196865
60.235 20.47909
60.240 20.432817
60.245 20.762272
60.250 21.260752
60.255 21.605206
60.260 21.420431
60.265 21.666697
60.270 21.758673
60.275 21.644938
60.280 21.451477
60.285 21.507118
60.290 21.624292
60.295 21.964369
60.300 21.743362
60.305 21.34206
60.310 21.799343
60.315 21.830769
60.320 21.365259
60.325 20.625134
60.330 20.049551
60.335 19.961853
60.340 20.419876
60.345 20.421938
60.350 20.699224
60.355 20.965483
60.360 21.838552
60.365 22.768059
60.370 22.559082
60.375 22.607588
60.380 22.671329
60.385 22.805847
60.390 23.099174
60.395 23.149981
60.400 22.640347
60.405 23.181204
60.410 23.181974
60.415 22.523359
60.420 21.691277
60.425 21.242245
60.430 20.466234
60.435 20.71356
60.440 20.770794
60.445 20.583328
60.450 20.479259
60.455 20.5478
60.460 20.960085
60.465 21.552326
60.470 21.17819
60.475 20.78702
60.480 21.046907
60.485 21.296152
60.490 21.532669
60.495 21.395523
60.500 20.449911
60.505 20.364529
60.510 20.516588
60.515 20.386095
60.520 20.410389
60.525 20.278311
60.530 20.307409
60.535 20.891977
60.540 20.766731
60.545 20.780249
60.550 20.70479
60.555 21.011068
60.560 20.884348
60.565 20.735628
60.570 20.979824
60.575 20.59384
60.580 20.347443
60.585 20.449799
60.590 20.722988
60.595 20.816772
60.600 20.864145
60.605 21.182232
60.610 21.684633
60.615 22.115139
60.620 21.850517
60.625 20.986946
60.630 20.518831
60.635 20.134033
60.640 19.337086
60.645 19.078115
60.650 18.790768
60.655 19.018314
60.660 19.508404
60.665 19.505442
60.670 19.282803
60.675 18.968777
60.680 19.046917
60.685 18.757944
60.690 18.587206
60.695 18.456331
60.700 18.967264
60.705 19.482294
60.710 19.933395
60.715 19.650805
60.720 19.499069
60.725 19.487106
60.730 19.600945
60.735 19.347361
60.740 19.39389
60.745 19.536598
60.750 19.899591
60.755 19.930834
60.760 20.021227
60.765 20.049688
60.770 20.178282
60.775 19.590271
60.780 19.237165
60.785 19.156317
60.790 19.197815
60.795 19.414146
60.800 19.339525
60.805 18.938896
60.810 19.609415
60.815 19.891788
60.820 19.477175
60.825 19.663319
60.830 19.404287
60.835 19.223152
60.840 19.193247
60.845 18.676687
60.850 18.996597
60.855 19.018938
60.860 18.926508
60.865 18.919968
60.870 19.068037
60.875 19.530636
60.880 19.081213
60.885 18.242369
60.890 17.920076
60.895 17.928278
60.900 18.259985
60.905 18.296177
60.910 18.617031
60.915 18.900745
60.920 19.056301
60.925 19.057734
60.930 18.640768
60.935 18.121464
60.940 18.100985
60.945 17.462954
60.950 17.791641
60.955 17.9338
60.960 17.465418
60.965 17.231037
60.970 16.995197
60.975 16.428219
60.980 16.5858
60.985 16.841141
60.990 16.70228
60.995 16.531406
61.000 16.693039
61.005 17.343533
61.010 17.704414
61.015 17.266512
61.020 16.69602
61.025 17.231562
61.030 17.734022
61.035 17.982586
61.040 17.843851
61.045 17.597281
61.050 17.017956
61.055 16.905397
61.060 17.2138
61.065 17.581074
61.070 17.609634
61.075 17.105579
61.080 17.043453
61.085 17.247036
61.090 17.061333
61.095 16.421919
61.100 15.998775
61.105 15.766369
61.110 16.083292
61.115 16.480925
61.120 17.164766
61.125 17.99906
61.130 17.778067
61.135 17.844343
61.140 17.584061
61.145 17.774435
61.150 17.291939
61.155 16.603674
61.160 15.656963
61.165 15.599866
61.170 15.76075
61.175 15.827188
61.180 15.927299
61.185 16.282436
61.190 16.587519
61.195 17.395103
61.200 17.867851
61.205 17.979296
61.210 18.272327
61.215 18.429525
61.220 19.080978
61.225 19.596642
61.230 19.436001
61.235 18.986679
61.240 18.415834
61.245 18.397169
61.250 18.468323
61.255 17.608477
61.260 17.270454
61.265 17.034094
61.270 16.834177
61.275 16.720118
61.280 16.103823
61.285 16.360575
61.290 16.995687
61.295 17.46137
61.300 17.69079
61.305 18.08416
61.310 18.829203
61.315 19.333706
61.320 18.63456
61.325 18.247866
61.330 17.347803
61.335 17.34244
61.340 17.550615
61.345 17.342703
61.350 17.22813
61.355 17.658329
61.360 17.887306
61.365 18.115746
61.370 17.965595
61.375 17.596243
61.380 16.930019
61.385 16.544722
61.390 16.410204
61.395 15.832162
61.400 15.61958
61.405 15.891506
61.410 16.197172
61.415 16.663956
61.420 16.059879
61.425 15.49194
61.430 15.724124
61.435 16.243279
61.440 16.559038
61.445 16.427538
61.450 17.345135
61.455 18.11693
61.460 18.632687
61.465 18.92408
61.470 18.584183
61.475 18.165125
61.480 17.943428
61.485 17.356794
61.490 17.261309
61.495 17.328728
61.500 17.06473
61.505 17.073967
61.510 17.173203
61.515 17.473717
61.520 17.003992
61.525 16.893827
61.530 17.056005
61.535 17.476397
61.540 17.956522
61.545 18.390697
61.550 18.980358
61.555 19.558186
61.560 19.866699
61.565 18.931551
61.570 18.112659
61.575 17.404472
61.580 16.415054
61.585 16.217489
61.590 16.198734
61.595 16.548109
61.600 17.112951
61.605 17.673836
61.610 18.605558
61.615 19.06963
61.620 18.363194
61.625 18.128206
61.630 17.795336
61.635 18.081896
61.640 18.06274
61.645 17.532495
61.650 17.492023
61.655 17.372978
61.660 17.347761
61.665 17.333393
61.670 17.227358
61.675 17.545696
61.680 17.943958
61.685 17.915949
61.690 17.562561
61.695 17.130831
61.700 16.857347
61.705 16.678143
61.710 16.403854
61.715 16.36227
61.720 16.776087
61.725 17.159163
61.730 16.972309
61.735 17.515442
61.740 17.218775
61.745 16.247446
61.750 15.138825
61.755 14.68824
61.760 15.296623
61.765 15.753191
61.770 15.36011
61.775 15.789925
61.780 16.652302
61.785 17.548454
61.790 17.938374
61.795 17.929457
61.800 17.868206
61.805 18.488369
61.810 18.570311
61.815 18.389633
61.820 17.890091
61.825 17.693321
61.830 17.739424
61.835 17.755482
61.840 17.931511
61.845 17.763203
61.850 17.759483
61.855 17.703648
61.860 17.711916
61.865 17.732077
61.870 17.778313
61.875 17.318302
61.880 17.285748
61.885 17.31764
61.890 17.897692
61.895 18.163986
61.900 17.945642
61.905 17.653669
61.910 17.434118
61.915 17.194515
61.920 16.911825
61.925 16.842928
61.930 16.109322
61.935 16.532564
61.940 16.496426
61.945 17.295559
61.950 17.87171
61.955 18.224476
61.960 18.372793
61.965 18.106302
61.970 17.448687
61.975 17.280512
61.980 16.770632
61.985 16.615984
61.990 16.707476
61.995 16.022667
62.000 16.470758
62.005 17.390003
62.010 17.528927
62.015 17.744246
62.020 16.938942
62.025 16.305761
62.030 16.744146
62.035 16.819096
62.040 16.443962
62.045 15.951377
62.050 15.940265
62.055 16.682611
62.060 17.061558
62.065 16.636366
62.070 16.196053
62.075 15.868557
62.080 16.140888
62.085 15.819418
62.090 15.613523
62.095 15.293034
62.100 14.83288
62.105 14.441697
62.110 14.511958
62.115 14.642309
62.120 14.931211
62.125 15.367012
62.130 15.951887
62.135 16.91577
62.140 17.89465
62.145 17.989235
62.150 17.871525
62.155 17.66371
62.160 17.194166
62.165 17.381241
62.170 17.418671
62.175 17.342272
62.180 17.845041
62.185 18.246931
62.190 18.472246
62.195 18.404909
62.200 18.29903
62.205 17.918926
62.210 17.712708
62.215 17.188332
62.220 17.350529
62.225 16.97047
62.230 16.521988
62.235 16.159992
62.240 16.511168
62.245 16.265709
62.250 16.154772
62.255 15.777622
62.260 16.240284
62.265 16.808405
62.270 16.726212
62.275 16.087132
62.280 16.277142
62.285 16.543476
62.290 16.386665
62.295 15.676566
62.300 15.620845
62.305 15.63646
62.310 16.043785
62.315 15.703972
62.320 15.421315
62.325 15.177474
62.330 15.646413
62.335 15.668901
62.340 15.782372
62.345 16.345184
62.350 16.950357
62.355 17.207874
62.360 17.765251
62.365 17.509632
62.370 17.527939
62.375 17.435362
62.380 17.402843
62.385 17.02656
62.390 16.710014
62.395 16.971666
62.400 17.466549
62.405 17.449287
62.410 17.894236
62.415 17.922987
62.420 18.56267
62.425 18.769424
62.430 18.360657
62.435 18.464594
62.440 18.744967
62.445 18.227865
62.450 18.434784
62.455 18.587811
62.460 18.846325
62.465 18.432114
62.470 17.771889
62.475 17.694254
62.480 17.748636
62.485 16.983416
62.490 16.773968
62.495 16.886866
62.500 17.483603
62.505 17.652384
62.510 17.391243
62.515 17.005451
62.520 17.081045
62.525 16.657639
62.530 16.26474
62.535 16.05105
62.540 16.079397
62.545 16.118429
62.550 16.495417
62.555 16.534559
62.560 16.706053
62.565 16.951872
62.570 16.774086
62.575 16.501221
62.580 16.440609
62.585 16.529091
62.590 17.012686
62.595 17.083668
62.600 16.891747
62.605 17.034838
62.610 16.982658
62.615 17.331795
62.620 17.326031
62.625 17.524302
62.630 17.556894
62.635 17.657482
62.640 17.716892
62.645 18.991699
62.650 19.20878
62.655 19.221874
62.660 18.958294
62.665 18.894217
62.670 18.944279
62.675 18.99345
62.680 18.566303
62.685 18.13085
62.690 18.819181
62.695 19.169489
62.700 18.920795
62.705 18.551071
62.710 18.420073
62.715 18.021551
62.720 17.65823
62.725 16.691681
62.730 16.293863
62.735 16.963879
62.740 17.290133
62.745 17.739883
62.750 18.054188
62.755 18.767612
62.760 18.56904
62.765 18.130503
62.770 18.057253
62.775 17.788517
62.780 17.387463
62.785 17.33576
62.790 16.786776
62.795 16.805948
62.800 16.776888
62.805 17.084759
62.810 17.285295
62.815 17.284733
62.820 16.963867
62.825 17.295023
62.830 17.897915
62.835 18.061028
62.840 17.478598
62.845 17.4681
62.850 17.904991
62.855 18.377766
62.860 18.251499
62.865 18.581961
62.870 19.083609
62.875 19.147799
62.880 18.759838
62.885 18.560621
62.890 18.414558
62.895 17.962391
62.900 17.581257
62.905 16.91382
62.910 17.031342
62.915 16.939596
62.920 16.334297
62.925 16.128986
62.930 15.957895
62.935 15.714397
62.940 15.734051
62.945 15.500504
62.950 15.449557
62.955 16.299473
62.960 16.431215
62.965 16.817053
62.970 17.439882
62.975 17.87879
62.980 18.19792
62.985 18.731073
62.990 18.484102
62.995 18.459751
63.000 18.209593
63.005 17.407152
63.010 17.029522
63.015 16.864296
63.020 16.806635
63.025 17.156977
63.030 17.490253
63.035 17.724274
63.040 17.64369
63.045 17.563406
63.050 17.883301
63.055 17.784
63.060 18.199812
63.065 17.769178
63.070 17.979889
63.075 18.038628
63.080 18.294348
63.085 18.049028
63.090 17.489391
63.095 16.746433
63.100 17.327551
63.105 17.243994
63.110 17.52651
63.115 18.045828
63.120 18.377069
63.125 18.797756
63.130 18.789085
63.135 18.291943
63.140 18.225315
63.145 18.075987
63.150 17.885653
63.155 17.879652
63.160 17.547529
63.165 17.798531
63.170 18.565105
63.175 18.660618
63.180 18.664562
63.185 18.548143
63.190 18.130856
63.195 17.919367
63.200 17.966682
63.205 17.768867
63.210 17.82292
63.215 17.635969
63.220 17.419109
63.225 17.949167
63.230 18.459669
63.235 18.151247
63.240 17.905682
63.245 17.839209
63.250 17.712517
63.255 17.459599
63.260 17.266764
63.265 17.30538
63.270 17.514847
63.275 17.597572
63.280 17.210424
63.285 17.711367
63.290 17.906534
63.295 17.966331
63.300 17.649599
63.305 17.550779
63.310 17.336487
63.315 16.846361
63.320 16.307178
63.325 16.397306
63.330 16.399126
63.335 16.305071
63.340 15.80925
63.345 16.162321
63.350 17.542593
63.355 18.400017
63.360 18.623323
63.365 18.209095
63.370 19.135969
63.375 20.231508
63.380 20.862535
63.385 20.090918
63.390 19.195593
63.395 18.834963
63.400 19.269159
63.405 18.640924
63.410 18.068565
63.415 17.725222
63.420 17.441946
63.425 17.291294
63.430 17.521511
63.435 17.891533
63.440 18.289196
63.445 18.206053
63.450 18.428446
63.455 19.287025
63.460 19.591223
63.465 18.909197
63.470 18.645599
63.475 18.664978
63.480 18.393496
63.485 17.858492
63.490 17.125427
63.495 16.930759
63.500 17.266544
63.505 16.999359
63.510 16.569286
63.515 16.740292
63.520 16.646669
63.525 16.672987
63.530 16.883591
63.535 17.523518
63.540 17.768625
63.545 18.035275
63.550 18.538622
63.555 18.909687
63.560 19.82737
63.565 19.998749
63.570 19.427492
63.575 19.715214
63.580 19.499016
63.585 18.563974
63.590 18.136141
63.595 17.592375
63.600 17.318508
63.605 17.025822
63.610 16.604586
63.615 16.767546
63.620 17.424236
63.625 17.497726
63.630 17.649288
63.635 17.599934
63.640 17.32032
63.645 17.445545
63.650 17.28647
63.655 17.307161
63.660 17.671642
63.665 17.871578
63.670 17.43404
63.675 17.458187
63.680 17.461008
63.685 17.321178
63.690 17.057249
63.695 17.228338
63.700 17.073593
63.705 17.102589
63.710 17.425512
63.715 17.278013
63.720 17.19478
63.725 17.259867
63.730 17.056688
63.735 17.069283
63.740 17.682549
63.745 17.096085
63.750 16.774286
63.755 16.799088
63.760 16.800714
63.765 16.870859
63.770 16.880634
63.775 16.973658
63.780 17.458494
63.785 17.881498
63.790 17.900967
63.795 18.002535
63.800 18.221434
63.805 18.027889
63.810 17.94363
63.815 18.12636
63.820 18.313576
63.825 18.498047
63.830 17.883085
63.835 17.588577
63.840 17.986952
63.845 17.894623
63.850 17.488764
63.855 17.245546
63.860 16.893759
63.865 16.483168
63.870 16.11132
63.875 15.634486
63.880 15.787153
63.885 15.872144
63.890 15.979267
63.895 15.832963
63.900 16.154181
63.905 16.307846
63.910 16.328548
63.915 16.498631
63.920 17.056801
63.925 17.593491
63.930 18.177929
63.935 18.353205
63.940 18.210634
63.945 18.34531
63.950 17.806442
63.955 17.292934
63.960 16.937044
63.965 17.24955
63.970 17.652742
63.975 18.493683
63.980 18.587219
63.985 18.890524
63.990 19.11339
63.995 19.684757
64.000 19.659693
64.005 20.009224
64.010 20.641308
64.015 21.249037
64.020 21.769304
64.025 21.513237
64.030 20.850964
64.035 20.282557
64.040 19.815798
64.045 19.27195
64.050 18.680025
64.055 18.503948
64.060 18.383797
64.065 18.757046
64.070 19.184345
64.075 19.527163
64.080 18.765821
64.085 18.52791
64.090 18.455883
64.095 18.447645
64.100 18.125811
64.105 17.817585
64.110 17.718534
64.115 18.035376
64.120 18.419636
64.125 18.473015
64.130 18.058626
64.135 17.959749
64.140 17.928205
64.145 17.469124
64.150 17.629091
64.155 17.486399
64.160 17.725975
64.165 18.441235
64.170 18.70611
64.175 18.493652
64.180 18.711464
64.185 18.983053
64.190 18.870756
64.195 18.390614
64.200 17.999264
64.205 17.577971
64.210 17.70673
64.215 17.532318
64.220 17.361193
64.225 17.041357
64.230 17.895182
64.235 17.989378
64.240 18.110958
64.245 18.167883
64.250 18.539701
64.255 18.85759
64.260 18.75238
64.265 18.049625
64.270 18.426071
64.275 18.704977
64.280 18.737686
64.285 18.358286
64.290 18.147406
64.295 18.373404
64.300 18.915997
64.305 18.383303
64.310 17.797937
64.315 17.771032
64.320 17.869377
64.325 17.835091
64.330 17.11241
64.335 17.02676
64.340 17.638575
64.345 17.634129
64.350 17.404875
64.355 17.636454
64.360 18.108074
64.365 18.518576
64.370 18.264053
64.375 18.577705
64.380 19.24472
64.385 19.055729
64.390 18.784855
64.395 18.880741
64.400 19.021873
64.405 18.403725
64.410 18.747458
64.415 18.348463
64.420 18.082615
64.425 17.836926
64.430 17.478491
64.435 17.619705
64.440 18.231319
64.445 17.895348
64.450 18.03841
64.455 18.634245
64.460 19.178013
64.465 19.822882
64.470 20.141033
64.475 19.864
64.480 19.758772
64.485 20.329861
64.490 20.441198
64.495 20.545977
64.500 20.270525
64.505 19.857368
64.510 19.972462
64.515 19.878593
64.520 20.006878
64.525 19.887205
64.530 19.551414
64.535 19.158337
64.540 19.320103
64.545 19.560537
64.550 19.863297
64.555 19.657291
64.560 19.141781
64.565 18.928734
64.570 19.279924
64.575 19.429258
64.580 19.145439
64.585 18.596174
64.590 18.313904
64.595 18.305557
64.600 18.078859
64.605 18.141418
64.610 18.346823
64.615 18.255865
64.620 18.23937
64.625 18.116161
64.630 18.476961
64.635 18.602272
64.640 18.463213
64.645 18.277264
64.650 18.212093
64.655 18.734335
64.660 19.250475
64.665 19.330103
64.670 19.911526
64.675 19.484543
64.680 19.409126
64.685 19.709848
64.690 19.513994
64.695 19.541754
64.700 19.242947
64.705 19.041237
64.710 19.508781
64.715 19.853664
64.720 19.583523
64.725 19.662422
64.730 19.631037
64.735 19.903807
64.740 19.872217
64.745 19.978151
64.750 19.898134
64.755 19.999487
64.760 19.516006
64.765 19.571936
64.770 19.81176
64.775 19.790815
64.780 19.530235
64.785 19.720154
64.790 20.029762
64.795 20.108213
64.800 20.118618
64.805 19.598827
64.810 19.980192
64.815 20.177937
64.820 19.507132
64.825 19.53599
64.830 19.348495
64.835 19.139248
64.840 19.496391
64.845 19.767717
64.850 20.346823
64.855 21.047825
64.860 21.12981
64.865 21.877069
64.870 21.977194
64.875 22.02059
64.880 21.224945
64.885 20.55654
64.890 19.711187
64.895 19.561031
64.900 18.874825
64.905 18.729876
64.910 18.681129
64.915 18.928612
64.920 19.134489
64.925 19.621994
64.930 19.597799
64.935 19.749569
64.940 20.043402
64.945 20.400105
64.950 20.439945
64.955 20.321325
64.960 20.259146
64.965 20.807579
64.970 21.244066
64.975 21.335566
64.980 21.221725
64.985 21.873444
64.990 22.858719
64.995 23.36046
65.000 23.133543
65.005 22.579046
65.010 22.57972
65.015 22.592686
65.020 22.414476
65.025 21.358339
65.030 20.78344
65.035 21.016804
65.040 21.719616
65.045 21.607784
65.050 21.734396
65.055 21.368055
65.060 21.629128
65.065 22.019722
65.070 21.90925
65.075 21.972204
65.080 22.408222
65.085 22.61113
65.090 22.350002
65.095 22.47521
65.100 22.505297
65.105 22.349413
65.110 22.04792
65.115 22.01095
65.120 21.943251
65.125 22.600647
65.130 22.321798
65.135 22.147356
65.140 22.239872
65.145 21.715628
65.150 21.235435
65.155 20.989202
65.160 20.218998
65.165 20.06962
65.170 20.306053
65.175 20.411844
65.180 20.60103
65.185 20.659521
65.190 21.003275
65.195 22.384192
65.200 22.775631
65.205 22.561678
65.210 22.67811
65.215 22.725876
65.220 22.559296
65.225 21.893017
65.230 21.300308
65.235 20.946583
65.240 20.681805
65.245 20.545103
65.250 21.168049
65.255 20.961468
65.260 21.62851
65.265 21.83567
65.270 21.996273
65.275 22.907267
65.280 23.67071
65.285 23.443605
65.290 23.69593
65.295 23.047136
65.300 22.893436
65.305 23.018305
65.310 22.62998
65.315 21.789883
65.320 21.997824
65.325 22.733061
65.330 23.541489
65.335 23.206278
65.340 23.259142
65.345 23.432262
65.350 23.567984
65.355 24.07188
65.360 23.840158
65.365 23.551617
65.370 23.718067
65.375 23.495796
65.380 23.311548
65.385 23.172895
65.390 22.818899
65.395 22.768017
65.400 22.991852
65.405 23.092905
65.410 23.141108
65.415 23.108791
65.420 23.229616
65.425 23.623392
65.430 23.550913
65.435 24.380043
65.440 24.685797
65.445 24.729309
65.450 24.884287
65.455 25.105749
65.460 24.901543
65.465 24.806423
65.470 23.735884
65.475 23.339188
65.480 23.17141
65.485 22.851179
65.490 22.489296
65.495 23.014864
65.500 23.376774
65.505 23.955906
65.510 24.148291
65.515 24.845228
65.520 25.898083
65.525 26.187393
65.530 25.631252
65.535 26.303719
65.540 26.61327
65.545 26.898531
65.550 26.994274
65.555 26.912539
65.560 27.035334
65.565 27.221355
65.570 26.825922
65.575 27.657742
65.580 28.639004
65.585 28.142189
65.590 27.818501
65.595 27.907272
65.600 28.102926
65.605 28.092016
65.610 27.620295
65.615 27.187466
65.620 27.499914
65.625 28.201187
65.630 29.004351
65.635 28.993076
65.640 29.476919
65.645 29.597567
65.650 30.078293
65.655 31.020802
65.660 30.992056
65.665 31.005098
65.670 31.733677
65.675 32.043781
65.680 32.600605
65.685 32.773746
65.690 32.408272
65.695 32.34288
65.700 32.52681
65.705 31.815746
65.710 31.512133
65.715 32.1605
65.720 32.183708
65.725 32.662132
65.730 32.607002
65.735 32.106686
65.740 32.767864
65.745 33.028797
65.750 33.5471
65.755 33.385002
65.760 33.283371
65.765 33.599838
65.770 34.004292
65.775 34.21862
65.780 33.869102
65.785 33.12365
65.790 33.850533
65.795 33.999767
65.800 34.436123
65.805 34.990414
65.810 35.495735
65.815 35.846458
65.820 37.127968
65.825 37.042522
65.830 37.0308
65.835 36.595825
65.840 36.316784
65.845 36.230827
65.850 36.778721
65.855 36.859241
65.860 38.113014
65.865 38.812588
65.870 38.980839
65.875 39.043266
65.880 39.296745
65.885 39.597492
65.890 39.829224
65.895 39.531761
65.900 39.831493
65.905 40.198212
65.910 39.941257
65.915 39.745453
65.920 39.461102
65.925 39.19405
65.930 38.937641
65.935 38.945568
65.940 38.47023
65.945 38.229645
65.950 37.91917
65.955 37.888672
65.960 37.723652
65.965 37.884628
65.970 38.529026
65.975 39.300671
65.980 39.980095
65.985 39.67083
65.990 39.651302
65.995 39.878906
66.000 39.372997
66.005 38.988068
66.010 39.153641
66.015 38.872959
66.020 39.930824
66.025 39.988819
66.030 40.702629
66.035 41.21656
66.040 41.226711
66.045 40.561657
66.050 40.443962
66.055 39.585007
66.060 39.34182
66.065 38.509109
66.070 37.774712
66.075 36.939369
66.080 37.052303
66.085 36.824085
66.090 37.226082
66.095 37.288841
66.100 37.502697
66.105 37.656975
66.110 38.494419
66.115 38.5853
66.120 38.187508
66.125 37.733395
66.130 37.204006
66.135 36.35511
66.140 36.748802
66.145 36.751877
66.150 37.212494
66.155 37.513897
66.160 37.188671
66.165 37.081963
66.170 37.009087
66.175 36.746014
66.180 36.424213
66.185 35.673519
66.190 35.182522
66.195 35.563896
66.200 35.952057
66.205 36.202259
66.210 36.088314
66.215 35.956165
66.220 36.187618
66.225 35.994656
66.230 35.975491
66.235 35.655098
66.240 35.872246
66.245 36.147358
66.250 35.68985
66.255 35.979763
66.260 36.317215
66.265 36.942757
66.270 37.422871
66.275 36.657906
66.280 36.291733
66.285 36.928604
66.290 36.856079
66.295 36.104919
66.300 35.347725
66.305 35.010365
66.310 34.975147
66.315 34.296227
66.320 34.140568
66.325 34.112854
66.330 34.82103
66.335 34.765167
66.340 34.273781
66.345 33.934643
66.350 34.036766
66.355 32.890339
66.360 32.378029
66.365 31.547234
66.370 31.106831
66.375 30.944273
66.380 29.913267
66.385 29.341457
66.390 29.599552
66.395 30.17053
66.400 30.16855
66.405 29.589258
66.410 29.856415
66.415 30.462521
66.420 30.063528
66.425 30.123775
66.430 29.820646
66.435 29.951296
66.440 30.179701
66.445 29.960878
66.450 30.117258
66.455 30.480938
66.460 29.957001
66.465 29.329718
66.470 28.625853
66.475 28.614342
66.480 28.670969
66.485 28.028017
66.490 28.154327
66.495 28.05821
66.500 27.799431
66.505 28.027025
66.510 28.324749
66.515 28.465004
66.520 29.123432
66.525 29.338062
66.530 29.813168
66.535 30.578596
66.540 30.529373
66.545 29.304541
66.550 29.11348
66.555 28.838161
66.560 28.526676
66.565 28.454983
66.570 28.079073
66.575 27.721872
66.580 27.822016
66.585 27.691998
66.590 27.225594
66.595 27.321453
66.600 27.021099
66.605 26.877342
66.610 27.696955
66.615 27.4589
66.620 26.414288
66.625 26.111135
66.630 26.00342
66.635 25.81138
66.640 25.53973
66.645 25.049086
66.650 25.146246
66.655 25.280167
66.660 24.852873
66.665 24.11879
66.670 24.352623
66.675 24.46525
66.680 23.908171
66.685 23.791962
66.690 24.527544
66.695 25.460375
66.700 25.172415
66.705 24.919058
66.710 24.892572
66.715 25.646488
66.720 25.802734
66.725 25.585831
66.730 24.553677
66.735 24.344931
66.740 24.150122
66.745 24.627949
66.750 24.121758
66.755 24.144764
66.760 24.164934
66.765 24.62252
66.770 24.793318
66.775 24.534592
66.780 24.434767
66.785 24.918192
66.790 24.956068
66.795 24.627888
66.800 24.771002
66.805 24.800278
66.810 25.397314
66.815 25.312778
66.820 24.886648
66.825 24.646933
66.830 24.648373
66.835 25.155972
66.840 25.883564
66.845 25.765959
66.850 25.254276
66.855 24.549881
66.860 24.822784
66.865 24.584291
66.870 23.60401
66.875 22.409084
66.880 21.891922
66.885 22.398066
66.890 22.838827
66.895 22.450142
66.900 21.939266
66.905 22.037378
66.910 22.599762
66.915 22.986565
66.920 23.354349
66.925 23.408913
66.930 23.293222
66.935 23.35984
66.940 24.160381
66.945 24.411251
66.950 23.921902
66.955 23.710121
66.960 23.24036
66.965 23.309172
66.970 23.748133
66.975 22.821829
66.980 22.23802
66.985 21.690714
66.990 21.048653
66.995 21.261267
67.000 20.965935
67.005 20.948523
67.010 21.461761
67.015 22.204962
67.020 22.679302
67.025 23.401384
67.030 23.818785
67.035 24.256235
67.040 24.195654
67.045 23.662741
67.050 23.678421
67.055 23.298231
67.060 22.887741
67.065 22.131224
67.070 21.946424
67.075 21.586786
67.080 21.97954
67.085 21.626835
67.090 21.637672
67.095 21.373272
67.100 21.304203
67.105 21.202427
67.110 21.144667
67.115 20.79838
67.120 21.25713
67.125 21.40435
67.130 21.730499
67.135 22.474092
67.140 23.008818
67.145 23.09481
67.150 22.713415
67.155 22.261339
67.160 22.474009
67.165 22.83169
67.170 23.731058
67.175 23.841141
67.180 23.970272
67.185 24.345791
67.190 24.697327
67.195 24.370274
67.200 23.752148
67.205 22.476774
67.210 22.302872
67.215 22.284096
67.220 21.885109
67.225 21.960508
67.230 22.35409
67.235 22.583118
67.240 22.655041
67.245 23.061422
67.250 23.542982
67.255 24.051605
67.260 24.07118
67.265 24.369263
67.270 24.291645
67.275 24.228352
67.280 23.712084
67.285 23.37961
67.290 22.697975
67.295 21.735699
67.300 21.211292
67.305 20.948765
67.310 21.109598
67.315 20.982203
67.320 20.585842
67.325 20.874142
67.330 20.946417
67.335 20.971933
67.340 21.41914
67.345 21.53714
67.350 21.22261
67.355 21.459042
67.360 21.367432
67.365 21.576244
67.370 21.788015
67.375 21.358992
67.380 20.487427
67.385 20.517994
67.390 20.316166
67.395 20.59329
67.400 20.957151
67.405 20.837696
67.410 21.424568
67.415 22.290508
67.420 22.78767
67.425 23.487152
67.430 23.58699
67.435 23.686207
67.440 23.627954
67.445 23.396147
67.450 22.498039
67.455 21.351643
67.460 20.727438
67.465 20.609743
67.470 19.904715
67.475 19.310234
67.480 18.810831
67.485 19.685431
67.490 20.843569
67.495 21.014326
67.500 21.414467
67.505 21.658649
67.510 21.483793
67.515 21.917097
67.520 22.070541
67.525 21.704651
67.530 21.236046
67.535 20.956856
67.540 21.152786
67.545 21.345411
67.550 20.840063
67.555 20.581966
67.560 20.884548
67.565 21.078211
67.570 21.549463
67.575 21.417797
67.580 21.777599
67.585 21.944857
67.590 21.949846
67.595 21.888594
67.600 21.838886
67.605 21.63201
67.610 21.976511
67.615 22.457071
67.620 22.69104
67.625 22.991331
67.630 22.985884
67.635 22.558949
67.640 22.351767
67.645 21.698032
67.650 21.737219
67.655 21.588705
67.660 21.298782
67.665 21.047024
67.670 21.159145
67.675 21.090553
67.680 21.770094
67.685 21.812902
67.690 21.850853
67.695 22.002764
67.700 22.100735
67.705 22.554728
67.710 22.549765
67.715 21.855312
67.720 21.683842
67.725 22.021544
67.730 22.423922
67.735 22.351688
67.740 21.956223
67.745 21.497219
67.750 21.207186
67.755 20.920027
67.760 20.671513
67.765 20.512722
67.770 20.5245
67.775 20.827417
67.780 21.309654
67.785 21.26351
67.790 20.774038
67.795 20.602922
67.800 20.34359
67.805 20.573887
67.810 20.195345
67.815 19.978109
67.820 20.012262
67.825 19.818087
67.830 19.604433
67.835 19.961357
67.840 19.695114
67.845 20.145294
67.850 20.477705
67.855 20.772739
67.860 20.779661
67.865 20.376354
67.870 19.979607
67.875 19.685146
67.880 19.044653
67.885 19.070873
67.890 19.161163
67.895 19.631191
67.900 20.308281
67.905 20.48233
67.910 20.968828
67.915 21.855967
67.920 21.985327
67.925 22.244314
67.930 22.178177
67.935 21.834064
67.940 22.148678
67.945 22.193974
67.950 21.422018
67.955 21.092537
67.960 20.752184
67.965 21.545563
67.970 22.075386
67.975 21.897934
67.980 22.193171
67.985 21.799221
67.990 21.384514
67.995 21.013491
68.000 20.396795
68.005 20.093733
68.010 20.235662
68.015 20.268364
68.020 21.456209
68.025 21.831749
68.030 21.976738
68.035 22.230745
68.040 22.692881
68.045 22.476601
68.050 22.526012
68.055 22.485268
68.060 22.505224
68.065 22.510712
68.070 21.772087
68.075 20.850054
68.080 20.745014
68.085 20.482277
68.090 20.598604
68.095 20.575735
68.100 20.815483
68.105 21.294901
68.110 22.037868
68.115 22.206753
68.120 22.100365
68.125 22.181124
68.130 22.621981
68.135 23.035814
68.140 23.149714
68.145 23.487617
68.150 23.371012
68.155 23.076122
68.160 23.149313
68.165 22.902729
68.170 22.401485
68.175 22.266356
68.180 21.302153
68.185 21.05415
68.190 20.878614
68.195 20.562925
68.200 20.706656
68.205 20.555523
68.210 20.437279
68.215 20.680511
68.220 20.950195
68.225 20.748549
68.230 20.383808
68.235 20.431627
68.240 20.785925
68.245 20.921661
68.250 20.893703
68.255 20.32527
68.260 20.577051
68.265 20.985006
68.270 20.515696
68.275 19.842983
68.280 18.64636
68.285 18.371223
68.290 18.561699
68.295 18.567408
68.300 18.237431
68.305 18.331415
68.310 18.829412
68.315 19.928751
68.320 20.96365
68.325 21.386885
68.330 21.239342
68.335 21.316013
68.340 21.431684
68.345 21.181452
68.350 20.217224
68.355 19.497276
68.360 20.224874
68.365 20.769135
68.370 21.057425
68.375 21.194828
68.380 21.046343
68.385 21.828211
68.390 21.922747
68.395 21.515852
68.400 20.961704
68.405 20.51189
68.410 21.025642
68.415 21.290913
68.420 21.229387
68.425 21.236616
68.430 21.200821
68.435 22.23777
68.440 22.332195
68.445 22.084858
68.450 21.96843
68.455 22.295673
68.460 23.03775
68.465 22.608612
68.470 21.987043
68.475 21.81646
68.480 22.286674
68.485 22.433146
68.490 21.810547
68.495 21.423882
68.500 21.615881
68.505 21.370432
68.510 21.112137
68.515 20.740934
68.520 20.86018
68.525 21.823055
68.530 22.104946
68.535 21.953529
68.540 22.168987
68.545 21.877459
68.550 22.035093
68.555 21.098959
68.560 20.118151
68.565 19.749607
68.570 19.88982
68.575 19.405052
68.580 19.670803
68.585 20.048946
68.590 20.718918
68.595 20.899998
68.600 20.713631
68.605 20.199259
68.610 19.934319
68.615 20.300972
68.620 20.296801
68.625 19.834152
68.630 19.873514
68.635 19.614584
68.640 20.149307
68.645 20.937817
68.650 20.740391
68.655 20.806499
68.660 21.020029
68.665 21.283939
68.670 21.914673
68.675 22.235571
68.680 22.119308
68.685 22.349489
68.690 22.273062
68.695 21.628633
68.700 21.296562
68.705 21.247351
68.710 21.116499
68.715 20.93119
68.720 20.948162
68.725 21.392681
68.730 21.586897
68.735 22.30834
68.740 22.35371
68.745 22.784157
68.750 22.869097
68.755 22.936382
68.760 23.510319
68.765 24.153152
68.770 23.622372
68.775 23.502256
68.780 23.480751
68.785 23.40284
68.790 23.147947
68.795 22.714756
68.800 22.366867
68.805 22.857338
68.810 23.015533
68.815 23.185759
68.820 23.398336
68.825 23.150049
68.830 23.30213
68.835 23.457756
68.840 23.229843
68.845 23.156334
68.850 22.385132
68.855 22.230877
68.860 22.167498
68.865 21.980328
68.870 22.670177
68.875 22.745407
68.880 23.032497
68.885 23.41647
68.890 23.709307
68.895 23.294907
68.900 23.132608
68.905 23.197607
68.910 22.990528
68.915 22.680521
68.920 22.287956
68.925 22.648918
68.930 22.694494
68.935 22.619236
68.940 22.575127
68.945 23.039234
68.950 23.622726
68.955 23.980303
68.960 24.17024
68.965 24.748056
68.970 25.109234
68.975 25.092743
68.980 24.599361
68.985 25.120592
68.990 25.632027
68.995 25.952568
69.000 25.260708
69.005 24.556211
69.010 24.783602
69.015 23.971659
69.020 23.518761
69.025 22.714378
69.030 22.670851
69.035 22.840187
69.040 22.750105
69.045 23.199474
69.050 23.60939
69.055 23.961487
69.060 24.432503
69.065 24.265833
69.070 24.735518
69.075 24.788118
69.080 24.750605
69.085 24.799801
69.090 24.650265
69.095 24.676256
69.100 25.439638
69.105 26.241045
69.110 26.385267
69.115 26.911989
69.120 27.236084
69.125 27.467573
69.130 27.101379
69.135 26.239498
69.140 25.649157
69.145 25.440123
69.150 24.925007
69.155 25.737444
69.160 25.565979
69.165 26.738647
69.170 27.188036
69.175 27.707659
69.180 27.350962
69.185 26.640194
69.190 25.748205
69.195 25.526575
69.200 24.939756
69.205 25.088064
69.210 25.125919
69.215 25.793341
69.220 25.727264
69.225 25.61389
69.230 26.170452
69.235 26.442623
69.240 26.166962
69.245 25.844048
69.250 26.117796
69.255 26.734619
69.260 27.625189
69.265 27.189613
69.270 26.695587
69.275 26.619789
69.280 26.896223
69.285 26.876602
69.290 27.062767
69.295 26.337967
69.300 25.778597
69.305 26.056065
69.310 26.8461
69.315 27.347202
69.320 27.563198
69.325 27.581116
69.330 27.147936
69.335 27.7696
69.340 28.166052
69.345 28.781294
69.350 28.60158
69.355 28.142529
69.360 28.742313
69.365 29.341217
69.370 29.220879
69.375 28.713547
69.380 28.149479
69.385 28.47732
69.390 28.53091
69.395 28.077532
69.400 27.653818
69.405 27.156603
69.410 26.992203
69.415 26.575817
69.420 26.345428
69.425 26.84903
69.430 27.144981
69.435 28.019983
69.440 28.669678
69.445 28.949554
69.450 29.811636
69.455 30.447277
69.460 30.705421
69.465 30.580404
69.470 30.461561
69.475 31.044704
69.480 31.400713
69.485 31.276844
69.490 30.485495
69.495 30.024809
69.500 30.11249
69.505 29.828308
69.510 29.521875
69.515 29.123884
69.520 28.967442
69.525 29.287949
69.530 29.94096
69.535 29.904921
69.540 30.23329
69.545 30.43013
69.550 29.657576
69.555 29.015467
69.560 28.051867
69.565 27.213064
69.570 27.711107
69.575 27.111998
69.580 26.694246
69.585 28.021023
69.590 28.376429
69.595 29.073023
69.600 29.617611
69.605 29.67115
69.610 29.941547
69.615 30.165842
69.620 30.053169
69.625 30.00312
69.630 30.132269
69.635 30.225288
69.640 29.526207
69.645 29.012896
69.650 28.185385
69.655 29.026995
69.660 29.474327
69.665 29.12044
69.670 28.279888
69.675 28.950439
69.680 29.535414
69.685 30.052015
69.690 29.396826
69.695 28.801292
69.700 28.482725
69.705 28.730871
69.710 28.762705
69.715 28.925215
69.720 28.499254
69.725 28.269619
69.730 28.719389
69.735 29.037477
69.740 29.028683
69.745 28.550812
69.750 28.498127
69.755 28.719828
69.760 28.685034
69.765 28.282875
69.770 28.106592
69.775 28.255138
69.780 27.741041
69.785 27.000685
69.790 26.347446
69.795 25.418785
69.800 25.585291
69.805 25.121643
69.810 24.712837
69.815 25.39621
69.820 25.354258
69.825 25.245686
69.830 25.960964
69.835 25.946686
69.840 25.768501
69.845 25.548141
69.850 25.273342
69.855 25.687147
69.860 25.731707
69.865 24.968222
69.870 24.096003
69.875 24.055412
69.880 24.150434
69.885 24.531168
69.890 24.378784
69.895 24.993872
69.900 24.478966
69.905 24.694435
69.910 25.144619
69.915 24.805355
69.920 23.906183
69.925 23.396269
69.930 23.014095
69.935 23.652283
69.940 23.877344
69.945 23.444452
69.950 23.772585
69.955 24.00964
69.960 24.657932
69.965 24.514688
69.970 24.476213
69.975 23.895683
69.980 23.798851
69.985 23.88341
69.990 24.191906
69.995 23.778105
70.000 23.301855
70.005 22.722004
70.010 23.219681
70.015 23.390333
70.020 23.615076
70.025 23.750643
70.030 23.346682
70.035 23.997248
70.040 23.883152
70.045 23.481379
70.050 22.844265
70.055 22.489632
70.060 21.940994
70.065 22.025644
70.070 21.580734
70.075 21.389547
70.080 20.983152
70.085 20.888641
70.090 20.532288
70.095 20.710724
70.100 20.935486
70.105 20.953983
70.110 21.248541
70.115 21.094543
70.120 20.905237
70.125 20.878733
70.130 20.822336
70.135 20.910341
70.140 20.454762
70.145 20.080582
70.150 21.241438
70.155 22.186583
70.160 22.493906
70.165 22.233051
70.170 22.318878
70.175 23.173988
70.180 23.3379
70.185 22.961189
70.190 22.364435
70.195 22.023113
70.200 21.638014
70.205 21.155621
70.210 20.795643
70.215 20.679537
70.220 20.173542
70.225 19.61364
70.230 19.542551
70.235 19.982992
70.240 20.325331
70.245 20.324844
70.250 20.802622
70.255 20.983612
70.260 21.491743
70.265 21.644003
70.270 21.074673
70.275 20.742075
70.280 20.392166
70.285 20.278893
70.290 20.814785
70.295 20.956867
70.300 21.324965
70.305 22.197962
70.310 22.39522
70.315 22.228214
70.320 21.447035
70.325 21.220119
70.330 20.879
70.335 20.442902
70.340 19.802183
70.345 20.197241
70.350 20.341232
70.355 20.560701
70.360 20.277145
70.365 20.495203
70.370 20.693592
70.375 20.602264
70.380 19.955759
70.385 20.099077
70.390 19.503851
70.395 19.601887
70.400 19.484007
70.405 19.198887
70.410 20.19758
70.415 20.800457
70.420 20.769415
70.425 20.662935
70.430 20.534132
70.435 20.483179
70.440 20.546391
70.445 20.128614
70.450 19.949406
70.455 19.863455
70.460 19.919483
70.465 20.071493
70.470 20.333216
70.475 20.204666
70.480 19.981501
70.485 19.708941
70.490 19.836378
70.495 20.010935
70.500 19.879841
70.505 19.460405
70.510 19.493973
70.515 19.699081
70.520 20.293484
70.525 20.350103
70.530 20.229128
70.535 20.370167
70.540 20.677637
70.545 20.546726
70.550 20.647118
70.555 20.536663
70.560 20.515123
70.565 20.19949
70.570 19.466591
70.575 18.89418
70.580 19.031967
70.585 18.05006
70.590 17.864422
70.595 18.02597
70.600 18.135258
70.605 18.567741
70.610 19.302177
70.615 19.036098
70.620 19.134157
70.625 18.773899
70.630 18.611103
70.635 18.792274
70.640 18.422785
70.645 17.331657
70.650 17.883715
70.655 18.182604
70.660 18.285616
70.665 18.930532
70.670 18.711172
70.675 19.822229
70.680 20.470173
70.685 20.807806
70.690 21.127398
70.695 21.329462
70.700 21.066484
70.705 21.139494
70.710 20.483189
70.715 20.075851
70.720 20.125103
70.725 20.319799
70.730 20.258644
70.735 21.080175
70.740 20.465551
70.745 20.409151
70.750 20.446455
70.755 20.462082
70.760 20.0294
70.765 19.846434
70.770 19.312426
70.775 20.0674
70.780 19.754433
70.785 19.515182
70.790 19.116579
70.795 19.058847
70.800 18.961319
70.805 18.702515
70.810 18.966179
70.815 18.843939
70.820 19.09119
70.825 18.800142
70.830 18.588257
70.835 18.344185
70.840 18.251329
70.845 18.033365
70.850 18.781647
70.855 18.991261
70.860 19.617037
70.865 20.27907
70.870 20.697025
70.875 21.159681
70.880 20.998224
70.885 20.431931
70.890 20.293665
70.895 19.590954
70.900 19.444258
70.905 19.310303
70.910 19.342545
70.915 19.490971
70.920 19.740726
70.925 19.549431
70.930 19.552038
70.935 19.765593
70.940 19.574696
70.945 19.370245
70.950 18.903591
70.955 18.333197
70.960 18.304844
70.965 18.603306
70.970 18.613646
70.975 19.105869
70.980 19.344379
70.985 19.740019
70.990 20.504984
70.995 20.306808
71.000 20.01989
71.005 19.647738
71.010 19.408676
71.015 19.158432
71.020 18.764656
71.025 18.499662
71.030 18.807796
71.035 19.331017
71.040 19.192928
71.045 19.373344
71.050 19.646608
71.055 20.408247
71.060 20.330946
71.065 19.792948
71.070 20.002512
71.075 20.179783
71.080 19.489254
71.085 19.231318
71.090 18.508802
71.095 18.796576
71.100 18.762157
71.105 18.216888
71.110 18.124773
71.115 18.015949
71.120 17.855261
71.125 18.073837
71.130 18.374886
71.135 18.454988
71.140 18.377834
71.145 18.800415
71.150 18.803572
71.155 18.843172
71.160 18.19153
71.165 17.613214
71.170 17.299397
71.175 17.274172
71.180 17.614185
71.185 17.932915
71.190 18.188938
71.195 18.605007
71.200 19.354275
71.205 19.944969
71.210 19.50325
71.215 19.564949
71.220 19.673466
71.225 19.569458
71.230 19.460093
71.235 18.848379
71.240 18.480003
71.245 18.666077
71.250 18.924587
71.255 19.129532
71.260 19.392382
71.265 20.063311
71.270 20.398674
71.275 20.725176
71.280 20.364906
71.285 20.120796
71.290 20.1849
71.295 19.597654
71.300 19.185995
71.305 19.315342
71.310 19.884197
71.315 19.795094
71.320 19.473831
71.325 19.74234
71.330 20.172005
71.335 21.002581
71.340 20.723269
71.345 20.200386
71.350 20.355398
71.355 19.969625
71.360 19.441078
71.365 19.054726
71.370 18.072594
71.375 18.145761
71.380 18.344728
71.385 18.359484
71.390 18.145611
71.395 18.32762
71.400 18.778738
71.405 18.687208
71.410 18.541553
71.415 18.79772
71.420 19.234329
71.425 19.692469
71.430 19.285217
71.435 18.839447
71.440 18.818583
71.445 18.536573
71.450 18.198217
71.455 18.031849
71.460 18.111223
71.465 17.855083
71.470 18.749325
71.475 18.454729
71.480 18.483776
71.485 18.085552
71.490 17.525417
71.495 17.966022
71.500 18.014208
71.505 17.961288
71.510 18.035894
71.515 18.388662
71.520 19.324453
71.525 19.899166
71.530 20.097439
71.535 20.030773
71.540 20.210402
71.545 20.533403
71.550 20.339317
71.555 19.816938
71.560 18.821432
71.565 18.453751
71.570 18.773849
71.575 18.538143
71.580 19.066343
71.585 19.088556
71.590 18.722157
71.595 19.401381
71.600 19.385445
71.605 19.395214
71.610 18.795376
71.615 18.415428
71.620 18.717922
71.625 18.769838
71.630 19.243044
71.635 19.621815
71.640 19.551559
71.645 19.358961
71.650 19.556845
71.655 19.302168
71.660 18.867825
71.665 18.120413
71.670 17.776278
71.675 17.386078
71.680 17.226696
71.685 17.154604
71.690 17.64608
71.695 17.928059
71.700 18.108662
71.705 18.211658
71.710 18.907795
71.715 18.923185
71.720 18.924725
71.725 19.380898
71.730 19.561695
71.735 19.469969
71.740 19.399708
71.745 19.757196
71.750 20.500193
71.755 20.55777
71.760 20.828058
71.765 21.208752
71.770 21.335775
71.775 20.767033
71.780 20.440229
71.785 20.040556
71.790 19.404554
71.795 19.325468
71.800 18.635303
71.805 18.668909
71.810 19.094597
71.815 19.126118
71.820 19.398123
71.825 19.266582
71.830 18.592611
71.835 18.922695
71.840 19.502552
71.845 19.889208
71.850 20.06686
71.855 19.688927
71.860 19.649706
71.865 19.877056
71.870 19.457596
71.875 19.257977
71.880 18.580996
71.885 18.306683
71.890 18.071463
71.895 17.78583
71.900 17.747389
71.905 18.277885
71.910 18.627178
71.915 18.963966
71.920 19.516293
71.925 19.973152
71.930 20.240362
71.935 19.976183
71.940 19.154327
71.945 19.113615
71.950 19.210468
71.955 19.055531
71.960 19.070946
71.965 18.904148
71.970 19.094074
71.975 19.040316
71.980 18.876045
71.985 18.583551
71.990 18.442259
71.995 18.502132
72.000 18.901058
72.005 18.803011
72.010 19.130064
72.015 18.603268
72.020 18.389364
72.025 18.255659
72.030 17.651752
72.035 17.277489
72.040 17.260386
72.045 16.769972
72.050 16.827972
72.055 16.88596
72.060 17.833427
72.065 18.208382
72.070 18.361954
72.075 18.225718
72.080 18.25103
72.085 18.464737
72.090 18.494772
72.095 17.906404
72.100 18.060328
72.105 18.584686
72.110 18.292913
72.115 18.250387
72.120 18.495741
72.125 18.083786
72.130 18.838329
72.135 18.908766
72.140 19.288279
72.145 19.972652
72.150 19.414125
72.155 19.033648
72.160 18.588871
72.165 18.010939
72.170 17.914694
72.175 17.62113
72.180 17.287914
72.185 17.703722
72.190 17.936785
72.195 18.983921
72.200 18.504881
72.205 18.301786
72.210 18.387012
72.215 18.65065
72.220 18.95183
72.225 18.801535
72.230 18.745663
72.235 18.693626
72.240 18.598303
72.245 19.186363
72.250 18.672808
72.255 17.870499
72.260 17.40559
72.265 17.715286
72.270 17.794039
72.275 17.593803
72.280 17.318506
72.285 18.009665
72.290 18.497351
72.295 18.428423
72.300 18.293627
72.305 18.410866
72.310 18.386757
72.315 18.717199
72.320 18.625984
72.325 18.576279
72.330 18.936672
72.335 19.47357
72.340 19.924164
72.345 20.198103
72.350 19.648449
72.355 19.628408
72.360 19.577362
72.365 19.57156
72.370 18.80007
72.375 18.867952
72.380 19.199112
72.385 19.351858
72.390 20.096949
72.395 20.605808
72.400 20.904421
72.405 20.97105
72.410 20.397615
72.415 19.774685
72.420 19.500475
72.425 18.561901
72.430 17.785826
72.435 17.73106
72.440 17.697744
72.445 17.966118
72.450 18.418228
72.455 18.055418
72.460 18.090162
72.465 17.888582
72.470 17.604956
72.475 17.546143
72.480 18.074831
72.485 17.879469
72.490 17.806873
72.495 17.933704
72.500 18.132099
72.505 18.429007
72.510 17.686234
72.515 16.946035
72.520 17.054134
72.525 17.348076
72.530 17.007889
72.535 16.997286
72.540 17.471882
72.545 17.653687
72.550 17.839346
72.555 18.047884
72.560 18.243444
72.565 18.894224
72.570 18.734966
72.575 18.31875
72.580 19.060783
72.585 19.795277
72.590 19.460159
72.595 19.238844
72.600 18.814333
72.605 18.74202
72.610 18.904856
72.615 18.220165
72.620 17.585247
72.625 17.37154
72.630 17.579317
72.635 17.388269
72.640 17.263069
72.645 17.354504
72.650 17.175285
72.655 17.511526
72.660 17.386059
72.665 17.678585
72.670 17.620361
72.675 17.377804
72.680 17.084642
72.685 17.567734
72.690 17.674883
72.695 18.198469
72.700 17.706936
72.705 17.950821
72.710 17.952053
72.715 17.959511
72.720 18.076645
72.725 18.037216
72.730 18.057507
72.735 18.204967
72.740 17.960646
72.745 17.71067
72.750 17.557562
72.755 17.779034
72.760 17.559084
72.765 17.283215
72.770 17.256083
72.775 17.801954
72.780 18.08777
72.785 17.64559
72.790 16.335938
72.795 16.558521
72.800 16.945147
72.805 17.046181
72.810 16.884914
72.815 16.882166
72.820 17.376684
72.825 17.352797
72.830 17.021271
72.835 16.89509
72.840 17.160067
72.845 16.931431
72.850 17.600502
72.855 17.738602
72.860 18.055742
72.865 17.890921
72.870 17.742031
72.875 17.942593
72.880 17.968605
72.885 17.248569
72.890 17.859175
72.895 18.58964
72.900 18.886992
72.905 18.722746
72.910 18.388247
72.915 18.270788
72.920 18.622103
72.925 17.770035
72.930 17.339489
72.935 17.327339
72.940 17.332144
72.945 17.608025
72.950 17.251842
72.955 17.444582
72.960 18.101442
72.965 17.684923
72.970 18.126387
72.975 18.351633
72.980 18.694733
72.985 18.859034
72.990 18.62019
72.995 18.556889
73.000 18.260511
