!@!!GADDS PLOTSO FILE: Chi integration type
!@!!Title/SampleName: map-48
!@!!Comment: ?
!@!!User: Bruker Instrument Administrator
!@!!Site: University of Illinois Chicago
!@!!Frame: map-48_01_000.gfrm
!@!!Wavelengths    1.54184   1.54056   1.54439
!@!!Frame angles: 2Theta: 63.000 Omega: 50.000 Phi: 0.000 Chi: 90.000
!@!!Integration range: 2Theta: 53.000 to 73.000  Gamma: -105.000 to -75.000
!@!!Integration method: bin normalized
!@!N
!@!SS
!@!M
!@!L 0.0 0.0 0.0 0.0
!@!XDegrees
!@!YCounts
53.000 10.184353
53.005 10.304029
53.010 10.072495
53.015 9.645692
53.020 9.332177
53.025 9.414279
53.030 9.259858
53.035 8.804584
53.040 8.781582
53.045 8.979454
53.050 9.311283
53.055 9.224451
53.060 9.290547
53.065 9.840011
53.070 9.938766
53.075 9.904625
53.080 9.726013
53.085 9.50086
53.090 9.488577
53.095 9.872651
53.100 10.220703
53.105 10.282769
53.110 9.792355
53.115 10.323457
53.120 10.525532
53.125 9.88254
53.130 9.129617
53.135 8.760663
53.140 9.15236
53.145 9.434608
53.150 9.556271
53.155 9.492832
53.160 10.267607
53.165 10.793818
53.170 11.086086
53.175 11.148862
53.180 10.60144
53.185 10.207651
53.190 10.741662
53.195 10.421727
53.200 10.337571
53.205 10.252957
53.210 10.308243
53.215 10.381173
53.220 9.961203
53.225 9.356285
53.230 9.382084
53.235 9.319458
53.240 9.231576
53.245 9.360499
53.250 9.311256
53.255 9.310075
53.260 9.809946
53.265 9.14246
53.270 8.543064
53.275 8.290814
53.280 8.620489
53.285 9.246142
53.290 9.508902
53.295 9.371426
53.300 9.481075
53.305 10.101565
53.310 10.531291
53.315 10.592558
53.320 10.344533
53.325 10.212489
53.330 10.267895
53.335 10.153375
53.340 9.558512
53.345 9.153481
53.350 9.036583
53.355 8.732913
53.360 8.843153
53.365 9.120957
53.370 9.579541
53.375 10.137325
53.380 10.315125
53.385 10.593218
53.390 10.786609
53.395 11.247037
53.400 11.314125
53.405 11.154655
53.410 10.727831
53.415 10.602184
53.420 10.436133
53.425 10.420953
53.430 10.087734
53.435 9.968832
53.440 10.468388
53.445 10.375592
53.450 10.500935
53.455 10.462518
53.460 10.190379
53.465 10.148783
53.470 9.760794
53.475 9.211918
53.480 9.235861
53.485 8.700736
53.490 8.739896
53.495 8.889586
53.500 8.689531
53.505 9.028673
53.510 9.117533
53.515 8.987424
53.520 9.219951
53.525 8.941978
53.530 9.060456
53.535 9.423105
53.540 9.337751
53.545 9.800774
53.550 10.271829
53.555 10.767476
53.560 10.878714
53.565 10.587693
53.570 10.336349
53.575 10.34574
53.580 10.145046
53.585 10.555692
53.590 10.707132
53.595 10.618185
53.600 11.038433
53.605 11.059213
53.610 10.917512
53.615 10.8435
53.620 10.534398
53.625 10.364395
53.630 10.336189
53.635 10.503915
53.640 10.837942
53.645 10.790571
53.650 10.60194
53.655 10.050164
53.660 9.806435
53.665 9.887842
53.670 9.537133
53.675 9.76671
53.680 9.926161
53.685 10.161182
53.690 10.854879
53.695 11.240856
53.700 10.829663
53.705 10.952245
53.710 11.063155
53.715 11.040753
53.720 10.732594
53.725 10.811889
53.730 10.656413
53.735 10.642506
53.740 10.409103
53.745 9.807432
53.750 10.005715
53.755 9.788083
53.760 10.057168
53.765 10.293582
53.770 10.457567
53.775 10.779838
53.780 11.03802
53.785 11.111064
53.790 10.995451
53.795 10.475724
53.800 10.429673
53.805 10.245996
53.810 10.017155
53.815 9.658331
53.820 9.789754
53.825 9.897587
53.830 10.062285
53.835 10.248247
53.840 9.88576
53.845 10.185045
53.850 10.156088
53.855 9.702119
53.860 9.256464
53.865 9.147552
53.870 9.264256
53.875 9.682151
53.880 9.498623
53.885 9.563377
53.890 9.838632
53.895 10.586118
53.900 10.61094
53.905 10.325021
53.910 10.168281
53.915 10.372809
53.920 10.201936
53.925 9.974454
53.930 9.288787
53.935 9.376834
53.940 9.18418
53.945 8.863664
53.950 9.051902
53.955 9.047698
53.960 9.553556
53.965 10.072038
53.970 10.270872
53.975 10.897271
53.980 11.202188
53.985 11.041315
53.990 11.199077
53.995 11.334719
54.000 11.557284
54.005 11.332235
54.010 11.614787
54.015 11.28214
54.020 11.417319
54.025 11.860619
54.030 11.584977
54.035 11.242867
54.040 11.33969
54.045 11.128463
54.050 11.570765
54.055 11.275663
54.060 10.626367
54.065 10.140945
54.070 9.821763
54.075 9.850904
54.080 9.815268
54.085 9.967129
54.090 10.128472
54.095 10.423441
54.100 10.856919
54.105 11.148009
54.110 11.267499
54.115 11.381267
54.120 11.114887
54.125 11.039292
54.130 10.841072
54.135 10.740483
54.140 10.542449
54.145 10.227316
54.150 10.052566
54.155 10.088395
54.160 10.40355
54.165 10.977489
54.170 11.135586
54.175 10.957045
54.180 10.908218
54.185 10.808863
54.190 10.881618
54.195 11.085319
54.200 11.102044
54.205 11.079155
54.210 11.531187
54.215 11.404032
54.220 12.147797
54.225 12.318439
54.230 11.959732
54.235 12.181153
54.240 12.439474
54.245 12.060046
54.250 11.676932
54.255 11.198581
54.260 10.944257
54.265 11.083486
54.270 10.177403
54.275 9.6513
54.280 9.88975
54.285 9.886912
54.290 9.758748
54.295 9.619726
54.300 10.010984
54.305 10.417889
54.310 10.93247
54.315 11.227656
54.320 11.185984
54.325 10.969995
54.330 10.979508
54.335 11.504033
54.340 11.556951
54.345 11.040105
54.350 11.019243
54.355 11.156188
54.360 11.491266
54.365 11.267517
54.370 10.755635
54.375 10.873362
54.380 11.350852
54.385 11.439658
54.390 11.558411
54.395 11.493189
54.400 11.41631
54.405 11.095437
54.410 10.843239
54.415 10.504262
54.420 10.523952
54.425 10.342748
54.430 10.478803
54.435 10.549716
54.440 10.884107
54.445 11.413654
54.450 10.986264
54.455 10.837248
54.460 11.209546
54.465 11.494369
54.470 11.711456
54.475 11.713937
54.480 11.77284
54.485 12.149229
54.490 12.389424
54.495 12.319279
54.500 12.372409
54.505 12.450566
54.510 12.369568
54.515 12.6885
54.520 12.914533
54.525 12.635243
54.530 12.258544
54.535 11.735457
54.540 11.811248
54.545 11.570053
54.550 11.290676
54.555 10.919577
54.560 11.020577
54.565 10.823405
54.570 10.454874
54.575 10.266042
54.580 10.090466
54.585 10.000263
54.590 10.451864
54.595 10.824351
54.600 11.105803
54.605 11.72598
54.610 11.855719
54.615 12.255092
54.620 12.206615
54.625 11.915615
54.630 11.634784
54.635 11.540327
54.640 10.796097
54.645 10.660594
54.650 9.966256
54.655 9.890193
54.660 10.075814
54.665 10.786368
54.670 10.923253
54.675 11.260712
54.680 11.344748
54.685 11.916382
54.690 12.015504
54.695 11.679624
54.700 11.252065
54.705 11.444191
54.710 11.318998
54.715 11.269287
54.720 11.204408
54.725 11.209211
54.730 11.450817
54.735 11.339205
54.740 11.702504
54.745 12.314616
54.750 12.383832
54.755 12.876933
54.760 12.793979
54.765 12.575102
54.770 12.487956
54.775 12.307481
54.780 12.028281
54.785 11.69722
54.790 11.189836
54.795 11.21293
54.800 11.128454
54.805 11.014296
54.810 10.844057
54.815 10.992498
54.820 10.867622
54.825 11.139114
54.830 11.067684
54.835 11.123264
54.840 11.105533
54.845 11.127662
54.850 11.000066
54.855 10.590321
54.860 10.242201
54.865 10.138441
54.870 10.101793
54.875 10.252647
54.880 10.18871
54.885 10.193906
54.890 10.818792
54.895 11.227651
54.900 11.581856
54.905 11.627526
54.910 11.404193
54.915 11.55486
54.920 11.403365
54.925 11.52784
54.930 11.48832
54.935 11.94187
54.940 12.388282
54.945 13.550906
54.950 14.178255
54.955 14.089467
54.960 13.893827
54.965 13.400228
54.970 12.780775
54.975 11.962671
54.980 11.223934
54.985 10.714142
54.990 10.891789
54.995 11.044908
55.000 10.783222
55.005 10.919474
55.010 10.733223
55.015 10.394159
55.020 11.474273
55.025 11.867345
55.030 12.083599
55.035 12.163224
55.040 12.022218
55.045 12.21125
55.050 12.236722
55.055 11.566344
55.060 11.268617
55.065 11.452523
55.070 11.784866
55.075 12.112796
55.080 12.370768
55.085 12.206755
55.090 11.7994
55.095 11.798723
55.100 11.679654
55.105 11.691175
55.110 11.866553
55.115 11.963284
55.120 11.983511
55.125 12.220858
55.130 12.230396
55.135 12.178817
55.140 12.407907
55.145 12.420187
55.150 12.398636
55.155 12.602464
55.160 12.040685
55.165 11.858709
55.170 11.567004
55.175 11.249873
55.180 11.432392
55.185 11.268706
55.190 11.56269
55.195 11.91326
55.200 12.25426
55.205 12.657833
55.210 12.889526
55.215 12.519666
55.220 12.581151
55.225 12.866216
55.230 12.54199
55.235 12.453118
55.240 12.277252
55.245 12.289924
55.250 12.801922
55.255 12.537146
55.260 12.323872
55.265 12.56018
55.270 12.188844
55.275 12.182439
55.280 12.007621
55.285 11.985696
55.290 12.384939
55.295 12.695535
55.300 12.807227
55.305 12.676162
55.310 11.965785
55.315 11.666251
55.320 10.929279
55.325 10.616043
55.330 9.939127
55.335 9.438267
55.340 10.036538
55.345 10.493753
55.350 10.458931
55.355 10.426806
55.360 10.32609
55.365 10.682323
55.370 11.262513
55.375 10.733801
55.380 10.585699
55.385 11.03908
55.390 11.149861
55.395 11.007067
55.400 10.583616
55.405 10.926959
55.410 11.383182
55.415 11.568195
55.420 11.080483
55.425 10.969295
55.430 11.034603
55.435 10.981247
55.440 10.635454
55.445 10.20924
55.450 10.016298
55.455 10.328067
55.460 10.62278
55.465 10.871247
55.470 11.353589
55.475 11.59634
55.480 12.024199
55.485 11.933888
55.490 11.629994
55.495 12.302669
55.500 12.054635
55.505 12.371167
55.510 12.586475
55.515 12.678889
55.520 12.875727
55.525 12.934457
55.530 12.878267
55.535 12.672881
55.540 11.89578
55.545 11.351336
55.550 11.358914
55.555 11.58117
55.560 11.594133
55.565 11.699797
55.570 11.780381
55.575 12.079536
55.580 12.239078
55.585 12.246701
55.590 12.429292
55.595 12.895139
55.600 12.690008
55.605 12.443357
55.610 12.18567
55.615 12.007093
55.620 12.085431
55.625 12.110188
55.630 12.04929
55.635 12.109895
55.640 12.554549
55.645 12.922141
55.650 13.255296
55.655 13.110818
55.660 12.591944
55.665 11.665527
55.670 11.059475
55.675 10.711078
55.680 10.536231
55.685 10.158461
55.690 10.577996
55.695 11.176978
55.700 11.944
55.705 12.579858
55.710 12.742557
55.715 13.121303
55.720 13.233737
55.725 12.940736
55.730 12.736264
55.735 12.200706
55.740 12.401123
55.745 12.35796
55.750 11.954593
55.755 11.46448
55.760 10.935444
55.765 11.076839
55.770 11.078064
55.775 11.184543
55.780 11.569745
55.785 11.886147
55.790 12.176801
55.795 12.54392
55.800 12.460392
55.805 12.415494
55.810 11.88765
55.815 11.77864
55.820 12.369014
55.825 12.904409
55.830 12.82508
55.835 12.943557
55.840 12.980947
55.845 13.234269
55.850 13.171255
55.855 13.004098
55.860 12.737187
55.865 13.010295
55.870 13.340428
55.875 13.559172
55.880 13.844962
55.885 13.538447
55.890 13.224957
55.895 13.226067
55.900 13.131152
55.905 12.467113
55.910 12.103456
55.915 11.904289
55.920 11.625859
55.925 11.667048
55.930 11.798548
55.935 12.471258
55.940 12.864817
55.945 13.179205
55.950 13.744442
55.955 14.265553
55.960 14.076222
55.965 14.107488
55.970 13.605852
55.975 13.543298
55.980 13.118377
55.985 12.600798
55.990 12.29791
55.995 11.937125
56.000 11.405874
56.005 11.63251
56.010 11.833508
56.015 11.933393
56.020 12.067197
56.025 11.982942
56.030 12.55831
56.035 12.738515
56.040 12.66201
56.045 12.82065
56.050 12.939381
56.055 13.250065
56.060 13.642901
56.065 13.823236
56.070 13.921665
56.075 13.128259
56.080 12.638982
56.085 12.712803
56.090 13.085
56.095 12.867
56.100 12.4547
56.105 12.319589
56.110 13.274288
56.115 12.98323
56.120 12.338063
56.125 11.583781
56.130 11.68393
56.135 11.774118
56.140 12.387828
56.145 11.920867
56.150 12.17397
56.155 12.933626
56.160 12.825144
56.165 12.972566
56.170 13.19742
56.175 13.107122
56.180 13.595452
56.185 13.872259
56.190 13.812598
56.195 14.518307
56.200 14.636589
56.205 14.701717
56.210 14.708783
56.215 15.133926
56.220 15.442065
56.225 15.233607
56.230 15.172007
56.235 14.989444
56.240 14.437292
56.245 14.518331
56.250 13.605331
56.255 12.921005
56.260 12.661059
56.265 12.49628
56.270 12.9096
56.275 13.134527
56.280 12.875581
56.285 13.449473
56.290 13.295578
56.295 13.038431
56.300 12.471228
56.305 11.645572
56.310 11.244676
56.315 11.6277
56.320 11.32701
56.325 11.526831
56.330 12.046113
56.335 12.73995
56.340 13.115295
56.345 13.135148
56.350 12.704599
56.355 13.16002
56.360 13.401042
56.365 13.110592
56.370 13.213014
56.375 13.564062
56.380 13.661292
56.385 13.958272
56.390 13.698075
56.395 13.697521
56.400 13.63278
56.405 12.952168
56.410 12.586342
56.415 12.213727
56.420 12.12299
56.425 12.165853
56.430 12.403782
56.435 12.669886
56.440 12.900013
56.445 12.95023
56.450 13.414868
56.455 13.267752
56.460 13.245986
56.465 13.053196
56.470 12.759552
56.475 12.688398
56.480 12.381404
56.485 12.764428
56.490 12.705736
56.495 12.30163
56.500 11.879312
56.505 12.016883
56.510 11.874566
56.515 11.826414
56.520 11.267204
56.525 11.66291
56.530 12.236855
56.535 12.592918
56.540 12.791396
56.545 13.376739
56.550 13.681716
56.555 13.967945
56.560 13.67942
56.565 13.582756
56.570 13.448389
56.575 13.747419
56.580 13.452349
56.585 13.39383
56.590 13.181435
56.595 12.808473
56.600 12.915719
56.605 12.988567
56.610 12.186373
56.615 12.181541
56.620 12.021794
56.625 11.737728
56.630 11.559693
56.635 11.249666
56.640 11.147555
56.645 11.444796
56.650 11.504671
56.655 11.623209
56.660 12.125164
56.665 12.46838
56.670 12.657487
56.675 12.639325
56.680 12.96944
56.685 12.895708
56.690 13.102524
56.695 13.168157
56.700 13.028146
56.705 12.832607
56.710 13.089568
56.715 13.111723
56.720 13.289912
56.725 13.157216
56.730 13.675313
56.735 14.460385
56.740 15.027267
56.745 15.041839
56.750 14.827719
56.755 15.054007
56.760 15.224401
56.765 14.701178
56.770 14.488327
56.775 13.928821
56.780 13.743747
56.785 13.772913
56.790 13.321422
56.795 13.299194
56.800 13.551365
56.805 13.482636
56.810 13.586759
56.815 13.517857
56.820 13.272173
56.825 13.203095
56.830 13.18246
56.835 12.911631
56.840 12.670822
56.845 12.464587
56.850 12.523866
56.855 12.910845
56.860 13.12769
56.865 12.926005
56.870 12.770754
56.875 13.004599
56.880 13.827954
56.885 14.000521
56.890 14.000813
56.895 13.993061
56.900 14.392873
56.905 14.799037
56.910 14.733916
56.915 14.655058
56.920 14.346286
56.925 14.036242
56.930 13.740479
56.935 14.063627
56.940 14.084449
56.945 13.716613
56.950 13.665719
56.955 14.467794
56.960 15.037191
56.965 14.74459
56.970 13.890391
56.975 14.232203
56.980 14.449207
56.985 14.57143
56.990 13.867611
56.995 13.596989
57.000 13.342713
57.005 12.964363
57.010 12.587843
57.015 12.49847
57.020 12.238189
57.025 12.436814
57.030 12.323332
57.035 12.422727
57.040 12.648343
57.045 12.348912
57.050 12.204081
57.055 12.270125
57.060 12.129904
57.065 12.544027
57.070 13.198025
57.075 13.250143
57.080 13.391036
57.085 13.824374
57.090 13.868081
57.095 13.831171
57.100 13.939561
57.105 13.793198
57.110 13.976564
57.115 14.061457
57.120 14.003454
57.125 14.063605
57.130 13.95517
57.135 13.68733
57.140 13.510463
57.145 13.262376
57.150 12.964238
57.155 12.810851
57.160 13.303454
57.165 13.266324
57.170 13.320133
57.175 13.51632
57.180 14.154749
57.185 14.44307
57.190 14.243701
57.195 14.086575
57.200 14.558208
57.205 15.099385
57.210 15.547794
57.215 15.659714
57.220 15.987959
57.225 15.86167
57.230 15.880235
57.235 15.817455
57.240 15.65228
57.245 14.984736
57.250 13.91029
57.255 13.634587
57.260 13.382132
57.265 13.357516
57.270 13.588352
57.275 13.797331
57.280 14.262029
57.285 14.976402
57.290 14.865553
57.295 14.881738
57.300 15.146717
57.305 14.764457
57.310 14.79304
57.315 15.589474
57.320 15.173238
57.325 15.504057
57.330 16.153034
57.335 15.66566
57.340 15.530828
57.345 15.118887
57.350 14.820876
57.355 15.0768
57.360 14.795826
57.365 14.43052
57.370 14.65695
57.375 15.106256
57.380 15.184294
57.385 15.019204
57.390 15.032023
57.395 15.107297
57.400 15.45092
57.405 15.508463
57.410 14.82798
57.415 14.262694
57.420 14.254853
57.425 14.382392
57.430 14.316773
57.435 13.543461
57.440 13.903354
57.445 14.89659
57.450 15.464341
57.455 15.310972
57.460 15.060286
57.465 15.084962
57.470 14.948253
57.475 14.405516
57.480 13.665584
57.485 13.913676
57.490 13.939712
57.495 13.9455
57.500 14.121716
57.505 14.554996
57.510 14.741043
57.515 14.651578
57.520 14.343966
57.525 13.780608
57.530 13.671948
57.535 13.699864
57.540 13.818881
57.545 13.95021
57.550 14.173821
57.555 14.696963
57.560 15.66573
57.565 16.061256
57.570 15.919163
57.575 16.304918
57.580 16.594595
57.585 16.588562
57.590 16.408316
57.595 16.175442
57.600 15.8267
57.605 15.437922
57.610 15.519748
57.615 15.149039
57.620 15.049147
57.625 15.166608
57.630 15.013576
57.635 15.322047
57.640 15.359008
57.645 14.501091
57.650 14.728627
57.655 15.051147
57.660 14.890633
57.665 15.130355
57.670 14.862248
57.675 14.808341
57.680 14.552939
57.685 14.284427
57.690 14.201361
57.695 14.357404
57.700 14.945726
57.705 15.083272
57.710 15.307831
57.715 15.632117
57.720 15.532516
57.725 15.641675
57.730 15.272962
57.735 14.630107
57.740 14.929299
57.745 14.913925
57.750 15.389059
57.755 15.695946
57.760 15.424051
57.765 15.306997
57.770 15.207137
57.775 15.38049
57.780 15.178373
57.785 14.953563
57.790 14.710233
57.795 14.770455
57.800 15.051608
57.805 14.923896
57.810 15.281398
57.815 15.857083
57.820 15.648647
57.825 15.844236
57.830 16.651949
57.835 16.657339
57.840 16.849625
57.845 16.466433
57.850 16.201578
57.855 16.364267
57.860 16.165247
57.865 15.811199
57.870 16.244902
57.875 16.41844
57.880 16.463064
57.885 16.157194
57.890 16.113758
57.895 16.242149
57.900 16.17145
57.905 15.606069
57.910 15.862245
57.915 15.994681
57.920 16.664024
57.925 16.802999
57.930 16.321314
57.935 16.236795
57.940 16.608995
57.945 16.460537
57.950 16.803112
57.955 16.673174
57.960 16.284775
57.965 16.368284
57.970 16.850376
57.975 16.88431
57.980 16.819576
57.985 16.614122
57.990 16.790598
57.995 17.030006
58.000 17.481049
58.005 17.154211
58.010 16.895721
58.015 16.710003
58.020 16.390949
58.025 15.744982
58.030 15.716079
58.035 15.519764
58.040 15.206706
58.045 15.784107
58.050 15.831365
58.055 16.023226
58.060 16.742348
58.065 16.999088
58.070 17.403711
58.075 17.610678
58.080 17.559603
58.085 17.872202
58.090 18.324072
58.095 17.986069
58.100 18.009291
58.105 17.827991
58.110 17.515102
58.115 17.587669
58.120 17.434528
58.125 17.205999
58.130 17.055712
58.135 16.898205
58.140 17.15657
58.145 18.345497
58.150 18.328644
58.155 18.620155
58.160 18.527367
58.165 18.650988
58.170 18.972506
58.175 18.510502
58.180 17.807175
58.185 18.242033
58.190 18.609013
58.195 18.935678
58.200 18.966022
58.205 18.991026
58.210 19.54285
58.215 20.120661
58.220 20.353979
58.225 19.810877
58.230 19.606178
58.235 19.896717
58.240 19.785673
58.245 19.517935
58.250 19.212652
58.255 18.917051
58.260 19.144003
58.265 19.388271
58.270 19.363054
58.275 19.09664
58.280 19.654079
58.285 19.894573
58.290 19.407661
58.295 19.696579
58.300 20.277605
58.305 19.994045
58.310 20.23628
58.315 19.722019
58.320 19.826286
58.325 20.412415
58.330 20.920542
58.335 20.604918
58.340 20.557257
58.345 21.200096
58.350 21.597099
58.355 21.336987
58.360 21.284004
58.365 21.30139
58.370 21.798859
58.375 22.980139
58.380 23.375134
58.385 23.624781
58.390 23.966616
58.395 24.2679
58.400 24.130045
58.405 24.476223
58.410 23.78076
58.415 23.075743
58.420 22.983227
58.425 23.138239
58.430 23.055216
58.435 23.918339
58.440 24.181376
58.445 25.269976
58.450 26.285517
58.455 27.498417
58.460 28.194483
58.465 28.17519
58.470 28.03723
58.475 27.690338
58.480 27.625937
58.485 27.565588
58.490 27.448711
58.495 27.835611
58.500 28.773094
58.505 29.405571
58.510 30.199179
58.515 30.757627
58.520 31.363811
58.525 31.948675
58.530 31.989361
58.535 31.891027
58.540 31.730251
58.545 31.626368
58.550 30.976753
58.555 30.735758
58.560 30.882275
58.565 31.814972
58.570 32.378738
58.575 32.949963
58.580 33.934338
58.585 34.488228
58.590 35.69899
58.595 36.56403
58.600 35.847824
58.605 35.439468
58.610 35.777519
58.615 35.146301
58.620 35.458694
58.625 36.036533
58.630 36.253796
58.635 36.186058
58.640 35.779724
58.645 34.76342
58.650 34.907108
58.655 34.716217
58.660 33.719593
58.665 33.101379
58.670 33.877102
58.675 34.197639
58.680 34.121075
58.685 33.953499
58.690 34.010178
58.695 33.817448
58.700 32.7929
58.705 32.335907
58.710 31.756681
58.715 31.366014
58.720 31.192204
58.725 30.958565
58.730 30.162182
58.735 30.445877
58.740 29.84465
58.745 29.473097
58.750 29.660707
58.755 29.825659
58.760 29.400654
58.765 29.708115
58.770 29.932829
58.775 29.787481
58.780 30.295387
58.785 29.607338
58.790 28.918329
58.795 28.7159
58.800 28.025377
58.805 27.830816
58.810 27.512903
58.815 26.550991
58.820 25.892527
58.825 26.240042
58.830 25.430161
58.835 25.380798
58.840 24.153683
58.845 24.04808
58.850 24.860657
58.855 25.174896
58.860 24.200523
58.865 24.277874
58.870 23.737093
58.875 24.229197
58.880 23.796284
58.885 23.139462
58.890 22.851303
58.895 22.861088
58.900 22.946472
58.905 22.570803
58.910 21.990211
58.915 21.679445
58.920 21.585873
58.925 21.465681
58.930 21.19375
58.935 20.887953
58.940 21.203892
58.945 21.18453
58.950 21.029991
58.955 20.564058
58.960 20.602858
58.965 20.506693
58.970 19.719101
58.975 19.005684
58.980 19.020084
58.985 19.144037
58.990 19.739511
58.995 19.201654
59.000 19.627773
59.005 20.58062
59.010 20.928143
59.015 21.051334
59.020 20.500036
59.025 19.376108
59.030 19.460279
59.035 19.412817
59.040 18.980286
59.045 18.260597
59.050 18.472378
59.055 18.770634
59.060 19.568796
59.065 19.875326
59.070 19.31658
59.075 19.508862
59.080 19.984983
59.085 19.456532
59.090 19.563141
59.095 19.537142
59.100 18.81789
59.105 19.121128
59.110 18.672295
59.115 17.840918
59.120 17.369337
59.125 16.716728
59.130 16.26914
59.135 16.194384
59.140 15.856214
59.145 15.471101
59.150 15.938643
59.155 16.346331
59.160 16.055689
59.165 15.825009
59.170 15.745461
59.175 15.290166
59.180 15.297207
59.185 15.083312
59.190 15.116324
59.195 15.509438
59.200 15.582227
59.205 15.665562
59.210 16.187887
59.215 16.178938
59.220 16.76169
59.225 16.870134
59.230 16.735249
59.235 17.069635
59.240 17.350071
59.245 18.110422
59.250 18.129757
59.255 17.242189
59.260 17.054731
59.265 17.327101
59.270 17.686783
59.275 17.767179
59.280 16.58242
59.285 16.229548
59.290 16.717236
59.295 16.731546
59.300 16.353689
59.305 15.749457
59.310 15.557503
59.315 16.088276
59.320 16.032349
59.325 15.840357
59.330 16.512846
59.335 17.383932
59.340 17.805309
59.345 17.35997
59.350 16.570492
59.355 16.451832
59.360 16.304924
59.365 16.172386
59.370 15.534223
59.375 14.678699
59.380 14.984228
59.385 15.451385
59.390 16.032686
59.395 16.152216
59.400 15.649382
59.405 15.781805
59.410 16.395105
59.415 16.816591
59.420 17.251247
59.425 16.973829
59.430 16.787815
59.435 16.995981
59.440 16.803308
59.445 16.697708
59.450 16.40012
59.455 15.907583
59.460 16.050339
59.465 16.224009
59.470 15.894552
59.475 15.580021
59.480 15.411703
59.485 15.151865
59.490 15.765689
59.495 15.807
59.500 15.672915
59.505 15.797935
59.510 15.706917
59.515 15.854588
59.520 15.905501
59.525 15.277056
59.530 14.774324
59.535 15.057591
59.540 15.122918
59.545 15.094574
59.550 15.051285
59.555 15.28822
59.560 15.596313
59.565 15.675508
59.570 15.36179
59.575 15.219612
59.580 15.521518
59.585 15.170685
59.590 14.871552
59.595 15.04592
59.600 14.941527
59.605 14.746639
59.610 14.53125
59.615 14.296885
59.620 14.772073
59.625 15.165915
59.630 15.403206
59.635 15.352456
59.640 15.540185
59.645 16.044062
59.650 16.154652
59.655 15.519022
59.660 15.017591
59.665 14.613115
59.670 14.571605
59.675 14.609511
59.680 14.738129
59.685 15.108643
59.690 15.933391
59.695 16.229532
59.700 16.358643
59.705 16.424488
59.710 16.590651
59.715 16.40147
59.720 16.610979
59.725 16.519382
59.730 16.815199
59.735 17.543032
59.740 18.036093
59.745 18.298836
59.750 18.269213
59.755 18.138937
59.760 17.767673
59.765 17.429329
59.770 17.078995
59.775 17.04896
59.780 17.160707
59.785 17.04266
59.790 16.646574
59.795 16.236668
59.800 15.758983
59.805 15.184576
59.810 14.536609
59.815 14.601941
59.820 14.785028
59.825 15.200883
59.830 15.599757
59.835 15.348477
59.840 15.419354
59.845 15.817601
59.850 15.433006
59.855 15.576656
59.860 15.743868
59.865 16.156509
59.870 17.174139
59.875 17.228138
59.880 16.998743
59.885 16.551495
59.890 16.451424
59.895 16.390953
59.900 16.085367
59.905 15.833801
59.910 16.004623
59.915 16.135721
59.920 16.222528
59.925 16.035471
59.930 16.330481
59.935 16.650732
59.940 16.57193
59.945 16.145365
59.950 16.00046
59.955 15.971869
59.960 15.86006
59.965 15.185653
59.970 15.18296
59.975 15.14719
59.980 15.577514
59.985 15.90403
59.990 16.313398
59.995 16.410255
60.000 16.655666
60.005 16.740313
60.010 16.906219
60.015 16.92239
60.020 16.988838
60.025 16.612474
60.030 16.372429
60.035 16.174042
60.040 15.981399
60.045 15.909623
60.050 16.030766
60.055 16.368965
60.060 16.997446
60.065 17.356768
60.070 17.157532
60.075 17.361479
60.080 17.494478
60.085 16.942921
60.090 16.329958
60.095 15.626607
60.100 15.711892
60.105 16.431517
60.110 16.082466
60.115 15.284563
60.120 15.626271
60.125 16.335148
60.130 16.724854
60.135 16.426754
60.140 15.949014
60.145 15.712719
60.150 15.653552
60.155 15.157231
60.160 14.456738
60.165 14.45539
60.170 14.421105
60.175 14.595634
60.180 15.324471
60.185 16.108191
60.190 16.335918
60.195 16.224369
60.200 16.165731
60.205 16.626434
60.210 16.616993
60.215 16.483175
60.220 15.888242
60.225 15.99684
60.230 16.028685
60.235 15.784631
60.240 15.753779
60.245 16.036283
60.250 16.217978
60.255 16.736511
60.260 16.681631
60.265 16.412107
60.270 16.292105
60.275 15.86749
60.280 15.345047
60.285 14.4996
60.290 13.97566
60.295 13.438616
60.300 13.565217
60.305 13.864116
60.310 14.038075
60.315 14.128383
60.320 14.479897
60.325 14.556059
60.330 15.091688
60.335 15.263814
60.340 14.959208
60.345 15.339311
60.350 15.428284
60.355 15.20626
60.360 15.235477
60.365 15.410272
60.370 15.768383
60.375 16.122002
60.380 16.022995
60.385 16.116228
60.390 16.738171
60.395 17.323462
60.400 16.933311
60.405 16.864651
60.410 16.470398
60.415 15.789859
60.420 16.01708
60.425 15.808277
60.430 15.771231
60.435 16.00135
60.440 15.762396
60.445 16.092968
60.450 16.300255
60.455 16.00737
60.460 15.603752
60.465 15.615102
60.470 15.931687
60.475 15.936238
60.480 15.444642
60.485 15.453952
60.490 15.783494
60.495 16.1054
60.500 16.035345
60.505 15.571796
60.510 16.088518
60.515 16.613752
60.520 16.462784
60.525 15.984968
60.530 15.715791
60.535 15.547279
60.540 15.406903
60.545 15.143349
60.550 15.237543
60.555 15.460666
60.560 15.96108
60.565 15.749021
60.570 15.966842
60.575 16.421364
60.580 16.168737
60.585 16.056789
60.590 16.411892
60.595 16.806881
60.600 17.290579
60.605 17.072578
60.610 17.157747
60.615 17.765417
60.620 17.316147
60.625 16.511835
60.630 16.00598
60.635 15.573715
60.640 15.362709
60.645 14.633454
60.650 14.068719
60.655 14.33253
60.660 14.575521
60.665 14.59889
60.670 15.261868
60.675 15.730771
60.680 15.818972
60.685 15.851273
60.690 16.050064
60.695 16.246262
60.700 16.00816
60.705 16.035351
60.710 15.873296
60.715 15.907109
60.720 16.184162
60.725 16.504431
60.730 17.026772
60.735 17.318174
60.740 17.002098
60.745 17.474894
60.750 17.646528
60.755 17.670214
60.760 17.066341
60.765 16.798717
60.770 16.678886
60.775 17.147785
60.780 17.316853
60.785 17.001585
60.790 16.2719
60.795 16.489737
60.800 16.643116
60.805 16.7153
60.810 16.160007
60.815 15.871807
60.820 16.491884
60.825 16.850611
60.830 16.264536
60.835 15.994024
60.840 16.07811
60.845 16.507986
60.850 16.779661
60.855 16.634979
60.860 16.959898
60.865 17.228859
60.870 17.694696
60.875 18.170214
60.880 17.426928
60.885 17.18494
60.890 17.146166
60.895 16.83079
60.900 16.7173
60.905 15.977138
60.910 14.774292
60.915 14.79446
60.920 14.751568
60.925 14.707413
60.930 15.139194
60.935 15.473083
60.940 15.926576
60.945 16.75831
60.950 16.715714
60.955 16.949402
60.960 16.973919
60.965 16.153341
60.970 15.268984
60.975 14.838244
60.980 14.514024
60.985 14.500234
60.990 14.029708
60.995 14.135011
61.000 14.817143
61.005 15.201223
61.010 15.293359
61.015 15.553746
61.020 15.907116
61.025 15.629772
61.030 15.884542
61.035 16.491013
61.040 16.475985
61.045 16.438301
61.050 16.359337
61.055 16.102404
61.060 16.151278
61.065 15.705203
61.070 15.233533
61.075 15.099021
61.080 15.258402
61.085 15.420261
61.090 15.703999
61.095 16.15696
61.100 15.87654
61.105 15.853439
61.110 15.871756
61.115 15.987988
61.120 15.805747
61.125 16.3132
61.130 16.309048
61.135 16.094307
61.140 15.922668
61.145 15.900647
61.150 16.34737
61.155 16.574125
61.160 15.623389
61.165 15.300765
61.170 16.038313
61.175 16.717237
61.180 16.707228
61.185 16.914104
61.190 17.409485
61.195 18.58021
61.200 19.743244
61.205 19.80695
61.210 19.346884
61.215 19.466766
61.220 19.086325
61.225 18.895361
61.230 18.320791
61.235 17.197935
61.240 16.767735
61.245 17.156078
61.250 16.818344
61.255 16.320713
61.260 15.438608
61.265 16.061512
61.270 16.653418
61.275 16.186672
61.280 16.085516
61.285 16.446165
61.290 16.671865
61.295 17.067158
61.300 17.011158
61.305 16.751089
61.310 17.338675
61.315 17.385147
61.320 17.280924
61.325 17.138432
61.330 17.17432
61.335 16.659725
61.340 16.861134
61.345 16.734472
61.350 16.562372
61.355 16.619139
61.360 16.908169
61.365 17.209627
61.370 17.847996
61.375 17.586533
61.380 17.498304
61.385 17.565611
61.390 17.22489
61.395 16.631556
61.400 16.325981
61.405 15.753428
61.410 15.457805
61.415 15.634039
61.420 15.674554
61.425 15.74551
61.430 15.58762
61.435 14.951834
61.440 14.898952
61.445 15.43767
61.450 15.664147
61.455 15.812574
61.460 16.044334
61.465 15.925596
61.470 15.845868
61.475 15.219483
61.480 15.112297
61.485 15.265465
61.490 14.960679
61.495 15.002177
61.500 14.978671
61.505 15.095713
61.510 15.638575
61.515 15.710042
61.520 15.453577
61.525 15.987838
61.530 16.343321
61.535 16.742817
61.540 17.905361
61.545 18.791029
61.550 18.995531
61.555 18.885944
61.560 18.355295
61.565 18.045452
61.570 18.134859
61.575 17.845673
61.580 17.705452
61.585 17.78281
61.590 17.643381
61.595 17.694389
61.600 17.718605
61.605 17.495255
61.610 16.228132
61.615 15.10352
61.620 14.752822
61.625 14.963539
61.630 15.027103
61.635 14.9069
61.640 15.034044
61.645 16.01693
61.650 16.446205
61.655 16.135294
61.660 16.563677
61.665 17.090353
61.670 17.266748
61.675 17.441153
61.680 16.981676
61.685 16.561434
61.690 16.390993
61.695 15.918252
61.700 16.013605
61.705 16.162121
61.710 15.923687
61.715 16.116209
61.720 16.470341
61.725 16.715794
61.730 16.997515
61.735 17.34247
61.740 17.104616
61.745 17.249609
61.750 17.610073
61.755 18.210602
61.760 18.342463
61.765 18.036821
61.770 17.588371
61.775 18.096455
61.780 18.062479
61.785 16.958105
61.790 16.822044
61.795 16.907928
61.800 16.505098
61.805 16.390432
61.810 16.158108
61.815 16.299656
61.820 16.729101
61.825 16.63933
61.830 16.396914
61.835 16.678978
61.840 16.919333
61.845 16.87228
61.850 16.756927
61.855 17.556213
61.860 18.105198
61.865 18.421789
61.870 18.560787
61.875 18.269054
61.880 18.587307
61.885 19.39608
61.890 19.374035
61.895 19.152788
61.900 19.152773
61.905 19.094963
61.910 19.118986
61.915 19.035158
61.920 18.470921
61.925 18.302944
61.930 18.240713
61.935 17.625164
61.940 17.036577
61.945 17.268997
61.950 16.802877
61.955 16.807131
61.960 16.333269
61.965 16.234913
61.970 17.138407
61.975 17.615761
61.980 17.46106
61.985 17.433584
61.990 17.310581
61.995 17.303465
62.000 17.069675
62.005 16.884335
62.010 16.737312
62.015 16.326651
62.020 16.473661
62.025 16.505274
62.030 16.314293
62.035 17.067686
62.040 16.886076
62.045 17.16011
62.050 18.422586
62.055 18.09787
62.060 17.804985
62.065 18.004957
62.070 17.125835
62.075 17.353466
62.080 17.06039
62.085 16.111061
62.090 16.514555
62.095 16.594234
62.100 16.968405
62.105 16.802046
62.110 16.444502
62.115 16.58226
62.120 17.114672
62.125 17.068233
62.130 17.001345
62.135 17.033102
62.140 17.093262
62.145 17.344006
62.150 17.579334
62.155 17.298679
62.160 17.398878
62.165 18.27207
62.170 18.276344
62.175 19.142345
62.180 18.742815
62.185 18.513405
62.190 18.097059
62.195 17.606058
62.200 17.27998
62.205 16.418123
62.210 15.928746
62.215 16.12117
62.220 16.155413
62.225 16.671396
62.230 16.550983
62.235 16.437475
62.240 16.918278
62.245 17.011112
62.250 17.197371
62.255 16.97337
62.260 17.046515
62.265 17.403479
62.270 17.648369
62.275 17.588224
62.280 17.663099
62.285 17.926182
62.290 17.819691
62.295 17.243225
62.300 16.583767
62.305 15.601087
62.310 15.043894
62.315 14.447807
62.320 14.088424
62.325 14.000661
62.330 14.474899
62.335 14.989515
62.340 15.630467
62.345 15.758029
62.350 16.078526
62.355 16.444796
62.360 17.496103
62.365 17.832169
62.370 17.464128
62.375 17.627419
62.380 18.454809
62.385 18.295179
62.390 17.818676
62.395 17.719721
62.400 17.868683
62.405 17.888107
62.410 18.092257
62.415 18.123919
62.420 18.281189
62.425 17.823778
62.430 17.36919
62.435 17.260469
62.440 17.301893
62.445 17.096182
62.450 16.950502
62.455 17.41906
62.460 17.99509
62.465 18.243362
62.470 18.562071
62.475 19.365059
62.480 19.306854
62.485 18.417183
62.490 18.057074
62.495 17.814848
62.500 17.481049
62.505 17.177248
62.510 16.708517
62.515 16.851536
62.520 17.007278
62.525 17.373869
62.530 17.541201
62.535 17.094572
62.540 17.006395
62.545 16.690914
62.550 16.674805
62.555 17.134779
62.560 16.57769
62.565 16.702883
62.570 16.675028
62.575 16.453938
62.580 16.661371
62.585 16.330793
62.590 15.470983
62.595 15.206697
62.600 14.839091
62.605 14.868952
62.610 14.935757
62.615 14.893132
62.620 15.218429
62.625 15.592221
62.630 16.219717
62.635 16.333178
62.640 16.031368
62.645 16.291624
62.650 16.720972
62.655 16.54847
62.660 17.129017
62.665 16.940817
62.670 17.187807
62.675 17.917547
62.680 17.806414
62.685 17.238392
62.690 18.398994
62.695 18.821987
62.700 19.041039
62.705 18.989193
62.710 18.651037
62.715 18.824757
62.720 18.838713
62.725 18.315964
62.730 17.796227
62.735 17.822693
62.740 17.946161
62.745 18.223232
62.750 17.999802
62.755 18.278919
62.760 18.297533
62.765 18.41198
62.770 18.654743
62.775 18.810003
62.780 18.531162
62.785 18.375792
62.790 18.051554
62.795 17.582502
62.800 17.006718
62.805 16.145399
62.810 15.36317
62.815 15.475293
62.820 15.7521
62.825 15.733537
62.830 16.111429
62.835 16.223444
62.840 16.282169
62.845 16.811743
62.850 16.955082
62.855 16.690285
62.860 16.775288
62.865 16.455576
62.870 15.860767
62.875 15.832461
62.880 15.184501
62.885 14.840064
62.890 15.024834
62.895 14.622282
62.900 14.71468
62.905 15.39437
62.910 15.884331
62.915 16.724693
62.920 16.727882
62.925 16.564835
62.930 16.725744
62.935 16.82445
62.940 16.198133
62.945 15.543728
62.950 15.121128
62.955 15.130606
62.960 15.394931
62.965 15.411038
62.970 15.644594
62.975 16.03973
62.980 16.517761
62.985 16.914434
62.990 17.269461
62.995 17.575207
63.000 17.721024
63.005 17.029366
63.010 17.188084
63.015 17.704884
63.020 17.943909
63.025 17.822437
63.030 17.299274
63.035 17.544109
63.040 18.418715
63.045 18.321587
63.050 17.834898
63.055 17.350075
63.060 17.604078
63.065 17.662037
63.070 17.370626
63.075 17.309696
63.080 17.335056
63.085 16.914825
63.090 16.900618
63.095 16.955732
63.100 17.410845
63.105 17.895119
63.110 18.189707
63.115 18.012722
63.120 18.489742
63.125 18.631718
63.130 18.759136
63.135 18.355017
63.140 17.714947
63.145 17.112429
63.150 16.903145
63.155 16.688025
63.160 15.995262
63.165 15.679276
63.170 15.360105
63.175 15.411815
63.180 15.818271
63.185 15.678323
63.190 15.404405
63.195 15.527696
63.200 15.574236
63.205 16.027519
63.210 15.673032
63.215 15.457007
63.220 15.759075
63.225 16.139751
63.230 16.433905
63.235 16.666241
63.240 16.687033
63.245 17.084463
63.250 16.588621
63.255 17.03548
63.260 17.138554
63.265 17.96534
63.270 17.943779
63.275 17.981707
63.280 18.078974
63.285 18.821674
63.290 18.570629
63.295 18.558231
63.300 17.968605
63.305 18.003136
63.310 17.913534
63.315 18.511639
63.320 18.573759
63.325 18.199875
63.330 18.035492
63.335 17.513006
63.340 17.383066
63.345 17.409822
63.350 17.352146
63.355 17.393845
63.360 17.761017
63.365 17.710396
63.370 18.148289
63.375 18.531208
63.380 18.794676
63.385 18.346947
63.390 18.709696
63.395 19.187082
63.400 20.008198
63.405 19.920988
63.410 19.856482
63.415 19.747976
63.420 19.872417
63.425 19.608496
63.430 18.935602
63.435 18.437265
63.440 18.401377
63.445 18.202003
63.450 17.96759
63.455 17.864813
63.460 17.504618
63.465 17.778482
63.470 17.956312
63.475 17.674078
63.480 17.482088
63.485 17.293388
63.490 17.331078
63.495 17.39551
63.500 17.630323
63.505 17.830046
63.510 18.346027
63.515 18.216284
63.520 18.084993
63.525 17.681419
63.530 17.337952
63.535 17.156178
63.540 17.586472
63.545 17.712435
63.550 18.401484
63.555 18.865885
63.560 19.569557
63.565 19.843857
63.570 19.534193
63.575 19.352613
63.580 19.067116
63.585 19.196987
63.590 19.334763
63.595 19.491684
63.600 19.633087
63.605 19.792826
63.610 19.761204
63.615 19.704769
63.620 19.418665
63.625 19.018503
63.630 18.349987
63.635 18.013756
63.640 18.194784
63.645 17.720341
63.650 17.347071
63.655 17.020411
63.660 17.077999
63.665 17.548845
63.670 18.384287
63.675 18.215176
63.680 18.565651
63.685 18.480894
63.690 18.674194
63.695 18.996376
63.700 18.914154
63.705 18.724089
63.710 18.56218
63.715 18.289833
63.720 18.088745
63.725 17.987923
63.730 18.015368
63.735 18.414595
63.740 18.150421
63.745 18.45783
63.750 18.863781
63.755 19.05681
63.760 18.885515
63.765 18.754469
63.770 18.629349
63.775 18.925615
63.780 19.034908
63.785 19.158787
63.790 19.890633
63.795 20.509243
63.800 20.789894
63.805 20.361988
63.810 20.549078
63.815 21.050787
63.820 20.952808
63.825 20.60733
63.830 20.590759
63.835 20.713959
63.840 20.885679
63.845 20.490229
63.850 20.228504
63.855 20.881693
63.860 21.126732
63.865 21.53224
63.870 22.086052
63.875 22.872522
63.880 23.108221
63.885 23.008959
63.890 22.952883
63.895 22.511274
63.900 21.923393
63.905 21.362846
63.910 20.978357
63.915 20.203959
63.920 20.109665
63.925 20.901842
63.930 21.340109
63.935 21.674425
63.940 22.355324
63.945 22.831089
63.950 23.460361
63.955 23.482059
63.960 23.195307
63.965 23.891399
63.970 23.83592
63.975 23.716738
63.980 23.917372
63.985 24.363783
63.990 25.04089
63.995 25.255131
64.000 25.184513
64.005 25.445026
64.010 25.619171
64.015 26.18202
64.020 26.82118
64.025 26.688646
64.030 26.335783
64.035 26.21159
64.040 25.900656
64.045 25.863476
64.050 26.652117
64.055 26.929361
64.060 26.716679
64.065 27.042486
64.070 27.374104
64.075 27.338442
64.080 27.101326
64.085 26.143145
64.090 25.697418
64.095 26.730373
64.100 27.206804
64.105 27.678314
64.110 28.906548
64.115 29.903425
64.120 30.48819
64.125 30.930834
64.130 31.557787
64.135 32.665646
64.140 33.043697
64.145 32.571392
64.150 32.17926
64.155 33.046379
64.160 33.608902
64.165 32.954247
64.170 32.902279
64.175 32.658985
64.180 33.382286
64.185 34.40192
64.190 34.281345
64.195 35.006413
64.200 35.607883
64.205 35.899277
64.210 36.45768
64.215 36.608902
64.220 36.639893
64.225 37.19883
64.230 37.664173
64.235 37.761459
64.240 38.031754
64.245 38.31934
64.250 38.425903
64.255 39.192909
64.260 38.558659
64.265 38.671658
64.270 39.090263
64.275 39.439075
64.280 40.462624
64.285 41.452679
64.290 42.057796
64.295 43.107063
64.300 43.262241
64.305 43.089264
64.310 43.374538
64.315 43.146008
64.320 42.494362
64.325 42.72612
64.330 42.800632
64.335 42.797131
64.340 43.662029
64.345 43.645267
64.350 44.333202
64.355 44.961098
64.360 44.45483
64.365 44.745209
64.370 45.016567
64.375 45.239582
64.380 46.072277
64.385 46.233727
64.390 47.181595
64.395 48.468121
64.400 48.605667
64.405 48.601887
64.410 47.576283
64.415 46.627022
64.420 46.186214
64.425 45.60738
64.430 44.531635
64.435 44.144226
64.440 44.13863
64.445 44.299015
64.450 43.839336
64.455 42.952251
64.460 42.363491
64.465 42.066807
64.470 41.237953
64.475 40.754597
64.480 40.090302
64.485 40.759659
64.490 40.990833
64.495 40.647316
64.500 40.955673
64.505 40.871964
64.510 40.735188
64.515 40.386475
64.520 39.02375
64.525 38.626732
64.530 38.005539
64.535 37.189045
64.540 36.517761
64.545 35.984547
64.550 35.818577
64.555 35.472744
64.560 34.649529
64.565 33.823414
64.570 33.062706
64.575 33.025982
64.580 33.038628
64.585 32.346306
64.590 31.430054
64.595 30.792089
64.600 30.706505
64.605 29.787054
64.610 29.696428
64.615 29.965754
64.620 30.497974
64.625 31.207317
64.630 31.399616
64.635 31.098173
64.640 30.473141
64.645 29.483843
64.650 28.412899
64.655 28.080326
64.660 27.879345
64.665 27.742016
64.670 27.981291
64.675 27.863054
64.680 27.341154
64.685 26.784582
64.690 25.650595
64.695 24.672611
64.700 23.603228
64.705 22.840298
64.710 23.222811
64.715 23.698692
64.720 23.634575
64.725 23.895172
64.730 24.086977
64.735 24.736469
64.740 24.844036
64.745 24.795591
64.750 24.520182
64.755 23.772999
64.760 23.938389
64.765 24.084099
64.770 23.93508
64.775 23.999069
64.780 23.118071
64.785 22.718931
64.790 23.18372
64.795 22.580048
64.800 21.836817
64.805 21.83745
64.810 21.60434
64.815 21.601471
64.820 21.810036
64.825 21.994658
64.830 22.535421
64.835 22.81365
64.840 22.785151
64.845 22.4844
64.850 22.492298
64.855 22.610836
64.860 22.028748
64.865 21.538677
64.870 21.291386
64.875 21.259392
64.880 22.073095
64.885 21.797743
64.890 21.171785
64.895 21.198984
64.900 21.391851
64.905 21.958672
64.910 21.779118
64.915 20.961409
64.920 21.366928
64.925 21.984926
64.930 21.902746
64.935 21.727892
64.940 21.545792
64.945 21.865168
64.950 22.384748
64.955 23.211517
64.960 23.846848
64.965 24.557093
64.970 24.59189
64.975 24.447588
64.980 24.834312
64.985 24.804968
64.990 24.359507
64.995 24.471281
65.000 24.198553
65.005 24.532314
65.010 24.590067
65.015 23.897013
65.020 24.152296
65.025 24.509289
65.030 24.284779
65.035 24.979372
65.040 25.742159
65.045 25.656616
65.050 25.476364
65.055 25.496941
65.060 24.994314
65.065 25.034559
65.070 24.691931
65.075 24.247854
65.080 25.301338
65.085 25.88938
65.090 25.511229
65.095 26.194237
65.100 26.583767
65.105 26.981092
65.110 27.283001
65.115 26.646175
65.120 27.083683
65.125 27.185125
65.130 27.478275
65.135 27.343273
65.140 27.135157
65.145 27.471066
65.150 28.003271
65.155 28.455618
65.160 28.449699
65.165 28.046288
65.170 28.602442
65.175 29.095438
65.180 28.77199
65.185 28.215498
65.190 27.827251
65.195 27.916773
65.200 27.799128
65.205 27.751144
65.210 28.098387
65.215 28.513546
65.220 28.648596
65.225 29.249155
65.230 30.215626
65.235 31.126102
65.240 31.25091
65.245 30.846468
65.250 31.343142
65.255 31.098558
65.260 30.160879
65.265 30.164526
65.270 30.259436
65.275 30.851223
65.280 31.370106
65.285 31.099691
65.290 31.881933
65.295 32.802528
65.300 33.148781
65.305 32.515995
65.310 32.718868
65.315 33.385723
65.320 33.854961
65.325 34.69611
65.330 34.463268
65.335 34.413158
65.340 34.61343
65.345 33.977139
65.350 33.717152
65.355 33.493549
65.360 33.219894
65.365 33.818031
65.370 33.948353
65.375 34.101162
65.380 34.216923
65.385 33.653568
65.390 33.217445
65.395 33.367065
65.400 33.207199
65.405 32.690666
65.410 32.796577
65.415 32.715408
65.420 33.211861
65.425 33.905972
65.430 33.726852
65.435 33.98835
65.440 34.912933
65.445 35.194599
65.450 35.469349
65.455 35.709873
65.460 35.691895
65.465 35.418583
65.470 34.799217
65.475 34.597488
65.480 34.856777
65.485 35.194935
65.490 35.418324
65.495 35.574032
65.500 35.867695
65.505 35.998299
65.510 36.886181
65.515 36.642254
65.520 37.264267
65.525 37.026318
65.530 37.221291
65.535 37.475677
65.540 38.592419
65.545 39.168682
65.550 38.902374
65.555 38.798771
65.560 39.771431
65.565 39.650902
65.570 39.122074
65.575 38.848507
65.580 38.945496
65.585 39.158699
65.590 38.328945
65.595 37.765095
65.600 37.824661
65.605 38.672134
65.610 38.496731
65.615 37.915741
65.620 38.361614
65.625 39.089806
65.630 39.155846
65.635 38.937141
65.640 38.646404
65.645 38.886909
65.650 39.342735
65.655 39.480259
65.660 39.188641
65.665 39.749611
65.670 40.728176
65.675 41.111561
65.680 41.435448
65.685 41.312458
65.690 41.582523
65.695 42.099751
65.700 40.879444
65.705 40.291264
65.710 40.082008
65.715 39.309258
65.720 39.388157
65.725 39.230453
65.730 39.203369
65.735 39.929214
65.740 40.014076
65.745 39.449703
65.750 39.351288
65.755 39.208286
65.760 38.419674
65.765 38.1838
65.770 37.224506
65.775 36.710827
65.780 36.892036
65.785 36.972961
65.790 36.395756
65.795 36.32637
65.800 35.610203
65.805 36.193905
65.810 36.422016
65.815 36.873089
65.820 36.084682
65.825 36.603416
65.830 36.315968
65.835 36.30632
65.840 36.489601
65.845 36.022549
65.850 35.308849
65.855 35.311295
65.860 34.600014
65.865 34.522167
65.870 34.840157
65.875 34.965271
65.880 35.085075
65.885 34.646893
65.890 34.196907
65.895 34.18951
65.900 34.061646
65.905 33.203796
65.910 32.563751
65.915 32.431141
65.920 32.719246
65.925 32.014877
65.930 31.778208
65.935 32.016548
65.940 32.789265
65.945 33.301174
65.950 33.561474
65.955 34.201382
65.960 35.041164
65.965 34.832611
65.970 34.794281
65.975 34.095524
65.980 33.094227
65.985 32.131413
65.990 30.761406
65.995 29.317257
66.000 28.686567
66.005 27.548904
66.010 26.953531
66.015 27.334103
66.020 27.238649
66.025 27.345692
66.030 27.260757
66.035 27.233915
66.040 27.671904
66.045 27.737312
66.050 26.999891
66.055 26.817743
66.060 26.481028
66.065 26.545107
66.070 26.34832
66.075 25.831314
66.080 24.990824
66.085 24.669579
66.090 24.316042
66.095 24.952568
66.100 24.588284
66.105 23.856144
66.110 23.831011
66.115 23.760988
66.120 23.913464
66.125 24.084843
66.130 23.441792
66.135 23.56678
66.140 23.327572
66.145 22.998949
66.150 23.661089
66.155 23.864923
66.160 23.219387
66.165 23.40428
66.170 23.052515
66.175 23.249561
66.180 23.662647
66.185 23.152
66.190 22.440678
66.195 22.582224
66.200 23.198198
66.205 23.12768
66.210 23.426294
66.215 23.010426
66.220 22.712025
66.225 22.506664
66.230 21.86982
66.235 21.134237
66.240 20.920305
66.245 20.588886
66.250 20.308702
66.255 20.380989
66.260 20.939793
66.265 21.142242
66.270 20.628664
66.275 20.371595
66.280 20.625185
66.285 21.089832
66.290 20.75668
66.295 20.823135
66.300 20.497599
66.305 20.32025
66.310 20.125628
66.315 19.909462
66.320 19.557999
66.325 19.620445
66.330 19.679502
66.335 19.430439
66.340 19.616463
66.345 19.621706
66.350 19.553614
66.355 19.323797
66.360 19.081129
66.365 19.127192
66.370 19.771627
66.375 19.939869
66.380 19.80899
66.385 19.964911
66.390 20.357368
66.395 20.533058
66.400 20.14303
66.405 19.623596
66.410 19.847725
66.415 19.948614
66.420 19.433458
66.425 19.097961
66.430 18.747578
66.435 18.906805
66.440 19.003283
66.445 18.354855
66.450 18.254702
66.455 18.408724
66.460 18.350437
66.465 18.973667
66.470 19.180975
66.475 19.457619
66.480 20.459925
66.485 20.668842
66.490 21.0674
66.495 21.558287
66.500 21.864775
66.505 22.169434
66.510 21.64679
66.515 21.275942
66.520 21.412582
66.525 21.329185
66.530 20.80336
66.535 19.875341
66.540 19.664957
66.545 19.719261
66.550 20.001732
66.555 20.150942
66.560 20.318453
66.565 21.026012
66.570 21.564306
66.575 21.706625
66.580 21.701048
66.585 21.131647
66.590 21.123863
66.595 20.775513
66.600 20.503069
66.605 19.94297
66.610 20.070824
66.615 20.510431
66.620 20.783564
66.625 20.778076
66.630 20.798243
66.635 20.898821
66.640 20.890675
66.645 20.415422
66.650 19.943316
66.655 19.531464
66.660 19.134727
66.665 19.198935
66.670 19.021873
66.675 19.016972
66.680 18.923004
66.685 18.903147
66.690 19.309103
66.695 19.584927
66.700 19.506308
66.705 19.323889
66.710 19.12192
66.715 19.208887
66.720 19.435946
66.725 19.294689
66.730 19.362885
66.735 19.299391
66.740 19.396061
66.745 19.72682
66.750 19.283188
66.755 19.014168
66.760 19.081322
66.765 18.78433
66.770 18.980267
66.775 19.315866
66.780 19.490885
66.785 19.778055
66.790 19.570152
66.795 19.408619
66.800 19.008215
66.805 18.551006
66.810 18.329617
66.815 18.320951
66.820 18.638752
66.825 18.735498
66.830 18.923265
66.835 19.654179
66.840 19.843424
66.845 19.889301
66.850 19.668499
66.855 19.275143
66.860 19.071764
66.865 19.723112
66.870 20.020575
66.875 19.694471
66.880 19.121592
66.885 19.367907
66.890 19.553905
66.895 19.706472
66.900 18.709839
66.905 17.91099
66.910 18.393953
66.915 18.623457
66.920 18.313564
66.925 18.16185
66.930 18.280264
66.935 18.672832
66.940 19.601789
66.945 19.824465
66.950 19.89043
66.955 19.938334
66.960 20.223661
66.965 19.683254
66.970 19.940325
66.975 20.057173
66.980 20.140879
66.985 19.913515
66.990 20.12027
66.995 20.042431
67.000 20.587286
67.005 19.829468
67.010 19.403589
67.015 19.259935
67.020 19.660515
67.025 19.509909
67.030 19.64435
67.035 19.156422
67.040 18.700703
67.045 18.543282
67.050 18.490719
67.055 18.264179
67.060 18.104656
67.065 17.920761
67.070 18.410788
67.075 19.466286
67.080 19.174765
67.085 18.882397
67.090 18.766956
67.095 18.57478
67.100 18.558258
67.105 18.230492
67.110 17.925438
67.115 18.551542
67.120 19.197758
67.125 19.410662
67.130 20.107759
67.135 20.131584
67.140 20.612326
67.145 20.925905
67.150 20.688927
67.155 20.611799
67.160 20.604181
67.165 20.626638
67.170 20.582964
67.175 20.080345
67.180 19.543169
67.185 19.348503
67.190 18.998306
67.195 18.747301
67.200 18.491968
67.205 18.561676
67.210 18.629925
67.215 18.62986
67.220 18.174442
67.225 17.912485
67.230 18.494509
67.235 18.926292
67.240 18.866392
67.245 19.339912
67.250 19.169298
67.255 19.233725
67.260 19.431849
67.265 19.299112
67.270 19.16914
67.275 18.671577
67.280 17.931826
67.285 18.454607
67.290 18.660131
67.295 18.478022
67.300 18.117855
67.305 17.778091
67.310 18.229586
67.315 19.029736
67.320 19.087803
67.325 19.66234
67.330 20.037277
67.335 19.994757
67.340 20.446083
67.345 20.544704
67.350 20.247774
67.355 20.418272
67.360 20.172512
67.365 20.509829
67.370 20.725067
67.375 20.508423
67.380 19.969049
67.385 19.827814
67.390 19.404863
67.395 19.671698
67.400 19.131872
67.405 19.016544
67.410 19.18704
67.415 18.923624
67.420 18.992012
67.425 18.934217
67.430 18.637136
67.435 18.653963
67.440 18.250397
67.445 18.318157
67.450 18.71571
67.455 18.18186
67.460 17.988449
67.465 17.5037
67.470 17.603966
67.475 17.549519
67.480 17.379253
67.485 17.90546
67.490 18.003571
67.495 17.678471
67.500 17.77631
67.505 17.54323
67.510 17.624617
67.515 17.35541
67.520 17.451796
67.525 17.469311
67.530 17.456789
67.535 17.193607
67.540 17.376629
67.545 17.287075
67.550 17.5065
67.555 17.258875
67.560 17.730032
67.565 18.122541
67.570 18.244619
67.575 18.125309
67.580 18.227148
67.585 18.249205
67.590 18.242384
67.595 18.062641
67.600 18.005192
67.605 17.964977
67.610 18.320652
67.615 18.629129
67.620 18.97102
67.625 20.18635
67.630 20.432026
67.635 20.399855
67.640 20.434116
67.645 20.269835
67.650 20.506485
67.655 20.036972
67.660 19.291817
67.665 19.447968
67.670 19.426691
67.675 19.293776
67.680 19.653589
67.685 19.447477
67.690 19.675816
67.695 19.961016
67.700 19.955208
67.705 20.27309
67.710 20.179033
67.715 19.625731
67.720 19.807829
67.725 19.346329
67.730 18.662388
67.735 19.081461
67.740 18.824818
67.745 18.410063
67.750 18.480665
67.755 18.048653
67.760 17.9767
67.765 17.686199
67.770 17.090216
67.775 17.268936
67.780 17.50123
67.785 16.892809
67.790 16.619806
67.795 16.778606
67.800 16.891602
67.805 17.55769
67.810 17.758194
67.815 17.786039
67.820 18.422344
67.825 18.6602
67.830 18.299217
67.835 18.492537
67.840 18.238808
67.845 18.298885
67.850 18.749031
67.855 18.682636
67.860 18.939743
67.865 18.782249
67.870 18.438725
67.875 18.271982
67.880 18.841248
67.885 19.166403
67.890 19.136597
67.895 19.049038
67.900 19.445503
67.905 19.965145
67.910 20.31534
67.915 19.74769
67.920 19.652016
67.925 19.84263
67.930 20.058739
67.935 19.687515
67.940 19.070923
67.945 18.48209
67.950 18.23872
67.955 18.154108
67.960 18.116388
67.965 18.192123
67.970 18.500235
67.975 18.697239
67.980 18.700563
67.985 18.208536
67.990 17.622095
67.995 17.237726
68.000 17.484417
68.005 17.882069
68.010 18.095249
68.015 18.362057
68.020 19.096189
68.025 19.698084
68.030 19.962404
68.035 19.434095
68.040 19.465601
68.045 20.001755
68.050 20.211372
68.055 20.073906
68.060 20.369345
68.065 20.666449
68.070 20.712227
68.075 20.32769
68.080 19.94759
68.085 20.188757
68.090 20.638626
68.095 20.0786
68.100 19.642813
68.105 19.761213
68.110 20.346928
68.115 20.70517
68.120 20.021646
68.125 19.623138
68.130 19.837112
68.135 20.2994
68.140 20.839737
68.145 20.688202
68.150 20.693272
68.155 20.888195
68.160 21.41362
68.165 21.331795
68.170 21.425505
68.175 20.954367
68.180 20.825613
68.185 20.560112
68.190 20.686045
68.195 20.743206
68.200 20.355492
68.205 19.723219
68.210 19.345613
68.215 19.174574
68.220 19.024984
68.225 18.712626
68.230 19.021561
68.235 19.802408
68.240 20.153358
68.245 20.832191
68.250 21.157877
68.255 21.624081
68.260 21.585434
68.265 21.766748
68.270 22.209419
68.275 22.759308
68.280 23.104034
68.285 23.316116
68.290 23.060301
68.295 23.087889
68.300 23.324852
68.305 23.316525
68.310 22.870108
68.315 22.182888
68.320 22.406752
68.325 22.629675
68.330 22.959621
68.335 22.776562
68.340 22.638777
68.345 23.140087
68.350 23.805191
68.355 23.888395
68.360 24.238642
68.365 23.855436
68.370 23.935316
68.375 24.362553
68.380 23.95223
68.385 23.82888
68.390 24.52424
68.395 24.878378
68.400 25.141319
68.405 24.990028
68.410 24.903969
68.415 25.942383
68.420 25.984787
68.425 25.936089
68.430 26.355806
68.435 26.095514
68.440 26.157333
68.445 26.051186
68.450 25.223089
68.455 24.636316
68.460 24.370407
68.465 24.235367
68.470 24.405298
68.475 24.585957
68.480 24.693502
68.485 25.329359
68.490 26.582466
68.495 26.81723
68.500 27.010059
68.505 27.197941
68.510 27.041958
68.515 27.086279
68.520 27.070681
68.525 26.704561
68.530 26.645033
68.535 26.636972
68.540 26.850821
68.545 27.097538
68.550 27.333157
68.555 26.904028
68.560 27.009424
68.565 27.50176
68.570 28.450165
68.575 28.797359
68.580 28.890764
68.585 29.391249
68.590 30.219355
68.595 30.249567
68.600 29.773443
68.605 29.534111
68.610 30.178024
68.615 30.263124
68.620 30.004873
68.625 30.02961
68.630 29.984591
68.635 30.511934
68.640 30.494129
68.645 30.503044
68.650 30.749422
68.655 31.072418
68.660 31.693016
68.665 32.345242
68.670 32.658466
68.675 33.457508
68.680 33.67149
68.685 33.990116
68.690 34.975296
68.695 34.601509
68.700 34.26902
68.705 34.066883
68.710 33.511059
68.715 33.294937
68.720 33.12122
68.725 32.720776
68.730 33.971119
68.735 34.138519
68.740 34.614941
68.745 35.25312
68.750 35.533302
68.755 35.790871
68.760 35.65588
68.765 36.143852
68.770 36.266853
68.775 37.147778
68.780 37.099567
68.785 36.800922
68.790 37.093452
68.795 37.37056
68.800 36.963497
68.805 36.492889
68.810 35.466995
68.815 35.547661
68.820 36.295773
68.825 36.555519
68.830 35.648132
68.835 35.429176
68.840 35.066681
68.845 34.91692
68.850 34.406998
68.855 34.018665
68.860 33.684395
68.865 33.879726
68.870 33.9534
68.875 34.393417
68.880 35.067104
68.885 35.571651
68.890 35.924789
68.895 36.795116
68.900 37.442493
68.905 38.012505
68.910 37.814011
68.915 37.288181
68.920 36.329575
68.925 35.639595
68.930 35.616367
68.935 35.269733
68.940 35.230358
68.945 35.077988
68.950 35.515511
68.955 35.870182
68.960 36.176968
68.965 35.130482
68.970 34.535534
68.975 34.888615
68.980 34.507114
68.985 34.434986
68.990 34.467392
68.995 33.767002
69.000 34.185608
69.005 33.888256
69.010 32.95248
69.015 32.867279
69.020 32.678349
69.025 32.948029
69.030 32.564037
69.035 31.635553
69.040 31.924822
69.045 32.56583
69.050 32.616894
69.055 33.278484
69.060 33.165268
69.065 33.505764
69.070 33.898079
69.075 33.777363
69.080 33.329056
69.085 32.805149
69.090 32.305943
69.095 32.050755
69.100 31.94698
69.105 32.484341
69.110 32.154709
69.115 32.570213
69.120 32.279858
69.125 32.260201
69.130 32.74271
69.135 31.875364
69.140 30.815111
69.145 30.435381
69.150 30.704649
69.155 30.938463
69.160 30.555679
69.165 30.357632
69.170 30.321409
69.175 30.434603
69.180 30.602028
69.185 30.268776
69.190 29.954531
69.195 29.620718
69.200 29.008045
69.205 28.84654
69.210 27.799473
69.215 27.125807
69.220 27.033274
69.225 26.995594
69.230 26.558105
69.235 26.68568
69.240 26.813198
69.245 26.357826
69.250 25.965609
69.255 25.499552
69.260 24.736895
69.265 24.662819
69.270 24.403387
69.275 24.072855
69.280 23.952101
69.285 24.087023
69.290 23.946732
69.295 23.950012
69.300 24.46509
69.305 24.895723
69.310 25.253927
69.315 25.659962
69.320 25.265093
69.325 25.04944
69.330 24.686169
69.335 24.184036
69.340 23.172077
69.345 22.852882
69.350 22.640217
69.355 23.730726
69.360 24.874111
69.365 23.933882
69.370 23.520229
69.375 24.003651
69.380 23.446707
69.385 22.397963
69.390 21.040293
69.395 20.252962
69.400 21.111969
69.405 20.869547
69.410 20.746017
69.415 21.106056
69.420 21.750845
69.425 21.653221
69.430 21.875786
69.435 22.124729
69.440 22.600826
69.445 23.165203
69.450 23.029716
69.455 22.58687
69.460 22.970934
69.465 22.693476
69.470 22.162832
69.475 21.917212
69.480 21.70648
69.485 22.369747
69.490 22.10994
69.495 21.706587
69.500 21.623402
69.505 21.514772
69.510 21.253656
69.515 20.468199
69.520 19.766705
69.525 19.915718
69.530 19.807766
69.535 19.697237
69.540 19.620831
69.545 19.462408
69.550 19.684633
69.555 19.4585
69.560 19.338404
69.565 19.966131
69.570 20.4867
69.575 20.497421
69.580 20.932066
69.585 21.027805
69.590 20.881187
69.595 20.418497
69.600 19.293983
69.605 19.045208
69.610 19.556492
69.615 19.352669
69.620 18.753239
69.625 18.49769
69.630 18.816256
69.635 19.058964
69.640 18.804586
69.645 18.562017
69.650 18.735556
69.655 19.270264
69.660 19.241491
69.665 18.994576
69.670 19.09248
69.675 19.399622
69.680 20.066044
69.685 20.577112
69.690 20.366257
69.695 20.921795
69.700 21.192703
69.705 21.092014
69.710 20.646456
69.715 19.924929
69.720 19.736593
69.725 19.327921
69.730 18.845613
69.735 18.323059
69.740 18.52722
69.745 19.045088
69.750 18.447456
69.755 18.584866
69.760 18.932062
69.765 18.906704
69.770 19.048475
69.775 18.540171
69.780 18.951603
69.785 19.224447
69.790 19.625179
69.795 20.320404
69.800 20.776253
69.805 21.180094
69.810 20.59627
69.815 19.884413
69.820 19.105316
69.825 18.840073
69.830 18.57176
69.835 18.931429
69.840 19.129572
69.845 19.302597
69.850 19.753414
69.855 20.194101
69.860 20.81646
69.865 20.753004
69.870 20.19136
69.875 20.556438
69.880 21.339083
69.885 21.725674
69.890 21.970591
69.895 21.017666
69.900 21.07209
69.905 21.277927
69.910 21.136166
69.915 20.875528
69.920 20.462509
69.925 19.856682
69.930 19.024805
69.935 18.998417
69.940 18.560244
69.945 18.171593
69.950 17.444405
69.955 17.302088
69.960 17.619005
69.965 18.309322
69.970 17.941685
69.975 17.799452
69.980 17.810467
69.985 17.913578
69.990 17.702614
69.995 17.239799
70.000 17.006056
70.005 16.386204
70.010 16.846676
70.015 16.846535
70.020 17.188242
70.025 17.717209
70.030 17.84503
70.035 18.074736
70.040 18.506756
70.045 18.903999
70.050 18.838171
70.055 19.029663
70.060 19.288486
70.065 19.550592
70.070 20.043688
70.075 19.985979
70.080 20.218555
70.085 19.866884
70.090 19.539289
70.095 18.977083
70.100 18.67709
70.105 18.534836
70.110 18.054323
70.115 17.48078
70.120 17.940933
70.125 18.194433
70.130 18.588715
70.135 18.947905
70.140 19.406778
70.145 19.549074
70.150 19.91972
70.155 19.475233
70.160 19.248783
70.165 19.082161
70.170 18.482622
70.175 18.647724
70.180 18.491121
70.185 18.725964
70.190 19.003191
70.195 19.006256
70.200 19.205555
70.205 18.964231
70.210 18.743158
70.215 18.886063
70.220 18.473753
70.225 18.759075
70.230 18.610659
70.235 18.524639
70.240 19.017223
70.245 18.928909
70.250 19.026537
70.255 18.935286
70.260 18.26446
70.265 17.840338
70.270 17.677948
70.275 17.822851
70.280 17.607965
70.285 17.398069
70.290 17.703196
70.295 18.559771
70.300 18.798191
70.305 17.80448
70.310 17.531214
70.315 17.693951
70.320 17.851604
70.325 17.342924
70.330 17.214611
70.335 17.914246
70.340 18.758503
70.345 19.024223
70.350 19.048157
70.355 19.188925
70.360 19.952171
70.365 19.82868
70.370 19.127617
70.375 19.207466
70.380 19.167847
70.385 18.941153
70.390 18.662889
70.395 18.392841
70.400 18.786978
70.405 19.145731
70.410 19.030272
70.415 19.055534
70.420 19.515343
70.425 19.211119
70.430 18.746428
70.435 18.703535
70.440 18.899229
70.445 18.571177
70.450 17.95335
70.455 17.918476
70.460 17.997667
70.465 18.402275
70.470 18.65563
70.475 18.785288
70.480 19.04977
70.485 19.125324
70.490 19.268621
70.495 18.963146
70.500 18.354637
70.505 18.03829
70.510 17.761288
70.515 18.047579
70.520 18.326588
70.525 18.376484
70.530 18.633173
70.535 18.803246
70.540 18.812313
70.545 18.918947
70.550 18.79685
70.555 18.595463
70.560 18.980593
70.565 19.212427
70.570 18.940449
70.575 18.855686
70.580 18.195272
70.585 17.834557
70.590 17.323692
70.595 16.986252
70.600 16.562763
70.605 16.573292
70.610 16.49897
70.615 16.885059
70.620 17.717358
70.625 18.758844
70.630 19.162867
70.635 20.33679
70.640 20.500465
70.645 20.347754
70.650 20.499878
70.655 19.631817
70.660 19.103462
70.665 18.27449
70.670 17.867208
70.675 17.70125
70.680 17.242201
70.685 17.8272
70.690 18.274202
70.695 17.888723
70.700 17.809233
70.705 17.704494
70.710 18.383703
70.715 18.828588
70.720 18.529711
70.725 18.789999
70.730 18.933596
70.735 18.778225
70.740 18.205189
70.745 18.080059
70.750 17.693335
70.755 16.978802
70.760 16.730158
70.765 17.001003
70.770 17.631813
70.775 18.340271
70.780 18.511599
70.785 18.525776
70.790 18.716911
70.795 18.011072
70.800 18.0345
70.805 17.546291
70.810 17.241928
70.815 17.03742
70.820 17.783146
70.825 17.768328
70.830 18.235847
70.835 18.142897
70.840 18.051382
70.845 18.100708
70.850 18.45599
70.855 17.792385
70.860 18.202631
70.865 18.354403
70.870 18.113918
70.875 17.854338
70.880 18.103304
70.885 17.894484
70.890 18.358603
70.895 18.030371
70.900 18.043806
70.905 18.098042
70.910 17.969383
70.915 17.577318
70.920 17.468643
70.925 17.419382
70.930 17.818514
70.935 18.0058
70.940 18.707136
70.945 19.48937
70.950 19.578316
70.955 19.42201
70.960 19.404091
70.965 19.006075
70.970 18.861067
70.975 18.845228
70.980 18.570717
70.985 18.719934
70.990 18.672121
70.995 18.808037
71.000 18.222481
71.005 18.201965
71.010 17.934975
71.015 17.780529
71.020 17.496721
71.025 17.142101
71.030 16.937429
71.035 17.098312
71.040 17.038504
71.045 16.895702
71.050 16.817026
71.055 17.476761
71.060 18.133986
71.065 18.33816
71.070 18.22834
71.075 18.375469
71.080 18.601778
71.085 18.76499
71.090 18.371826
71.095 18.69401
71.100 18.451981
71.105 18.882919
71.110 18.671078
71.115 18.538364
71.120 18.721489
71.125 18.395603
71.130 18.281197
71.135 18.305599
71.140 17.989981
71.145 17.834707
71.150 17.751732
71.155 18.189039
71.160 18.238783
71.165 18.338526
71.170 18.635981
71.175 18.364767
71.180 18.511738
71.185 18.323475
71.190 18.001308
71.195 18.631302
71.200 18.183174
71.205 18.691662
71.210 19.497068
71.215 19.478216
71.220 19.516401
71.225 19.245241
71.230 18.680445
71.235 18.815157
71.240 17.928003
71.245 17.688705
71.250 17.79265
71.255 17.510599
71.260 17.561985
71.265 18.288363
71.270 17.836508
71.275 18.097931
71.280 18.024706
71.285 18.306995
71.290 18.122511
71.295 17.753412
71.300 17.661386
71.305 18.161636
71.310 18.148067
71.315 17.847771
71.320 17.683107
71.325 18.089933
71.330 17.950603
71.335 17.266502
71.340 17.209301
71.345 17.006647
71.350 17.029419
71.355 16.715796
71.360 16.373652
71.365 16.898674
71.370 17.606089
71.375 17.763018
71.380 17.936907
71.385 18.150192
71.390 18.69618
71.395 18.231672
71.400 17.82284
71.405 17.098755
71.410 17.154108
71.415 17.391121
71.420 17.069118
71.425 17.035892
71.430 17.364347
71.435 17.625553
71.440 18.028938
71.445 18.083897
71.450 17.548338
71.455 17.4429
71.460 17.522957
71.465 17.773432
71.470 17.633478
71.475 17.515024
71.480 17.534538
71.485 18.156065
71.490 18.684376
71.495 19.117556
71.500 19.28396
71.505 19.828506
71.510 20.315231
71.515 20.029533
71.520 19.734884
71.525 19.488297
71.530 19.617411
71.535 18.942566
71.540 18.204813
71.545 17.777174
71.550 18.024118
71.555 17.876623
71.560 17.664726
71.565 17.568155
71.570 17.775434
71.575 17.639366
71.580 17.48278
71.585 17.57435
71.590 17.69179
71.595 17.724913
71.600 16.745218
71.605 17.434706
71.610 18.346907
71.615 18.354908
71.620 18.863512
71.625 18.559967
71.630 18.541315
71.635 18.871511
71.640 18.543949
71.645 18.45451
71.650 17.858189
71.655 17.587643
71.660 17.687153
71.665 17.974323
71.670 17.746174
71.675 17.356915
71.680 17.435652
71.685 17.659376
71.690 18.250488
71.695 18.542261
71.700 18.443996
71.705 18.523838
71.710 18.644142
71.715 18.438251
71.720 18.037846
71.725 17.838133
71.730 18.089714
71.735 18.331268
71.740 18.626869
71.745 18.418388
71.750 18.815752
71.755 18.842094
71.760 18.385231
71.765 17.80957
71.770 17.646187
71.775 17.923727
71.780 18.791569
71.785 19.344152
71.790 19.325397
71.795 19.280045
71.800 19.51263
71.805 19.852629
71.810 19.814163
71.815 19.407259
71.820 19.374844
71.825 19.474579
71.830 19.589132
71.835 19.578573
71.840 19.357359
71.845 19.687883
71.850 19.481779
71.855 19.502731
71.860 19.673182
71.865 19.405649
71.870 19.51181
71.875 19.58909
71.880 19.088709
71.885 19.578318
71.890 19.674345
71.895 19.878847
71.900 20.057186
71.905 19.729336
71.910 19.825079
71.915 19.802742
71.920 19.354109
71.925 19.088902
71.930 18.415365
71.935 18.188158
71.940 17.723116
71.945 17.258095
71.950 16.874224
71.955 16.459074
71.960 16.075886
71.965 16.428377
71.970 17.006853
71.975 17.401171
71.980 17.643894
71.985 17.902754
71.990 18.194613
71.995 18.295811
72.000 17.811251
72.005 17.410301
72.010 17.510807
72.015 17.142351
72.020 17.119701
72.025 16.923948
72.030 17.600927
72.035 18.200422
72.040 17.982449
72.045 17.914007
72.050 17.76289
72.055 18.074902
72.060 18.650599
72.065 18.724707
72.070 18.546299
72.075 18.490532
72.080 18.618748
72.085 19.223862
72.090 18.957602
72.095 18.389179
72.100 18.465071
72.105 18.457127
72.110 18.950693
72.115 18.908955
72.120 18.539675
72.125 18.574224
72.130 18.813046
72.135 18.41186
72.140 18.315714
72.145 17.659586
72.150 17.091591
72.155 16.678688
72.160 17.179605
72.165 17.617531
72.170 17.892145
72.175 18.150988
72.180 18.706993
72.185 19.258196
72.190 19.519554
72.195 19.251036
72.200 18.567429
72.205 18.984167
72.210 19.124109
72.215 18.378899
72.220 18.646067
72.225 18.19339
72.230 17.750689
72.235 17.671654
72.240 16.981977
72.245 17.114103
72.250 17.203382
72.255 16.963419
72.260 17.050907
72.265 17.625994
72.270 17.609003
72.275 17.910873
72.280 17.98197
72.285 18.22049
72.290 18.276255
72.295 18.365908
72.300 17.922155
72.305 18.345795
72.310 17.94462
72.315 17.652393
72.320 16.938515
72.325 17.069536
72.330 16.971895
72.335 17.457497
72.340 17.61618
72.345 17.642199
72.350 18.094114
72.355 18.157396
72.360 18.310591
72.365 18.518463
72.370 18.447105
72.375 18.521927
72.380 18.268564
72.385 18.594296
72.390 18.221893
72.395 18.192505
72.400 17.472168
72.405 17.073748
72.410 17.394938
72.415 17.125719
72.420 17.181219
72.425 17.116377
72.430 16.672794
72.435 17.05827
72.440 17.043417
72.445 17.09613
72.450 17.631884
72.455 18.206236
72.460 19.089241
72.465 19.272974
72.470 19.869997
72.475 19.472206
72.480 19.44585
72.485 19.48888
72.490 19.885998
72.495 20.099869
72.500 19.818388
72.505 19.463171
72.510 19.756561
72.515 20.082424
72.520 19.546341
72.525 18.90654
72.530 18.929068
72.535 19.129618
72.540 18.894871
72.545 18.590338
72.550 18.855024
72.555 18.487005
72.560 18.35334
72.565 18.366951
72.570 18.382896
72.575 18.440475
72.580 18.683416
72.585 18.54917
72.590 18.408659
72.595 18.711765
72.600 18.242668
72.605 18.274229
72.610 18.108805
72.615 17.450977
72.620 17.662903
72.625 17.534195
72.630 17.202631
72.635 17.340706
72.640 17.415359
72.645 17.6418
72.650 17.840883
72.655 18.098413
72.660 18.341911
72.665 18.058777
72.670 17.776796
72.675 17.525227
72.680 17.816753
72.685 17.540583
72.690 17.376589
72.695 17.400822
72.700 17.184719
72.705 17.021818
72.710 16.242355
72.715 15.911246
72.720 15.942986
72.725 15.685291
72.730 15.573097
72.735 16.084034
72.740 16.446522
72.745 17.144136
72.750 17.766024
72.755 17.390831
72.760 17.665981
72.765 18.305971
72.770 18.090693
72.775 18.253414
72.780 17.201559
72.785 16.673693
72.790 16.758205
72.795 16.2041
72.800 15.857495
72.805 15.623315
72.810 15.90732
72.815 16.76881
72.820 16.853559
72.825 17.746471
72.830 18.456385
72.835 19.347275
72.840 19.464058
72.845 19.138956
72.850 18.640163
72.855 18.202835
72.860 17.930511
72.865 17.159548
72.870 16.381237
72.875 16.891415
72.880 17.393839
72.885 17.796389
72.890 17.816326
72.895 17.422365
72.900 17.328558
72.905 17.821112
72.910 17.533571
72.915 16.981501
72.920 17.033051
72.925 16.801441
72.930 16.769737
72.935 17.021563
72.940 16.971375
72.945 16.957451
72.950 17.63135
72.955 17.381594
72.960 18.141863
72.965 18.320272
72.970 17.889765
72.975 17.656975
72.980 17.832447
72.985 17.406977
72.990 17.061939
72.995 16.748081
73.000 16.368816
