!@!!GADDS PLOTSO FILE: Chi integration type
!@!!Title/SampleName: map-ef
!@!!Comment: ?
!@!!User: Bruker Instrument Administrator
!@!!Site: University of Illinois Chicago
!@!!Frame: map-ef_01_000.gfrm
!@!!Wavelengths    1.54184   1.54056   1.54439
!@!!Frame angles: 2Theta: 63.000 Omega: 50.000 Phi: 0.000 Chi: 90.000
!@!!Integration range: 2Theta: 53.000 to 73.000  Gamma: -105.000 to -75.000
!@!!Integration method: bin normalized
!@!N
!@!SS
!@!M
!@!L 0.0 0.0 0.0 0.0
!@!XDegrees
!@!YCounts
53.000 6.938764
53.005 6.959351
53.010 6.697674
53.015 6.928897
53.020 7.19564
53.025 6.917041
53.030 7.359784
53.035 7.519197
53.040 7.602158
53.045 7.599903
53.050 6.963431
53.055 6.927538
53.060 6.873734
53.065 6.753148
53.070 6.673656
53.075 6.781187
53.080 7.129003
53.085 7.383661
53.090 7.517514
53.095 7.399354
53.100 7.09308
53.105 7.292372
53.110 7.02894
53.115 7.170974
53.120 6.933443
53.125 6.721857
53.130 6.999615
53.135 7.334729
53.140 7.467591
53.145 7.374212
53.150 7.183284
53.155 7.682211
53.160 7.5847
53.165 7.113714
53.170 6.420249
53.175 6.253664
53.180 6.268707
53.185 6.204859
53.190 6.094819
53.195 6.15305
53.200 6.419737
53.205 6.545863
53.210 6.824232
53.215 6.856737
53.220 6.685388
53.225 6.79504
53.230 6.662175
53.235 6.716821
53.240 6.891093
53.245 6.647699
53.250 6.8488
53.255 7.112911
53.260 6.921418
53.265 7.267446
53.270 7.374635
53.275 7.571619
53.280 7.372771
53.285 6.796085
53.290 6.557966
53.295 6.200434
53.300 5.896721
53.305 5.797123
53.310 5.857725
53.315 6.273118
53.320 6.849917
53.325 7.039495
53.330 7.719828
53.335 7.773624
53.340 7.944579
53.345 7.988036
53.350 7.808419
53.355 8.322247
53.360 8.087078
53.365 7.69117
53.370 7.724527
53.375 7.307714
53.380 7.073192
53.385 7.142949
53.390 7.21127
53.395 7.557549
53.400 7.535669
53.405 7.827273
53.410 8.08392
53.415 8.468735
53.420 7.964471
53.425 7.998187
53.430 8.077897
53.435 7.630763
53.440 7.754899
53.445 7.889807
53.450 8.101932
53.455 8.322075
53.460 8.000877
53.465 8.475908
53.470 8.84088
53.475 8.471866
53.480 8.094931
53.485 7.393102
53.490 7.13252
53.495 6.983623
53.500 6.618238
53.505 6.872288
53.510 7.351916
53.515 7.448224
53.520 7.564716
53.525 7.893395
53.530 8.218161
53.535 8.128134
53.540 7.687963
53.545 7.381979
53.550 7.654099
53.555 7.486375
53.560 7.163779
53.565 6.826724
53.570 6.590306
53.575 6.669358
53.580 6.872107
53.585 6.902911
53.590 7.577183
53.595 7.380448
53.600 7.576674
53.605 8.064665
53.610 7.973347
53.615 8.221423
53.620 8.069289
53.625 7.569046
53.630 8.172548
53.635 8.247636
53.640 7.68554
53.645 7.597678
53.650 7.531529
53.655 7.816579
53.660 7.798144
53.665 7.440299
53.670 7.85373
53.675 8.082458
53.680 7.928551
53.685 7.824233
53.690 7.772106
53.695 8.051334
53.700 8.153131
53.705 7.666708
53.710 7.653319
53.715 7.530604
53.720 7.513355
53.725 7.529865
53.730 7.580328
53.735 7.491239
53.740 7.22433
53.745 7.06773
53.750 7.041305
53.755 7.432465
53.760 7.567478
53.765 7.247801
53.770 7.428857
53.775 7.80071
53.780 7.604759
53.785 7.471601
53.790 6.801011
53.795 7.155951
53.800 7.00545
53.805 6.749308
53.810 7.375302
53.815 7.884429
53.820 7.944435
53.825 8.057456
53.830 7.665764
53.835 7.932764
53.840 8.052794
53.845 7.981054
53.850 8.261038
53.855 8.503616
53.860 8.470313
53.865 8.640419
53.870 8.705217
53.875 8.884389
53.880 8.539945
53.885 8.116228
53.890 8.258629
53.895 8.489902
53.900 8.390555
53.905 8.312216
53.910 7.954579
53.915 8.31914
53.920 8.534434
53.925 8.306486
53.930 8.232882
53.935 8.6263
53.940 8.371819
53.945 8.363416
53.950 8.249425
53.955 8.285698
53.960 8.08394
53.965 8.028247
53.970 7.863649
53.975 7.871243
53.980 7.990022
53.985 8.081111
53.990 8.237975
53.995 8.60474
54.000 8.387865
54.005 8.756596
54.010 9.137408
54.015 8.891791
54.020 8.676538
54.025 8.620509
54.030 8.77367
54.035 8.668723
54.040 8.531205
54.045 8.481812
54.050 8.575353
54.055 8.638589
54.060 8.809685
54.065 8.723082
54.070 8.76691
54.075 8.405154
54.080 8.405262
54.085 8.256341
54.090 8.152942
54.095 8.461879
54.100 8.89492
54.105 9.134253
54.110 9.405272
54.115 9.807215
54.120 9.755994
54.125 9.488238
54.130 8.835207
54.135 8.170872
54.140 8.349071
54.145 8.352085
54.150 7.926197
54.155 7.903876
54.160 7.873826
54.165 8.26843
54.170 8.910392
54.175 8.999545
54.180 8.812665
54.185 8.952112
54.190 9.30918
54.195 9.842057
54.200 9.701913
54.205 9.358168
54.210 8.850306
54.215 9.194669
54.220 9.395118
54.225 9.029507
54.230 8.528774
54.235 8.804543
54.240 8.670408
54.245 9.080566
54.250 9.304399
54.255 9.168766
54.260 9.396733
54.265 9.244091
54.270 9.478461
54.275 9.542196
54.280 9.266211
54.285 8.919489
54.290 8.838169
54.295 8.571681
54.300 8.485856
54.305 8.3319
54.310 8.493966
54.315 8.542746
54.320 8.604073
54.325 8.401233
54.330 8.514929
54.335 8.428515
54.340 8.814674
54.345 8.71294
54.350 8.593797
54.355 8.820361
54.360 9.191021
54.365 9.15253
54.370 9.208752
54.375 9.170437
54.380 9.343517
54.385 9.020336
54.390 8.901325
54.395 8.94573
54.400 9.174951
54.405 8.699104
54.410 8.431835
54.415 8.358526
54.420 8.656768
54.425 8.460548
54.430 8.383876
54.435 8.312665
54.440 8.370465
54.445 8.605683
54.450 8.724216
54.455 9.002519
54.460 9.232486
54.465 9.431917
54.470 9.30999
54.475 9.376482
54.480 9.065526
54.485 9.031404
54.490 8.580607
54.495 7.998907
54.500 7.656478
54.505 7.436503
54.510 7.012874
54.515 7.060022
54.520 7.027903
54.525 7.385461
54.530 7.490085
54.535 7.398802
54.540 7.678759
54.545 7.85494
54.550 7.831622
54.555 8.029554
54.560 8.105715
54.565 8.497743
54.570 8.623033
54.575 8.570054
54.580 8.368345
54.585 8.337902
54.590 8.377043
54.595 8.585297
54.600 8.848574
54.605 9.365728
54.610 9.665621
54.615 10.103775
54.620 10.226171
54.625 9.822533
54.630 9.61842
54.635 9.155374
54.640 8.94522
54.645 8.63464
54.650 8.536236
54.655 8.798008
54.660 9.118106
54.665 8.944494
54.670 9.329619
54.675 9.163381
54.680 9.26169
54.685 9.382996
54.690 9.291637
54.695 9.992824
54.700 10.390501
54.705 9.715861
54.710 10.092455
54.715 10.251843
54.720 10.120527
54.725 9.824214
54.730 9.122427
54.735 9.203429
54.740 9.480073
54.745 9.379498
54.750 9.119648
54.755 8.724965
54.760 8.416039
54.765 8.392491
54.770 8.404405
54.775 8.176199
54.780 7.598882
54.785 8.006259
54.790 8.550272
54.795 8.746284
54.800 8.938215
54.805 8.896124
54.810 9.299907
54.815 9.358974
54.820 9.007403
54.825 8.504259
54.830 8.318577
54.835 8.044702
54.840 8.145707
54.845 8.643651
54.850 9.524806
54.855 9.369459
54.860 9.565719
54.865 9.548168
54.870 9.474235
54.875 9.461045
54.880 8.622618
54.885 8.187517
54.890 8.398153
54.895 8.408289
54.900 8.825314
54.905 9.376713
54.910 9.304091
54.915 9.537636
54.920 9.643965
54.925 9.862416
54.930 9.983112
54.935 9.522283
54.940 9.626589
54.945 10.101005
54.950 10.101125
54.955 10.268295
54.960 10.321973
54.965 10.381625
54.970 10.296936
54.975 9.782652
54.980 9.966654
54.985 10.279334
54.990 10.219177
54.995 10.440125
55.000 10.064716
55.005 9.929025
55.010 10.081626
55.015 9.676988
55.020 9.30092
55.025 9.159255
55.030 8.839994
55.035 8.998311
55.040 9.231605
55.045 8.979181
55.050 9.223908
55.055 9.246048
55.060 9.309559
55.065 9.589479
55.070 9.507887
55.075 9.185678
55.080 9.349418
55.085 9.375079
55.090 9.047297
55.095 8.860559
55.100 8.778235
55.105 9.336595
55.110 9.286976
55.115 8.881014
55.120 8.999915
55.125 9.297408
55.130 9.046863
55.135 8.879036
55.140 8.713819
55.145 8.705224
55.150 8.828603
55.155 8.760318
55.160 8.98438
55.165 9.325133
55.170 9.299183
55.175 9.701044
55.180 9.740002
55.185 9.612532
55.190 9.619156
55.195 9.638894
55.200 9.847214
55.205 9.915779
55.210 9.899915
55.215 10.429704
55.220 10.146213
55.225 9.93912
55.230 9.827685
55.235 9.905696
55.240 9.860095
55.245 9.578168
55.250 9.46898
55.255 9.373157
55.260 9.286734
55.265 8.972165
55.270 8.341712
55.275 8.621881
55.280 8.764158
55.285 8.780382
55.290 9.159334
55.295 9.75214
55.300 10.335171
55.305 10.850699
55.310 10.798315
55.315 10.859017
55.320 11.065869
55.325 10.862372
55.330 10.032432
55.335 9.682661
55.340 9.527369
55.345 9.346717
55.350 9.14122
55.355 8.782912
55.360 9.160379
55.365 9.538689
55.370 9.520234
55.375 9.12631
55.380 8.802168
55.385 8.616099
55.390 8.676906
55.395 8.683152
55.400 8.688382
55.405 9.464254
55.410 9.754238
55.415 9.971654
55.420 10.142658
55.425 9.805832
55.430 9.627936
55.435 9.610489
55.440 9.407463
55.445 9.70564
55.450 9.898424
55.455 10.165055
55.460 10.534385
55.465 11.062644
55.470 10.989799
55.475 10.416782
55.480 10.6943
55.485 10.891668
55.490 11.093287
55.495 10.761809
55.500 10.404192
55.505 10.16597
55.510 10.20219
55.515 9.754505
55.520 9.935901
55.525 9.91685
55.530 9.75481
55.535 10.148493
55.540 10.224798
55.545 10.130788
55.550 10.099843
55.555 9.636283
55.560 9.765119
55.565 9.914508
55.570 9.608956
55.575 9.506736
55.580 9.818294
55.585 10.050182
55.590 10.529614
55.595 10.856047
55.600 10.838536
55.605 10.610329
55.610 10.764842
55.615 10.311694
55.620 9.913015
55.625 9.752027
55.630 9.490743
55.635 9.335711
55.640 9.577638
55.645 9.984075
55.650 10.328574
55.655 10.657845
55.660 10.461764
55.665 10.881847
55.670 11.13788
55.675 10.776813
55.680 10.326917
55.685 9.914039
55.690 9.76087
55.695 9.958447
55.700 9.358068
55.705 9.567265
55.710 9.643311
55.715 9.377334
55.720 9.86791
55.725 9.928553
55.730 9.762949
55.735 9.504314
55.740 9.833756
55.745 10.114435
55.750 10.490271
55.755 10.023812
55.760 10.110304
55.765 10.178953
55.770 10.170568
55.775 10.142102
55.780 10.536366
55.785 10.680619
55.790 10.529511
55.795 10.191534
55.800 10.099325
55.805 10.194296
55.810 9.645366
55.815 9.150669
55.820 9.142988
55.825 9.524014
55.830 9.362619
55.835 9.23405
55.840 9.420712
55.845 9.954252
55.850 10.64252
55.855 10.485685
55.860 10.404142
55.865 10.920287
55.870 10.87156
55.875 10.742193
55.880 10.390271
55.885 10.135993
55.890 10.397875
55.895 10.123142
55.900 9.839862
55.905 9.879983
55.910 9.708366
55.915 9.606235
55.920 9.681894
55.925 9.696014
55.930 9.944611
55.935 10.161825
55.940 10.190987
55.945 10.064451
55.950 10.289873
55.955 10.291924
55.960 10.383136
55.965 10.461929
55.970 10.434008
55.975 10.458782
55.980 10.306587
55.985 10.250894
55.990 10.160873
55.995 9.843811
56.000 10.14718
56.005 10.217673
56.010 10.290387
56.015 10.430354
56.020 10.020844
56.025 10.01451
56.030 10.270046
56.035 10.040475
56.040 10.375765
56.045 10.402699
56.050 10.605927
56.055 11.004973
56.060 11.017341
56.065 10.858861
56.070 10.637727
56.075 9.889344
56.080 10.057078
56.085 9.843926
56.090 9.608742
56.095 9.241446
56.100 8.92135
56.105 8.833954
56.110 9.457722
56.115 9.617999
56.120 9.500683
56.125 9.932751
56.130 10.597136
56.135 10.969856
56.140 11.214359
56.145 11.078946
56.150 10.680028
56.155 11.016239
56.160 10.800685
56.165 10.549412
56.170 10.987747
56.175 10.878249
56.180 10.704928
56.185 11.122235
56.190 10.804997
56.195 10.647657
56.200 10.662434
56.205 10.201169
56.210 10.147239
56.215 10.326914
56.220 10.506039
56.225 11.26983
56.230 11.682636
56.235 11.421809
56.240 11.623597
56.245 12.016988
56.250 12.472735
56.255 11.962209
56.260 11.21665
56.265 11.40208
56.270 11.58093
56.275 11.523482
56.280 11.212924
56.285 10.690801
56.290 11.041724
56.295 11.114715
56.300 11.061249
56.305 11.336908
56.310 11.665498
56.315 12.01829
56.320 11.692812
56.325 11.512556
56.330 11.459157
56.335 11.403964
56.340 11.163182
56.345 10.681357
56.350 10.182578
56.355 10.193843
56.360 10.144873
56.365 9.835207
56.370 9.458323
56.375 9.447194
56.380 9.687725
56.385 10.079845
56.390 10.03851
56.395 10.257036
56.400 10.771139
56.405 11.094767
56.410 11.467901
56.415 11.425492
56.420 11.354404
56.425 11.510526
56.430 11.353155
56.435 10.851349
56.440 10.216761
56.445 10.024001
56.450 10.032147
56.455 10.083517
56.460 10.429723
56.465 9.755342
56.470 9.99166
56.475 10.298056
56.480 10.365067
56.485 10.335356
56.490 10.572833
56.495 10.929178
56.500 11.522897
56.505 11.385626
56.510 11.385551
56.515 11.181868
56.520 11.167908
56.525 10.710722
56.530 10.207297
56.535 10.639044
56.540 11.003426
56.545 10.72764
56.550 10.87192
56.555 10.789082
56.560 10.840693
56.565 10.818807
56.570 10.51757
56.575 10.342684
56.580 10.322914
56.585 9.58177
56.590 9.566154
56.595 9.479211
56.600 9.528217
56.605 9.458766
56.610 9.661791
56.615 10.213054
56.620 11.016337
56.625 10.859551
56.630 11.190002
56.635 11.462187
56.640 11.590786
56.645 11.873308
56.650 11.796532
56.655 11.785486
56.660 12.232152
56.665 11.987093
56.670 11.785264
56.675 11.751775
56.680 11.463997
56.685 11.22628
56.690 10.832829
56.695 10.894233
56.700 10.985445
56.705 10.989143
56.710 10.923918
56.715 11.088391
56.720 11.187895
56.725 11.499288
56.730 11.267421
56.735 11.700756
56.740 11.755621
56.745 11.627453
56.750 11.560956
56.755 11.870603
56.760 11.813393
56.765 11.648211
56.770 10.823274
56.775 10.570987
56.780 10.839757
56.785 10.773128
56.790 10.660606
56.795 10.531572
56.800 11.294908
56.805 11.804652
56.810 12.378573
56.815 12.147799
56.820 12.129357
56.825 12.235807
56.830 12.23425
56.835 12.020564
56.840 12.373026
56.845 11.811267
56.850 11.64335
56.855 11.385342
56.860 11.16993
56.865 10.859444
56.870 10.31481
56.875 10.160814
56.880 10.450689
56.885 10.474134
56.890 10.530404
56.895 10.795208
56.900 11.407446
56.905 11.888218
56.910 11.529135
56.915 11.272071
56.920 11.321624
56.925 11.900504
56.930 11.720147
56.935 11.861267
56.940 12.235922
56.945 11.72714
56.950 11.819455
56.955 12.147223
56.960 11.831662
56.965 11.950202
56.970 11.270178
56.975 11.520848
56.980 12.24376
56.985 12.365704
56.990 12.506015
56.995 12.454541
57.000 12.120975
57.005 12.169327
57.010 11.615584
57.015 11.520042
57.020 11.079551
57.025 10.803898
57.030 10.926818
57.035 10.600406
57.040 10.34233
57.045 10.144306
57.050 10.461088
57.055 10.83286
57.060 10.835704
57.065 10.886043
57.070 10.840067
57.075 10.894958
57.080 11.671405
57.085 12.029781
57.090 12.111485
57.095 12.201035
57.100 12.523318
57.105 13.308792
57.110 13.14712
57.115 12.429933
57.120 12.012425
57.125 12.163583
57.130 12.10366
57.135 12.215306
57.140 12.055592
57.145 12.036851
57.150 12.163081
57.155 12.263731
57.160 12.357871
57.165 12.742409
57.170 12.272721
57.175 12.50941
57.180 12.623508
57.185 12.860466
57.190 12.983497
57.195 12.525191
57.200 12.508318
57.205 12.632122
57.210 12.253082
57.215 11.973752
57.220 11.216607
57.225 11.463814
57.230 11.479909
57.235 11.034213
57.240 10.886333
57.245 11.152604
57.250 11.416677
57.255 11.362473
57.260 11.19102
57.265 11.364456
57.270 11.540539
57.275 11.733896
57.280 11.560152
57.285 11.578438
57.290 11.992376
57.295 11.627055
57.300 11.732268
57.305 12.206613
57.310 12.071157
57.315 12.234663
57.320 12.574514
57.325 12.372849
57.330 12.826612
57.335 12.691617
57.340 12.562534
57.345 12.598874
57.350 12.262145
57.355 12.064222
57.360 11.76712
57.365 11.158823
57.370 10.99346
57.375 10.765108
57.380 11.134271
57.385 11.448982
57.390 11.56589
57.395 11.699902
57.400 12.526075
57.405 12.665919
57.410 13.029991
57.415 12.836016
57.420 12.605396
57.425 12.44822
57.430 12.254313
57.435 11.622651
57.440 11.708697
57.445 12.052021
57.450 11.898047
57.455 12.01073
57.460 11.924917
57.465 12.224784
57.470 12.576456
57.475 12.173953
57.480 11.694194
57.485 12.562513
57.490 12.618857
57.495 12.775702
57.500 12.438482
57.505 12.328095
57.510 12.639306
57.515 13.107462
57.520 12.920922
57.525 12.938753
57.530 12.836757
57.535 13.545382
57.540 13.539674
57.545 13.597194
57.550 13.792296
57.555 13.610823
57.560 14.065661
57.565 14.752025
57.570 14.526798
57.575 14.550838
57.580 13.966222
57.585 13.418352
57.590 13.731792
57.595 13.603122
57.600 13.027536
57.605 12.934258
57.610 12.804582
57.615 12.825817
57.620 12.648414
57.625 12.410734
57.630 12.382487
57.635 12.584035
57.640 12.727569
57.645 13.019955
57.650 12.999374
57.655 13.56629
57.660 13.710985
57.665 13.58844
57.670 13.685067
57.675 13.253581
57.680 12.840992
57.685 12.940443
57.690 12.524585
57.695 12.046398
57.700 12.231062
57.705 12.109326
57.710 12.455409
57.715 12.556267
57.720 12.416332
57.725 12.461052
57.730 12.718158
57.735 12.567674
57.740 12.795511
57.745 13.004867
57.750 13.157856
57.755 13.121032
57.760 13.067015
57.765 13.137452
57.770 13.088472
57.775 12.875905
57.780 12.841955
57.785 13.390038
57.790 13.788325
57.795 13.543363
57.800 12.787889
57.805 12.720067
57.810 12.613784
57.815 13.010921
57.820 12.745882
57.825 13.336986
57.830 14.158895
57.835 15.184917
57.840 15.856934
57.845 15.573863
57.850 15.305408
57.855 15.201596
57.860 14.831115
57.865 14.534209
57.870 14.271789
57.875 13.75559
57.880 13.960752
57.885 14.227857
57.890 14.027376
57.895 13.72509
57.900 13.740622
57.905 13.658285
57.910 14.03951
57.915 14.056447
57.920 14.125692
57.925 14.014531
57.930 13.948446
57.935 14.054934
57.940 14.185603
57.945 13.984909
57.950 13.759492
57.955 13.320552
57.960 12.848504
57.965 12.644698
57.970 12.241088
57.975 11.872428
57.980 12.207266
57.985 12.061039
57.990 12.38903
57.995 13.194964
58.000 13.692917
58.005 14.49876
58.010 14.644767
58.015 14.935928
58.020 15.524356
58.025 15.29997
58.030 14.944089
58.035 14.544888
58.040 14.949226
58.045 14.861692
58.050 14.260201
58.055 14.536063
58.060 15.06641
58.065 14.954916
58.070 15.139025
58.075 14.741419
58.080 14.758592
58.085 15.064176
58.090 14.622597
58.095 14.694954
58.100 15.062328
58.105 15.258038
58.110 15.231034
58.115 15.331122
58.120 15.206989
58.125 15.29569
58.130 15.058746
58.135 14.841671
58.140 14.842576
58.145 15.19244
58.150 16.066982
58.155 16.446524
58.160 16.367096
58.165 16.664877
58.170 17.010693
58.175 16.47962
58.180 16.377832
58.185 15.613439
58.190 15.058147
58.195 14.791219
58.200 14.280802
58.205 14.170318
58.210 14.263132
58.215 14.100981
58.220 14.226755
58.225 15.133352
58.230 15.229658
58.235 15.649189
58.240 15.542737
58.245 15.063285
58.250 15.000833
58.255 14.772697
58.260 14.338568
58.265 14.41812
58.270 14.793347
58.275 15.1093
58.280 15.643473
58.285 15.483227
58.290 15.408232
58.295 15.719818
58.300 16.385281
58.305 16.292465
58.310 16.684216
58.315 16.667379
58.320 16.785816
58.325 16.832222
58.330 16.599594
58.335 16.395323
58.340 16.228209
58.345 15.97051
58.350 17.132299
58.355 18.053083
58.360 17.907616
58.365 18.353205
58.370 18.44989
58.375 18.765631
58.380 18.605438
58.385 18.539852
58.390 18.708372
58.395 19.154421
58.400 19.246761
58.405 19.270025
58.410 19.389984
58.415 20.101315
58.420 19.861609
58.425 20.102444
58.430 20.260195
58.435 20.253347
58.440 20.946302
58.445 21.324818
58.450 21.190886
58.455 21.400219
58.460 21.806293
58.465 22.220972
58.470 22.858261
58.475 22.921358
58.480 23.28863
58.485 23.895401
58.490 24.438398
58.495 24.675018
58.500 24.636137
58.505 24.567999
58.510 25.01565
58.515 25.31407
58.520 24.999893
58.525 24.854115
58.530 24.52492
58.535 24.680801
58.540 24.479704
58.545 24.776125
58.550 24.861351
58.555 25.232058
58.560 25.772131
58.565 26.13286
58.570 26.294336
58.575 26.729122
58.580 26.932875
58.585 27.524454
58.590 28.662048
58.595 29.664639
58.600 30.729532
58.605 30.588663
58.610 30.678463
58.615 30.675886
58.620 30.843821
58.625 30.762764
58.630 31.150238
58.635 31.738251
58.640 33.176998
58.645 33.299107
58.650 32.859291
58.655 32.422504
58.660 32.583199
58.665 31.68597
58.670 30.537546
58.675 30.007853
58.680 29.623566
58.685 29.697166
58.690 29.99678
58.695 29.773821
58.700 29.543993
58.705 29.932459
58.710 29.550814
58.715 29.240927
58.720 29.416162
58.725 28.439018
58.730 28.16823
58.735 28.877808
58.740 28.346231
58.745 28.976595
58.750 29.171247
58.755 29.097586
58.760 29.631544
58.765 28.843807
58.770 28.732113
58.775 28.623976
58.780 28.095007
58.785 27.661695
58.790 27.481028
58.795 27.485094
58.800 27.236534
58.805 27.13942
58.810 27.166651
58.815 27.284946
58.820 27.634901
58.825 27.154661
58.830 25.95277
58.835 25.272562
58.840 24.836344
58.845 24.237629
58.850 23.52879
58.855 22.961494
58.860 22.745445
58.865 22.454823
58.870 22.000784
58.875 21.551495
58.880 21.253117
58.885 21.123009
58.890 20.920633
58.895 21.126909
58.900 21.761683
58.905 22.304953
58.910 21.920515
58.915 21.896774
58.920 21.617096
58.925 21.172659
58.930 20.749506
58.935 19.98032
58.940 19.338453
58.945 19.528532
58.950 18.992672
58.955 18.777016
58.960 18.762785
58.965 18.331015
58.970 18.02006
58.975 17.496485
58.980 16.752241
58.985 16.783556
58.990 16.800009
58.995 16.955202
59.000 16.971144
59.005 16.836962
59.010 16.729185
59.015 17.018785
59.020 16.823643
59.025 16.532494
59.030 16.447319
59.035 16.237959
59.040 16.231285
59.045 16.233471
59.050 15.903475
59.055 16.687458
59.060 16.648457
59.065 16.146208
59.070 15.943318
59.075 15.530325
59.080 15.308505
59.085 15.161343
59.090 14.243567
59.095 14.365278
59.100 14.71105
59.105 14.781678
59.110 14.695471
59.115 14.758574
59.120 15.086137
59.125 15.357601
59.130 15.194499
59.135 14.828107
59.140 15.193075
59.145 15.390903
59.150 15.244681
59.155 14.705553
59.160 14.49356
59.165 14.714334
59.170 15.389759
59.175 15.578742
59.180 15.669643
59.185 15.736002
59.190 15.933105
59.195 15.200777
59.200 14.653311
59.205 13.759405
59.210 13.657488
59.215 14.071469
59.220 14.270141
59.225 14.966317
59.230 15.770851
59.235 15.840759
59.240 16.125055
59.245 15.580893
59.250 14.716565
59.255 14.157703
59.260 13.615905
59.265 13.514095
59.270 13.580864
59.275 13.858842
59.280 13.928387
59.285 14.262497
59.290 14.355501
59.295 14.37382
59.300 14.17432
59.305 14.152643
59.310 13.768308
59.315 13.747614
59.320 13.82959
59.325 13.924413
59.330 13.970304
59.335 14.239094
59.340 14.23991
59.345 14.630082
59.350 14.721681
59.355 14.672584
59.360 14.915798
59.365 14.688781
59.370 14.511818
59.375 14.343412
59.380 14.333112
59.385 14.456714
59.390 14.513147
59.395 13.918769
59.400 14.190088
59.405 14.209718
59.410 13.968881
59.415 13.924749
59.420 13.78309
59.425 13.587516
59.430 13.751204
59.435 13.32494
59.440 13.048609
59.445 13.016407
59.450 12.626405
59.455 12.953975
59.460 13.306546
59.465 12.947617
59.470 13.272788
59.475 14.170688
59.480 14.314466
59.485 14.535729
59.490 14.186559
59.495 14.091415
59.500 14.065326
59.505 13.686749
59.510 13.435719
59.515 13.147256
59.520 12.660134
59.525 12.257811
59.530 12.162787
59.535 12.113521
59.540 12.123301
59.545 12.085153
59.550 12.609716
59.555 12.939463
59.560 13.336127
59.565 13.814484
59.570 13.833474
59.575 13.726804
59.580 13.321824
59.585 13.3592
59.590 13.487843
59.595 13.846037
59.600 13.1922
59.605 13.221902
59.610 13.593133
59.615 13.438725
59.620 13.084515
59.625 13.202731
59.630 12.270847
59.635 12.900883
59.640 13.120483
59.645 13.060617
59.650 13.486907
59.655 13.525823
59.660 13.985763
59.665 14.563846
59.670 14.424184
59.675 14.422869
59.680 14.324643
59.685 14.104504
59.690 14.202967
59.695 13.826878
59.700 14.746827
59.705 14.806933
59.710 14.698464
59.715 14.59269
59.720 14.922484
59.725 15.07833
59.730 15.120272
59.735 14.370572
59.740 14.266144
59.745 14.310547
59.750 14.914521
59.755 14.929673
59.760 15.174514
59.765 15.835569
59.770 15.890034
59.775 16.200241
59.780 16.280161
59.785 15.810847
59.790 15.502824
59.795 15.011299
59.800 14.528053
59.805 14.545014
59.810 14.599887
59.815 14.517801
59.820 14.31162
59.825 14.137662
59.830 14.085052
59.835 13.685143
59.840 13.768207
59.845 13.595715
59.850 13.519878
59.855 13.485659
59.860 13.432214
59.865 13.238583
59.870 13.21959
59.875 12.768613
59.880 12.774226
59.885 13.442818
59.890 13.672505
59.895 13.649342
59.900 13.919373
59.905 13.946058
59.910 13.741444
59.915 13.754025
59.920 13.201465
59.925 13.284237
59.930 13.712984
59.935 13.663742
59.940 13.639008
59.945 13.72259
59.950 13.066889
59.955 13.191084
59.960 13.174535
59.965 13.131099
59.970 12.84629
59.975 13.370124
59.980 12.975878
59.985 13.259355
59.990 13.17993
59.995 13.077978
60.000 13.117273
60.005 13.712345
60.010 13.599786
60.015 14.107058
60.020 14.024937
60.025 14.258231
60.030 14.579157
60.035 14.783871
60.040 14.724209
60.045 14.976756
60.050 14.912991
60.055 14.862741
60.060 14.542329
60.065 14.362482
60.070 14.241619
60.075 14.193333
60.080 13.90522
60.085 14.430851
60.090 14.718785
60.095 14.989898
60.100 14.875223
60.105 14.537376
60.110 13.84568
60.115 13.28944
60.120 13.112805
60.125 13.18278
60.130 12.982854
60.135 12.937962
60.140 13.0053
60.145 13.345021
60.150 14.019016
60.155 13.938077
60.160 13.821286
60.165 14.168462
60.170 14.289486
60.175 14.128214
60.180 14.335237
60.185 13.945614
60.190 13.706348
60.195 13.423235
60.200 13.250239
60.205 13.110184
60.210 13.290727
60.215 13.267713
60.220 12.987152
60.225 13.355449
60.230 13.634643
60.235 13.686994
60.240 13.653438
60.245 13.827801
60.250 13.575963
60.255 14.126708
60.260 13.503194
60.265 13.442969
60.270 13.544173
60.275 13.55068
60.280 13.847979
60.285 14.023714
60.290 14.045193
60.295 14.271108
60.300 13.819491
60.305 13.381662
60.310 13.596107
60.315 13.367963
60.320 13.411278
60.325 13.380801
60.330 13.09674
60.335 13.389304
60.340 13.447832
60.345 13.637566
60.350 13.938328
60.355 13.888267
60.360 14.03033
60.365 14.084201
60.370 14.118671
60.375 14.610382
60.380 14.397256
60.385 14.164618
60.390 14.432506
60.395 14.616853
60.400 15.036718
60.405 15.260657
60.410 15.338136
60.415 15.085677
60.420 14.616827
60.425 13.85003
60.430 14.175992
60.435 14.606688
60.440 13.632004
60.445 13.397731
60.450 13.901857
60.455 14.2933
60.460 14.54237
60.465 13.781024
60.470 13.677274
60.475 14.124737
60.480 14.152887
60.485 14.03447
60.490 14.026592
60.495 14.422528
60.500 14.175924
60.505 14.096819
60.510 14.22788
60.515 14.497585
60.520 14.490788
60.525 14.714176
60.530 14.370859
60.535 14.904424
60.540 14.550553
60.545 14.49176
60.550 14.085025
60.555 14.047527
60.560 14.211073
60.565 14.584846
60.570 14.816653
60.575 15.296726
60.580 15.542137
60.585 16.372406
60.590 16.47085
60.595 16.41552
60.600 16.105272
60.605 16.226999
60.610 15.9344
60.615 15.736856
60.620 15.03256
60.625 15.151504
60.630 14.861614
60.635 14.452121
60.640 13.960941
60.645 13.865971
60.650 13.859871
60.655 14.166039
60.660 13.781027
60.665 13.97519
60.670 14.832556
60.675 15.360383
60.680 15.539223
60.685 15.008181
60.690 14.416258
60.695 14.812465
60.700 14.728914
60.705 14.502029
60.710 14.736935
60.715 14.423791
60.720 14.402507
60.725 14.75337
60.730 14.674742
60.735 15.142544
60.740 14.861964
60.745 14.166147
60.750 14.423214
60.755 14.618859
60.760 14.73143
60.765 14.930637
60.770 14.771576
60.775 14.642284
60.780 14.949439
60.785 14.57115
60.790 14.323945
60.795 13.961049
60.800 13.688905
60.805 13.784536
60.810 13.626174
60.815 13.59023
60.820 13.969512
60.825 14.048572
60.830 14.029779
60.835 13.860528
60.840 13.987905
60.845 14.272475
60.850 14.651036
60.855 15.035583
60.860 15.037188
60.865 14.954582
60.870 14.870179
60.875 14.646227
60.880 14.563256
60.885 14.249735
60.890 14.210463
60.895 14.341427
60.900 14.924115
60.905 15.412631
60.910 15.600173
60.915 15.941171
60.920 16.413223
60.925 16.152315
60.930 16.329142
60.935 15.821919
60.940 15.515343
60.945 14.905297
60.950 14.279631
60.955 14.015535
60.960 14.130867
60.965 13.624622
60.970 13.442121
60.975 13.283564
60.980 13.155501
60.985 13.124847
60.990 12.960736
60.995 13.306667
61.000 13.756564
61.005 14.105538
61.010 13.968728
61.015 14.56492
61.020 15.21334
61.025 15.192178
61.030 14.863494
61.035 14.486617
61.040 14.044599
61.045 13.853339
61.050 13.413899
61.055 13.043492
61.060 13.147301
61.065 12.909302
61.070 13.280423
61.075 13.803425
61.080 14.004336
61.085 14.227336
61.090 14.510854
61.095 14.819921
61.100 15.122656
61.105 15.107996
61.110 15.113759
61.115 15.534663
61.120 15.309876
61.125 15.006814
61.130 14.5876
61.135 14.574178
61.140 14.229137
61.145 13.99041
61.150 13.287227
61.155 13.380071
61.160 13.750399
61.165 13.887492
61.170 13.744626
61.175 14.332893
61.180 15.045596
61.185 15.856495
61.190 15.866963
61.195 16.017479
61.200 16.458593
61.205 16.524113
61.210 16.292837
61.215 15.414339
61.220 15.242912
61.225 15.204522
61.230 15.241558
61.235 15.236628
61.240 15.029003
61.245 15.06568
61.250 15.672139
61.255 15.907187
61.260 16.018147
61.265 15.455524
61.270 14.902708
61.275 15.095626
61.280 15.503842
61.285 15.135171
61.290 14.714496
61.295 14.939647
61.300 15.339807
61.305 15.621087
61.310 15.625304
61.315 15.034655
61.320 14.679006
61.325 14.796937
61.330 14.381912
61.335 13.71093
61.340 13.367791
61.345 13.058125
61.350 12.801272
61.355 13.378675
61.360 13.319459
61.365 13.312266
61.370 13.306787
61.375 13.223772
61.380 13.880386
61.385 14.653752
61.390 14.604346
61.395 14.881061
61.400 15.285627
61.405 15.550626
61.410 15.716266
61.415 15.51093
61.420 15.550985
61.425 15.349703
61.430 15.365338
61.435 15.176318
61.440 15.278752
61.445 15.327986
61.450 14.883438
61.455 14.766698
61.460 15.207928
61.465 14.755352
61.470 14.793926
61.475 14.778099
61.480 14.924118
61.485 15.589322
61.490 15.729502
61.495 15.757302
61.500 15.951465
61.505 15.995248
61.510 15.97846
61.515 15.660588
61.520 14.88132
61.525 14.727214
61.530 14.430304
61.535 14.602431
61.540 14.903119
61.545 15.452263
61.550 15.619886
61.555 15.806267
61.560 15.698682
61.565 16.114002
61.570 16.494814
61.575 16.311216
61.580 15.93707
61.585 16.002106
61.590 15.736911
61.595 15.653657
61.600 15.312037
61.605 15.12111
61.610 15.37991
61.615 15.484136
61.620 15.797495
61.625 16.279589
61.630 16.081184
61.635 15.974277
61.640 15.387805
61.645 15.216853
61.650 14.65347
61.655 14.574442
61.660 14.530004
61.665 14.81022
61.670 14.605121
61.675 14.532622
61.680 14.564705
61.685 14.927024
61.690 15.302028
61.695 16.098751
61.700 16.401644
61.705 16.434072
61.710 16.649851
61.715 16.386808
61.720 15.883718
61.725 14.996976
61.730 14.480068
61.735 14.428378
61.740 14.654344
61.745 14.693994
61.750 15.102644
61.755 15.209716
61.760 15.657282
61.765 15.475868
61.770 15.106271
61.775 15.290583
61.780 15.743091
61.785 15.608488
61.790 15.430874
61.795 14.750434
61.800 14.437989
61.805 14.651474
61.810 14.423594
61.815 14.107272
61.820 14.160001
61.825 14.570387
61.830 15.127023
61.835 15.384651
61.840 15.137895
61.845 14.728119
61.850 14.354262
61.855 14.239356
61.860 14.39757
61.865 14.528791
61.870 14.865424
61.875 15.025405
61.880 15.085567
61.885 15.354403
61.890 15.390933
61.895 15.108994
61.900 14.919622
61.905 14.302489
61.910 14.33313
61.915 14.411816
61.920 14.318535
61.925 14.566388
61.930 14.675377
61.935 14.303879
61.940 14.215596
61.945 14.330657
61.950 14.658362
61.955 14.725426
61.960 14.835618
61.965 15.613791
61.970 16.162533
61.975 17.016136
61.980 17.578936
61.985 17.25849
61.990 16.650219
61.995 15.800732
62.000 15.285332
62.005 14.980195
62.010 14.537935
62.015 13.953413
62.020 13.925011
62.025 14.511816
62.030 14.771445
62.035 14.580206
62.040 14.788499
62.045 14.706464
62.050 14.930238
62.055 15.220131
62.060 15.182544
62.065 15.096678
62.070 15.003539
62.075 15.06765
62.080 15.115195
62.085 15.638412
62.090 15.870176
62.095 15.787444
62.100 16.39085
62.105 16.520136
62.110 16.070854
62.115 15.92843
62.120 15.20498
62.125 14.58978
62.130 14.122418
62.135 14.149986
62.140 14.799186
62.145 15.290151
62.150 15.078328
62.155 15.584739
62.160 16.075829
62.165 16.296213
62.170 16.012251
62.175 15.762383
62.180 16.378895
62.185 16.854509
62.190 16.751028
62.195 17.20903
62.200 17.505678
62.205 17.394836
62.210 16.405109
62.215 15.641147
62.220 15.164714
62.225 14.80107
62.230 14.11385
62.235 13.621213
62.240 13.862769
62.245 14.580038
62.250 15.304659
62.255 15.390423
62.260 15.104838
62.265 15.264406
62.270 15.530672
62.275 15.805257
62.280 15.430805
62.285 14.769422
62.290 14.998835
62.295 15.701035
62.300 15.743559
62.305 15.354815
62.310 14.513505
62.315 14.016653
62.320 13.804489
62.325 13.656411
62.330 13.250737
62.335 13.177728
62.340 13.721483
62.345 14.154056
62.350 14.763062
62.355 14.93438
62.360 15.361649
62.365 15.447258
62.370 16.112192
62.375 16.430222
62.380 16.311703
62.385 15.81661
62.390 15.561337
62.395 15.559314
62.400 15.872597
62.405 15.649767
62.410 16.044287
62.415 16.405876
62.420 16.686815
62.425 16.364189
62.430 16.850801
62.435 17.093639
62.440 17.06744
62.445 16.645105
62.450 16.764692
62.455 17.47134
62.460 17.889685
62.465 17.339491
62.470 16.782499
62.475 16.448631
62.480 16.14624
62.485 15.986085
62.490 15.744191
62.495 15.517311
62.500 15.306274
62.505 14.944949
62.510 14.579225
62.515 14.389893
62.520 14.166763
62.525 13.668214
62.530 13.431212
62.535 13.416096
62.540 13.886421
62.545 14.432722
62.550 14.59788
62.555 14.161389
62.560 14.15546
62.565 14.215585
62.570 13.876424
62.575 13.48452
62.580 12.996215
62.585 12.774055
62.590 12.878629
62.595 12.72044
62.600 12.936058
62.605 13.273787
62.610 13.277201
62.615 14.067668
62.620 14.601561
62.625 15.233749
62.630 15.908881
62.635 16.347944
62.640 16.618086
62.645 16.520386
62.650 16.445194
62.655 15.930022
62.660 15.263662
62.665 15.067814
62.670 14.770746
62.675 14.360443
62.680 14.299397
62.685 13.57665
62.690 14.674024
62.695 14.999947
62.700 14.580231
62.705 14.631191
62.710 14.833936
62.715 15.149713
62.720 15.557429
62.725 15.089435
62.730 15.24563
62.735 14.992716
62.740 14.536035
62.745 14.761445
62.750 14.762863
62.755 14.443376
62.760 14.103802
62.765 14.213208
62.770 14.345435
62.775 14.466042
62.780 14.429704
62.785 14.502509
62.790 14.520859
62.795 14.620397
62.800 14.284913
62.805 14.279026
62.810 13.867699
62.815 13.443797
62.820 13.372666
62.825 13.786695
62.830 14.38059
62.835 14.533514
62.840 15.117841
62.845 15.493791
62.850 15.490014
62.855 15.363688
62.860 15.234105
62.865 14.779163
62.870 14.967443
62.875 15.009975
62.880 15.398706
62.885 15.53304
62.890 15.512575
62.895 15.044145
62.900 14.985771
62.905 15.136624
62.910 15.152791
62.915 15.058641
62.920 14.858169
62.925 14.872325
62.930 15.059651
62.935 15.454262
62.940 15.331025
62.945 14.874652
62.950 15.127488
62.955 15.661942
62.960 15.694647
62.965 15.958754
62.970 15.811978
62.975 15.628219
62.980 15.821014
62.985 15.612143
62.990 15.268126
62.995 15.106053
63.000 15.035418
63.005 15.091117
63.010 15.170114
63.015 14.997864
63.020 14.884297
63.025 15.17932
63.030 15.221398
63.035 15.314184
63.040 15.146483
63.045 14.767916
63.050 14.602645
63.055 14.599827
63.060 14.353039
63.065 14.350637
63.070 14.37912
63.075 14.140958
63.080 14.18861
63.085 14.811743
63.090 14.999557
63.095 15.090672
63.100 14.706199
63.105 14.860886
63.110 15.787235
63.115 15.885081
63.120 15.638665
63.125 15.392689
63.130 15.319137
63.135 15.560027
63.140 15.41082
63.145 15.206146
63.150 15.317071
63.155 15.632255
63.160 16.040426
63.165 16.364599
63.170 16.597174
63.175 16.163792
63.180 16.172411
63.185 16.866425
63.190 16.824028
63.195 17.202835
63.200 17.57785
63.205 17.691523
63.210 18.370571
63.215 18.119133
63.220 17.559273
63.225 17.331375
63.230 16.571054
63.235 16.420856
63.240 16.78211
63.245 16.643776
63.250 16.39999
63.255 16.327763
63.260 16.214466
63.265 16.488718
63.270 16.337681
63.275 15.894437
63.280 15.331778
63.285 15.20291
63.290 14.93933
63.295 15.104888
63.300 14.903776
63.305 14.875105
63.310 15.037107
63.315 15.658953
63.320 15.98444
63.325 15.891711
63.330 15.845166
63.335 15.981353
63.340 15.709475
63.345 15.009187
63.350 14.340934
63.355 14.308187
63.360 14.626904
63.365 14.730655
63.370 15.187114
63.375 15.620286
63.380 16.243099
63.385 16.873901
63.390 16.864553
63.395 16.64286
63.400 16.370728
63.405 15.948116
63.410 15.212912
63.415 14.79175
63.420 14.241028
63.425 14.040824
63.430 14.636003
63.435 14.867624
63.440 14.810942
63.445 15.453352
63.450 15.893813
63.455 16.866753
63.460 17.449436
63.465 17.198338
63.470 17.229088
63.475 17.57435
63.480 17.536562
63.485 17.717371
63.490 17.086836
63.495 17.083494
63.500 16.668161
63.505 16.472164
63.510 16.060579
63.515 15.697942
63.520 15.215366
63.525 15.04815
63.530 15.040603
63.535 15.29918
63.540 15.298935
63.545 15.582684
63.550 16.068657
63.555 16.100248
63.560 16.413771
63.565 16.309437
63.570 16.178841
63.575 16.073626
63.580 15.786793
63.585 15.949407
63.590 16.350285
63.595 16.204222
63.600 15.890111
63.605 15.741609
63.610 15.503412
63.615 15.374454
63.620 15.013963
63.625 14.394824
63.630 14.396063
63.635 14.47672
63.640 14.944774
63.645 15.452785
63.650 15.618366
63.655 15.843579
63.660 16.599104
63.665 17.232622
63.670 17.275265
63.675 17.074938
63.680 16.689213
63.685 16.933439
63.690 17.243326
63.695 17.215384
63.700 16.792433
63.705 16.452976
63.710 16.624399
63.715 16.821495
63.720 16.371496
63.725 15.618077
63.730 15.116318
63.735 15.591439
63.740 16.654932
63.745 16.625961
63.750 16.747084
63.755 16.778307
63.760 16.956413
63.765 17.521418
63.770 17.732925
63.775 17.111799
63.780 16.883892
63.785 17.109167
63.790 18.026638
63.795 18.35079
63.800 18.356794
63.805 18.346138
63.810 19.085947
63.815 19.611433
63.820 19.324852
63.825 18.460272
63.830 18.199064
63.835 17.802341
63.840 17.340645
63.845 17.450182
63.850 17.06028
63.855 17.2393
63.860 17.704094
63.865 17.9384
63.870 17.613575
63.875 17.506378
63.880 16.675266
63.885 17.001144
63.890 16.872734
63.895 16.58139
63.900 16.509455
63.905 16.92462
63.910 16.963341
63.915 17.186943
63.920 17.145729
63.925 18.056253
63.930 18.61941
63.935 19.02883
63.940 19.204811
63.945 19.610405
63.950 19.720858
63.955 20.011364
63.960 20.093605
63.965 20.012802
63.970 19.930504
63.975 20.169577
63.980 20.32272
63.985 20.893122
63.990 20.94071
63.995 20.862663
64.000 20.900797
64.005 21.114584
64.010 21.924561
64.015 22.618725
64.020 23.055445
64.025 23.574453
64.030 23.24966
64.035 23.176807
64.040 23.347094
64.045 23.159594
64.050 22.97014
64.055 22.600925
64.060 22.34733
64.065 22.809248
64.070 23.272062
64.075 23.276163
64.080 23.269424
64.085 23.632055
64.090 23.904835
64.095 23.973934
64.100 24.095795
64.105 24.452261
64.110 24.65444
64.115 24.886303
64.120 24.665724
64.125 24.883814
64.130 25.429317
64.135 25.661615
64.140 25.405499
64.145 24.586029
64.150 25.10957
64.155 25.871944
64.160 25.809086
64.165 25.959667
64.170 26.137562
64.175 26.726227
64.180 27.55163
64.185 27.601637
64.190 27.790016
64.195 28.292379
64.200 27.960142
64.205 27.537828
64.210 27.163275
64.215 27.869843
64.220 28.025324
64.225 28.421047
64.230 28.217621
64.235 29.050621
64.240 30.552563
64.245 32.066753
64.250 31.971081
64.255 32.902836
64.260 33.372501
64.265 34.450428
64.270 35.358749
64.275 35.818485
64.280 35.743408
64.285 36.129688
64.290 36.630295
64.295 37.238693
64.300 37.71777
64.305 36.885738
64.310 36.481369
64.315 37.166748
64.320 38.401176
64.325 38.702381
64.330 39.491402
64.335 40.226738
64.340 41.978771
64.345 42.654194
64.350 42.455082
64.355 42.611877
64.360 43.19923
64.365 43.031818
64.370 42.758331
64.375 42.078316
64.380 42.894459
64.385 43.864983
64.390 44.502762
64.395 45.018837
64.400 45.678368
64.405 45.757626
64.410 45.845356
64.415 45.170216
64.420 44.573025
64.425 44.271042
64.430 44.656567
64.435 44.557106
64.440 45.498291
64.445 45.187031
64.450 44.914734
64.455 44.227383
64.460 43.289886
64.465 42.642551
64.470 42.938789
64.475 42.905285
64.480 43.617306
64.485 44.395397
64.490 44.70636
64.495 45.070328
64.500 45.646416
64.505 44.810383
64.510 43.813515
64.515 43.807114
64.520 44.007793
64.525 44.263653
64.530 44.297421
64.535 43.06105
64.540 42.93856
64.545 43.031624
64.550 42.799397
64.555 42.009724
64.560 41.112469
64.565 40.867962
64.570 40.107578
64.575 40.004871
64.580 39.295395
64.585 38.245369
64.590 37.874737
64.595 37.593319
64.600 37.074478
64.605 37.123093
64.610 36.440315
64.615 36.39386
64.620 36.937222
64.625 36.606022
64.630 36.052414
64.635 34.960125
64.640 34.048763
64.645 33.00872
64.650 32.070091
64.655 30.515015
64.660 29.492294
64.665 29.546
64.670 29.179695
64.675 28.774281
64.680 28.364605
64.685 27.891562
64.690 27.728083
64.695 28.134848
64.700 28.109728
64.705 27.779217
64.710 26.892155
64.715 27.331114
64.720 27.443827
64.725 26.981737
64.730 26.902561
64.735 26.892818
64.740 27.006079
64.745 26.335051
64.750 25.107672
64.755 24.841043
64.760 24.804674
64.765 24.324492
64.770 23.417191
64.775 23.07025
64.780 23.45215
64.785 23.546558
64.790 23.350695
64.795 22.986994
64.800 22.603355
64.805 23.33783
64.810 23.758305
64.815 23.883024
64.820 23.936743
64.825 23.473013
64.830 23.53009
64.835 23.376501
64.840 23.017687
64.845 21.903826
64.850 21.653387
64.855 21.015625
64.860 21.072535
64.865 21.870411
64.870 21.997549
64.875 22.483028
64.880 23.404207
64.885 23.992472
64.890 25.082098
64.895 25.788143
64.900 25.954084
64.905 26.065735
64.910 26.04302
64.915 26.258339
64.920 26.052258
64.925 25.319012
64.930 24.634251
64.935 24.495701
64.940 24.918407
64.945 25.183903
64.950 25.253481
64.955 25.894342
64.960 26.571531
64.965 27.349154
64.970 27.215069
64.975 26.483025
64.980 26.382406
64.985 26.705561
64.990 26.700697
64.995 26.683029
65.000 26.249601
65.005 26.873995
65.010 27.41128
65.015 27.449825
65.020 28.206377
65.025 28.434637
65.030 28.729671
65.035 29.109066
65.040 28.516636
65.045 28.175035
65.050 28.208233
65.055 27.470194
65.060 28.02219
65.065 28.192972
65.070 28.770065
65.075 30.113344
65.080 31.309649
65.085 32.215553
65.090 32.644089
65.095 33.004368
65.100 33.670429
65.105 33.652493
65.110 32.944828
65.115 32.688801
65.120 32.244202
65.125 33.085941
65.130 33.108002
65.135 33.293449
65.140 33.838348
65.145 34.460995
65.150 35.078201
65.155 35.358101
65.160 34.732189
65.165 34.724094
65.170 34.668842
65.175 35.44595
65.180 35.524792
65.185 35.838612
65.190 36.277893
65.195 35.877743
65.200 34.941124
65.205 34.678402
65.210 33.654163
65.215 33.173775
65.220 33.09824
65.225 33.367069
65.230 34.608715
65.235 36.282394
65.240 36.770203
65.245 37.719151
65.250 38.159782
65.255 37.868927
65.260 38.693699
65.265 38.923607
65.270 38.229618
65.275 37.62817
65.280 37.570473
65.285 37.395981
65.290 36.736748
65.295 35.717449
65.300 35.116905
65.305 34.935822
65.310 34.979069
65.315 34.109203
65.320 33.476765
65.325 32.953022
65.330 32.28075
65.335 32.438576
65.340 32.640766
65.345 32.821278
65.350 33.125725
65.355 33.528595
65.360 34.402199
65.365 34.389832
65.370 34.079376
65.375 34.364025
65.380 33.883022
65.385 34.147812
65.390 34.3885
65.395 34.259266
65.400 34.364906
65.405 34.512634
65.410 34.451462
65.415 35.055168
65.420 35.162621
65.425 35.004009
65.430 34.431522
65.435 34.284107
65.440 34.212112
65.445 33.587296
65.450 32.751637
65.455 32.119705
65.460 32.089622
65.465 32.13863
65.470 31.603676
65.475 31.408604
65.480 31.353523
65.485 30.908852
65.490 30.67663
65.495 30.776764
65.500 31.429163
65.505 32.417942
65.510 32.865517
65.515 32.855988
65.520 33.006397
65.525 32.874264
65.530 32.858173
65.535 32.557484
65.540 31.864964
65.545 31.467554
65.550 31.486731
65.555 31.700111
65.560 32.037281
65.565 31.786127
65.570 32.231533
65.575 32.135975
65.580 32.227631
65.585 33.031723
65.590 33.37698
65.595 32.85078
65.600 32.570812
65.605 32.538406
65.610 33.243382
65.615 33.700249
65.620 33.53508
65.625 33.674114
65.630 34.271164
65.635 34.136543
65.640 33.568893
65.645 33.267262
65.650 32.513054
65.655 32.620426
65.660 31.959593
65.665 31.94212
65.670 31.447334
65.675 31.1329
65.680 30.877941
65.685 30.847452
65.690 30.347626
65.695 30.604549
65.700 30.325701
65.705 30.67791
65.710 30.712889
65.715 30.925161
65.720 30.665522
65.725 31.252909
65.730 31.187174
65.735 31.102415
65.740 31.628513
65.745 31.84169
65.750 31.340078
65.755 30.866306
65.760 29.893351
65.765 29.343409
65.770 29.648575
65.775 28.89662
65.780 28.598143
65.785 28.924498
65.790 28.021082
65.795 28.259575
65.800 28.243574
65.805 27.548716
65.810 27.306883
65.815 26.712328
65.820 26.613382
65.825 27.454517
65.830 27.370867
65.835 27.402517
65.840 27.315918
65.845 26.914143
65.850 26.937126
65.855 26.786659
65.860 26.598106
65.865 26.003342
65.870 26.228998
65.875 26.533815
65.880 27.301752
65.885 27.41721
65.890 26.843599
65.895 26.486467
65.900 26.336601
65.905 26.156677
65.910 26.353008
65.915 25.621176
65.920 24.743603
65.925 23.943779
65.930 24.328129
65.935 24.356701
65.940 23.434816
65.945 22.430325
65.950 22.547039
65.955 22.857916
65.960 22.867085
65.965 22.917719
65.970 23.616648
65.975 23.717201
65.980 24.367468
65.985 23.537426
65.990 23.169428
65.995 22.75555
66.000 21.939547
66.005 20.836433
66.010 20.850616
66.015 20.544413
66.020 20.841015
66.025 21.080278
66.030 20.929846
66.035 20.255808
66.040 20.415388
66.045 20.277994
66.050 20.123009
66.055 20.313753
66.060 20.169756
66.065 20.826302
66.070 21.014275
66.075 21.309906
66.080 20.778049
66.085 20.745539
66.090 20.900953
66.095 20.57197
66.100 20.028196
66.105 19.859035
66.110 19.611242
66.115 20.025421
66.120 19.642384
66.125 19.054691
66.130 18.776827
66.135 18.911631
66.140 18.836832
66.145 18.615795
66.150 18.739008
66.155 18.826899
66.160 19.279373
66.165 19.267847
66.170 18.971447
66.175 19.003757
66.180 19.059507
66.185 18.569891
66.190 19.114391
66.195 19.067045
66.200 19.092485
66.205 19.467751
66.210 19.472557
66.215 20.212378
66.220 20.505974
66.225 19.835461
66.230 19.379299
66.235 18.518227
66.240 18.396042
66.245 18.560528
66.250 18.447136
66.255 18.079561
66.260 18.245506
66.265 18.700153
66.270 19.30792
66.275 19.011961
66.280 18.748276
66.285 18.525381
66.290 18.891933
66.295 19.097134
66.300 19.136713
66.305 18.949286
66.310 18.706081
66.315 18.127066
66.320 17.381897
66.325 17.55122
66.330 16.86306
66.335 16.832449
66.340 17.319815
66.345 17.779802
66.350 17.582153
66.355 17.619471
66.360 17.471512
66.365 17.695456
66.370 17.645411
66.375 17.423491
66.380 17.433723
66.385 18.068466
66.390 18.027651
66.395 17.540323
66.400 17.533648
66.405 17.622299
66.410 16.929983
66.415 16.216413
66.420 15.814908
66.425 15.978238
66.430 16.129057
66.435 16.262461
66.440 16.019075
66.445 16.487894
66.450 16.669254
66.455 16.658737
66.460 16.671663
66.465 16.906054
66.470 16.807375
66.475 16.902758
66.480 17.300545
66.485 18.626406
66.490 18.570419
66.495 18.368559
66.500 18.016689
66.505 17.822035
66.510 17.746645
66.515 17.089832
66.520 16.193026
66.525 16.255035
66.530 16.315605
66.535 16.532486
66.540 16.897562
66.545 17.37303
66.550 17.910131
66.555 18.134819
66.560 18.492378
66.565 19.00223
66.570 19.416538
66.575 19.323587
66.580 18.972178
66.585 18.273012
66.590 18.227398
66.595 17.61516
66.600 16.772438
66.605 16.315094
66.610 16.454041
66.615 16.983984
66.620 17.432613
66.625 17.370426
66.630 17.573433
66.635 17.775965
66.640 17.91457
66.645 17.617651
66.650 17.482224
66.655 17.835192
66.660 17.715006
66.665 17.734274
66.670 17.799643
66.675 17.584681
66.680 17.573572
66.685 17.536808
66.690 17.214584
66.695 17.353607
66.700 17.147947
66.705 16.718771
66.710 16.882593
66.715 16.963463
66.720 16.275349
66.725 15.705643
66.730 15.984132
66.735 16.433155
66.740 16.842773
66.745 16.635725
66.750 16.386845
66.755 16.74781
66.760 17.07151
66.765 16.622694
66.770 16.744705
66.775 16.850525
66.780 16.949993
66.785 17.133718
66.790 17.265184
66.795 16.944853
66.800 17.074135
66.805 17.301231
66.810 17.23502
66.815 17.325657
66.820 17.678759
66.825 17.374592
66.830 17.148209
66.835 16.938148
66.840 16.356342
66.845 16.068506
66.850 16.039524
66.855 16.032488
66.860 16.496902
66.865 16.891781
66.870 17.262287
66.875 17.182245
66.880 16.885788
66.885 16.651232
66.890 16.838125
66.895 16.92063
66.900 16.894918
66.905 16.310095
66.910 16.388538
66.915 17.575609
66.920 17.674744
66.925 17.393206
66.930 17.943146
66.935 18.346256
66.940 19.021935
66.945 19.325005
66.950 18.370117
66.955 17.900141
66.960 17.664219
66.965 17.269825
66.970 17.320183
66.975 17.224813
66.980 17.220322
66.985 17.390594
66.990 17.640509
66.995 17.58386
67.000 17.895226
67.005 17.312931
67.010 17.03019
67.015 16.692604
67.020 16.706551
67.025 16.472879
67.030 16.722231
67.035 15.823271
67.040 16.374947
67.045 16.967459
67.050 17.101368
67.055 16.78377
67.060 16.835218
67.065 16.486973
67.070 16.465902
67.075 15.926615
67.080 15.553945
67.085 15.9189
67.090 16.275864
67.095 17.190599
67.100 17.599026
67.105 17.394823
67.110 18.055218
67.115 17.952662
67.120 18.056919
67.125 18.034027
67.130 17.695951
67.135 18.269876
67.140 18.829884
67.145 18.500738
67.150 18.647694
67.155 18.497852
67.160 18.468676
67.165 17.819031
67.170 17.406118
67.175 17.731525
67.180 18.225126
67.185 18.399548
67.190 18.590338
67.195 18.923006
67.200 19.41593
67.205 18.937918
67.210 18.71027
67.215 18.881092
67.220 19.002417
67.225 19.283537
67.230 18.925875
67.235 19.020109
67.240 18.813387
67.245 18.246149
67.250 17.75635
67.255 17.383926
67.260 17.051908
67.265 17.103952
67.270 17.170832
67.275 17.688845
67.280 17.955622
67.285 17.64484
67.290 17.380291
67.295 17.230536
67.300 17.246468
67.305 17.300556
67.310 17.458111
67.315 17.024286
67.320 16.654942
67.325 16.593731
67.330 16.487913
67.335 16.2069
67.340 16.379364
67.345 16.55442
67.350 16.949209
67.355 17.102587
67.360 17.290073
67.365 17.456749
67.370 17.797287
67.375 17.482523
67.380 17.820917
67.385 18.1001
67.390 18.542204
67.395 18.307091
67.400 18.379328
67.405 18.457426
67.410 18.354219
67.415 18.250769
67.420 18.510218
67.425 18.260754
67.430 18.363071
67.435 18.360966
67.440 18.012934
67.445 18.183937
67.450 17.738722
67.455 17.793758
67.460 18.107069
67.465 18.194391
67.470 17.942327
67.475 17.773119
67.480 18.002264
67.485 18.277561
67.490 18.554102
67.495 18.513681
67.500 18.806776
67.505 18.747248
67.510 18.440704
67.515 18.087986
67.520 18.217108
67.525 18.15126
67.530 18.434328
67.535 18.328379
67.540 18.323547
67.545 18.349722
67.550 18.308722
67.555 18.296932
67.560 18.479109
67.565 18.262104
67.570 18.398478
67.575 18.43195
67.580 18.253786
67.585 17.967342
67.590 17.380804
67.595 17.198523
67.600 17.399508
67.605 17.041632
67.610 17.159998
67.615 17.692842
67.620 18.208454
67.625 18.601889
67.630 18.763155
67.635 19.004667
67.640 19.775574
67.645 19.511398
67.650 19.43569
67.655 19.096674
67.660 18.642967
67.665 18.060291
67.670 17.683615
67.675 17.362553
67.680 17.6348
67.685 17.356798
67.690 17.420137
67.695 17.338331
67.700 17.364548
67.705 17.34684
67.710 17.250719
67.715 17.195639
67.720 17.283035
67.725 16.977497
67.730 17.615049
67.735 18.05908
67.740 17.885054
67.745 17.659378
67.750 17.687309
67.755 17.699711
67.760 17.952068
67.765 17.102097
67.770 16.277838
67.775 16.466999
67.780 16.386724
67.785 16.478605
67.790 16.384581
67.795 15.923286
67.800 16.069836
67.805 16.318005
67.810 16.450787
67.815 16.507318
67.820 16.116484
67.825 16.472631
67.830 16.790121
67.835 16.409718
67.840 16.389528
67.845 16.303944
67.850 16.768745
67.855 17.007078
67.860 17.095482
67.865 17.110142
67.870 17.475464
67.875 17.40786
67.880 17.746851
67.885 17.5483
67.890 18.104977
67.895 18.242537
67.900 19.068222
67.905 19.682184
67.910 19.713327
67.915 19.118393
67.920 18.783333
67.925 18.355219
67.930 18.733383
67.935 18.884457
67.940 18.654247
67.945 19.244364
67.950 19.866047
67.955 19.986124
67.960 19.658966
67.965 19.3109
67.970 18.499977
67.975 18.343857
67.980 17.740845
67.985 17.935305
67.990 18.130104
67.995 18.313406
68.000 18.353472
68.005 18.331337
68.010 18.532656
68.015 19.132301
68.020 19.039042
68.025 18.851505
68.030 18.844244
68.035 18.807123
68.040 18.521423
68.045 18.449286
68.050 17.920877
68.055 17.624781
68.060 17.925406
68.065 18.452902
68.070 18.514484
68.075 18.95101
68.080 18.866657
68.085 19.111967
68.090 19.144855
68.095 19.114986
68.100 17.928314
68.105 17.429426
68.110 17.626822
68.115 17.902281
68.120 18.481949
68.125 19.302998
68.130 19.667788
68.135 20.342905
68.140 20.794819
68.145 20.42906
68.150 20.403048
68.155 19.848541
68.160 18.866312
68.165 18.587196
68.170 18.832632
68.175 19.194954
68.180 19.375652
68.185 19.467724
68.190 19.642534
68.195 19.940983
68.200 20.034819
68.205 19.590071
68.210 19.542789
68.215 19.85148
68.220 20.482273
68.225 20.686697
68.230 21.044029
68.235 21.688221
68.240 22.25828
68.245 23.020761
68.250 22.994055
68.255 23.160234
68.260 23.482628
68.265 23.730009
68.270 23.846613
68.275 23.911272
68.280 23.87513
68.285 24.483973
68.290 24.368204
68.295 24.576641
68.300 24.930822
68.305 25.044643
68.310 25.162579
68.315 25.166161
68.320 24.929779
68.325 25.071255
68.330 24.705437
68.335 24.343388
68.340 24.862022
68.345 26.076931
68.350 26.435255
68.355 26.637041
68.360 27.359619
68.365 28.045729
68.370 27.909166
68.375 27.150904
68.380 25.973753
68.385 26.177046
68.390 26.164801
68.395 25.717278
68.400 26.41058
68.405 27.562763
68.410 28.446026
68.415 29.419291
68.420 30.067976
68.425 30.411743
68.430 30.483994
68.435 30.589561
68.440 30.615381
68.445 30.871283
68.450 31.370773
68.455 31.58802
68.460 31.806568
68.465 31.904596
68.470 31.428719
68.475 30.70459
68.480 29.946228
68.485 29.113277
68.490 29.094875
68.495 29.979692
68.500 29.983614
68.505 29.900599
68.510 30.747807
68.515 31.801245
68.520 32.791866
68.525 32.784599
68.530 32.508232
68.535 32.77739
68.540 32.454983
68.545 32.0261
68.550 31.506792
68.555 31.433777
68.560 31.765213
68.565 31.956377
68.570 32.259609
68.575 32.807243
68.580 32.494473
68.585 32.446079
68.590 32.490677
68.595 32.425861
68.600 31.924572
68.605 31.089808
68.610 30.693224
68.615 31.642797
68.620 31.744869
68.625 31.564693
68.630 31.350512
68.635 31.410431
68.640 31.502831
68.645 31.552761
68.650 31.088985
68.655 30.544781
68.660 29.840034
68.665 29.441957
68.670 28.979832
68.675 29.960457
68.680 30.547905
68.685 30.650612
68.690 30.767048
68.695 30.655573
68.700 31.598938
68.705 32.24078
68.710 31.909632
68.715 30.964838
68.720 30.882633
68.725 30.889185
68.730 30.292532
68.735 30.342693
68.740 30.657295
68.745 30.999773
68.750 31.303017
68.755 31.293955
68.760 31.334446
68.765 31.719971
68.770 31.103546
68.775 30.506493
68.780 30.215359
68.785 29.960804
68.790 30.963669
68.795 31.567825
68.800 31.648024
68.805 31.964947
68.810 31.858881
68.815 31.501028
68.820 30.836512
68.825 30.190422
68.830 30.152096
68.835 30.115406
68.840 29.444677
68.845 29.633892
68.850 30.186251
68.855 30.810797
68.860 30.874393
68.865 30.842737
68.870 31.06514
68.875 31.037552
68.880 31.091736
68.885 31.229588
68.890 31.006451
68.895 29.895554
68.900 28.840504
68.905 28.964691
68.910 29.246838
68.915 29.180319
68.920 28.315317
68.925 28.444357
68.930 28.95521
68.935 30.028242
68.940 29.520441
68.945 29.840302
68.950 29.956387
68.955 30.763212
68.960 31.101707
68.965 31.449835
68.970 31.418093
68.975 31.343685
68.980 30.732862
68.985 29.834805
68.990 29.238697
68.995 28.846073
69.000 28.396252
69.005 28.101349
69.010 27.838224
69.015 27.615124
69.020 27.581219
69.025 27.705921
69.030 27.910763
69.035 27.79003
69.040 27.561396
69.045 27.616972
69.050 27.531454
69.055 27.295362
69.060 27.419933
69.065 27.192835
69.070 26.635742
69.075 26.565855
69.080 26.327875
69.085 26.283354
69.090 26.254141
69.095 25.611113
69.100 25.073195
69.105 25.18771
69.110 24.934113
69.115 25.269411
69.120 25.316748
69.125 25.675661
69.130 25.787245
69.135 25.948595
69.140 25.674252
69.145 25.002228
69.150 24.451321
69.155 24.718384
69.160 24.217752
69.165 24.354168
69.170 24.361296
69.175 23.89982
69.180 23.988983
69.185 23.8412
69.190 23.618298
69.195 23.182009
69.200 22.575748
69.205 22.184261
69.210 22.686028
69.215 22.983547
69.220 23.439737
69.225 23.435966
69.230 23.331202
69.235 23.32704
69.240 23.213011
69.245 22.708904
69.250 21.702518
69.255 20.383497
69.260 20.251583
69.265 20.346018
69.270 20.341793
69.275 20.504234
69.280 20.173719
69.285 20.20384
69.290 20.476057
69.295 19.766289
69.300 19.408909
69.305 19.397657
69.310 19.730097
69.315 20.122633
69.320 20.099407
69.325 19.463976
69.330 19.565159
69.335 19.261614
69.340 19.01207
69.345 18.167795
69.350 18.258766
69.355 18.752346
69.360 19.00021
69.365 19.026005
69.370 19.449915
69.375 19.835258
69.380 20.000446
69.385 19.697891
69.390 20.01045
69.395 20.125996
69.400 20.010695
69.405 19.413309
69.410 19.27165
69.415 18.883963
69.420 18.408319
69.425 18.103447
69.430 18.746519
69.435 19.20842
69.440 19.055738
69.445 18.908062
69.450 19.20919
69.455 19.194965
69.460 19.47764
69.465 19.14086
69.470 18.960602
69.475 19.086468
69.480 19.170391
69.485 19.125374
69.490 19.315948
69.495 19.194756
69.500 19.052488
69.505 19.16296
69.510 19.344439
69.515 19.365238
69.520 18.865664
69.525 18.851366
69.530 18.827724
69.535 18.678375
69.540 18.275049
69.545 17.960167
69.550 18.175785
69.555 18.376902
69.560 17.988018
69.565 17.654936
69.570 17.737677
69.575 17.790943
69.580 17.804329
69.585 17.528524
69.590 17.618607
69.595 17.748352
69.600 17.610542
69.605 17.732595
69.610 17.709793
69.615 17.431017
69.620 18.27692
69.625 18.351164
69.630 18.498856
69.635 19.053085
69.640 19.184076
69.645 19.745378
69.650 20.016592
69.655 19.285738
69.660 19.286472
69.665 19.023037
69.670 19.051487
69.675 19.356779
69.680 19.600197
69.685 19.851645
69.690 19.956379
69.695 20.173555
69.700 20.434711
69.705 19.980425
69.710 19.34376
69.715 18.785063
69.720 18.23848
69.725 18.049009
69.730 17.470383
69.735 17.226376
69.740 17.441397
69.745 18.444565
69.750 18.602757
69.755 18.848129
69.760 18.852318
69.765 19.014074
69.770 19.722345
69.775 19.671467
69.780 18.748505
69.785 18.589331
69.790 18.65579
69.795 18.775705
69.800 18.555664
69.805 18.259956
69.810 18.237228
69.815 19.198578
69.820 19.241642
69.825 18.811506
69.830 18.648731
69.835 18.890242
69.840 18.831913
69.845 18.731367
69.850 18.246239
69.855 19.070414
69.860 19.027521
69.865 18.902254
69.870 18.035789
69.875 17.957314
69.880 17.556641
69.885 17.442278
69.890 17.082968
69.895 17.102007
69.900 17.023201
69.905 17.361601
69.910 17.064302
69.915 17.047771
69.920 17.284386
69.925 16.994417
69.930 17.389257
69.935 17.95578
69.940 17.884651
69.945 17.898972
69.950 18.269773
69.955 17.966734
69.960 18.415823
69.965 18.135386
69.970 18.060257
69.975 18.296698
69.980 18.102829
69.985 18.634836
69.990 18.956421
69.995 19.064133
70.000 19.215218
70.005 18.777754
70.010 18.745674
70.015 19.249645
70.020 18.382759
70.025 17.631098
70.030 17.141159
70.035 17.405767
70.040 17.951416
70.045 17.774256
70.050 17.678555
70.055 18.268272
70.060 18.57855
70.065 18.337149
70.070 17.362862
70.075 16.842346
70.080 16.997265
70.085 16.464249
70.090 16.619341
70.095 16.935871
70.100 17.306618
70.105 17.783255
70.110 18.376844
70.115 18.259615
70.120 18.308245
70.125 18.176119
70.130 18.336407
70.135 18.695686
70.140 18.799166
70.145 18.781666
70.150 18.713894
70.155 18.450443
70.160 18.481413
70.165 18.234674
70.170 17.923471
70.175 17.30534
70.180 16.673374
70.185 16.854334
70.190 16.689743
70.195 16.260115
70.200 15.676506
70.205 15.398442
70.210 15.685018
70.215 15.852971
70.220 15.686629
70.225 15.84241
70.230 15.911271
70.235 16.498606
70.240 16.293993
70.245 16.526995
70.250 17.010834
70.255 17.578901
70.260 17.82877
70.265 17.566128
70.270 17.246391
70.275 17.335039
70.280 17.427256
70.285 17.266602
70.290 16.789816
70.295 16.834072
70.300 17.442484
70.305 18.033226
70.310 18.492426
70.315 18.351625
70.320 18.311699
70.325 18.046246
70.330 17.65255
70.335 17.448929
70.340 17.446499
70.345 16.887726
70.350 16.784828
70.355 16.879763
70.360 17.226316
70.365 17.189907
70.370 17.287704
70.375 18.008419
70.380 18.433247
70.385 18.789721
70.390 18.519102
70.395 18.607103
70.400 18.475113
70.405 18.194273
70.410 17.729362
70.415 17.18964
70.420 17.208344
70.425 17.13723
70.430 16.724285
70.435 16.814941
70.440 16.722424
70.445 16.73439
70.450 16.784191
70.455 16.447636
70.460 16.418879
70.465 16.878696
70.470 16.766302
70.475 16.158794
70.480 15.908614
70.485 16.259892
70.490 16.900068
70.495 17.102171
70.500 17.114372
70.505 17.508091
70.510 18.381342
70.515 18.218206
70.520 18.156096
70.525 17.881664
70.530 17.351099
70.535 17.026876
70.540 16.895475
70.545 17.036945
70.550 16.973379
70.555 16.752401
70.560 16.753622
70.565 17.653269
70.570 17.945267
70.575 17.65102
70.580 17.477844
70.585 17.578213
70.590 17.468897
70.595 17.722706
70.600 17.265413
70.605 16.982443
70.610 17.39353
70.615 17.055384
70.620 17.083628
70.625 17.217291
70.630 16.960768
70.635 17.317339
70.640 17.407885
70.645 16.96899
70.650 17.325953
70.655 18.253607
70.660 18.664589
70.665 19.128202
70.670 19.13719
70.675 18.85743
70.680 19.493481
70.685 19.110365
70.690 18.55781
70.695 18.270615
70.700 17.727154
70.705 17.677534
70.710 17.937952
70.715 17.585011
70.720 17.61869
70.725 17.164471
70.730 17.068787
70.735 17.23344
70.740 17.135307
70.745 16.992056
70.750 16.658895
70.755 16.429598
70.760 16.510578
70.765 16.22065
70.770 16.049726
70.775 16.205654
70.780 16.35973
70.785 16.858101
70.790 17.765375
70.795 18.32773
70.800 19.015345
70.805 19.396399
70.810 18.933138
70.815 18.488815
70.820 19.174192
70.825 18.822565
70.830 17.86787
70.835 17.609285
70.840 17.597813
70.845 18.075684
70.850 18.190136
70.855 17.685562
70.860 17.755465
70.865 18.166132
70.870 18.461159
70.875 18.561409
70.880 17.922972
70.885 17.442533
70.890 16.907019
70.895 17.314344
70.900 17.388372
70.905 16.683523
70.910 16.639465
70.915 16.934404
70.920 17.44902
70.925 17.231115
70.930 16.653345
70.935 16.448801
70.940 16.598103
70.945 16.418665
70.950 16.406527
70.955 16.580643
70.960 16.306202
70.965 15.913368
70.970 16.143171
70.975 15.909091
70.980 16.266659
70.985 16.324625
70.990 15.929669
70.995 16.090679
71.000 16.143976
71.005 15.847297
71.010 15.85451
71.015 15.85288
71.020 15.866787
71.025 15.897572
71.030 16.515823
71.035 17.060577
71.040 16.816204
71.045 16.86458
71.050 16.916775
71.055 17.477722
71.060 17.495775
71.065 16.879377
71.070 17.002819
71.075 17.051037
71.080 17.049297
71.085 16.896049
71.090 16.702078
71.095 16.878521
71.100 16.701046
71.105 16.67551
71.110 16.713764
71.115 16.761288
71.120 16.416521
71.125 16.222174
71.130 16.550367
71.135 16.547941
71.140 16.478556
71.145 16.80718
71.150 17.407707
71.155 17.930874
71.160 18.406116
71.165 18.451805
71.170 18.615025
71.175 18.507813
71.180 18.030964
71.185 17.274862
71.190 17.211636
71.195 16.718304
71.200 16.778469
71.205 17.002327
71.210 17.588297
71.215 17.314617
71.220 17.600962
71.225 17.393263
71.230 17.397524
71.235 17.528761
71.240 17.643177
71.245 17.073542
71.250 17.22768
71.255 17.563416
71.260 17.106894
71.265 16.753717
71.270 15.987557
71.275 15.809752
71.280 16.203348
71.285 15.929412
71.290 15.575957
71.295 16.105867
71.300 16.356228
71.305 17.297827
71.310 17.332243
71.315 17.252573
71.320 17.090157
71.325 17.282768
71.330 17.38542
71.335 17.891516
71.340 17.344887
71.345 17.713821
71.350 17.706547
71.355 17.903624
71.360 17.63884
71.365 17.581451
71.370 17.584042
71.375 18.099495
71.380 18.175123
71.385 18.551012
71.390 18.861944
71.395 19.608164
71.400 19.070011
71.405 18.04217
71.410 17.860132
71.415 18.111391
71.420 17.803955
71.425 17.054035
71.430 16.292068
71.435 17.088709
71.440 17.746235
71.445 17.408018
71.450 16.935583
71.455 17.012133
71.460 17.618095
71.465 17.349085
71.470 16.329306
71.475 15.990779
71.480 16.290348
71.485 16.276075
71.490 16.209499
71.495 15.816544
71.500 15.772845
71.505 15.908158
71.510 16.477411
71.515 16.331854
71.520 15.764864
71.525 15.615424
71.530 15.630078
71.535 16.242874
71.540 16.094868
71.545 15.571278
71.550 16.366095
71.555 16.69652
71.560 17.150318
71.565 17.655684
71.570 17.613014
71.575 17.831915
71.580 17.567371
71.585 17.817204
71.590 18.005816
71.595 17.699646
71.600 17.331987
71.605 17.648415
71.610 17.731014
71.615 16.973043
71.620 16.370487
71.625 16.338938
71.630 16.174057
71.635 16.310476
71.640 16.785728
71.645 17.144646
71.650 17.673988
71.655 17.776651
71.660 17.712528
71.665 17.666298
71.670 17.039598
71.675 16.620281
71.680 16.737623
71.685 17.200417
71.690 16.946045
71.695 16.735819
71.700 17.006077
71.705 17.117382
71.710 16.781052
71.715 16.400963
71.720 16.514771
71.725 16.510139
71.730 16.888067
71.735 16.448341
71.740 16.817253
71.745 17.243811
71.750 16.915148
71.755 16.497974
71.760 16.567842
71.765 16.652514
71.770 16.825094
71.775 16.663719
71.780 16.043139
71.785 15.702024
71.790 16.253363
71.795 16.015608
71.800 16.097013
71.805 15.840382
71.810 16.518805
71.815 17.115534
71.820 17.554123
71.825 17.848484
71.830 18.348513
71.835 17.885466
71.840 17.975519
71.845 16.920126
71.850 16.747541
71.855 16.558037
71.860 16.190809
71.865 16.243416
71.870 16.305418
71.875 17.372047
71.880 17.782438
71.885 18.317982
71.890 18.274868
71.895 18.617971
71.900 19.211605
71.905 19.006269
71.910 18.87232
71.915 19.070805
71.920 18.575827
71.925 18.450041
71.930 18.148338
71.935 18.003462
71.940 18.410936
71.945 17.564541
71.950 17.831648
71.955 17.669365
71.960 17.351027
71.965 16.911009
71.970 16.4853
71.975 16.353678
71.980 16.317272
71.985 16.56148
71.990 16.617067
71.995 16.560171
72.000 16.455395
72.005 16.391397
72.010 16.723373
72.015 16.679884
72.020 16.373985
72.025 16.869854
72.030 16.925129
72.035 17.072113
72.040 16.793629
72.045 16.952007
72.050 16.972801
72.055 16.844427
72.060 16.767742
72.065 16.805853
72.070 17.338144
72.075 17.068472
72.080 16.521433
72.085 16.65761
72.090 16.371737
72.095 15.888557
72.100 15.77819
72.105 15.605628
72.110 15.615146
72.115 15.343161
72.120 15.179645
72.125 15.378866
72.130 15.643259
72.135 15.88912
72.140 16.780272
72.145 17.304155
72.150 17.094543
72.155 17.217833
72.160 17.449488
72.165 17.523428
72.170 17.058458
72.175 16.021952
72.180 16.303894
72.185 16.904291
72.190 16.82559
72.195 16.608515
72.200 16.152235
72.205 16.202993
72.210 16.776699
72.215 17.387924
72.220 17.878651
72.225 17.630968
72.230 17.958269
72.235 18.393766
72.240 18.492344
72.245 18.036818
72.250 17.791952
72.255 18.234966
72.260 18.597466
72.265 18.887901
72.270 19.081747
72.275 18.613825
72.280 18.463394
72.285 18.406128
72.290 17.68873
72.295 17.405329
72.300 16.998055
72.305 16.929602
72.310 17.087696
72.315 16.817549
72.320 16.012398
72.325 16.03396
72.330 16.004377
72.335 16.381721
72.340 16.100771
72.345 16.27947
72.350 16.11026
72.355 15.899119
72.360 16.094561
72.365 16.442457
72.370 16.428164
72.375 16.53124
72.380 16.490036
72.385 16.770844
72.390 16.522551
72.395 16.680023
72.400 16.259533
72.405 16.862278
72.410 17.103365
72.415 17.296509
72.420 17.927568
72.425 18.348024
72.430 18.043707
72.435 17.682379
72.440 17.497412
72.445 17.627131
72.450 17.027416
72.455 16.610888
72.460 16.261751
72.465 16.642382
72.470 16.360416
72.475 15.814867
72.480 15.476702
72.485 15.990829
72.490 16.314779
72.495 16.669697
72.500 16.870226
72.505 17.098677
72.510 17.32498
72.515 17.301174
72.520 17.527868
72.525 17.660564
72.530 17.507647
72.535 17.284954
72.540 17.392118
72.545 17.601885
72.550 17.388813
72.555 16.847422
72.560 16.987047
72.565 16.573593
72.570 16.692928
72.575 16.796913
72.580 16.869928
72.585 16.899021
72.590 16.597219
72.595 16.081205
72.600 16.127541
72.605 16.131666
72.610 16.205685
72.615 16.229362
72.620 16.173756
72.625 16.876083
72.630 16.984465
72.635 16.986088
72.640 16.92061
72.645 16.363266
72.650 16.250809
72.655 16.148251
72.660 15.77341
72.665 16.037708
72.670 16.069954
72.675 15.873717
72.680 15.941059
72.685 16.050987
72.690 16.56452
72.695 16.962088
72.700 16.793463
72.705 16.504524
72.710 16.507212
72.715 16.604895
72.720 16.977421
72.725 16.583567
72.730 15.959216
72.735 15.854096
72.740 16.045919
72.745 16.567198
72.750 16.041294
72.755 16.287613
72.760 17.029018
72.765 17.271532
72.770 17.242418
72.775 17.051676
72.780 16.553772
72.785 16.449656
72.790 15.828698
72.795 15.985827
72.800 15.792717
72.805 15.834227
72.810 15.638787
72.815 15.619803
72.820 15.707702
72.825 16.209074
72.830 15.954758
72.835 16.266125
72.840 16.075953
72.845 15.815548
72.850 15.618311
72.855 15.878915
72.860 14.781902
72.865 14.370264
72.870 14.449256
72.875 14.635584
72.880 15.035158
72.885 15.029334
72.890 14.66755
72.895 15.444516
72.900 15.406217
72.905 15.382042
72.910 15.40202
72.915 15.706066
72.920 16.191034
72.925 16.683872
72.930 16.565781
72.935 16.755453
72.940 17.276123
72.945 17.413143
72.950 16.99662
72.955 16.61108
72.960 15.746615
72.965 15.690952
72.970 15.836731
72.975 15.113628
72.980 15.297621
72.985 15.556972
72.990 15.218364
72.995 15.039897
73.000 15.064557
