!@!!GADDS PLOTSO FILE: Chi integration type
!@!!Title/SampleName: map-21
!@!!Comment: ?
!@!!User: Bruker Instrument Administrator
!@!!Site: University of Illinois Chicago
!@!!Frame: map-21_01_000.gfrm
!@!!Wavelengths    1.54184   1.54056   1.54439
!@!!Frame angles: 2Theta: 63.000 Omega: 50.000 Phi: 0.000 Chi: 90.000
!@!!Integration range: 2Theta: 53.000 to 73.000  Gamma: -105.000 to -75.000
!@!!Integration method: bin normalized
!@!N
!@!SS
!@!M
!@!L 0.0 0.0 0.0 0.0
!@!XDegrees
!@!YCounts
53.000 10.99036
53.005 10.700294
53.010 10.605961
53.015 10.452303
53.020 9.858838
53.025 9.117427
53.030 8.903564
53.035 8.960026
53.040 9.083046
53.045 9.330457
53.050 9.936937
53.055 9.439154
53.060 9.292944
53.065 9.578212
53.070 9.4319
53.075 9.667238
53.080 9.413372
53.085 9.751879
53.090 10.877672
53.095 11.56434
53.100 11.372398
53.105 11.096009
53.110 10.885705
53.115 10.34542
53.120 9.85968
53.125 9.030382
53.130 8.562405
53.135 8.577713
53.140 8.360911
53.145 8.205912
53.150 8.926929
53.155 9.193316
53.160 9.701415
53.165 9.820439
53.170 10.147815
53.175 10.679057
53.180 10.15974
53.185 9.490983
53.190 9.215619
53.195 9.485543
53.200 9.782464
53.205 10.032024
53.210 9.743177
53.215 10.125588
53.220 10.109395
53.225 9.822749
53.230 9.299762
53.235 8.940483
53.240 8.713486
53.245 9.235002
53.250 9.388236
53.255 9.706663
53.260 9.758672
53.265 9.891951
53.270 10.07574
53.275 9.757098
53.280 9.381099
53.285 9.474517
53.290 9.615396
53.295 9.848097
53.300 9.469932
53.305 9.292486
53.310 9.665432
53.315 9.843202
53.320 9.810106
53.325 9.596895
53.330 9.705998
53.335 9.85439
53.340 9.743075
53.345 9.610892
53.350 9.62691
53.355 9.734817
53.360 9.895432
53.365 9.995722
53.370 10.475686
53.375 10.344951
53.380 10.169447
53.385 10.025654
53.390 9.566311
53.395 9.808908
53.400 9.3221
53.405 8.95488
53.410 9.117499
53.415 9.497085
53.420 9.652267
53.425 10.41931
53.430 10.311245
53.435 10.35759
53.440 10.60694
53.445 10.69217
53.450 10.54653
53.455 10.180074
53.460 9.63519
53.465 9.29317
53.470 9.287606
53.475 9.127501
53.480 9.149197
53.485 9.494334
53.490 9.584389
53.495 10.067706
53.500 10.532456
53.505 11.089696
53.510 11.385074
53.515 11.018683
53.520 10.506605
53.525 9.825068
53.530 9.431147
53.535 9.080625
53.540 9.100807
53.545 9.640149
53.550 10.152934
53.555 11.128734
53.560 11.811618
53.565 12.195114
53.570 12.254992
53.575 11.827252
53.580 11.563226
53.585 11.353027
53.590 10.919454
53.595 10.798538
53.600 10.809851
53.605 11.03993
53.610 10.561277
53.615 10.544261
53.620 10.661218
53.625 10.670978
53.630 10.266146
53.635 10.306808
53.640 10.81822
53.645 11.127228
53.650 11.220081
53.655 11.168142
53.660 11.40635
53.665 11.7672
53.670 11.17433
53.675 10.597582
53.680 10.537712
53.685 10.23365
53.690 10.32483
53.695 10.118424
53.700 10.258906
53.705 10.135362
53.710 10.187162
53.715 9.810208
53.720 9.692528
53.725 9.408266
53.730 9.429947
53.735 9.569122
53.740 10.046909
53.745 10.195752
53.750 10.267585
53.755 9.848113
53.760 9.690709
53.765 9.787321
53.770 9.796762
53.775 9.52745
53.780 9.57932
53.785 9.931747
53.790 10.441928
53.795 10.712961
53.800 10.999148
53.805 11.089134
53.810 11.639457
53.815 11.692461
53.820 11.315912
53.825 10.861918
53.830 10.760959
53.835 10.731274
53.840 10.701288
53.845 10.330776
53.850 10.551178
53.855 11.139481
53.860 11.691531
53.865 11.590717
53.870 10.951795
53.875 11.090834
53.880 11.429577
53.885 11.916118
53.890 11.893311
53.895 11.567457
53.900 11.510821
53.905 12.125995
53.910 11.490429
53.915 10.842016
53.920 10.458021
53.925 10.726933
53.930 11.506537
53.935 11.655479
53.940 11.809736
53.945 12.286679
53.950 12.618934
53.955 12.133566
53.960 12.059174
53.965 11.895598
53.970 11.358918
53.975 10.872651
53.980 10.573062
53.985 10.148722
53.990 9.808481
53.995 8.917945
54.000 8.877731
54.005 8.801723
54.010 8.620728
54.015 8.684722
54.020 9.154694
54.025 9.818538
54.030 9.89806
54.035 9.848967
54.040 10.267023
54.045 10.446393
54.050 10.409822
54.055 10.071335
54.060 9.786283
54.065 9.639391
54.070 9.692277
54.075 9.917431
54.080 10.176732
54.085 10.27108
54.090 10.825222
54.095 11.153205
54.100 11.968786
54.105 11.975017
54.110 12.311575
54.115 12.514906
54.120 12.91127
54.125 12.497513
54.130 11.733953
54.135 11.122303
54.140 10.705048
54.145 10.502189
54.150 10.260654
54.155 10.251173
54.160 10.346399
54.165 11.090722
54.170 11.581279
54.175 11.817469
54.180 11.673651
54.185 11.474532
54.190 11.047136
54.195 11.331439
54.200 11.081036
54.205 10.61776
54.210 10.58829
54.215 10.667796
54.220 10.695341
54.225 10.762475
54.230 10.515259
54.235 10.422164
54.240 10.491322
54.245 10.219654
54.250 10.153794
54.255 10.211143
54.260 10.549979
54.265 10.544406
54.270 11.040614
54.275 10.950633
54.280 10.943511
54.285 10.922968
54.290 10.80857
54.295 10.359301
54.300 10.272622
54.305 10.013959
54.310 9.948883
54.315 10.179673
54.320 10.116222
54.325 10.304713
54.330 10.013652
54.335 10.329295
54.340 10.573124
54.345 10.845236
54.350 10.778532
54.355 10.988891
54.360 11.110908
54.365 10.940866
54.370 10.873505
54.375 10.762087
54.380 10.718451
54.385 10.918241
54.390 10.923724
54.395 11.203062
54.400 11.495096
54.405 11.316623
54.410 11.198933
54.415 10.842278
54.420 10.731806
54.425 10.624858
54.430 10.552489
54.435 10.799495
54.440 11.38687
54.445 11.392814
54.450 11.091399
54.455 11.085878
54.460 11.357192
54.465 11.517492
54.470 11.494867
54.475 11.589067
54.480 11.613945
54.485 12.250505
54.490 12.280883
54.495 11.815314
54.500 11.708483
54.505 10.855951
54.510 10.39763
54.515 10.638494
54.520 10.549585
54.525 10.29285
54.530 10.286552
54.535 10.072215
54.540 10.567767
54.545 10.573956
54.550 10.411957
54.555 10.753906
54.560 11.029911
54.565 11.170939
54.570 11.103311
54.575 11.449805
54.580 12.219482
54.585 12.571149
54.590 12.491239
54.595 12.782834
54.600 12.494938
54.605 12.592228
54.610 12.884213
54.615 12.657301
54.620 12.538777
54.625 12.637672
54.630 12.087965
54.635 12.306705
54.640 12.075563
54.645 11.440614
54.650 11.52108
54.655 11.375983
54.660 11.030837
54.665 11.38138
54.670 11.710672
54.675 11.931033
54.680 12.456899
54.685 12.534112
54.690 12.296475
54.695 12.633362
54.700 12.726287
54.705 12.477451
54.710 12.098358
54.715 11.574591
54.720 11.329234
54.725 11.592528
54.730 11.472788
54.735 11.441739
54.740 11.526205
54.745 11.904868
54.750 11.740431
54.755 11.794132
54.760 11.796704
54.765 11.418496
54.770 11.392535
54.775 11.336532
54.780 11.38518
54.785 11.926351
54.790 12.001461
54.795 11.875866
54.800 11.836558
54.805 11.720266
54.810 11.46539
54.815 11.303077
54.820 10.778728
54.825 11.056662
54.830 11.351355
54.835 12.005062
54.840 12.433748
54.845 12.741401
54.850 13.178509
54.855 12.949707
54.860 12.529125
54.865 12.075912
54.870 12.341851
54.875 12.340487
54.880 12.591603
54.885 11.876674
54.890 12.096083
54.895 12.041931
54.900 12.23458
54.905 11.449719
54.910 10.973953
54.915 10.683908
54.920 11.214213
54.925 11.448463
54.930 11.901116
54.935 11.787248
54.940 11.794992
54.945 12.029063
54.950 12.089547
54.955 12.207788
54.960 12.125154
54.965 11.710448
54.970 11.374976
54.975 11.772903
54.980 11.664036
54.985 11.646091
54.990 11.230134
54.995 11.191088
55.000 11.741485
55.005 12.166319
55.010 12.082328
55.015 12.504831
55.020 12.570568
55.025 12.844175
55.030 12.839154
55.035 12.783917
55.040 12.376248
55.045 12.105936
55.050 11.382463
55.055 11.201672
55.060 11.223342
55.065 10.770534
55.070 10.271139
55.075 10.558977
55.080 10.747654
55.085 11.601226
55.090 11.81211
55.095 11.75365
55.100 11.906857
55.105 11.872915
55.110 11.665191
55.115 11.808908
55.120 11.690778
55.125 11.10862
55.130 11.192981
55.135 12.080869
55.140 12.611219
55.145 12.658193
55.150 12.211185
55.155 11.876916
55.160 12.365247
55.165 12.305739
55.170 12.067965
55.175 11.978175
55.180 11.793525
55.185 11.883409
55.190 11.852669
55.195 11.619921
55.200 11.650858
55.205 11.626701
55.210 12.022975
55.215 12.77556
55.220 12.704986
55.225 13.337349
55.230 13.749327
55.235 13.484724
55.240 13.102098
55.245 12.865156
55.250 12.473396
55.255 12.437016
55.260 11.911521
55.265 11.466859
55.270 11.625903
55.275 12.106319
55.280 12.057773
55.285 12.07609
55.290 12.144315
55.295 12.532088
55.300 12.252895
55.305 11.929201
55.310 11.450419
55.315 11.858684
55.320 11.960279
55.325 12.174749
55.330 12.179533
55.335 12.259044
55.340 12.470572
55.345 12.43866
55.350 11.856034
55.355 12.123017
55.360 12.092129
55.365 12.560759
55.370 12.85999
55.375 12.941079
55.380 13.449602
55.385 13.861201
55.390 13.235842
55.395 12.964863
55.400 12.823671
55.405 13.377842
55.410 13.490582
55.415 13.26951
55.420 13.386844
55.425 13.813341
55.430 14.362983
55.435 14.214717
55.440 13.498556
55.445 12.852518
55.450 12.451313
55.455 11.905034
55.460 11.955324
55.465 11.79024
55.470 11.849718
55.475 12.194827
55.480 12.524484
55.485 13.058771
55.490 13.167939
55.495 13.021617
55.500 13.110506
55.505 13.0249
55.510 12.769659
55.515 12.656352
55.520 12.718244
55.525 13.225834
55.530 12.551723
55.535 12.327321
55.540 12.191238
55.545 12.705454
55.550 12.85533
55.555 12.350322
55.560 11.943216
55.565 12.086528
55.570 12.444863
55.575 12.717074
55.580 12.796185
55.585 12.896569
55.590 12.978439
55.595 12.868004
55.600 12.460553
55.605 12.258577
55.610 11.782896
55.615 11.254729
55.620 11.231804
55.625 11.459408
55.630 11.73887
55.635 12.081083
55.640 12.020926
55.645 12.028269
55.650 12.352114
55.655 12.132715
55.660 12.05861
55.665 12.773311
55.670 12.224573
55.675 12.013258
55.680 12.250791
55.685 11.931374
55.690 12.089568
55.695 12.035704
55.700 11.92668
55.705 12.67485
55.710 12.767194
55.715 12.55228
55.720 13.020151
55.725 13.354598
55.730 12.85835
55.735 12.670715
55.740 12.3411
55.745 12.410265
55.750 12.552618
55.755 11.843887
55.760 11.573583
55.765 11.931772
55.770 12.310372
55.775 12.636585
55.780 12.694629
55.785 13.048096
55.790 13.415722
55.795 13.516377
55.800 13.093738
55.805 13.07202
55.810 12.886547
55.815 13.108639
55.820 12.806644
55.825 12.964038
55.830 12.99945
55.835 13.085252
55.840 12.44143
55.845 12.749889
55.850 13.031977
55.855 13.050629
55.860 13.048593
55.865 13.248008
55.870 13.441425
55.875 13.369802
55.880 12.606596
55.885 12.737962
55.890 12.822737
55.895 12.90624
55.900 12.992085
55.905 13.455016
55.910 14.518824
55.915 14.936717
55.920 14.383086
55.925 14.138129
55.930 13.84047
55.935 13.793245
55.940 13.630542
55.945 13.422521
55.950 13.59413
55.955 14.005466
55.960 14.203889
55.965 14.297588
55.970 13.98883
55.975 14.436959
55.980 13.681285
55.985 13.334491
55.990 12.770016
55.995 12.942402
56.000 13.131702
56.005 13.096083
56.010 12.901738
56.015 13.09531
56.020 13.380655
56.025 13.216588
56.030 13.371871
56.035 13.558996
56.040 13.101027
56.045 12.658318
56.050 12.781407
56.055 12.609407
56.060 12.771392
56.065 12.512809
56.070 12.409575
56.075 11.975267
56.080 11.988581
56.085 11.588034
56.090 11.755322
56.095 11.913983
56.100 11.795942
56.105 11.795123
56.110 12.491658
56.115 12.767882
56.120 13.296794
56.125 13.774904
56.130 14.122466
56.135 14.033073
56.140 13.530043
56.145 13.039924
56.150 12.899352
56.155 12.932856
56.160 12.691583
56.165 12.127777
56.170 12.225084
56.175 12.812661
56.180 13.051232
56.185 12.93389
56.190 12.486222
56.195 12.102207
56.200 12.067387
56.205 11.856964
56.210 11.739508
56.215 11.678232
56.220 11.824316
56.225 12.046761
56.230 12.649062
56.235 13.446774
56.240 14.070662
56.245 14.49262
56.250 14.503956
56.255 14.310068
56.260 14.112164
56.265 13.523194
56.270 13.186006
56.275 13.32726
56.280 13.026469
56.285 12.894642
56.290 13.489291
56.295 13.661283
56.300 13.877044
56.305 13.870328
56.310 13.819028
56.315 14.073091
56.320 13.978965
56.325 14.114901
56.330 14.05568
56.335 13.960303
56.340 13.720894
56.345 13.235508
56.350 13.185091
56.355 12.980609
56.360 12.537676
56.365 12.350884
56.370 12.428336
56.375 12.566826
56.380 12.441695
56.385 12.727919
56.390 13.132416
56.395 13.309119
56.400 13.701276
56.405 13.959723
56.410 13.804331
56.415 13.882437
56.420 14.076655
56.425 13.830737
56.430 13.649504
56.435 13.377648
56.440 13.077971
56.445 13.486951
56.450 13.902794
56.455 14.304858
56.460 14.523251
56.465 14.326126
56.470 14.408455
56.475 14.985575
56.480 15.001518
56.485 15.089128
56.490 14.97121
56.495 15.316686
56.500 15.656841
56.505 15.555327
56.510 15.180001
56.515 15.149373
56.520 14.627758
56.525 14.290977
56.530 13.697337
56.535 13.5522
56.540 13.17959
56.545 12.401379
56.550 11.757269
56.555 11.693029
56.560 11.379086
56.565 11.323069
56.570 11.003557
56.575 11.306735
56.580 12.046531
56.585 12.3446
56.590 12.139797
56.595 12.363503
56.600 12.369149
56.605 12.509094
56.610 12.638092
56.615 12.437047
56.620 12.401702
56.625 12.338166
56.630 12.360222
56.635 12.700154
56.640 12.356863
56.645 12.382831
56.650 11.991694
56.655 11.989755
56.660 12.378229
56.665 12.716383
56.670 13.241995
56.675 13.600061
56.680 13.590257
56.685 14.515121
56.690 15.237968
56.695 15.75983
56.700 15.784953
56.705 16.047775
56.710 15.932873
56.715 15.87861
56.720 15.413404
56.725 15.344035
56.730 15.462887
56.735 15.293097
56.740 14.490358
56.745 14.074241
56.750 14.190941
56.755 14.412985
56.760 14.077297
56.765 13.787548
56.770 13.880342
56.775 14.170296
56.780 15.013822
56.785 15.015655
56.790 15.084195
56.795 15.138682
56.800 15.051904
56.805 15.246962
56.810 15.546791
56.815 15.160119
56.820 14.908041
56.825 15.084872
56.830 15.085004
56.835 14.994866
56.840 14.841763
56.845 14.816381
56.850 14.909749
56.855 14.965652
56.860 15.30801
56.865 14.722127
56.870 14.725574
56.875 14.542737
56.880 14.449075
56.885 14.200337
56.890 13.720063
56.895 12.78062
56.900 13.17682
56.905 13.017282
56.910 12.787848
56.915 12.756646
56.920 12.592324
56.925 12.504445
56.930 12.832128
56.935 12.906981
56.940 12.761697
56.945 12.8277
56.950 12.437969
56.955 13.00382
56.960 14.110177
56.965 14.461308
56.970 14.822753
56.975 14.987678
56.980 14.748389
56.985 15.181399
56.990 14.786754
56.995 13.849181
57.000 13.202522
57.005 12.880301
57.010 12.67014
57.015 12.90206
57.020 13.027367
57.025 13.294331
57.030 13.453372
57.035 13.797802
57.040 13.932327
57.045 14.076098
57.050 14.023882
57.055 14.62517
57.060 14.528496
57.065 14.455607
57.070 14.158509
57.075 14.057299
57.080 14.597712
57.085 14.167342
57.090 13.413495
57.095 13.729191
57.100 14.136324
57.105 14.354507
57.110 14.082986
57.115 13.611883
57.120 13.76738
57.125 13.965568
57.130 14.027021
57.135 13.565521
57.140 13.537709
57.145 13.84412
57.150 14.067991
57.155 14.080972
57.160 13.963634
57.165 13.864451
57.170 13.915041
57.175 14.173803
57.180 14.213296
57.185 14.257262
57.190 14.781817
57.195 14.80178
57.200 14.901418
57.205 14.998899
57.210 14.97616
57.215 14.978521
57.220 14.693483
57.225 14.223484
57.230 14.034851
57.235 13.887924
57.240 14.074411
57.245 14.227616
57.250 14.65698
57.255 14.915838
57.260 14.72217
57.265 14.621784
57.270 14.203501
57.275 14.041927
57.280 13.92315
57.285 13.540247
57.290 13.515215
57.295 14.09267
57.300 14.801671
57.305 15.852918
57.310 15.785335
57.315 15.124559
57.320 15.364985
57.325 15.528423
57.330 15.201393
57.335 14.289193
57.340 13.249447
57.345 13.217266
57.350 13.554747
57.355 13.437121
57.360 13.647218
57.365 14.390609
57.370 15.364467
57.375 16.087173
57.380 16.096113
57.385 16.748854
57.390 16.594757
57.395 15.935464
57.400 15.197138
57.405 14.732861
57.410 14.340399
57.415 14.301943
57.420 13.85987
57.425 14.355598
57.430 14.514286
57.435 14.770574
57.440 14.813924
57.445 14.741892
57.450 14.743973
57.455 14.256116
57.460 13.320574
57.465 13.292788
57.470 13.606393
57.475 13.721189
57.480 14.266915
57.485 15.05975
57.490 15.374935
57.495 15.656139
57.500 15.428423
57.505 15.484017
57.510 15.27047
57.515 15.152779
57.520 14.485546
57.525 14.939178
57.530 14.886943
57.535 14.713685
57.540 14.151883
57.545 14.268674
57.550 14.185394
57.555 14.350599
57.560 14.388231
57.565 14.909269
57.570 15.103931
57.575 15.201731
57.580 15.089565
57.585 14.993878
57.590 15.26651
57.595 15.47434
57.600 15.109473
57.605 15.062585
57.610 14.822899
57.615 14.430827
57.620 14.460836
57.625 14.840036
57.630 14.745731
57.635 14.451001
57.640 14.44076
57.645 14.627732
57.650 15.007934
57.655 14.46933
57.660 13.3071
57.665 13.718843
57.670 14.272298
57.675 14.436065
57.680 14.482731
57.685 14.640728
57.690 15.049578
57.695 15.384576
57.700 15.379581
57.705 15.46816
57.710 15.336473
57.715 15.49861
57.720 15.62294
57.725 15.404097
57.730 15.526145
57.735 15.462035
57.740 14.735154
57.745 15.222416
57.750 15.281225
57.755 15.499846
57.760 15.738379
57.765 15.725396
57.770 16.310583
57.775 16.939758
57.780 16.93401
57.785 16.724266
57.790 16.116713
57.795 16.350849
57.800 15.998194
57.805 15.720177
57.810 16.38859
57.815 16.641211
57.820 17.199703
57.825 17.231297
57.830 17.032969
57.835 17.534554
57.840 16.907705
57.845 15.816754
57.850 15.328362
57.855 14.916237
57.860 14.761951
57.865 14.282462
57.870 13.821636
57.875 14.314672
57.880 14.366098
57.885 14.165956
57.890 14.276711
57.895 14.177217
57.900 14.306578
57.905 14.145542
57.910 13.929359
57.915 14.096364
57.920 14.196681
57.925 14.170969
57.930 14.624734
57.935 14.691794
57.940 14.496542
57.945 14.458787
57.950 14.230321
57.955 14.221901
57.960 14.447569
57.965 14.205828
57.970 14.239608
57.975 14.405117
57.980 14.154191
57.985 14.363684
57.990 14.226624
57.995 14.113331
58.000 14.657346
58.005 14.941113
58.010 15.262643
58.015 15.622937
58.020 15.359849
58.025 14.592769
58.030 14.67803
58.035 14.159128
58.040 14.213603
58.045 14.180163
58.050 14.394691
58.055 14.776846
58.060 15.373887
58.065 15.373614
58.070 15.308669
58.075 15.71873
58.080 15.56297
58.085 15.636435
58.090 16.060276
58.095 16.183588
58.100 16.441668
58.105 16.957294
58.110 16.938679
58.115 17.096447
58.120 16.621691
58.125 16.323799
58.130 16.30434
58.135 16.235485
58.140 15.941257
58.145 16.06637
58.150 16.419888
58.155 16.734131
58.160 16.767685
58.165 16.788843
58.170 16.755606
58.175 16.432945
58.180 16.082588
58.185 15.894893
58.190 16.388388
58.195 16.519577
58.200 16.630072
58.205 16.152489
58.210 15.852938
58.215 15.524537
58.220 14.840834
58.225 14.045227
58.230 13.205719
58.235 12.929255
58.240 13.21312
58.245 13.476237
58.250 13.770525
58.255 13.958456
58.260 14.48
58.265 15.419856
58.270 15.908624
58.275 16.156914
58.280 15.978793
58.285 16.056374
58.290 16.151535
58.295 15.698656
58.300 15.437283
58.305 15.43845
58.310 15.430109
58.315 15.139974
58.320 14.74277
58.325 15.117565
58.330 15.131043
58.335 14.80457
58.340 14.365097
58.345 14.334723
58.350 15.184973
58.355 15.573757
58.360 15.756441
58.365 16.287886
58.370 16.484056
58.375 16.220795
58.380 16.272322
58.385 15.840351
58.390 15.891888
58.395 15.781451
58.400 15.6443
58.405 15.914187
58.410 16.399803
58.415 16.544901
58.420 16.967506
58.425 16.562599
58.430 16.555519
58.435 15.85991
58.440 15.555068
58.445 15.659517
58.450 15.213669
58.455 14.697834
58.460 15.194249
58.465 15.571771
58.470 16.139215
58.475 15.922083
58.480 15.847126
58.485 16.430517
58.490 16.419838
58.495 16.419968
58.500 15.570221
58.505 15.112659
58.510 15.20144
58.515 15.359509
58.520 15.294697
58.525 15.338198
58.530 14.884751
58.535 15.24364
58.540 15.800168
58.545 15.749324
58.550 15.188925
58.555 14.811815
58.560 14.868178
58.565 16.205524
58.570 16.034903
58.575 16.035473
58.580 15.99701
58.585 16.356335
58.590 16.576925
58.595 16.219818
58.600 15.355759
58.605 15.652265
58.610 15.383166
58.615 15.20279
58.620 14.807874
58.625 14.871888
58.630 15.323303
58.635 15.21287
58.640 14.982455
58.645 14.947433
58.650 15.754507
58.655 16.145651
58.660 16.024387
58.665 15.710397
58.670 15.777413
58.675 15.992236
58.680 16.393248
58.685 16.038197
58.690 16.190636
58.695 16.709034
58.700 16.318453
58.705 16.312752
58.710 16.376375
58.715 15.881986
58.720 15.630112
58.725 15.444297
58.730 14.909225
58.735 14.851594
58.740 15.079568
58.745 15.154786
58.750 15.619283
58.755 16.384605
58.760 16.802126
58.765 17.332062
58.770 18.001547
58.775 18.174442
58.780 18.163994
58.785 17.917004
58.790 17.302031
58.795 17.19698
58.800 17.080376
58.805 16.520582
58.810 16.03397
58.815 16.698009
58.820 16.979202
58.825 17.233501
58.830 17.023489
58.835 17.308857
58.840 17.245165
58.845 16.887558
58.850 16.412327
58.855 16.038494
58.860 15.39546
58.865 14.834572
58.870 14.897565
58.875 15.271695
58.880 15.505053
58.885 15.345605
58.890 14.843629
58.895 15.403529
58.900 15.691205
58.905 15.945492
58.910 16.155157
58.915 16.65074
58.920 17.04529
58.925 17.856312
58.930 17.707954
58.935 17.917192
58.940 17.742908
58.945 17.737658
58.950 16.986338
58.955 16.205805
58.960 16.169203
58.965 16.303225
58.970 15.904713
58.975 15.722563
58.980 15.850893
58.985 16.269995
58.990 16.72858
58.995 16.521
59.000 16.821377
59.005 17.293009
59.010 17.557838
59.015 17.66309
59.020 17.505589
59.025 17.201204
59.030 16.970657
59.035 16.252913
59.040 16.417004
59.045 17.01049
59.050 17.389999
59.055 17.760351
59.060 17.860039
59.065 18.754747
59.070 19.213501
59.075 18.91157
59.080 18.026382
59.085 17.711388
59.090 17.842859
59.095 17.76372
59.100 17.004639
59.105 16.703331
59.110 16.514402
59.115 16.317099
59.120 15.928831
59.125 15.132557
59.130 15.401907
59.135 15.378539
59.140 15.817388
59.145 16.23962
59.150 16.853346
59.155 16.840425
59.160 17.042519
59.165 16.769913
59.170 16.495586
59.175 15.674984
59.180 15.265717
59.185 15.158631
59.190 15.28863
59.195 15.57269
59.200 16.404169
59.205 17.109564
59.210 17.813145
59.215 18.072374
59.220 17.502592
59.225 17.262238
59.230 17.2355
59.235 16.638002
59.240 16.726809
59.245 16.564383
59.250 16.682646
59.255 16.948175
59.260 17.128431
59.265 17.322512
59.270 17.624685
59.275 17.765287
59.280 17.794811
59.285 17.655497
59.290 17.706329
59.295 17.717216
59.300 17.530676
59.305 17.460825
59.310 17.250616
59.315 16.926163
59.320 17.75712
59.325 17.919079
59.330 18.052261
59.335 17.894146
59.340 17.762762
59.345 18.164541
59.350 18.014538
59.355 17.380686
59.360 17.880297
59.365 18.191523
59.370 18.187384
59.375 17.81148
59.380 17.153793
59.385 16.970554
59.390 17.139509
59.395 16.6318
59.400 16.28603
59.405 16.074553
59.410 15.697275
59.415 15.491959
59.420 15.751542
59.425 15.799532
59.430 16.039923
59.435 16.003166
59.440 16.746389
59.445 18.105656
59.450 18.764587
59.455 18.89184
59.460 19.610386
59.465 19.761017
59.470 19.958879
59.475 19.870821
59.480 19.554369
59.485 19.285389
59.490 19.184326
59.495 18.942438
59.500 18.958637
59.505 18.813841
59.510 18.451994
59.515 18.226149
59.520 18.598812
59.525 18.030607
59.530 17.21925
59.535 16.804438
59.540 16.915543
59.545 16.726412
59.550 16.407434
59.555 16.051262
59.560 16.17802
59.565 16.391363
59.570 16.761288
59.575 16.435421
59.580 16.760469
59.585 16.760822
59.590 16.711973
59.595 16.634439
59.600 16.870651
59.605 16.91431
59.610 16.73731
59.615 16.226999
59.620 16.443195
59.625 16.747486
59.630 16.888098
59.635 16.70738
59.640 16.506861
59.645 16.936243
59.650 17.30706
59.655 17.543087
59.660 17.715729
59.665 17.707346
59.670 18.153503
59.675 18.836428
59.680 18.815365
59.685 19.017555
59.690 18.981413
59.695 18.928631
59.700 19.243534
59.705 19.18121
59.710 19.199003
59.715 19.556114
59.720 19.68928
59.725 19.951361
59.730 20.277403
59.735 20.345228
59.740 20.051487
59.745 20.093281
59.750 19.736393
59.755 19.337196
59.760 19.242895
59.765 18.831284
59.770 18.066126
59.775 17.8283
59.780 17.629704
59.785 17.787962
59.790 17.716888
59.795 18.049803
59.800 18.656626
59.805 19.594135
59.810 20.194283
59.815 20.434769
59.820 21.100904
59.825 21.695341
59.830 21.103815
59.835 20.625118
59.840 19.999352
59.845 20.245199
59.850 20.213316
59.855 19.579931
59.860 19.035404
59.865 19.400986
59.870 20.058727
59.875 20.151756
59.880 19.84123
59.885 19.816532
59.890 20.068029
59.895 20.582642
59.900 20.238125
59.905 20.008352
59.910 20.007587
59.915 19.558819
59.920 19.677162
59.925 19.890501
59.930 19.911438
59.935 19.966465
59.940 20.322037
59.945 20.650522
59.950 20.646395
59.955 20.625607
59.960 20.719162
59.965 20.537125
59.970 20.555529
59.975 20.920605
59.980 20.945906
59.985 21.521549
59.990 21.998079
59.995 21.821529
60.000 22.097792
60.005 22.735584
60.010 22.652159
60.015 23.626814
60.020 23.912594
60.025 24.099884
60.030 24.075563
60.035 23.530977
60.040 23.544352
60.045 23.336456
60.050 22.788448
60.055 22.570215
60.060 22.112793
60.065 22.359573
60.070 22.731426
60.075 22.76367
60.080 22.176899
60.085 21.946182
60.090 21.556536
60.095 22.258514
60.100 22.04916
60.105 21.680998
60.110 21.377119
60.115 22.130362
60.120 22.508297
60.125 22.529436
60.130 21.761688
60.135 22.243654
60.140 22.1735
60.145 21.74206
60.150 21.151739
60.155 20.722275
60.160 21.190981
60.165 21.729887
60.170 21.913336
60.175 22.075336
60.180 22.342039
60.185 22.242985
60.190 22.032698
60.195 21.287878
60.200 21.162176
60.205 21.260147
60.210 21.804253
60.215 22.309668
60.220 22.057724
60.225 22.468491
60.230 22.802631
60.235 22.490404
60.240 21.811144
60.245 21.287727
60.250 21.328501
60.255 22.120672
60.260 23.051222
60.265 22.738503
60.270 23.011015
60.275 23.205296
60.280 23.141739
60.285 23.159172
60.290 23.181341
60.295 22.446026
60.300 22.517649
60.305 22.466644
60.310 22.541128
60.315 22.352509
60.320 22.293892
60.325 22.228222
60.330 22.116968
60.335 22.643753
60.340 22.565908
60.345 22.343039
60.350 22.772638
60.355 22.88623
60.360 22.334404
60.365 21.862219
60.370 21.343044
60.375 21.285809
60.380 22.189007
60.385 22.6066
60.390 22.485283
60.395 22.951139
60.400 23.796656
60.405 24.220232
60.410 24.297131
60.415 23.693336
60.420 23.096991
60.425 23.249943
60.430 22.84432
60.435 23.069069
60.440 22.576073
60.445 22.310137
60.450 21.500309
60.455 21.152912
60.460 21.270153
60.465 21.510389
60.470 20.985291
60.475 21.059345
60.480 21.812376
60.485 22.824751
60.490 22.70229
60.495 21.926762
60.500 21.577557
60.505 21.73752
60.510 21.59959
60.515 20.907574
60.520 20.311499
60.525 20.909742
60.530 21.154776
60.535 21.162453
60.540 21.331608
60.545 21.44026
60.550 21.865582
60.555 22.159191
60.560 21.950949
60.565 21.887659
60.570 21.450752
60.575 21.0439
60.580 21.039877
60.585 20.783241
60.590 20.851879
60.595 21.102417
60.600 21.749868
60.605 22.4935
60.610 22.649887
60.615 22.419249
60.620 22.138466
60.625 22.106998
60.630 21.830915
60.635 20.836918
60.640 19.72641
60.645 19.75823
60.650 20.264172
60.655 20.070217
60.660 19.822254
60.665 19.511005
60.670 19.652945
60.675 19.69821
60.680 19.749626
60.685 19.392635
60.690 19.191921
60.695 19.152132
60.700 19.554564
60.705 19.881411
60.710 19.949583
60.715 19.585514
60.720 20.025263
60.725 20.36521
60.730 20.926937
60.735 20.846451
60.740 20.435762
60.745 20.396992
60.750 20.327087
60.755 20.218613
60.760 20.282978
60.765 20.296329
60.770 20.334904
60.775 20.40988
60.780 20.182804
60.785 19.969398
60.790 19.447483
60.795 18.958933
60.800 18.427553
60.805 18.738419
60.810 19.184645
60.815 19.696243
60.820 19.607414
60.825 19.926594
60.830 20.587034
60.835 20.469616
60.840 20.737171
60.845 20.92205
60.850 20.949837
60.855 21.126818
60.860 21.214485
60.865 20.876982
60.870 20.925329
60.875 20.445423
60.880 19.817335
60.885 19.266577
60.890 19.425928
60.895 19.377262
60.900 19.235624
60.905 18.92799
60.910 18.515549
60.915 18.43413
60.920 18.473148
60.925 18.312313
60.930 18.118464
60.935 18.212702
60.940 18.648853
60.945 18.911766
60.950 19.548456
60.955 20.26296
60.960 20.414682
60.965 20.450506
60.970 19.918901
60.975 19.26465
60.980 19.360111
60.985 18.707088
60.990 17.997995
60.995 17.963781
61.000 18.408411
61.005 18.958359
61.010 18.782211
61.015 18.454462
61.020 18.382954
61.025 18.76965
61.030 18.816025
61.035 18.489592
61.040 18.380173
61.045 18.855619
61.050 19.378317
61.055 19.393175
61.060 18.881216
61.065 18.096939
61.070 17.999157
61.075 17.630655
61.080 17.72296
61.085 17.500538
61.090 17.793325
61.095 18.001577
61.100 18.285261
61.105 18.686226
61.110 18.873077
61.115 18.906282
61.120 19.036417
61.125 19.045052
61.130 19.102884
61.135 18.465418
61.140 18.092999
61.145 18.343201
61.150 18.148077
61.155 17.779278
61.160 17.474503
61.165 17.588619
61.170 17.869513
61.175 18.19817
61.180 17.863867
61.185 17.944237
61.190 18.094152
61.195 18.480038
61.200 19.337831
61.205 20.079323
61.210 20.115929
61.215 20.324968
61.220 20.432514
61.225 20.756283
61.230 20.688433
61.235 19.862383
61.240 18.963657
61.245 19.190218
61.250 19.160011
61.255 18.98315
61.260 18.979561
61.265 18.738136
61.270 18.519871
61.275 18.914949
61.280 18.926825
61.285 18.856108
61.290 18.729334
61.295 18.458065
61.300 18.669151
61.305 18.94054
61.310 19.323578
61.315 19.278851
61.320 18.711136
61.325 18.412645
61.330 18.674463
61.335 18.913637
61.340 18.864798
61.345 18.564402
61.350 18.202955
61.355 18.60309
61.360 18.703722
61.365 18.283783
61.370 17.343193
61.375 16.973675
61.380 16.767117
61.385 16.948336
61.390 17.256466
61.395 17.070593
61.400 16.892704
61.405 17.254969
61.410 17.52166
61.415 17.737923
61.420 17.819466
61.425 17.843559
61.430 18.23387
61.435 18.319931
61.440 18.818209
61.445 18.512604
61.450 18.700291
61.455 19.275928
61.460 19.010826
61.465 18.809319
61.470 18.872831
61.475 18.614286
61.480 18.704302
61.485 18.099133
61.490 17.370733
61.495 17.493248
61.500 16.915159
61.505 17.145123
61.510 17.52055
61.515 17.384991
61.520 17.500349
61.525 17.803234
61.530 17.617521
61.535 18.534571
61.540 18.335659
61.545 18.622622
61.550 19.449123
61.555 19.30966
61.560 19.314077
61.565 19.990553
61.570 19.734322
61.575 20.263739
61.580 19.798908
61.585 18.971828
61.590 18.945894
61.595 18.794916
61.600 18.409906
61.605 18.504467
61.610 17.939228
61.615 17.745834
61.620 17.887838
61.625 17.909906
61.630 17.975863
61.635 17.920717
61.640 17.728361
61.645 16.996803
61.650 16.063726
61.655 15.863437
61.660 15.985945
61.665 15.966
61.670 16.41234
61.675 16.336147
61.680 16.987452
61.685 17.552448
61.690 17.350975
61.695 17.042967
61.700 16.644196
61.705 15.831614
61.710 15.931928
61.715 15.961837
61.720 16.093189
61.725 16.310362
61.730 16.58087
61.735 17.023924
61.740 17.473627
61.745 17.402744
61.750 17.813766
61.755 17.657806
61.760 17.741652
61.765 18.152014
61.770 17.991343
61.775 17.807682
61.780 17.474623
61.785 16.137835
61.790 15.705354
61.795 15.932124
61.800 15.792618
61.805 15.802258
61.810 15.621442
61.815 16.297791
61.820 17.602978
61.825 18.245218
61.830 17.437334
61.835 16.7845
61.840 16.395859
61.845 16.799812
61.850 16.241688
61.855 15.829967
61.860 15.602372
61.865 16.051455
61.870 16.588896
61.875 17.244614
61.880 17.371109
61.885 17.714462
61.890 18.370956
61.895 18.819635
61.900 19.069569
61.905 19.281332
61.910 19.330078
61.915 19.21479
61.920 19.172894
61.925 19.276384
61.930 19.267004
61.935 18.897587
61.940 18.344776
61.945 18.04965
61.950 17.905741
61.955 17.246826
61.960 16.519098
61.965 16.498062
61.970 17.135719
61.975 17.494656
61.980 17.706543
61.985 18.242958
61.990 18.722933
61.995 18.698893
62.000 18.461588
62.005 18.472614
62.010 18.975985
62.015 18.643051
62.020 18.411701
62.025 18.423315
62.030 18.041536
62.035 17.684381
62.040 17.448261
62.045 16.854374
62.050 16.589735
62.055 16.56325
62.060 16.523766
62.065 17.222101
62.070 17.844959
62.075 17.552486
62.080 17.80348
62.085 18.752148
62.090 19.021797
62.095 18.70293
62.100 18.185051
62.105 17.44171
62.110 17.253641
62.115 16.592184
62.120 15.795815
62.125 16.148752
62.130 16.416525
62.135 16.674292
62.140 16.941669
62.145 16.859385
62.150 17.297403
62.155 17.317307
62.160 16.820507
62.165 17.115837
62.170 17.172945
62.175 17.807085
62.180 18.757133
62.185 19.203398
62.190 19.043354
62.195 18.855288
62.200 18.890051
62.205 18.77809
62.210 17.644505
62.215 16.717384
62.220 16.448347
62.225 16.259295
62.230 16.456343
62.235 16.246967
62.240 16.083385
62.245 16.600826
62.250 16.585457
62.255 16.538389
62.260 17.124399
62.265 17.478479
62.270 17.617785
62.275 18.347178
62.280 18.270626
62.285 18.469788
62.290 18.701092
62.295 18.235413
62.300 17.55549
62.305 16.782236
62.310 15.691527
62.315 15.647698
62.320 15.623953
62.325 15.634805
62.330 15.83754
62.335 16.694834
62.340 17.430561
62.345 18.130552
62.350 18.061554
62.355 17.804514
62.360 17.164528
62.365 16.956694
62.370 16.093094
62.375 15.797903
62.380 15.960399
62.385 15.939384
62.390 16.364002
62.395 16.561924
62.400 16.578688
62.405 16.679117
62.410 16.663885
62.415 16.185152
62.420 16.096931
62.425 16.43466
62.430 17.108009
62.435 17.900248
62.440 18.614426
62.445 19.402241
62.450 20.264877
62.455 20.977686
62.460 21.211336
62.465 20.886509
62.470 20.759348
62.475 20.586149
62.480 20.398466
62.485 20.264864
62.490 20.137966
62.495 19.814402
62.500 20.061022
62.505 19.669138
62.510 19.624895
62.515 19.249496
62.520 18.545597
62.525 18.13839
62.530 17.680689
62.535 17.127296
62.540 17.372219
62.545 17.527094
62.550 17.445099
62.555 17.471432
62.560 17.544819
62.565 18.178036
62.570 18.285933
62.575 18.060328
62.580 18.155436
62.585 18.495945
62.590 18.735191
62.595 18.701345
62.600 18.302351
62.605 18.199226
62.610 18.193024
62.615 17.71677
62.620 17.834255
62.625 18.015486
62.630 17.5942
62.635 17.633018
62.640 17.61396
62.645 17.661785
62.650 18.299438
62.655 18.289551
62.660 18.194942
62.665 17.976261
62.670 17.857592
62.675 18.345461
62.680 17.940136
62.685 17.154499
62.690 16.449968
62.695 16.61479
62.700 17.054657
62.705 16.676064
62.710 16.506344
62.715 16.72661
62.720 17.176212
62.725 17.326286
62.730 17.501348
62.735 17.932232
62.740 18.448877
62.745 18.237387
62.750 18.600672
62.755 19.077076
62.760 19.041683
62.765 18.878407
62.770 18.209091
62.775 17.429213
62.780 17.110294
62.785 16.807562
62.790 16.499819
62.795 16.616533
62.800 16.648195
62.805 17.154413
62.810 17.194696
62.815 17.551291
62.820 17.105818
62.825 17.458061
62.830 18.056875
62.835 18.472763
62.840 18.831022
62.845 19.392853
62.850 19.55891
62.855 19.693096
62.860 19.892298
62.865 19.595264
62.870 19.548115
62.875 19.020544
62.880 18.936176
62.885 18.682899
62.890 18.493773
62.895 17.768604
62.900 17.422066
62.905 16.637211
62.910 16.593168
62.915 16.466728
62.920 16.399757
62.925 16.163681
62.930 16.075066
62.935 15.958649
62.940 16.741259
62.945 16.9767
62.950 16.384369
62.955 16.578163
62.960 17.140612
62.965 17.408709
62.970 18.065474
62.975 17.628832
62.980 17.893492
62.985 18.223173
62.990 18.082882
62.995 18.501141
63.000 18.830318
63.005 17.882801
63.010 17.626154
63.015 17.684622
63.020 18.078953
63.025 18.135359
63.030 17.113111
63.035 16.392796
63.040 16.705528
63.045 16.631863
63.050 16.570728
63.055 16.385565
63.060 15.930436
63.065 16.689806
63.070 17.288742
63.075 17.96855
63.080 18.227888
63.085 17.869537
63.090 18.225117
63.095 18.640585
63.100 18.2848
63.105 18.066399
63.110 17.628727
63.115 17.736317
63.120 17.969959
63.125 18.083252
63.130 18.339367
63.135 18.793045
63.140 19.087603
63.145 19.044703
63.150 19.064087
63.155 18.966059
63.160 18.726898
63.165 18.885317
63.170 18.993538
63.175 18.443857
63.180 18.043768
63.185 17.846767
63.190 17.978989
63.195 17.837255
63.200 17.787529
63.205 17.673174
63.210 18.092194
63.215 18.46821
63.220 18.481571
63.225 18.404947
63.230 18.510645
63.235 18.028921
63.240 17.362917
63.245 17.468035
63.250 17.635609
63.255 17.75602
63.260 17.563059
63.265 17.295721
63.270 17.032282
63.275 17.536674
63.280 17.456886
63.285 17.153435
63.290 17.433409
63.295 17.602198
63.300 17.739281
63.305 17.918541
63.310 17.446594
63.315 17.109575
63.320 16.94091
63.325 16.806442
63.330 16.443909
63.335 16.353045
63.340 16.478813
63.345 16.075352
63.350 16.590462
63.355 17.03577
63.360 17.50849
63.365 18.165737
63.370 18.647022
63.375 19.08717
63.380 20.124743
63.385 19.638046
63.390 19.82328
63.395 19.838671
63.400 19.858255
63.405 19.497803
63.410 19.268763
63.415 19.125818
63.420 18.871487
63.425 18.349033
63.430 18.258619
63.435 18.058559
63.440 18.494932
63.445 18.288864
63.450 18.322479
63.455 19.206434
63.460 18.810291
63.465 18.587286
63.470 18.734011
63.475 18.631804
63.480 18.424774
63.485 18.623934
63.490 18.456411
63.495 18.697933
63.500 19.303066
63.505 19.51421
63.510 19.239599
63.515 19.150351
63.520 18.228834
63.525 17.750402
63.530 17.319237
63.535 16.718676
63.540 16.678278
63.545 16.842024
63.550 17.028278
63.555 17.226002
63.560 17.657375
63.565 17.957333
63.570 17.87262
63.575 18.002144
63.580 18.235363
63.585 18.445934
63.590 18.810467
63.595 19.038734
63.600 19.436573
63.605 19.457966
63.610 19.191389
63.615 18.99465
63.620 19.209133
63.625 18.98925
63.630 18.522417
63.635 18.47086
63.640 18.055342
63.645 18.14469
63.650 18.509243
63.655 18.385712
63.660 18.610043
63.665 18.417339
63.670 17.75419
63.675 17.838669
63.680 17.686049
63.685 18.116993
63.690 17.816235
63.695 17.458469
63.700 17.503113
63.705 17.64554
63.710 18.1434
63.715 18.076948
63.720 17.276283
63.725 17.766296
63.730 18.214876
63.735 18.022009
63.740 18.368912
63.745 17.927048
63.750 17.819742
63.755 17.62431
63.760 17.087137
63.765 16.859985
63.770 16.818922
63.775 16.760714
63.780 16.467817
63.785 16.455635
63.790 16.608299
63.795 17.425884
63.800 17.996031
63.805 18.8452
63.810 18.927176
63.815 19.627617
63.820 20.257524
63.825 20.307024
63.830 19.725876
63.835 19.188728
63.840 19.359459
63.845 19.089958
63.850 18.39789
63.855 17.718454
63.860 17.415916
63.865 16.916052
63.870 16.391399
63.875 16.227486
63.880 16.024908
63.885 16.178734
63.890 16.221073
63.895 16.80051
63.900 17.026497
63.905 17.034027
63.910 16.738087
63.915 17.365623
63.920 17.711672
63.925 17.955843
63.930 17.917118
63.935 18.912079
63.940 19.700623
63.945 20.173569
63.950 20.216991
63.955 19.936794
63.960 19.78677
63.965 19.623735
63.970 19.68075
63.975 19.461569
63.980 19.134804
63.985 18.956072
63.990 18.847187
63.995 18.939264
64.000 18.839546
64.005 18.291857
64.010 18.412384
64.015 19.110529
64.020 19.740074
64.025 19.888298
64.030 20.286419
64.035 20.203442
64.040 19.790068
64.045 20.106527
64.050 19.793106
64.055 18.962118
64.060 18.51734
64.065 18.478912
64.070 18.672022
64.075 18.977829
64.080 18.727842
64.085 18.682028
64.090 19.323689
64.095 19.294537
64.100 19.55628
64.105 19.57062
64.110 19.302412
64.115 18.81226
64.120 18.848507
64.125 19.129045
64.130 19.072424
64.135 18.435255
64.140 18.286131
64.145 18.18619
64.150 18.288763
64.155 17.752586
64.160 17.072811
64.165 17.040819
64.170 16.829378
64.175 17.034098
64.180 16.825539
64.185 16.862864
64.190 17.00322
64.195 16.987511
64.200 17.581011
64.205 18.065199
64.210 18.328232
64.215 18.72963
64.220 18.732635
64.225 18.980505
64.230 19.43819
64.235 19.42395
64.240 19.575693
64.245 19.819391
64.250 20.033285
64.255 19.943874
64.260 19.874441
64.265 20.086843
64.270 20.333584
64.275 20.279465
64.280 20.352175
64.285 19.818792
64.290 19.71254
64.295 19.282854
64.300 18.73744
64.305 18.185703
64.310 17.97562
64.315 17.752752
64.320 17.885864
64.325 18.377499
64.330 18.731171
64.335 18.596905
64.340 18.390284
64.345 18.892801
64.350 19.257458
64.355 19.065393
64.360 19.247057
64.365 19.714649
64.370 19.701836
64.375 20.190739
64.380 19.528593
64.385 19.058308
64.390 19.837784
64.395 19.493958
64.400 19.167217
64.405 19.16795
64.410 18.938978
64.415 19.452536
64.420 19.547832
64.425 18.857027
64.430 18.543909
64.435 18.60383
64.440 19.154551
64.445 19.405352
64.450 19.491268
64.455 19.739836
64.460 19.883286
64.465 20.519714
64.470 20.392933
64.475 20.086039
64.480 20.032801
64.485 19.71413
64.490 19.696819
64.495 20.036385
64.500 20.445221
64.505 20.562191
64.510 20.935835
64.515 21.131943
64.520 21.531887
64.525 21.105942
64.530 20.582037
64.535 19.687469
64.540 20.011789
64.545 19.57626
64.550 19.283731
64.555 19.265177
64.560 19.582273
64.565 20.13446
64.570 21.030945
64.575 20.556103
64.580 20.356707
64.585 20.305252
64.590 20.108234
64.595 19.569609
64.600 19.374407
64.605 18.482584
64.610 18.324181
64.615 18.204922
64.620 18.088451
64.625 18.222246
64.630 18.562284
64.635 18.331606
64.640 18.578671
64.645 19.504513
64.650 20.113495
64.655 19.957403
64.660 20.330257
64.665 20.892042
64.670 21.263712
64.675 21.009706
64.680 20.852495
64.685 20.150805
64.690 19.984196
64.695 19.355152
64.700 18.979019
64.705 18.432028
64.710 18.090151
64.715 18.109472
64.720 18.908279
64.725 18.85113
64.730 19.063971
64.735 18.881969
64.740 19.790754
64.745 20.085218
64.750 20.216852
64.755 20.013243
64.760 20.456018
64.765 21.020674
64.770 21.468779
64.775 21.153612
64.780 21.083059
64.785 20.69895
64.790 20.415369
64.795 20.45336
64.800 20.080191
64.805 19.794012
64.810 20.36307
64.815 20.694506
64.820 20.815878
64.825 21.021633
64.830 21.172674
64.835 21.494835
64.840 21.486767
64.845 20.932861
64.850 20.888664
64.855 21.108109
64.860 20.658461
64.865 19.972523
64.870 19.991894
64.875 19.421228
64.880 19.370239
64.885 19.131453
64.890 19.478834
64.895 19.842428
64.900 20.37657
64.905 20.471941
64.910 20.840246
64.915 20.615866
64.920 20.313063
64.925 19.860592
64.930 20.05558
64.935 19.51025
64.940 19.397261
64.945 19.592819
64.950 20.565121
64.955 21.676714
64.960 21.622166
64.965 22.05069
64.970 23.109919
64.975 23.542643
64.980 24.242603
64.985 23.419764
64.990 22.749153
64.995 22.991129
65.000 22.66053
65.005 22.42223
65.010 22.122223
65.015 22.133057
65.020 23.35804
65.025 23.581564
65.030 23.918941
65.035 23.70159
65.040 23.121712
65.045 23.227913
65.050 23.062332
65.055 22.556824
65.060 22.424837
65.065 22.113972
65.070 22.285707
65.075 22.361954
65.080 22.173717
65.085 22.244175
65.090 22.019936
65.095 22.090712
65.100 22.03474
65.105 21.97896
65.110 22.208014
65.115 22.847815
65.120 22.812717
65.125 23.256321
65.130 23.391829
65.135 23.78776
65.140 24.587576
65.145 24.849882
65.150 24.839844
65.155 24.613716
65.160 24.453392
65.165 24.450823
65.170 24.020193
65.175 23.158232
65.180 23.008795
65.185 22.67116
65.190 22.883152
65.195 22.889004
65.200 22.666227
65.205 22.676105
65.210 22.601873
65.215 22.384777
65.220 22.600281
65.225 22.807068
65.230 22.753719
65.235 22.893616
65.240 22.968708
65.245 23.692432
65.250 24.104919
65.255 23.715807
65.260 23.231289
65.265 23.41445
65.270 23.891495
65.275 24.683401
65.280 24.668261
65.285 24.301031
65.290 24.510788
65.295 24.712406
65.300 24.695431
65.305 24.352804
65.310 24.304787
65.315 23.894114
65.320 23.934406
65.325 23.364655
65.330 23.43305
65.335 23.484156
65.340 23.931324
65.345 23.680729
65.350 24.030619
65.355 23.391445
65.360 24.015156
65.365 24.050232
65.370 23.312815
65.375 21.943823
65.380 21.779303
65.385 21.796658
65.390 22.597683
65.395 22.546509
65.400 22.713982
65.405 23.175842
65.410 23.735285
65.415 24.118336
65.420 24.35041
65.425 24.524839
65.430 24.418816
65.435 24.759869
65.440 25.415585
65.445 25.128473
65.450 24.431864
65.455 24.067581
65.460 25.291254
65.465 25.605906
65.470 25.627531
65.475 25.315554
65.480 25.53681
65.485 25.760252
65.490 26.555887
65.495 25.596369
65.500 25.55406
65.505 25.631285
65.510 26.005678
65.515 26.269785
65.520 26.163654
65.525 25.555347
65.530 25.404312
65.535 25.20158
65.540 25.906191
65.545 26.88006
65.550 27.599186
65.555 28.546524
65.560 28.559626
65.565 28.95273
65.570 29.654444
65.575 28.615831
65.580 28.161764
65.585 27.961218
65.590 27.924509
65.595 28.343338
65.600 28.276546
65.605 28.168266
65.610 29.567492
65.615 31.07902
65.620 31.28261
65.625 31.492418
65.630 32.271065
65.635 32.632675
65.640 32.382328
65.645 32.417519
65.650 32.295147
65.655 32.160099
65.660 32.54269
65.665 32.4175
65.670 32.80423
65.675 33.1665
65.680 32.823753
65.685 32.615513
65.690 33.511234
65.695 33.740173
65.700 34.078144
65.705 34.696571
65.710 35.315804
65.715 35.615185
65.720 35.595329
65.725 35.997658
65.730 36.723885
65.735 36.573154
65.740 35.870422
65.745 35.449306
65.750 35.668625
65.755 35.940506
65.760 35.41478
65.765 35.564137
65.770 35.809311
65.775 36.278214
65.780 36.989239
65.785 37.863438
65.790 37.735149
65.795 37.901073
65.800 38.102478
65.805 38.606693
65.810 39.110039
65.815 39.33168
65.820 39.082661
65.825 38.74781
65.830 37.808414
65.835 36.968376
65.840 36.943714
65.845 36.548233
65.850 36.501537
65.855 36.447014
65.860 36.963406
65.865 37.258392
65.870 37.482048
65.875 37.04718
65.880 36.400261
65.885 36.91415
65.890 37.392017
65.895 37.045723
65.900 37.652798
65.905 37.994438
65.910 37.527615
65.915 38.29414
65.920 37.845783
65.925 37.837116
65.930 38.409897
65.935 38.909454
65.940 38.858395
65.945 39.70882
65.950 39.123253
65.955 38.336704
65.960 37.747456
65.965 37.293308
65.970 37.183235
65.975 37.19862
65.980 37.034592
65.985 37.115559
65.990 37.407341
65.995 37.9105
66.000 38.063026
66.005 37.841743
66.010 37.621346
66.015 37.70422
66.020 38.292339
66.025 37.86121
66.030 37.282776
66.035 37.077965
66.040 37.493809
66.045 38.538429
66.050 38.674644
66.055 38.114845
66.060 38.580868
66.065 38.336094
66.070 38.268265
66.075 37.460056
66.080 36.755527
66.085 36.388851
66.090 37.35833
66.095 37.853661
66.100 37.967754
66.105 36.732281
66.110 36.119888
66.115 35.494747
66.120 35.564243
66.125 35.6506
66.130 35.412132
66.135 35.941437
66.140 37.08728
66.145 37.183491
66.150 37.393143
66.155 36.686375
66.160 35.962032
66.165 35.137222
66.170 34.77235
66.175 33.807007
66.180 34.012936
66.185 33.958588
66.190 33.646423
66.195 33.531822
66.200 33.962429
66.205 33.838139
66.210 34.784599
66.215 34.313534
66.220 33.898983
66.225 34.156033
66.230 34.087444
66.235 34.053478
66.240 33.961349
66.245 34.098076
66.250 34.120842
66.255 33.984303
66.260 33.809517
66.265 33.264637
66.270 32.540462
66.275 31.891464
66.280 31.363661
66.285 32.068562
66.290 32.877731
66.295 33.095959
66.300 32.851185
66.305 32.785656
66.310 32.884251
66.315 32.48016
66.320 32.282482
66.325 31.10503
66.330 30.223431
66.335 30.66889
66.340 29.834873
66.345 29.0847
66.350 29.088436
66.355 28.56279
66.360 29.176027
66.365 29.43716
66.370 29.575621
66.375 30.032478
66.380 30.129301
66.385 29.952595
66.390 30.181076
66.395 29.965958
66.400 29.810785
66.405 29.596378
66.410 29.913088
66.415 29.983015
66.420 30.29842
66.425 30.684832
66.430 30.872475
66.435 31.030109
66.440 30.681467
66.445 30.515896
66.450 30.356956
66.455 29.594587
66.460 28.276339
66.465 28.238823
66.470 28.688412
66.475 29.093096
66.480 29.092451
66.485 29.680843
66.490 29.71381
66.495 29.56554
66.500 29.330463
66.505 28.611229
66.510 27.990677
66.515 27.896708
66.520 27.178255
66.525 27.152479
66.530 26.948416
66.535 26.764387
66.540 26.639023
66.545 27.094376
66.550 27.096483
66.555 27.080069
66.560 26.906332
66.565 27.210897
66.570 27.206478
66.575 27.238289
66.580 26.260834
66.585 26.140055
66.590 26.341955
66.595 26.60289
66.600 26.072546
66.605 26.129873
66.610 26.428263
66.615 27.199299
66.620 27.330494
66.625 27.17206
66.630 27.136997
66.635 27.078207
66.640 26.437309
66.645 26.15897
66.650 25.95578
66.655 25.748125
66.660 25.889334
66.665 25.233753
66.670 25.361629
66.675 25.89772
66.680 25.901274
66.685 25.366596
66.690 25.065115
66.695 24.879074
66.700 25.349085
66.705 25.38167
66.710 24.788799
66.715 24.837198
66.720 25.372402
66.725 25.538416
66.730 25.913082
66.735 25.807751
66.740 25.729271
66.745 26.148506
66.750 25.997583
66.755 25.915127
66.760 25.582129
66.765 25.435463
66.770 25.294933
66.775 25.42358
66.780 24.960445
66.785 25.133507
66.790 24.566605
66.795 24.269802
66.800 23.641783
66.805 23.392048
66.810 22.932215
66.815 23.479563
66.820 23.263323
66.825 23.78952
66.830 23.844442
66.835 24.112043
66.840 24.845333
66.845 25.376081
66.850 25.01576
66.855 24.679911
66.860 23.709496
66.865 23.919243
66.870 23.85351
66.875 23.247416
66.880 22.787504
66.885 22.737261
66.890 23.030691
66.895 24.449778
66.900 24.437393
66.905 24.856518
66.910 25.137293
66.915 25.085667
66.920 25.062445
66.925 25.26421
66.930 24.589052
66.935 25.097094
66.940 25.244095
66.945 25.7346
66.950 25.974083
66.955 26.269903
66.960 25.862972
66.965 25.768847
66.970 25.022068
66.975 24.426744
66.980 24.353851
66.985 24.334953
66.990 23.993347
66.995 23.967558
67.000 24.443733
67.005 24.775877
67.010 24.69515
67.015 24.208765
67.020 24.159554
67.025 24.680447
67.030 25.089867
67.035 24.929796
67.040 24.477779
67.045 24.211773
67.050 24.216562
67.055 24.127909
67.060 23.690834
67.065 22.782515
67.070 22.602957
67.075 22.955372
67.080 22.807287
67.085 22.835562
67.090 22.89863
67.095 23.362871
67.100 23.605106
67.105 23.668144
67.110 23.576244
67.115 23.728403
67.120 23.366526
67.125 23.084896
67.130 23.087252
67.135 22.605614
67.140 21.874268
67.145 21.573244
67.150 22.101597
67.155 22.42828
67.160 22.385008
67.165 22.447899
67.170 22.944782
67.175 24.031031
67.180 24.459482
67.185 24.135036
67.190 24.454138
67.195 24.124367
67.200 23.92948
67.205 24.018764
67.210 23.264711
67.215 23.188143
67.220 22.594688
67.225 22.321255
67.230 22.719982
67.235 22.574467
67.240 22.969942
67.245 22.812361
67.250 22.640043
67.255 23.621281
67.260 24.124645
67.265 23.813684
67.270 23.530962
67.275 22.916525
67.280 23.58956
67.285 23.829876
67.290 23.843687
67.295 22.935459
67.300 22.769215
67.305 22.337435
67.310 22.209053
67.315 21.495113
67.320 21.062454
67.325 20.548029
67.330 20.954832
67.335 21.753275
67.340 22.589716
67.345 23.019737
67.350 23.464722
67.355 23.036446
67.360 22.714502
67.365 22.109617
67.370 21.754238
67.375 21.506622
67.380 21.634113
67.385 21.047504
67.390 21.483528
67.395 22.162638
67.400 22.677191
67.405 22.379108
67.410 22.373461
67.415 22.644035
67.420 23.023706
67.425 23.006422
67.430 23.472092
67.435 23.848948
67.440 24.268082
67.445 24.356945
67.450 23.948845
67.455 23.965273
67.460 23.606911
67.465 22.966845
67.470 22.439972
67.475 21.937344
67.480 21.729809
67.485 21.475227
67.490 21.91498
67.495 22.309343
67.500 22.247665
67.505 22.132826
67.510 22.474392
67.515 22.620573
67.520 22.937208
67.525 22.440784
67.530 22.50181
67.535 22.910074
67.540 22.882044
67.545 23.21883
67.550 23.351698
67.555 23.781504
67.560 23.971157
67.565 23.223629
67.570 23.416601
67.575 24.117792
67.580 24.093092
67.585 23.409084
67.590 23.25803
67.595 23.17901
67.600 23.410503
67.605 22.624687
67.610 21.828051
67.615 21.200914
67.620 21.672216
67.625 21.439365
67.630 21.616611
67.635 21.722607
67.640 21.743988
67.645 21.995739
67.650 22.730247
67.655 22.827997
67.660 23.058525
67.665 23.327383
67.670 23.706608
67.675 23.578447
67.680 23.682465
67.685 23.385012
67.690 22.629583
67.695 22.470573
67.700 22.366478
67.705 22.500607
67.710 22.848759
67.715 22.452229
67.720 22.42808
67.725 22.0112
67.730 21.821039
67.735 21.488771
67.740 20.988802
67.745 20.143179
67.750 20.0504
67.755 20.409754
67.760 21.068844
67.765 21.312693
67.770 21.320793
67.775 21.583815
67.780 22.701424
67.785 22.301573
67.790 22.433834
67.795 22.454027
67.800 22.432976
67.805 22.50477
67.810 23.076069
67.815 22.579401
67.820 22.573481
67.825 22.284626
67.830 22.247692
67.835 22.097376
67.840 21.623381
67.845 20.430138
67.850 20.457968
67.855 21.222387
67.860 21.290047
67.865 21.12838
67.870 21.432169
67.875 21.992184
67.880 22.388815
67.885 22.434921
67.890 22.14048
67.895 21.588779
67.900 21.13829
67.905 20.685856
67.910 20.696581
67.915 20.89447
67.920 20.91453
67.925 20.697784
67.930 20.784184
67.935 21.3804
67.940 20.726105
67.945 20.427042
67.950 20.100586
67.955 20.569868
67.960 20.895914
67.965 21.047764
67.970 20.856747
67.975 21.509144
67.980 21.892973
67.985 22.32226
67.990 22.043663
67.995 22.111673
68.000 22.456711
68.005 22.410522
68.010 22.321119
68.015 22.485701
68.020 22.575277
68.025 22.222731
68.030 21.852581
68.035 21.421951
68.040 21.334791
68.045 21.217373
68.050 20.61442
68.055 19.963478
68.060 19.66292
68.065 19.948845
68.070 20.514954
68.075 20.826811
68.080 21.009453
68.085 21.183083
68.090 21.551582
68.095 21.824877
68.100 21.711069
68.105 21.600649
68.110 21.579361
68.115 21.657356
68.120 21.792036
68.125 21.969975
68.130 21.882355
68.135 21.866812
68.140 21.24741
68.145 21.541412
68.150 21.761833
68.155 22.045486
68.160 22.514093
68.165 22.926899
68.170 23.642294
68.175 23.277493
68.180 22.062462
68.185 21.422199
68.190 20.739843
68.195 20.180807
68.200 19.660713
68.205 19.114845
68.210 19.540796
68.215 19.988623
68.220 20.603703
68.225 20.513933
68.230 20.238895
68.235 19.732082
68.240 19.740311
68.245 19.520449
68.250 19.279829
68.255 18.86047
68.260 19.571915
68.265 19.955877
68.270 20.164255
68.275 20.385777
68.280 20.899948
68.285 21.568989
68.290 22.036253
68.295 21.850042
68.300 21.906399
68.305 21.937977
68.310 21.827257
68.315 21.853289
68.320 21.148209
68.325 20.995106
68.330 21.340384
68.335 21.355902
68.340 21.365736
68.345 20.952759
68.350 20.132759
68.355 20.222538
68.360 20.123396
68.365 19.948944
68.370 19.978174
68.375 20.345369
68.380 21.160225
68.385 22.039557
68.390 22.289871
68.395 22.337263
68.400 22.487074
68.405 22.299658
68.410 22.641245
68.415 22.551031
68.420 22.66865
68.425 22.552975
68.430 22.433941
68.435 22.646864
68.440 22.369972
68.445 21.946728
68.450 22.082621
68.455 22.381832
68.460 22.284689
68.465 22.296669
68.470 22.134645
68.475 22.690872
68.480 22.499748
68.485 21.947292
68.490 21.711426
68.495 21.833929
68.500 22.275785
68.505 22.277662
68.510 22.134195
68.515 22.066072
68.520 22.299778
68.525 23.033449
68.530 23.47521
68.535 22.971386
68.540 22.862156
68.545 22.799446
68.550 22.877943
68.555 22.67436
68.560 22.429943
68.565 22.078867
68.570 22.07201
68.575 22.283773
68.580 22.516932
68.585 22.998123
68.590 23.358704
68.595 22.851757
68.600 22.88839
68.605 22.977308
68.610 22.837093
68.615 23.097143
68.620 22.247652
68.625 21.658335
68.630 21.418159
68.635 20.981285
68.640 21.419741
68.645 21.307699
68.650 21.329885
68.655 21.789698
68.660 22.233274
68.665 23.138454
68.670 23.788431
68.675 23.863163
68.680 23.741344
68.685 23.504665
68.690 23.229671
68.695 22.824146
68.700 22.619345
68.705 21.884398
68.710 21.903671
68.715 21.89702
68.720 21.85988
68.725 22.193493
68.730 22.280569
68.735 22.116184
68.740 21.845236
68.745 21.560335
68.750 21.672316
68.755 21.437328
68.760 21.209734
68.765 21.530571
68.770 21.414055
68.775 21.39629
68.780 21.282183
68.785 21.281315
68.790 21.857666
68.795 22.161043
68.800 22.12989
68.805 22.54324
68.810 22.972778
68.815 22.893446
68.820 22.772652
68.825 22.710289
68.830 22.522074
68.835 22.242201
68.840 22.150541
68.845 22.678669
68.850 22.823681
68.855 23.252075
68.860 23.548262
68.865 23.218536
68.870 23.446415
68.875 23.34856
68.880 22.932688
68.885 23.153982
68.890 22.721655
68.895 22.937681
68.900 23.37398
68.905 23.620401
68.910 23.618483
68.915 23.633913
68.920 24.130295
68.925 24.542328
68.930 23.946932
68.935 24.264845
68.940 24.76026
68.945 24.906981
68.950 24.604111
68.955 24.205393
68.960 24.072725
68.965 24.293434
68.970 24.593513
68.975 24.497345
68.980 23.99427
68.985 24.290577
68.990 24.360182
68.995 24.228949
69.000 24.310915
69.005 23.647413
69.010 23.40617
69.015 23.466249
69.020 22.875036
69.025 22.699123
69.030 22.871273
69.035 22.482224
69.040 22.711824
69.045 23.252832
69.050 24.177921
69.055 25.130672
69.060 25.317516
69.065 25.57645
69.070 25.966606
69.075 25.540794
69.080 25.807735
69.085 25.522631
69.090 25.543987
69.095 25.853542
69.100 25.992929
69.105 26.923058
69.110 27.657265
69.115 27.538925
69.120 27.57575
69.125 27.051487
69.130 26.943144
69.135 27.030937
69.140 26.665068
69.145 26.849611
69.150 27.087748
69.155 27.746849
69.160 27.564266
69.165 27.182533
69.170 26.626402
69.175 26.963791
69.180 26.462965
69.185 26.771339
69.190 26.054487
69.195 26.370914
69.200 26.897299
69.205 26.607733
69.210 26.075159
69.215 25.775276
69.220 25.513485
69.225 26.427225
69.230 27.145983
69.235 27.182041
69.240 27.234632
69.245 27.507023
69.250 28.081572
69.255 28.207832
69.260 28.294264
69.265 28.417221
69.270 27.835157
69.275 27.236605
69.280 26.718927
69.285 26.444454
69.290 26.545568
69.295 25.508516
69.300 25.233105
69.305 26.144741
69.310 27.566261
69.315 28.787825
69.320 29.03919
69.325 28.601578
69.330 28.513475
69.335 28.556572
69.340 28.951143
69.345 27.992069
69.350 27.964905
69.355 27.924458
69.360 28.649214
69.365 29.822428
69.370 30.136732
69.375 30.078114
69.380 30.539103
69.385 30.625015
69.390 31.066891
69.395 30.822348
69.400 30.657269
69.405 30.079594
69.410 30.121033
69.415 29.701046
69.420 28.794388
69.425 28.687391
69.430 28.953476
69.435 29.355156
69.440 29.570021
69.445 29.885136
69.450 30.515118
69.455 30.648951
69.460 30.351759
69.465 29.740995
69.470 28.978643
69.475 28.686802
69.480 27.972254
69.485 27.240158
69.490 27.269051
69.495 27.299948
69.500 27.153349
69.505 27.523605
69.510 28.128855
69.515 28.332096
69.520 28.604073
69.525 28.407673
69.530 28.371412
69.535 28.610794
69.540 28.147076
69.545 28.350056
69.550 28.958796
69.555 29.381435
69.560 29.770763
69.565 30.42952
69.570 30.788212
69.575 30.30057
69.580 29.810707
69.585 29.357256
69.590 28.755966
69.595 28.27132
69.600 27.938904
69.605 27.612814
69.610 28.041706
69.615 27.545469
69.620 27.624878
69.625 27.862925
69.630 27.614122
69.635 27.897888
69.640 28.094627
69.645 28.159256
69.650 28.693596
69.655 28.05529
69.660 27.912086
69.665 27.788942
69.670 27.814087
69.675 28.165276
69.680 27.94145
69.685 27.665308
69.690 28.896559
69.695 29.528048
69.700 29.157621
69.705 28.50555
69.710 28.279036
69.715 28.146347
69.720 28.166714
69.725 27.121305
69.730 26.240421
69.735 26.737864
69.740 26.484682
69.745 25.989111
69.750 26.482162
69.755 26.104507
69.760 26.214504
69.765 26.199461
69.770 26.666138
69.775 26.477055
69.780 26.476868
69.785 26.34082
69.790 25.602249
69.795 25.226625
69.800 25.71089
69.805 26.106197
69.810 26.37517
69.815 26.350573
69.820 25.81316
69.825 25.833141
69.830 25.431343
69.835 24.999043
69.840 24.207623
69.845 23.906729
69.850 24.172693
69.855 25.099899
69.860 25.174789
69.865 24.853697
69.870 24.548084
69.875 24.361715
69.880 24.139395
69.885 23.5315
69.890 23.100634
69.895 23.323866
69.900 23.449713
69.905 23.470804
69.910 23.435865
69.915 23.515047
69.920 23.326788
69.925 23.397896
69.930 23.161539
69.935 23.192991
69.940 23.127205
69.945 22.826004
69.950 23.040333
69.955 22.995466
69.960 23.063778
69.965 23.151695
69.970 22.508678
69.975 21.960953
69.980 22.436384
69.985 22.728271
69.990 23.243162
69.995 22.948608
70.000 22.696218
70.005 22.841837
70.010 23.176445
70.015 22.780125
70.020 22.064392
70.025 21.915075
70.030 21.924191
70.035 22.219637
70.040 22.392687
70.045 21.773422
70.050 21.231735
70.055 21.379881
70.060 20.99444
70.065 21.530807
70.070 21.768234
70.075 22.118822
70.080 22.116264
70.085 22.513153
70.090 22.390917
70.095 22.467659
70.100 21.691397
70.105 21.362343
70.110 20.694233
70.115 21.082489
70.120 21.384216
70.125 21.359268
70.130 21.748682
70.135 22.259451
70.140 23.02496
70.145 23.814198
70.150 24.092258
70.155 23.810701
70.160 23.570007
70.165 22.749344
70.170 22.653206
70.175 22.347364
70.180 22.323383
70.185 21.681194
70.190 22.061056
70.195 22.419632
70.200 22.228628
70.205 22.257372
70.210 21.923887
70.215 21.139555
70.220 20.812403
70.225 20.026508
70.230 20.313263
70.235 20.340271
70.240 20.455202
70.245 20.26688
70.250 20.709936
70.255 20.938471
70.260 20.459377
70.265 20.259304
70.270 20.511415
70.275 20.367645
70.280 20.750486
70.285 21.07432
70.290 21.318888
70.295 22.537218
70.300 22.40583
70.305 21.640808
70.310 20.97473
70.315 20.832844
70.320 20.673502
70.325 20.153446
70.330 19.698244
70.335 19.21888
70.340 20.025427
70.345 20.374918
70.350 20.080799
70.355 19.530886
70.360 19.686539
70.365 19.965538
70.370 20.742573
70.375 19.998182
70.380 19.920181
70.385 20.043201
70.390 20.348228
70.395 20.245388
70.400 20.040104
70.405 19.815449
70.410 20.335503
70.415 20.309055
70.420 19.922543
70.425 19.713902
70.430 19.644478
70.435 19.393034
70.440 19.367006
70.445 18.879318
70.450 19.315699
70.455 20.384789
70.460 20.596592
70.465 20.945978
70.470 21.202042
70.475 21.092051
70.480 21.425888
70.485 20.845806
70.490 20.659122
70.495 20.789431
70.500 20.919239
70.505 21.201368
70.510 21.405603
70.515 21.650612
70.520 21.957283
70.525 22.293659
70.530 22.085222
70.535 21.690046
70.540 21.660204
70.545 21.665247
70.550 21.252344
70.555 20.355867
70.560 19.519209
70.565 19.34692
70.570 19.109324
70.575 18.846033
70.580 17.752808
70.585 17.850805
70.590 18.220785
70.595 18.275686
70.600 18.391876
70.605 18.143305
70.610 18.787905
70.615 19.824474
70.620 19.70171
70.625 19.753578
70.630 20.249792
70.635 20.855127
70.640 21.145937
70.645 21.058098
70.650 20.924726
70.655 20.743998
70.660 20.699547
70.665 20.380472
70.670 20.413261
70.675 20.192163
70.680 20.194965
70.685 20.320036
70.690 20.73604
70.695 20.867031
70.700 20.351791
70.705 20.139044
70.710 20.078077
70.715 19.711388
70.720 19.060141
70.725 18.609638
70.730 18.821575
70.735 18.994616
70.740 18.837339
70.745 19.219545
70.750 19.520779
70.755 19.990513
70.760 19.957708
70.765 19.461847
70.770 19.252464
70.775 19.338081
70.780 19.328129
70.785 19.410582
70.790 19.71633
70.795 19.932373
70.800 20.245163
70.805 20.309607
70.810 20.045578
70.815 19.304775
70.820 19.379351
70.825 19.034046
70.830 18.249462
70.835 17.812311
70.840 17.675848
70.845 17.621902
70.850 17.874331
70.855 17.299109
70.860 17.458672
70.865 18.317856
70.870 18.340292
70.875 18.619064
70.880 18.918734
70.885 19.468527
70.890 20.141951
70.895 21.014143
70.900 21.943329
70.905 22.157341
70.910 22.162268
70.915 22.080393
70.920 22.07638
70.925 21.596779
70.930 20.174997
70.935 19.226717
70.940 19.408188
70.945 19.016157
70.950 18.245687
70.955 18.021601
70.960 18.871359
70.965 19.533762
70.970 20.361326
70.975 20.600359
70.980 21.028948
70.985 21.436028
70.990 21.214804
70.995 20.045492
71.000 19.379622
71.005 18.969776
71.010 18.86162
71.015 18.716181
71.020 18.43984
71.025 19.292807
71.030 19.840363
71.035 19.922222
71.040 19.6504
71.045 19.492723
71.050 20.183744
71.055 19.895374
71.060 19.34726
71.065 19.236164
71.070 19.207636
71.075 18.977701
71.080 18.578642
71.085 18.545931
71.090 18.467915
71.095 17.920851
71.100 17.873993
71.105 17.771904
71.110 17.825886
71.115 17.856632
71.120 17.944614
71.125 18.449587
71.130 19.479769
71.135 19.801847
71.140 19.690947
71.145 19.863567
71.150 19.746746
71.155 19.003189
71.160 19.015669
71.165 18.351608
71.170 18.02949
71.175 18.118231
71.180 18.244656
71.185 17.679253
71.190 18.01968
71.195 18.400099
71.200 19.278234
71.205 19.641314
71.210 20.185186
71.215 20.239744
71.220 20.942472
71.225 20.949839
71.230 20.571781
71.235 20.264029
71.240 19.804358
71.245 19.629606
71.250 20.303459
71.255 20.633644
71.260 20.698553
71.265 20.732389
71.270 21.023348
71.275 21.345955
71.280 20.725773
71.285 20.139162
71.290 19.398384
71.295 19.044544
71.300 18.313826
71.305 17.972042
71.310 17.624758
71.315 18.123999
71.320 18.271826
71.325 18.412529
71.330 18.633736
71.335 18.425529
71.340 18.653652
71.345 19.031651
71.350 18.988659
71.355 19.259396
71.360 19.307617
71.365 19.303314
71.370 19.701391
71.375 19.962614
71.380 19.684937
71.385 19.607012
71.390 19.751368
71.395 19.533121
71.400 19.446819
71.405 19.059624
71.410 19.231171
71.415 19.174702
71.420 18.931883
71.425 18.468456
71.430 17.950594
71.435 17.95153
71.440 18.084742
71.445 17.839445
71.450 17.475222
71.455 17.173832
71.460 17.517076
71.465 18.054056
71.470 18.427412
71.475 17.985725
71.480 17.927099
71.485 18.134876
71.490 18.306665
71.495 18.504044
71.500 18.294428
71.505 18.208635
71.510 18.32478
71.515 18.279453
71.520 18.951324
71.525 18.873846
71.530 18.672792
71.535 18.970474
71.540 18.803926
71.545 18.718504
71.550 18.499893
71.555 17.723644
71.560 17.450628
71.565 17.557821
71.570 17.312538
71.575 17.559261
71.580 17.740623
71.585 17.47048
71.590 18.073259
71.595 18.547171
71.600 18.629698
71.605 18.448385
71.610 18.764257
71.615 19.239361
71.620 19.227306
71.625 18.429268
71.630 17.756418
71.635 17.622076
71.640 17.689873
71.645 17.982849
71.650 17.988285
71.655 18.297306
71.660 18.370865
71.665 18.679874
71.670 19.711668
71.675 20.171009
71.680 19.788494
71.685 19.618198
71.690 19.400141
71.695 19.434645
71.700 19.030226
71.705 18.342987
71.710 17.879524
71.715 17.842604
71.720 18.35817
71.725 18.662443
71.730 19.173363
71.735 19.416618
71.740 19.432446
71.745 19.844582
71.750 20.226629
71.755 20.343401
71.760 20.399021
71.765 20.355961
71.770 20.641668
71.775 20.160522
71.780 20.074593
71.785 20.133072
71.790 20.101271
71.795 20.105513
71.800 20.076132
71.805 19.64856
71.810 19.983521
71.815 19.788565
71.820 19.480762
71.825 19.613813
71.830 19.638432
71.835 19.463747
71.840 19.520462
71.845 19.535006
71.850 19.213409
71.855 18.514288
71.860 17.786848
71.865 17.440035
71.870 17.294464
71.875 17.385849
71.880 17.097788
71.885 17.530432
71.890 18.044985
71.895 18.748396
71.900 19.005184
71.905 19.402832
71.910 19.105133
71.915 18.809265
71.920 18.830824
71.925 19.102032
71.930 18.755749
71.935 18.674742
71.940 18.473499
71.945 18.740551
71.950 19.030863
71.955 19.02915
71.960 19.002199
71.965 19.372601
71.970 19.413366
71.975 19.71158
71.980 20.454409
71.985 20.559553
71.990 20.194551
71.995 19.778919
72.000 19.095106
72.005 19.351295
72.010 18.744587
72.015 17.999451
72.020 18.093781
72.025 18.411789
72.030 18.673504
72.035 19.703527
72.040 19.471165
72.045 20.028934
72.050 20.176388
72.055 20.503416
72.060 20.324369
72.065 19.651045
72.070 18.789034
72.075 18.333004
72.080 17.904934
72.085 17.478607
72.090 17.815416
72.095 18.226719
72.100 18.623484
72.105 18.679018
72.110 19.231014
72.115 19.322666
72.120 18.759199
72.125 18.15971
72.130 18.123905
72.135 18.601427
72.140 18.272383
72.145 17.543623
72.150 17.561193
72.155 18.790461
72.160 19.33497
72.165 18.670547
72.170 18.649521
72.175 19.181898
72.180 19.665651
72.185 19.052279
72.190 17.916508
72.195 17.775042
72.200 18.469297
72.205 19.009743
72.210 19.524614
72.215 20.006495
72.220 20.627069
72.225 21.354996
72.230 21.844954
72.235 21.700815
72.240 21.177343
72.245 20.797676
72.250 19.857531
72.255 19.481838
72.260 19.26384
72.265 18.882902
72.270 18.431038
72.275 18.099865
72.280 18.11956
72.285 18.372824
72.290 18.252771
72.295 17.5732
72.300 17.874918
72.305 18.519175
72.310 18.798199
72.315 18.677599
72.320 18.868958
72.325 19.145475
72.330 19.311459
72.335 18.822893
72.340 18.382193
72.345 18.096012
72.350 18.60746
72.355 18.322405
72.360 18.140938
72.365 18.160307
72.370 18.614048
72.375 19.355009
72.380 19.778137
72.385 20.219316
72.390 20.021673
72.395 19.984852
72.400 19.491098
72.405 19.108561
72.410 18.624943
72.415 17.967524
72.420 17.875774
72.425 18.191683
72.430 18.204512
72.435 18.465853
72.440 17.87011
72.445 17.73094
72.450 17.306976
72.455 17.782099
72.460 18.311281
72.465 18.955835
72.470 19.003263
72.475 19.78318
72.480 20.061632
72.485 19.989061
72.490 19.000719
72.495 18.526281
72.500 17.952881
72.505 17.948248
72.510 17.57901
72.515 17.497246
72.520 18.333178
72.525 18.764265
72.530 18.788086
72.535 18.766779
72.540 18.897198
72.545 19.344141
72.550 19.816124
72.555 19.336502
72.560 19.603903
72.565 19.603628
72.570 19.687447
72.575 19.301353
72.580 18.921516
72.585 18.833597
72.590 18.596516
72.595 18.018225
72.600 18.101929
72.605 17.868122
72.610 18.148569
72.615 18.187883
72.620 18.107977
72.625 18.237177
72.630 18.502806
72.635 18.668036
72.640 18.978354
72.645 18.580997
72.650 18.418964
72.655 18.797585
72.660 18.82761
72.665 18.669155
72.670 17.979492
72.675 17.783125
72.680 17.849016
72.685 17.519995
72.690 17.232052
72.695 17.260632
72.700 17.680195
72.705 18.321644
72.710 18.340305
72.715 18.449108
72.720 18.661877
72.725 18.449953
72.730 18.358477
72.735 18.631792
72.740 18.984129
72.745 19.831333
72.750 20.010544
72.755 19.703501
72.760 19.58946
72.765 19.04516
72.770 18.627487
72.775 17.852322
72.780 17.161314
72.785 17.347479
72.790 17.304482
72.795 17.233709
72.800 17.069496
72.805 17.180262
72.810 17.183697
72.815 17.223843
72.820 17.215635
72.825 17.672041
72.830 17.981569
72.835 18.78668
72.840 18.910013
72.845 19.353796
72.850 19.924887
72.855 19.768448
72.860 19.507771
72.865 19.281061
72.870 18.816038
72.875 18.651751
72.880 18.448921
72.885 17.44965
72.890 17.020914
72.895 16.514297
72.900 16.249887
72.905 16.356718
72.910 15.982516
72.915 15.390865
72.920 15.539777
72.925 15.855298
72.930 16.64311
72.935 16.794621
72.940 17.020395
72.945 17.066494
72.950 17.366297
72.955 18.110783
72.960 18.188793
72.965 18.264347
72.970 18.015783
72.975 17.859249
72.980 17.896671
72.985 17.806343
72.990 17.64637
72.995 17.52586
73.000 17.038206
