!@!!GADDS PLOTSO FILE: Chi integration type
!@!!Title/SampleName: map-e
!@!!Comment: ?
!@!!User: Bruker Instrument Administrator
!@!!Site: University of Illinois Chicago
!@!!Frame: map-e_01_000.gfrm
!@!!Wavelengths    1.54184   1.54056   1.54439
!@!!Frame angles: 2Theta: 63.000 Omega: 50.000 Phi: 0.000 Chi: 90.000
!@!!Integration range: 2Theta: 53.000 to 73.000  Gamma: -105.000 to -75.000
!@!!Integration method: bin normalized
!@!N
!@!SS
!@!M
!@!L 0.0 0.0 0.0 0.0
!@!XDegrees
!@!YCounts
53.000 7.319136
53.005 7.209291
53.010 7.076123
53.015 7.116946
53.020 7.050542
53.025 6.716946
53.030 6.567383
53.035 7.145018
53.040 7.25703
53.045 6.94986
53.050 6.692283
53.055 7.200682
53.060 7.401019
53.065 7.408206
53.070 7.409053
53.075 7.472682
53.080 8.288083
53.085 8.645265
53.090 8.480503
53.095 8.598083
53.100 8.796326
53.105 8.631714
53.110 8.769353
53.115 8.39825
53.120 8.279371
53.125 8.639904
53.130 8.456993
53.135 8.311972
53.140 8.397923
53.145 8.061662
53.150 7.73899
53.155 7.27644
53.160 6.879021
53.165 6.987172
53.170 7.300383
53.175 7.242126
53.180 7.534073
53.185 7.613471
53.190 8.029777
53.195 8.235248
53.200 8.206985
53.205 8.060218
53.210 7.956917
53.215 7.884663
53.220 7.979476
53.225 8.210443
53.230 7.992078
53.235 8.150293
53.240 8.175488
53.245 8.161092
53.250 8.073374
53.255 7.874857
53.260 7.795972
53.265 7.824119
53.270 7.873522
53.275 8.120834
53.280 8.134385
53.285 7.901048
53.290 7.673903
53.295 7.550694
53.300 7.7081
53.305 7.230727
53.310 6.840491
53.315 6.74051
53.320 7.112079
53.325 6.898585
53.330 6.965137
53.335 7.064535
53.340 7.698136
53.345 8.032053
53.350 7.972404
53.355 7.835046
53.360 7.878032
53.365 7.763305
53.370 7.770815
53.375 7.408875
53.380 7.554508
53.385 8.144106
53.390 8.199592
53.395 8.269836
53.400 8.132763
53.405 8.111065
53.410 8.054653
53.415 8.101929
53.420 7.676706
53.425 8.038404
53.430 8.375831
53.435 8.204166
53.440 8.210722
53.445 8.214259
53.450 8.066636
53.455 8.123112
53.460 8.258291
53.465 8.328562
53.470 8.4442
53.475 8.475346
53.480 8.564953
53.485 8.482913
53.490 8.021019
53.495 7.567107
53.500 7.298524
53.505 7.297106
53.510 7.557805
53.515 7.660423
53.520 8.099794
53.525 8.586108
53.530 8.84621
53.535 9.152289
53.540 9.171163
53.545 8.844853
53.550 8.999734
53.555 8.899857
53.560 8.514938
53.565 8.352613
53.570 8.273065
53.575 8.384323
53.580 8.242009
53.585 8.137181
53.590 8.41784
53.595 8.802898
53.600 8.820474
53.605 8.661531
53.610 8.7723
53.615 8.841844
53.620 8.581437
53.625 7.976271
53.630 8.264192
53.635 8.505804
53.640 8.612287
53.645 8.367618
53.650 8.497401
53.655 8.599798
53.660 8.693439
53.665 8.218813
53.670 8.190734
53.675 8.415864
53.680 8.480498
53.685 8.450146
53.690 8.845682
53.695 9.072435
53.700 9.261564
53.705 9.414359
53.710 9.736299
53.715 9.814467
53.720 9.658745
53.725 9.340728
53.730 9.516834
53.735 9.727445
53.740 9.653541
53.745 9.638118
53.750 9.809091
53.755 9.861922
53.760 9.59724
53.765 9.313143
53.770 9.240008
53.775 8.965741
53.780 8.875695
53.785 9.083012
53.790 9.08999
53.795 9.453256
53.800 9.364542
53.805 9.568987
53.810 9.356409
53.815 9.128785
53.820 8.604328
53.825 8.413617
53.830 8.151632
53.835 8.080368
53.840 7.867785
53.845 8.140977
53.850 8.156125
53.855 8.522189
53.860 8.922429
53.865 9.303497
53.870 9.126283
53.875 8.966498
53.880 8.700177
53.885 8.633848
53.890 8.504817
53.895 8.159218
53.900 7.870437
53.905 8.533065
53.910 8.919741
53.915 8.890609
53.920 9.051509
53.925 9.406105
53.930 9.639674
53.935 9.366865
53.940 8.905155
53.945 9.082699
53.950 9.70671
53.955 9.962837
53.960 9.466846
53.965 10.260328
53.970 10.716848
53.975 10.827132
53.980 10.458009
53.985 10.260118
53.990 10.17
53.995 10.043336
54.000 9.247362
54.005 9.293783
54.010 9.143397
54.015 9.071484
54.020 8.916224
54.025 9.001896
54.030 8.862138
54.035 8.951398
54.040 9.092939
54.045 9.336974
54.050 9.70426
54.055 9.804974
54.060 10.080512
54.065 10.155759
54.070 10.018176
54.075 9.783491
54.080 9.699752
54.085 9.649611
54.090 9.115186
54.095 8.671191
54.100 8.644012
54.105 9.190231
54.110 9.249292
54.115 9.108453
54.120 8.998958
54.125 8.974274
54.130 9.010935
54.135 8.734152
54.140 8.207367
54.145 8.643867
54.150 8.596677
54.155 8.580962
54.160 8.502688
54.165 8.512572
54.170 8.830121
54.175 9.199286
54.180 8.864954
54.185 9.029551
54.190 9.303064
54.195 9.504245
54.200 9.545978
54.205 9.592654
54.210 9.309142
54.215 9.485452
54.220 9.489803
54.225 9.203099
54.230 9.129171
54.235 9.016663
54.240 9.143283
54.245 9.083939
54.250 8.812682
54.255 8.904551
54.260 9.545632
54.265 9.573199
54.270 9.578792
54.275 9.645248
54.280 9.455587
54.285 9.176899
54.290 9.022262
54.295 8.451529
54.300 8.425089
54.305 8.331738
54.310 8.178209
54.315 8.073263
54.320 8.074979
54.325 8.04175
54.330 8.293969
54.335 8.427402
54.340 8.326373
54.345 8.046837
54.350 7.995326
54.355 8.04115
54.360 7.989263
54.365 8.076035
54.370 8.295884
54.375 8.679529
54.380 9.094774
54.385 9.309245
54.390 9.279851
54.395 9.610776
54.400 9.779709
54.405 9.538483
54.410 9.408383
54.415 9.125002
54.420 9.063957
54.425 9.124935
54.430 8.969775
54.435 8.714447
54.440 9.009355
54.445 9.83891
54.450 10.297451
54.455 10.357622
54.460 9.949795
54.465 9.743581
54.470 9.80651
54.475 9.616471
54.480 9.377833
54.485 9.202117
54.490 9.793204
54.495 10.241991
54.500 10.439204
54.505 10.19552
54.510 9.963828
54.515 9.602476
54.520 9.435091
54.525 9.00995
54.530 8.828661
54.535 8.459083
54.540 8.682581
54.545 8.51005
54.550 8.722534
54.555 8.839419
54.560 8.753433
54.565 8.438068
54.570 8.434874
54.575 8.524576
54.580 8.707297
54.585 8.624408
54.590 8.44013
54.595 8.478471
54.600 8.678989
54.605 9.130483
54.610 9.060828
54.615 9.018376
54.620 9.459099
54.625 9.14586
54.630 8.968715
54.635 9.055696
54.640 8.764035
54.645 8.582679
54.650 8.573209
54.655 8.974244
54.660 9.444704
54.665 9.419272
54.670 9.677002
54.675 9.851428
54.680 9.625386
54.685 9.120922
54.690 8.828408
54.695 9.08692
54.700 9.355021
54.705 9.157681
54.710 9.261374
54.715 10.003209
54.720 10.043064
54.725 10.163708
54.730 10.298772
54.735 10.431439
54.740 10.670197
54.745 10.54425
54.750 9.945901
54.755 9.954833
54.760 9.740748
54.765 9.7088
54.770 10.072041
54.775 10.175941
54.780 10.489014
54.785 10.612762
54.790 10.49466
54.795 11.103517
54.800 11.213793
54.805 11.072112
54.810 10.830059
54.815 10.652482
54.820 10.685321
54.825 10.300117
54.830 10.508634
54.835 10.350746
54.840 9.989141
54.845 10.028924
54.850 10.333676
54.855 10.84474
54.860 10.813327
54.865 10.512671
54.870 10.719032
54.875 10.942703
54.880 10.9195
54.885 10.982953
54.890 10.843744
54.895 10.959806
54.900 10.983491
54.905 11.149328
54.910 11.374101
54.915 11.544024
54.920 11.314363
54.925 11.310372
54.930 11.141301
54.935 10.686747
54.940 10.088149
54.945 9.782697
54.950 10.240452
54.955 10.060231
54.960 10.115075
54.965 9.918606
54.970 9.902641
54.975 10.16426
54.980 9.748292
54.985 9.189195
54.990 9.162221
54.995 8.939185
55.000 9.287584
55.005 9.280287
55.010 9.385783
55.015 9.766671
55.020 9.620202
55.025 9.796381
55.030 9.941138
55.035 9.897603
55.040 9.727082
55.045 9.567197
55.050 9.625894
55.055 10.268893
55.060 10.304899
55.065 10.079098
55.070 10.405369
55.075 10.613311
55.080 10.724664
55.085 10.228986
55.090 10.054675
55.095 10.294362
55.100 10.220685
55.105 10.510702
55.110 10.592264
55.115 10.313269
55.120 9.761993
55.125 8.975942
55.130 8.99578
55.135 9.239855
55.140 8.879572
55.145 8.924307
55.150 9.376726
55.155 9.799948
55.160 10.252116
55.165 9.707805
55.170 9.335783
55.175 9.225061
55.180 9.546375
55.185 9.797688
55.190 10.093733
55.195 10.256454
55.200 10.683568
55.205 11.128783
55.210 11.152205
55.215 10.937906
55.220 10.743511
55.225 10.60207
55.230 10.569412
55.235 10.222304
55.240 9.864093
55.245 9.838649
55.250 9.611778
55.255 9.180737
55.260 9.234044
55.265 9.205353
55.270 9.131943
55.275 9.139989
55.280 9.173707
55.285 9.23154
55.290 9.346238
55.295 9.560379
55.300 10.046942
55.305 10.18783
55.310 10.299484
55.315 10.511117
55.320 11.056485
55.325 11.533124
55.330 11.221627
55.335 11.229441
55.340 11.608154
55.345 11.881142
55.350 11.663363
55.355 11.083524
55.360 11.397396
55.365 11.069184
55.370 10.807326
55.375 10.17426
55.380 10.008841
55.385 9.881968
55.390 10.100302
55.395 10.122299
55.400 10.324157
55.405 10.85155
55.410 11.505771
55.415 11.18876
55.420 11.166282
55.425 10.950283
55.430 10.73739
55.435 10.89276
55.440 10.52799
55.445 10.346065
55.450 10.651588
55.455 10.762643
55.460 10.899495
55.465 11.193117
55.470 11.404792
55.475 11.6876
55.480 11.827307
55.485 11.750487
55.490 11.977344
55.495 11.877707
55.500 11.754092
55.505 11.464904
55.510 11.303181
55.515 11.254683
55.520 11.283029
55.525 10.998063
55.530 10.548456
55.535 10.645635
55.540 10.228279
55.545 9.964129
55.550 9.412313
55.555 9.173169
55.560 9.152601
55.565 9.341382
55.570 9.091636
55.575 9.300155
55.580 9.687632
55.585 10.105472
55.590 10.435428
55.595 10.373179
55.600 10.398629
55.605 10.928434
55.610 11.789799
55.615 11.970848
55.620 12.020227
55.625 11.972523
55.630 11.965022
55.635 12.179148
55.640 11.925471
55.645 10.762755
55.650 10.462398
55.655 10.448091
55.660 10.546875
55.665 10.922401
55.670 10.796871
55.675 10.826367
55.680 11.531472
55.685 11.65711
55.690 11.527607
55.695 11.387009
55.700 11.181699
55.705 11.017097
55.710 10.866403
55.715 10.414239
55.720 10.483926
55.725 10.52983
55.730 10.683596
55.735 10.901613
55.740 11.428922
55.745 11.827116
55.750 12.021973
55.755 12.192948
55.760 12.201525
55.765 12.005253
55.770 12.019704
55.775 11.322253
55.780 10.620155
55.785 10.391503
55.790 10.285398
55.795 10.374941
55.800 10.152492
55.805 9.904605
55.810 10.144421
55.815 10.081531
55.820 10.074534
55.825 10.208546
55.830 10.271337
55.835 10.277779
55.840 10.148403
55.845 10.120907
55.850 10.487638
55.855 11.090051
55.860 11.263355
55.865 11.159286
55.870 11.052547
55.875 11.341197
55.880 11.362383
55.885 10.961149
55.890 10.273678
55.895 10.052175
55.900 10.399199
55.905 10.722863
55.910 10.698774
55.915 10.906139
55.920 11.211343
55.925 11.516026
55.930 11.970737
55.935 11.956697
55.940 11.932633
55.945 11.794909
55.950 11.842037
55.955 11.883203
55.960 11.378249
55.965 10.321361
55.970 9.854438
55.975 9.794912
55.980 10.078671
55.985 10.366128
55.990 10.695229
55.995 11.416218
56.000 12.385302
56.005 12.703719
56.010 12.536673
56.015 12.105888
56.020 11.86368
56.025 11.348191
56.030 10.709058
56.035 10.607996
56.040 10.938306
56.045 11.119
56.050 11.208747
56.055 11.144037
56.060 11.724348
56.065 11.971465
56.070 11.456417
56.075 10.823347
56.080 10.42811
56.085 10.593385
56.090 10.455502
56.095 10.111136
56.100 10.359698
56.105 11.137362
56.110 12.006339
56.115 12.171662
56.120 11.940421
56.125 11.835622
56.130 11.956266
56.135 11.661378
56.140 10.773727
56.145 10.42772
56.150 10.927215
56.155 11.589571
56.160 12.349177
56.165 12.609562
56.170 12.785547
56.175 12.680674
56.180 12.855784
56.185 12.3284
56.190 11.962409
56.195 11.656756
56.200 11.327772
56.205 11.351056
56.210 11.54189
56.215 11.816041
56.220 12.095712
56.225 11.55396
56.230 11.529785
56.235 11.55956
56.240 11.281796
56.245 10.687785
56.250 10.176509
56.255 10.3683
56.260 10.675403
56.265 10.622687
56.270 10.76425
56.275 11.20593
56.280 12.028952
56.285 12.776196
56.290 12.800202
56.295 12.544688
56.300 12.546693
56.305 12.293381
56.310 12.04051
56.315 11.73343
56.320 11.349157
56.325 11.043918
56.330 11.292045
56.335 11.209047
56.340 11.253367
56.345 11.34389
56.350 11.661853
56.355 12.025144
56.360 12.175443
56.365 11.898107
56.370 11.889108
56.375 12.01781
56.380 11.873533
56.385 11.33717
56.390 11.280514
56.395 11.564907
56.400 11.857872
56.405 11.941353
56.410 11.752791
56.415 11.706705
56.420 11.645477
56.425 11.380457
56.430 11.300964
56.435 11.34285
56.440 12.07786
56.445 12.800416
56.450 12.880795
56.455 12.856924
56.460 12.823362
56.465 12.360223
56.470 11.831553
56.475 10.840083
56.480 10.631767
56.485 10.773426
56.490 11.168234
56.495 11.314371
56.500 11.553864
56.505 12.016938
56.510 12.526008
56.515 12.675176
56.520 12.690064
56.525 12.644827
56.530 12.549923
56.535 12.828342
56.540 12.435388
56.545 12.170983
56.550 11.987435
56.555 11.935244
56.560 12.014094
56.565 11.829372
56.570 11.232929
56.575 11.577792
56.580 11.7862
56.585 11.619274
56.590 11.779649
56.595 11.772718
56.600 11.876785
56.605 11.908928
56.610 11.634719
56.615 11.681355
56.620 11.424809
56.625 11.770448
56.630 12.075708
56.635 12.434147
56.640 12.872206
56.645 12.542715
56.650 12.340855
56.655 12.938245
56.660 12.355799
56.665 11.810218
56.670 11.883018
56.675 12.039042
56.680 12.488016
56.685 12.463923
56.690 12.158458
56.695 12.084017
56.700 12.272839
56.705 12.20916
56.710 12.59734
56.715 12.975404
56.720 13.210481
56.725 12.974564
56.730 12.734631
56.735 13.201213
56.740 13.103278
56.745 12.382581
56.750 12.380342
56.755 12.89933
56.760 13.637156
56.765 13.931229
56.770 13.650286
56.775 13.401305
56.780 13.14893
56.785 13.15941
56.790 12.790258
56.795 12.606057
56.800 12.667917
56.805 12.994735
56.810 13.332017
56.815 13.297462
56.820 12.645424
56.825 12.46347
56.830 12.508113
56.835 12.100407
56.840 12.161254
56.845 12.276416
56.850 12.690615
56.855 12.892306
56.860 13.243236
56.865 13.85375
56.870 13.862385
56.875 13.491974
56.880 13.306086
56.885 13.026807
56.890 13.01124
56.895 12.678815
56.900 12.090714
56.905 12.185744
56.910 12.097342
56.915 12.200159
56.920 12.51474
56.925 12.319231
56.930 12.218829
56.935 12.530764
56.940 12.771299
56.945 13.420716
56.950 13.512599
56.955 13.605041
56.960 13.633202
56.965 13.784729
56.970 13.341021
56.975 12.745107
56.980 11.966573
56.985 12.189987
56.990 12.186081
56.995 12.546535
57.000 12.366333
57.005 13.231275
57.010 13.629645
57.015 13.678041
57.020 13.374417
57.025 13.4137
57.030 13.221674
57.035 13.376798
57.040 13.409288
57.045 13.227715
57.050 13.337291
57.055 14.033492
57.060 13.986975
57.065 14.079211
57.070 13.537769
57.075 13.06717
57.080 13.38262
57.085 12.900432
57.090 12.670039
57.095 12.894833
57.100 13.195974
57.105 13.76187
57.110 14.142609
57.115 14.47248
57.120 15.089054
57.125 14.89562
57.130 14.533517
57.135 14.516404
57.140 13.931706
57.145 13.656624
57.150 13.257114
57.155 12.677298
57.160 12.049439
57.165 11.864985
57.170 11.664601
57.175 11.587277
57.180 11.19449
57.185 11.077908
57.190 11.546769
57.195 12.026923
57.200 12.50033
57.205 12.344274
57.210 12.499165
57.215 12.908154
57.220 13.212299
57.225 12.802254
57.230 12.338934
57.235 12.179017
57.240 12.813432
57.245 12.502041
57.250 11.953454
57.255 11.639553
57.260 11.77675
57.265 11.901118
57.270 11.873433
57.275 11.669308
57.280 11.870633
57.285 12.341006
57.290 12.39378
57.295 12.319224
57.300 12.588995
57.305 12.433927
57.310 12.455614
57.315 12.716393
57.320 12.976532
57.325 13.430345
57.330 13.804161
57.335 13.756269
57.340 14.033007
57.345 14.348246
57.350 14.131355
57.355 13.912188
57.360 13.726429
57.365 13.911967
57.370 13.868071
57.375 13.36495
57.380 13.399761
57.385 13.287969
57.390 13.05561
57.395 13.06777
57.400 13.160349
57.405 13.685602
57.410 13.946564
57.415 13.753018
57.420 13.465302
57.425 13.609759
57.430 13.329813
57.435 13.031558
57.440 12.508833
57.445 12.500804
57.450 12.933148
57.455 13.693565
57.460 14.062713
57.465 14.621568
57.470 14.474149
57.475 14.396277
57.480 14.239942
57.485 14.150387
57.490 13.397612
57.495 12.951341
57.500 12.489117
57.505 12.755615
57.510 13.023506
57.515 12.611382
57.520 12.462391
57.525 13.110103
57.530 13.300081
57.535 13.274968
57.540 13.094768
57.545 13.213327
57.550 13.519397
57.555 13.401428
57.560 13.383463
57.565 13.591116
57.570 13.995726
57.575 14.412775
57.580 14.283669
57.585 14.349065
57.590 14.237698
57.595 13.808935
57.600 13.468197
57.605 13.030513
57.610 12.443646
57.615 12.241673
57.620 12.279676
57.625 12.22153
57.630 11.846768
57.635 11.957238
57.640 12.084945
57.645 12.623189
57.650 12.972431
57.655 13.073651
57.660 12.977317
57.665 13.297944
57.670 13.345406
57.675 13.250425
57.680 13.043896
57.685 13.064824
57.690 13.104081
57.695 13.950917
57.700 14.303444
57.705 14.549572
57.710 14.9008
57.715 14.885363
57.720 14.591163
57.725 14.335371
57.730 13.42369
57.735 13.062231
57.740 13.13365
57.745 12.827826
57.750 12.747403
57.755 13.1373
57.760 13.399539
57.765 13.504889
57.770 13.429962
57.775 13.265388
57.780 13.309216
57.785 13.216674
57.790 12.718998
57.795 12.758891
57.800 13.07257
57.805 13.169612
57.810 13.322316
57.815 13.374741
57.820 13.412919
57.825 13.759679
57.830 13.539944
57.835 13.152059
57.840 13.319639
57.845 12.953043
57.850 13.073229
57.855 13.274013
57.860 13.30549
57.865 13.725705
57.870 13.745964
57.875 13.536885
57.880 14.060248
57.885 14.058002
57.890 14.18095
57.895 14.043339
57.900 14.201762
57.905 14.05226
57.910 13.432234
57.915 12.805301
57.920 12.521932
57.925 11.973415
57.930 11.833999
57.935 11.841373
57.940 12.361666
57.945 12.951876
57.950 13.024821
57.955 12.624763
57.960 12.588482
57.965 12.565667
57.970 12.091838
57.975 12.012782
57.980 12.132799
57.985 12.637264
57.990 13.397212
57.995 13.899569
58.000 14.207265
58.005 14.287585
58.010 14.553205
58.015 14.389561
58.020 13.789344
58.025 13.328768
58.030 13.213656
58.035 13.375299
58.040 13.582879
58.045 13.584162
58.050 13.981659
58.055 14.563563
58.060 15.008889
58.065 15.207695
58.070 15.129603
58.075 15.273446
58.080 14.593148
58.085 14.336402
58.090 14.11519
58.095 13.672717
58.100 13.523361
58.105 13.226183
58.110 13.055765
58.115 12.786383
58.120 12.898396
58.125 13.237457
58.130 13.585462
58.135 13.574901
58.140 13.636717
58.145 13.273556
58.150 13.408127
58.155 13.221247
58.160 12.59934
58.165 12.132115
58.170 11.827383
58.175 12.034672
58.180 12.696286
58.185 13.058205
58.190 13.163405
58.195 13.417747
58.200 13.779538
58.205 13.584148
58.210 12.805477
58.215 12.204732
58.220 12.24105
58.225 12.180113
58.230 12.085296
58.235 12.500315
58.240 12.676406
58.245 12.944809
58.250 12.939446
58.255 12.534965
58.260 13.013925
58.265 13.530038
58.270 13.237025
58.275 13.727631
58.280 14.174093
58.285 14.832756
58.290 15.021833
58.295 15.182902
58.300 14.808166
58.305 14.552741
58.310 14.349632
58.315 13.521993
58.320 13.394608
58.325 14.016299
58.330 14.036717
58.335 14.36851
58.340 14.359424
58.345 14.437263
58.350 15.264317
58.355 15.340581
58.360 14.876649
58.365 14.805814
58.370 14.406784
58.375 14.989726
58.380 14.88073
58.385 14.308994
58.390 14.457449
58.395 13.926111
58.400 13.786922
58.405 14.121887
58.410 13.997079
58.415 14.034652
58.420 13.863014
58.425 13.372392
58.430 13.70507
58.435 13.954738
58.440 14.039889
58.445 14.827642
58.450 15.170251
58.455 16.226645
58.460 16.542959
58.465 16.466066
58.470 16.008783
58.475 15.637549
58.480 15.434977
58.485 15.410516
58.490 14.875218
58.495 14.957943
58.500 14.816719
58.505 14.514027
58.510 14.194137
58.515 13.414286
58.520 13.217758
58.525 13.559964
58.530 13.58986
58.535 13.729216
58.540 14.487967
58.545 14.644001
58.550 14.878013
58.555 14.684936
58.560 14.162114
58.565 14.565417
58.570 15.036109
58.575 14.881136
58.580 15.203831
58.585 15.400269
58.590 15.871665
58.595 16.342812
58.600 15.856109
58.605 15.068271
58.610 14.273799
58.615 13.684121
58.620 13.433033
58.625 13.420881
58.630 13.530291
58.635 13.692077
58.640 14.509949
58.645 15.263123
58.650 15.649288
58.655 15.616024
58.660 15.632065
58.665 15.170707
58.670 14.729584
58.675 14.638492
58.680 14.419537
58.685 14.015009
58.690 14.215303
58.695 14.479027
58.700 14.28836
58.705 14.545609
58.710 14.078427
58.715 14.081137
58.720 14.18385
58.725 14.311561
58.730 14.242595
58.735 14.206851
58.740 14.353436
58.745 14.588074
58.750 14.327076
58.755 14.437876
58.760 14.106748
58.765 13.998167
58.770 14.622099
58.775 15.157908
58.780 15.456911
58.785 15.909198
58.790 15.604564
58.795 15.722735
58.800 15.332712
58.805 14.708282
58.810 13.809188
58.815 13.229785
58.820 13.302253
58.825 13.689476
58.830 14.008042
58.835 14.52935
58.840 15.065384
58.845 15.157373
58.850 15.51887
58.855 15.494808
58.860 15.667725
58.865 15.475965
58.870 14.941633
58.875 14.81845
58.880 15.315559
58.885 15.411402
58.890 15.502716
58.895 15.171148
58.900 15.312706
58.905 15.650215
58.910 15.999809
58.915 15.93234
58.920 16.087345
58.925 15.771617
58.930 15.917063
58.935 15.763947
58.940 16.060699
58.945 15.485464
58.950 14.818547
58.955 14.441604
58.960 14.139019
58.965 14.537333
58.970 14.314795
58.975 14.2501
58.980 14.531918
58.985 14.95127
58.990 15.478869
58.995 15.208433
59.000 15.242797
59.005 15.269659
59.010 14.752322
59.015 14.897959
59.020 14.920213
59.025 14.854928
59.030 14.936658
59.035 14.610381
59.040 15.045394
59.045 15.597673
59.050 15.897233
59.055 15.454013
59.060 15.55699
59.065 16.115192
59.070 15.867412
59.075 15.80298
59.080 15.702434
59.085 16.009293
59.090 16.659241
59.095 17.033209
59.100 17.144297
59.105 17.294039
59.110 16.893232
59.115 16.724483
59.120 16.281456
59.125 16.111935
59.130 16.025869
59.135 15.578706
59.140 15.005859
59.145 15.615076
59.150 15.834095
59.155 15.915374
59.160 15.745037
59.165 15.706072
59.170 15.967578
59.175 16.712347
59.180 16.440298
59.185 16.374382
59.190 16.114592
59.195 15.625505
59.200 15.325851
59.205 15.244941
59.210 15.407298
59.215 15.231416
59.220 15.625238
59.225 15.872362
59.230 16.4589
59.235 16.419073
59.240 16.016893
59.245 15.510153
59.250 15.07489
59.255 14.831772
59.260 14.683
59.265 14.43959
59.270 14.653115
59.275 14.847307
59.280 14.889739
59.285 14.913935
59.290 14.639085
59.295 15.222644
59.300 15.475115
59.305 15.644659
59.310 15.668035
59.315 15.722675
59.320 16.044592
59.325 16.100893
59.330 15.688272
59.335 15.90148
59.340 15.537146
59.345 15.538158
59.350 15.727193
59.355 15.88183
59.360 15.760242
59.365 15.914924
59.370 15.856536
59.375 16.188488
59.380 16.444675
59.385 16.616953
59.390 16.596661
59.395 16.51594
59.400 16.534136
59.405 16.571896
59.410 16.255667
59.415 16.295656
59.420 16.041164
59.425 15.904306
59.430 16.274683
59.435 16.206022
59.440 16.474726
59.445 17.038462
59.450 16.629784
59.455 16.766361
59.460 17.3249
59.465 17.47547
59.470 17.76329
59.475 18.196205
59.480 18.045889
59.485 18.561512
59.490 18.568987
59.495 18.299282
59.500 18.16346
59.505 18.126848
59.510 17.592384
59.515 17.575169
59.520 17.236223
59.525 17.180229
59.530 16.392759
59.535 16.160082
59.540 15.989461
59.545 16.281353
59.550 16.975744
59.555 17.267838
59.560 17.151896
59.565 18.729048
59.570 18.518204
59.575 17.927164
59.580 17.236444
59.585 16.481565
59.590 16.488049
59.595 16.734703
59.600 16.404123
59.605 17.292068
59.610 17.879904
59.615 18.208828
59.620 18.317055
59.625 17.969753
59.630 18.07477
59.635 17.993328
59.640 17.940088
59.645 18.188492
59.650 18.52253
59.655 18.857344
59.660 19.007515
59.665 19.024035
59.670 19.168781
59.675 19.488607
59.680 19.516903
59.685 19.590988
59.690 19.707966
59.695 20.002485
59.700 20.010715
59.705 20.060928
59.710 19.878445
59.715 19.22591
59.720 18.771568
59.725 18.395437
59.730 18.586603
59.735 18.615646
59.740 18.701332
59.745 18.696697
59.750 19.527748
59.755 19.685743
59.760 19.544636
59.765 19.327307
59.770 19.228594
59.775 19.379778
59.780 19.546139
59.785 19.100765
59.790 18.969387
59.795 19.578064
59.800 19.93445
59.805 19.416458
59.810 18.319187
59.815 18.028456
59.820 18.281576
59.825 19.126184
59.830 19.253992
59.835 19.01034
59.840 19.502468
59.845 19.893126
59.850 19.779671
59.855 19.635632
59.860 19.401714
59.865 19.606745
59.870 19.464951
59.875 19.771954
59.880 20.612894
59.885 21.545507
59.890 21.734888
59.895 21.209038
59.900 20.867424
59.905 21.149414
59.910 20.5844
59.915 20.588255
59.920 20.541334
59.925 20.617674
59.930 20.816021
59.935 21.149101
59.940 20.908264
59.945 20.762991
59.950 20.12043
59.955 19.062771
59.960 19.076342
59.965 19.077312
59.970 18.402411
59.975 18.737463
59.980 19.226471
59.985 19.97496
59.990 20.811152
59.995 21.169533
60.000 21.305021
60.005 21.419933
60.010 21.473789
60.015 21.323725
60.020 20.685768
60.025 20.329645
60.030 19.854212
60.035 19.559454
60.040 19.460176
60.045 19.486855
60.050 19.451714
60.055 19.46125
60.060 19.87044
60.065 20.089901
60.070 20.571693
60.075 20.933859
60.080 20.966013
60.085 21.083672
60.090 21.114458
60.095 20.776108
60.100 20.394451
60.105 20.150681
60.110 19.920877
60.115 19.808779
60.120 20.176821
60.125 20.202776
60.130 20.242445
60.135 21.265497
60.140 21.591778
60.145 22.141348
60.150 21.96493
60.155 21.767742
60.160 21.992565
60.165 21.22554
60.170 20.088362
60.175 20.085085
60.180 19.786825
60.185 20.238298
60.190 19.728521
60.195 19.655964
60.200 20.326672
60.205 20.319593
60.210 20.092255
60.215 19.664507
60.220 19.226662
60.225 19.20397
60.230 19.373053
60.235 18.758175
60.240 18.681162
60.245 18.181011
60.250 18.205994
60.255 18.648022
60.260 19.02165
60.265 19.074497
60.270 19.430555
60.275 19.314316
60.280 19.693687
60.285 19.999287
60.290 19.912323
60.295 19.445225
60.300 19.932421
60.305 20.234022
60.310 21.10256
60.315 21.511431
60.320 21.805166
60.325 22.017834
60.330 22.592569
60.335 21.843737
60.340 21.316444
60.345 20.563505
60.350 19.934828
60.355 19.216579
60.360 18.833624
60.365 18.445078
60.370 18.919367
60.375 19.3372
60.380 19.796564
60.385 20.14974
60.390 20.661869
60.395 20.594828
60.400 20.631599
60.405 20.538483
60.410 20.310883
60.415 20.398127
60.420 20.833488
60.425 20.63204
60.430 20.754272
60.435 20.654856
60.440 19.948334
60.445 19.77787
60.450 19.200373
60.455 18.523497
60.460 18.101267
60.465 17.815414
60.470 18.161882
60.475 18.977282
60.480 19.255442
60.485 19.671673
60.490 19.967915
60.495 19.904583
60.500 19.929411
60.505 19.669123
60.510 19.658108
60.515 19.814972
60.520 18.950596
60.525 18.722544
60.530 18.883488
60.535 18.290789
60.540 17.938438
60.545 17.101114
60.550 17.020357
60.555 17.335617
60.560 17.595049
60.565 18.004959
60.570 18.536531
60.575 18.947834
60.580 19.384714
60.585 19.208294
60.590 19.206053
60.595 18.861637
60.600 18.312384
60.605 18.607897
60.610 18.839884
60.615 18.638239
60.620 19.007877
60.625 18.881092
60.630 19.023682
60.635 19.683811
60.640 19.414732
60.645 19.395939
60.650 19.238422
60.655 18.595785
60.660 18.840136
60.665 19.128099
60.670 18.546839
60.675 18.015577
60.680 18.145515
60.685 18.409206
60.690 18.262348
60.695 17.975729
60.700 17.116661
60.705 17.059193
60.710 16.94243
60.715 16.311901
60.720 16.206619
60.725 16.811285
60.730 16.928549
60.735 17.429312
60.740 17.21604
60.745 17.14501
60.750 17.243561
60.755 17.36264
60.760 17.199636
60.765 17.4002
60.770 17.496166
60.775 17.841864
60.780 18.582178
60.785 19.317915
60.790 18.877565
60.795 18.732216
60.800 18.392939
60.805 18.584614
60.810 18.363415
60.815 17.732182
60.820 17.518837
60.825 17.49012
60.830 17.66151
60.835 17.878254
60.840 17.428637
60.845 17.475863
60.850 17.539555
60.855 17.713129
60.860 18.112169
60.865 18.153738
60.870 17.788788
60.875 18.051126
60.880 18.132544
60.885 18.085836
60.890 17.747253
60.895 17.377348
60.900 17.097521
60.905 17.250473
60.910 17.126675
60.915 17.120773
60.920 16.5145
60.925 16.498058
60.930 16.793879
60.935 17.655127
60.940 18.032824
60.945 18.422047
60.950 18.1709
60.955 18.509424
60.960 18.377039
60.965 18.355227
60.970 17.729877
60.975 17.518496
60.980 17.029181
60.985 17.687471
60.990 17.548794
60.995 17.387629
61.000 16.992899
61.005 16.625723
61.010 16.641514
61.015 16.380724
61.020 16.148281
61.025 16.216137
61.030 16.620733
61.035 16.444284
61.040 16.404371
61.045 16.573126
61.050 16.850643
61.055 16.052429
61.060 16.287588
61.065 16.874117
61.070 17.543354
61.075 17.691208
61.080 17.860476
61.085 18.166338
61.090 18.727795
61.095 18.627285
61.100 17.764385
61.105 17.753811
61.110 17.935848
61.115 17.447845
61.120 17.099205
61.125 16.672001
61.130 16.886068
61.135 16.881676
61.140 17.139061
61.145 17.26189
61.150 17.096066
61.155 16.976204
61.160 17.481312
61.165 16.99304
61.170 16.586613
61.175 15.944037
61.180 15.049276
61.185 15.513895
61.190 15.580107
61.195 15.281144
61.200 15.349262
61.205 15.893849
61.210 16.159571
61.215 16.708893
61.220 16.621487
61.225 16.740065
61.230 17.140198
61.235 17.39502
61.240 17.29599
61.245 16.865189
61.250 16.738871
61.255 16.875149
61.260 17.20089
61.265 17.088676
61.270 16.947639
61.275 16.695707
61.280 16.831642
61.285 16.85
61.290 16.440145
61.295 16.101913
61.300 15.707285
61.305 15.671926
61.310 16.1012
61.315 16.987118
61.320 17.084566
61.325 17.007893
61.330 16.793978
61.335 17.389534
61.340 17.424231
61.345 16.962984
61.350 16.320282
61.355 16.385008
61.360 16.632219
61.365 16.528677
61.370 16.103254
61.375 15.620508
61.380 15.532812
61.385 15.655696
61.390 15.745595
61.395 15.811932
61.400 15.512748
61.405 14.967982
61.410 15.570045
61.415 15.413316
61.420 15.155676
61.425 14.899339
61.430 15.020735
61.435 15.434789
61.440 16.116434
61.445 16.145872
61.450 16.643295
61.455 16.952551
61.460 16.781094
61.465 16.780689
61.470 16.29353
61.475 16.404913
61.480 17.083414
61.485 16.57889
61.490 16.23189
61.495 16.185553
61.500 16.2495
61.505 17.407841
61.510 17.422476
61.515 17.55147
61.520 17.575363
61.525 18.102278
61.530 18.96336
61.535 19.044796
61.540 18.326654
61.545 17.706049
61.550 16.860102
61.555 17.415634
61.560 17.679661
61.565 17.461515
61.570 17.388058
61.575 18.105232
61.580 18.92849
61.585 19.455074
61.590 18.506556
61.595 17.824232
61.600 17.531
61.605 17.204939
61.610 16.509172
61.615 15.649343
61.620 15.424258
61.625 15.817366
61.630 15.863487
61.635 15.655947
61.640 15.939692
61.645 16.557243
61.650 16.972147
61.655 16.563307
61.660 16.136829
61.665 15.553084
61.670 15.314127
61.675 15.180593
61.680 14.378857
61.685 14.258356
61.690 14.417472
61.695 14.776427
61.700 15.630637
61.705 16.275267
61.710 16.398331
61.715 17.030661
61.720 17.4084
61.725 17.512165
61.730 17.70577
61.735 17.153049
61.740 16.108244
61.745 16.295401
61.750 15.662873
61.755 15.072103
61.760 15.374564
61.765 15.558092
61.770 15.811535
61.775 16.350256
61.780 16.266754
61.785 16.93652
61.790 17.60037
61.795 17.393669
61.800 17.25086
61.805 17.011177
61.810 16.422482
61.815 16.089998
61.820 15.80324
61.825 15.739941
61.830 15.204622
61.835 14.812725
61.840 15.879519
61.845 16.597866
61.850 16.988579
61.855 16.949709
61.860 16.784664
61.865 16.957548
61.870 17.097858
61.875 16.542482
61.880 16.991365
61.885 16.903543
61.890 16.954975
61.895 16.71191
61.900 16.924849
61.905 16.838974
61.910 16.319319
61.915 15.818257
61.920 15.785701
61.925 15.554438
61.930 15.902505
61.935 15.830688
61.940 15.916671
61.945 16.235243
61.950 16.557169
61.955 16.553909
61.960 16.71096
61.965 16.903948
61.970 17.358923
61.975 17.916521
61.980 18.344631
61.985 18.184875
61.990 18.084372
61.995 18.18111
62.000 17.582373
62.005 17.081785
62.010 17.006319
62.015 16.882051
62.020 16.496496
62.025 16.455284
62.030 16.51466
62.035 17.040323
62.040 17.158855
62.045 16.94021
62.050 16.749281
62.055 16.306969
62.060 15.7035
62.065 15.202609
62.070 15.022535
62.075 15.445199
62.080 15.18221
62.085 15.336245
62.090 15.697094
62.095 16.168104
62.100 16.201956
62.105 16.099691
62.110 15.676872
62.115 15.710495
62.120 15.993429
62.125 16.524981
62.130 16.409733
62.135 16.276917
62.140 16.514536
62.145 17.042768
62.150 17.349295
62.155 17.296642
62.160 17.795706
62.165 18.678455
62.170 19.263725
62.175 18.909824
62.180 18.484119
62.185 18.332201
62.190 17.964466
62.195 17.383049
62.200 16.852024
62.205 16.374743
62.210 16.790588
62.215 16.635674
62.220 16.780769
62.225 16.824087
62.230 16.769545
62.235 16.764332
62.240 17.309246
62.245 17.274225
62.250 17.657667
62.255 17.57745
62.260 17.467489
62.265 16.907408
62.270 16.744328
62.275 16.599157
62.280 16.691397
62.285 16.890347
62.290 16.767746
62.295 16.919437
62.300 17.366253
62.305 17.612545
62.310 17.458368
62.315 17.367573
62.320 16.867188
62.325 16.660055
62.330 16.492809
62.335 16.516764
62.340 15.926682
62.345 16.115685
62.350 15.606466
62.355 15.443966
62.360 15.916705
62.365 16.326513
62.370 16.318455
62.375 16.524666
62.380 16.200699
62.385 16.300541
62.390 16.651484
62.395 16.549528
62.400 16.437321
62.405 16.546751
62.410 17.421669
62.415 17.984194
62.420 18.33325
62.425 17.840183
62.430 17.664478
62.435 17.659822
62.440 17.342627
62.445 16.89896
62.450 16.698055
62.455 16.630747
62.460 17.032038
62.465 17.11912
62.470 17.384884
62.475 17.374481
62.480 17.369528
62.485 17.035692
62.490 17.115286
62.495 16.512421
62.500 15.880614
62.505 15.459269
62.510 15.831312
62.515 15.541025
62.520 15.335263
62.525 15.064343
62.530 15.226203
62.535 15.630918
62.540 15.78131
62.545 15.24439
62.550 15.262313
62.555 16.168148
62.560 16.348791
62.565 16.919914
62.570 16.204792
62.575 15.644926
62.580 15.793961
62.585 15.772734
62.590 15.650321
62.595 15.863922
62.600 15.722692
62.605 16.276867
62.610 16.360315
62.615 16.341316
62.620 16.561123
62.625 16.06521
62.630 15.733298
62.635 15.825293
62.640 15.882305
62.645 16.25345
62.650 16.351233
62.655 16.209116
62.660 16.017515
62.665 16.052267
62.670 15.885396
62.675 16.177382
62.680 16.107738
62.685 15.81724
62.690 15.565312
62.695 15.545444
62.700 15.173141
62.705 15.194432
62.710 15.141821
62.715 15.587628
62.720 15.962642
62.725 16.846043
62.730 17.08428
62.735 17.487589
62.740 17.461893
62.745 16.806904
62.750 16.112259
62.755 16.007992
62.760 15.273237
62.765 15.719762
62.770 15.921432
62.775 16.204361
62.780 16.356422
62.785 16.330139
62.790 16.453905
62.795 16.532404
62.800 15.332022
62.805 14.629213
62.810 14.616755
62.815 14.993731
62.820 15.370501
62.825 15.637606
62.830 16.148346
62.835 17.186775
62.840 17.282644
62.845 17.05583
62.850 17.537926
62.855 17.463835
62.860 17.255596
62.865 17.13859
62.870 16.555008
62.875 16.498478
62.880 16.209568
62.885 15.535682
62.890 15.204817
62.895 14.890887
62.900 13.988371
62.905 14.205163
62.910 14.88271
62.915 15.269862
62.920 15.734589
62.925 15.988714
62.930 15.955608
62.935 16.435513
62.940 16.213413
62.945 15.902025
62.950 15.902887
62.955 15.590878
62.960 15.317814
62.965 15.6075
62.970 15.878261
62.975 16.162764
62.980 15.668189
62.985 15.431707
62.990 15.551717
62.995 15.820615
63.000 16.315144
63.005 16.756653
63.010 17.318605
63.015 18.455387
63.020 18.911406
63.025 19.221939
63.030 19.562965
63.035 19.017359
63.040 18.644911
63.045 18.284187
63.050 18.219366
63.055 17.785683
63.060 17.190447
63.065 16.814133
63.070 16.491726
63.075 16.012516
63.080 15.451297
63.085 14.811432
63.090 15.071575
63.095 15.010732
63.100 14.952743
63.105 15.522247
63.110 15.877722
63.115 15.704868
63.120 15.985221
63.125 15.914721
63.130 16.386755
63.135 16.233637
63.140 16.259132
63.145 16.480309
63.150 16.896725
63.155 16.841734
63.160 16.985516
63.165 16.771828
63.170 16.623306
63.175 16.115316
63.180 15.129872
63.185 15.442075
63.190 15.746312
63.195 15.554106
63.200 15.391203
63.205 15.427885
63.210 15.693524
63.215 16.188944
63.220 15.769754
63.225 15.678564
63.230 15.589244
63.235 15.77529
63.240 16.098751
63.245 16.189438
63.250 16.56451
63.255 16.857492
63.260 16.813301
63.265 16.957979
63.270 16.729456
63.275 16.833527
63.280 17.103806
63.285 17.323294
63.290 17.109426
63.295 17.205351
63.300 17.613462
63.305 18.045475
63.310 18.574228
63.315 18.725067
63.320 18.4685
63.325 18.42642
63.330 18.344913
63.335 18.133595
63.340 17.835003
63.345 17.08762
63.350 16.761551
63.355 16.134346
63.360 16.030149
63.365 15.990644
63.370 16.117523
63.375 16.181467
63.380 16.581522
63.385 16.99192
63.390 17.640255
63.395 17.563114
63.400 17.315233
63.405 17.179153
63.410 17.205683
63.415 17.210068
63.420 17.473312
63.425 17.252439
63.430 17.581476
63.435 18.236603
63.440 17.887194
63.445 17.814699
63.450 17.89727
63.455 17.845646
63.460 18.604998
63.465 18.605284
63.470 18.562328
63.475 19.353065
63.480 19.194229
63.485 18.91818
63.490 19.364742
63.495 19.031261
63.500 18.968557
63.505 18.556164
63.510 18.177561
63.515 18.177874
63.520 17.819244
63.525 16.878027
63.530 16.343925
63.535 16.32267
63.540 16.432367
63.545 16.092066
63.550 15.94128
63.555 16.551346
63.560 17.061058
63.565 17.441341
63.570 17.328176
63.575 17.842417
63.580 18.167057
63.585 18.69706
63.590 18.629829
63.595 18.406317
63.600 18.688326
63.605 18.665462
63.610 17.899416
63.615 18.103333
63.620 18.133698
63.625 17.823826
63.630 17.831161
63.635 17.118387
63.640 17.254763
63.645 17.70719
63.650 17.811041
63.655 17.651306
63.660 17.989565
63.665 17.357416
63.670 17.277979
63.675 16.804499
63.680 16.560846
63.685 16.236475
63.690 16.409246
63.695 16.549273
63.700 17.299646
63.705 17.711412
63.710 17.63846
63.715 17.79553
63.720 17.460005
63.725 17.041491
63.730 16.632105
63.735 16.644218
63.740 17.006088
63.745 17.42588
63.750 17.194838
63.755 17.288918
63.760 17.270365
63.765 17.297651
63.770 16.844402
63.775 16.574223
63.780 16.743742
63.785 16.985708
63.790 16.975376
63.795 17.332872
63.800 17.451824
63.805 17.558079
63.810 17.496454
63.815 17.369001
63.820 16.998789
63.825 16.834295
63.830 16.87326
63.835 17.070314
63.840 17.322205
63.845 17.555029
63.850 17.386387
63.855 17.664764
63.860 17.714264
63.865 17.377073
63.870 16.789862
63.875 16.014111
63.880 15.454551
63.885 15.434628
63.890 15.285315
63.895 15.188946
63.900 15.225027
63.905 15.149912
63.910 15.495232
63.915 15.78175
63.920 15.694774
63.925 15.827017
63.930 16.00005
63.935 16.236433
63.940 17.043968
63.945 17.143892
63.950 17.681244
63.955 18.090124
63.960 18.445644
63.965 19.006184
63.970 19.010128
63.975 18.60813
63.980 18.480566
63.985 18.837147
63.990 19.312967
63.995 19.057384
64.000 18.813406
64.005 18.733318
64.010 18.625177
64.015 19.021137
64.020 19.222332
64.025 19.304203
64.030 19.37982
64.035 19.506933
64.040 19.586395
64.045 20.220713
64.050 20.173697
64.055 19.152323
64.060 18.267609
64.065 18.186783
64.070 18.025894
64.075 18.583237
64.080 17.901491
64.085 17.556118
64.090 17.470932
64.095 17.644682
64.100 17.718658
64.105 17.208731
64.110 16.610241
64.115 17.131317
64.120 17.143038
64.125 17.0501
64.130 17.554264
64.135 17.654037
64.140 17.687368
64.145 17.690422
64.150 17.204199
64.155 17.009233
64.160 16.956793
64.165 16.627394
64.170 16.824463
64.175 17.227684
64.180 17.508127
64.185 17.822945
64.190 18.193762
64.195 18.29352
64.200 17.923998
64.205 17.375237
64.210 17.153599
64.215 16.70583
64.220 16.75609
64.225 16.740936
64.230 16.620529
64.235 16.837399
64.240 17.087454
64.245 17.640858
64.250 18.009264
64.255 18.317802
64.260 18.572931
64.265 18.979673
64.270 18.820793
64.275 18.564224
64.280 17.903982
64.285 17.907804
64.290 18.145178
64.295 18.64212
64.300 19.0236
64.305 19.279995
64.310 19.334379
64.315 19.721676
64.320 19.876719
64.325 19.528545
64.330 19.792248
64.335 19.839235
64.340 19.680296
64.345 19.350697
64.350 19.250668
64.355 19.211462
64.360 18.66206
64.365 17.681881
64.370 17.428827
64.375 17.365976
64.380 17.966383
64.385 18.042728
64.390 17.754839
64.395 17.97871
64.400 18.595259
64.405 18.98719
64.410 19.253872
64.415 19.082697
64.420 18.873888
64.425 19.185459
64.430 19.545366
64.435 19.720343
64.440 19.438875
64.445 19.076088
64.450 19.181772
64.455 19.320253
64.460 19.571753
64.465 19.553171
64.470 19.02899
64.475 18.909536
64.480 19.21616
64.485 19.305185
64.490 19.317642
64.495 19.025845
64.500 18.819513
64.505 18.897243
64.510 19.073689
64.515 18.805376
64.520 18.711544
64.525 18.043774
64.530 18.305162
64.535 18.361048
64.540 18.160303
64.545 18.260378
64.550 18.309856
64.555 18.448067
64.560 19.041685
64.565 18.844267
64.570 18.965803
64.575 19.190615
64.580 18.854595
64.585 18.794298
64.590 18.513208
64.595 19.017502
64.600 18.666115
64.605 18.22566
64.610 17.774551
64.615 17.440666
64.620 17.466234
64.625 17.927143
64.630 17.62344
64.635 17.998178
64.640 18.584345
64.645 19.080385
64.650 20.01148
64.655 19.88096
64.660 19.334536
64.665 19.311132
64.670 19.230654
64.675 18.598179
64.680 18.226532
64.685 17.545782
64.690 17.641994
64.695 17.9277
64.700 18.09444
64.705 17.976536
64.710 18.206425
64.715 18.489479
64.720 19.140459
64.725 19.578621
64.730 19.314383
64.735 19.199018
64.740 19.625923
64.745 20.280293
64.750 20.550381
64.755 20.065289
64.760 20.016205
64.765 20.445578
64.770 20.179422
64.775 19.86759
64.780 20.013361
64.785 19.985102
64.790 20.41258
64.795 20.294485
64.800 20.250229
64.805 20.302671
64.810 20.051888
64.815 19.958971
64.820 20.023819
64.825 20.0578
64.830 20.559038
64.835 20.546116
64.840 20.374125
64.845 20.653843
64.850 20.991272
64.855 20.936865
64.860 20.717331
64.865 20.467268
64.870 20.500196
64.875 21.016171
64.880 21.428362
64.885 21.626665
64.890 22.175888
64.895 21.928879
64.900 21.386269
64.905 21.181866
64.910 20.702072
64.915 19.983873
64.920 19.416864
64.925 19.065281
64.930 19.321024
64.935 19.586716
64.940 20.517685
64.945 20.656199
64.950 20.729456
64.955 20.61125
64.960 20.07094
64.965 19.784224
64.970 19.36693
64.975 19.189455
64.980 19.390001
64.985 19.735216
64.990 20.187311
64.995 20.4363
65.000 20.672403
65.005 21.014519
65.010 20.75831
65.015 20.642401
65.020 21.051243
65.025 20.861504
65.030 20.572996
65.035 20.969044
65.040 21.125116
65.045 21.207922
65.050 21.155258
65.055 20.465263
65.060 20.968672
65.065 21.33374
65.070 21.585808
65.075 21.837173
65.080 21.684149
65.085 22.149841
65.090 22.423292
65.095 22.077887
65.100 21.848213
65.105 22.000452
65.110 21.753162
65.115 21.309486
65.120 21.09174
65.125 21.190159
65.130 21.13802
65.135 21.430048
65.140 21.325865
65.145 22.290085
65.150 22.941071
65.155 22.839403
65.160 22.903597
65.165 23.160467
65.170 22.711786
65.175 22.144146
65.180 21.200851
65.185 21.256474
65.190 21.705597
65.195 21.624758
65.200 21.260048
65.205 21.210833
65.210 21.470572
65.215 21.523367
65.220 21.531292
65.225 21.235075
65.230 21.127752
65.235 20.91157
65.240 20.600315
65.245 20.849947
65.250 20.843945
65.255 20.81851
65.260 20.530079
65.265 20.604399
65.270 21.566975
65.275 21.329569
65.280 20.909227
65.285 21.220762
65.290 21.188089
65.295 21.751614
65.300 22.275389
65.305 22.901119
65.310 23.732412
65.315 23.871092
65.320 23.895033
65.325 23.953003
65.330 23.366217
65.335 23.036947
65.340 22.82918
65.345 22.614561
65.350 22.519588
65.355 22.542191
65.360 22.839668
65.365 22.841997
65.370 22.083546
65.375 21.753601
65.380 21.885849
65.385 21.934359
65.390 21.85524
65.395 21.840097
65.400 22.000957
65.405 22.291143
65.410 22.390497
65.415 22.81974
65.420 23.681349
65.425 24.247227
65.430 24.086178
65.435 24.764599
65.440 25.469673
65.445 25.147957
65.450 24.968391
65.455 24.371702
65.460 23.867813
65.465 23.771074
65.470 23.805346
65.475 24.25905
65.480 25.070292
65.485 24.912611
65.490 25.236248
65.495 25.860394
65.500 26.595568
65.505 26.524593
65.510 26.729662
65.515 26.837463
65.520 27.511539
65.525 27.080379
65.530 27.330439
65.535 27.294754
65.540 27.804375
65.545 27.372162
65.550 27.333752
65.555 27.406994
65.560 28.143606
65.565 28.483847
65.570 28.561386
65.575 28.587616
65.580 28.845964
65.585 28.607134
65.590 28.973953
65.595 29.178423
65.600 29.137098
65.605 29.384388
65.610 29.543562
65.615 29.637999
65.620 30.387079
65.625 30.266678
65.630 29.662012
65.635 30.070976
65.640 30.055134
65.645 30.916113
65.650 30.970377
65.655 30.971989
65.660 30.436052
65.665 30.768343
65.670 30.578005
65.675 30.562262
65.680 30.561552
65.685 31.491039
65.690 31.78368
65.695 31.53404
65.700 31.675354
65.705 31.901964
65.710 32.598213
65.715 32.760338
65.720 32.841896
65.725 32.702652
65.730 33.669704
65.735 33.543919
65.740 33.238419
65.745 33.096241
65.750 33.383362
65.755 33.574997
65.760 34.001751
65.765 34.154087
65.770 34.478886
65.775 35.062546
65.780 35.380257
65.785 34.913933
65.790 35.599388
65.795 35.312584
65.800 34.99152
65.805 35.545341
65.810 35.800934
65.815 35.783077
65.820 36.853268
65.825 36.744682
65.830 37.935688
65.835 38.549454
65.840 38.889084
65.845 38.589512
65.850 38.379204
65.855 37.799595
65.860 37.848564
65.865 36.794949
65.870 36.351933
65.875 35.705624
65.880 35.333336
65.885 35.298164
65.890 35.404861
65.895 35.235626
65.900 36.222775
65.905 36.36097
65.910 36.9865
65.915 37.149033
65.920 37.825012
65.925 36.955997
65.930 37.054684
65.935 36.783245
65.940 36.411926
65.945 35.355732
65.950 35.504539
65.955 35.168964
65.960 36.248371
65.965 36.64994
65.970 36.751728
65.975 37.381378
65.980 38.321701
65.985 38.713268
65.990 38.931072
65.995 39.338566
66.000 39.830513
66.005 39.965454
66.010 39.887863
66.015 39.44693
66.020 39.592224
66.025 39.448574
66.030 39.267216
66.035 38.316273
66.040 38.557167
66.045 38.572578
66.050 38.37682
66.055 37.62133
66.060 37.986225
66.065 39.015488
66.070 39.168938
66.075 39.463993
66.080 39.510014
66.085 40.093327
66.090 40.6716
66.095 40.301445
66.100 39.263584
66.105 39.002361
66.110 38.940552
66.115 39.900909
66.120 40.274296
66.125 39.539066
66.130 38.985672
66.135 39.22517
66.140 39.554184
66.145 39.220428
66.150 38.541885
66.155 38.229969
66.160 38.812386
66.165 39.32217
66.170 38.570625
66.175 37.604473
66.180 37.04166
66.185 36.497437
66.190 36.651703
66.195 36.873264
66.200 35.977222
66.205 35.75246
66.210 35.823849
66.215 36.349182
66.220 36.006886
66.225 34.488739
66.230 33.890076
66.235 34.99398
66.240 35.262211
66.245 35.449501
66.250 35.063503
66.255 34.632183
66.260 35.394802
66.265 35.364609
66.270 34.527229
66.275 33.793583
66.280 33.084705
66.285 32.275005
66.290 32.181282
66.295 32.022942
66.300 31.724464
66.305 31.489021
66.310 31.265532
66.315 31.681597
66.320 32.111694
66.325 31.829149
66.330 31.684698
66.335 31.645674
66.340 31.482178
66.345 31.770836
66.350 31.618376
66.355 31.349281
66.360 31.640961
66.365 31.730572
66.370 31.593382
66.375 30.697227
66.380 30.639532
66.385 30.78521
66.390 30.52215
66.395 29.889484
66.400 29.608644
66.405 29.254829
66.410 30.325657
66.415 30.542498
66.420 30.206156
66.425 30.072584
66.430 30.066874
66.435 29.760067
66.440 29.991909
66.445 29.478186
66.450 28.45084
66.455 28.518049
66.460 28.42873
66.465 28.381788
66.470 28.159271
66.475 27.404995
66.480 27.182312
66.485 27.066832
66.490 26.834089
66.495 27.544989
66.500 27.415848
66.505 27.972132
66.510 28.152315
66.515 27.712437
66.520 28.094213
66.525 28.055847
66.530 27.583481
66.535 27.228659
66.540 26.782228
66.545 26.817566
66.550 27.483738
66.555 27.483257
66.560 27.352901
66.565 27.440048
66.570 26.962145
66.575 26.544878
66.580 26.29767
66.585 25.736183
66.590 25.410585
66.595 25.301844
66.600 25.275053
66.605 25.832474
66.610 26.222702
66.615 26.208693
66.620 26.294617
66.625 25.811756
66.630 25.547775
66.635 25.327103
66.640 25.17523
66.645 25.084461
66.650 24.799994
66.655 24.423725
66.660 24.181862
66.665 24.456549
66.670 24.231428
66.675 24.386974
66.680 24.597282
66.685 24.26222
66.690 23.333513
66.695 23.291534
66.700 23.075348
66.705 23.122927
66.710 22.705969
66.715 22.071764
66.720 22.469852
66.725 22.548483
66.730 22.364569
66.735 22.018105
66.740 21.640921
66.745 21.683285
66.750 21.958128
66.755 22.009844
66.760 22.869398
66.765 23.371222
66.770 23.753963
66.775 24.141989
66.780 24.213427
66.785 23.999844
66.790 23.518803
66.795 22.677841
66.800 22.439507
66.805 22.269812
66.810 21.754869
66.815 21.851299
66.820 21.736776
66.825 22.051649
66.830 22.000671
66.835 21.492912
66.840 21.333242
66.845 22.194933
66.850 22.576105
66.855 22.844799
66.860 23.127308
66.865 23.34107
66.870 23.613106
66.875 23.923063
66.880 23.942852
66.885 23.273594
66.890 22.419527
66.895 22.125643
66.900 21.829792
66.905 21.505547
66.910 20.733112
66.915 20.195946
66.920 20.690584
66.925 20.946497
66.930 21.147903
66.935 21.718586
66.940 23.046518
66.945 24.076591
66.950 24.182133
66.955 24.106598
66.960 24.489214
66.965 24.797781
66.970 24.892015
66.975 24.066381
66.980 23.49637
66.985 23.652956
66.990 23.771795
66.995 23.591684
67.000 23.277346
67.005 23.037071
67.010 22.726864
67.015 22.960634
67.020 22.41293
67.025 22.389359
67.030 22.355431
67.035 21.655607
67.040 21.069899
67.045 20.617262
67.050 20.479877
67.055 20.744324
67.060 20.376972
67.065 20.67705
67.070 21.282553
67.075 21.947672
67.080 21.79863
67.085 21.376427
67.090 21.420406
67.095 20.904249
67.100 20.697317
67.105 20.972923
67.110 20.957859
67.115 21.121223
67.120 21.18993
67.125 21.311052
67.130 21.428261
67.135 21.204952
67.140 20.414963
67.145 20.721638
67.150 21.302332
67.155 21.498926
67.160 21.681746
67.165 21.916767
67.170 21.742443
67.175 22.18998
67.180 22.068245
67.185 21.723749
67.190 21.218575
67.195 21.160545
67.200 21.47682
67.205 21.485769
67.210 21.194883
67.215 21.135374
67.220 21.236135
67.225 21.707073
67.230 21.408699
67.235 21.000347
67.240 20.881916
67.245 20.629459
67.250 20.76195
67.255 20.283749
67.260 19.454525
67.265 19.634399
67.270 19.503616
67.275 19.438833
67.280 19.299883
67.285 18.760042
67.290 19.570753
67.295 20.147711
67.300 20.104656
67.305 20.205479
67.310 19.880789
67.315 20.008446
67.320 20.499752
67.325 20.025597
67.330 19.709892
67.335 19.417324
67.340 19.704645
67.345 20.412033
67.350 21.104517
67.355 20.82881
67.360 20.601871
67.365 20.035885
67.370 20.106577
67.375 20.237354
67.380 20.160091
67.385 19.735327
67.390 19.703114
67.395 20.095827
67.400 20.593058
67.405 20.306004
67.410 20.315691
67.415 20.000198
67.420 20.375227
67.425 20.931572
67.430 21.150354
67.435 21.592821
67.440 21.995977
67.445 22.012009
67.450 22.241323
67.455 21.452023
67.460 20.631161
67.465 20.357491
67.470 20.37406
67.475 20.523743
67.480 20.438574
67.485 20.589252
67.490 20.849361
67.495 21.1847
67.500 21.845812
67.505 21.904497
67.510 21.714878
67.515 22.194626
67.520 21.848049
67.525 22.222204
67.530 22.37784
67.535 22.27667
67.540 22.292795
67.545 22.084982
67.550 21.487173
67.555 21.968006
67.560 21.812677
67.565 21.20606
67.570 19.956955
67.575 19.34741
67.580 18.996334
67.585 19.585592
67.590 19.096111
67.595 19.294075
67.600 19.892328
67.605 21.394663
67.610 22.778456
67.615 23.321749
67.620 23.062656
67.625 23.409382
67.630 23.377932
67.635 22.715353
67.640 21.374897
67.645 20.523886
67.650 20.107038
67.655 19.947624
67.660 19.975901
67.665 20.050055
67.670 20.058056
67.675 20.156639
67.680 20.236261
67.685 20.698835
67.690 20.359499
67.695 20.774857
67.700 20.896704
67.705 21.46932
67.710 21.867153
67.715 22.390457
67.720 22.463894
67.725 22.631115
67.730 22.445559
67.735 22.482801
67.740 22.147785
67.745 21.772917
67.750 21.396418
67.755 20.829704
67.760 20.157602
67.765 19.706217
67.770 19.644308
67.775 19.877628
67.780 19.930874
67.785 19.69697
67.790 20.40766
67.795 21.043884
67.800 20.926769
67.805 20.736858
67.810 20.596411
67.815 20.426846
67.820 20.106663
67.825 19.230413
67.830 19.357786
67.835 18.963081
67.840 18.40798
67.845 18.426411
67.850 18.632345
67.855 19.483973
67.860 19.965027
67.865 19.505394
67.870 19.653116
67.875 20.006571
67.880 19.698935
67.885 19.597488
67.890 18.984732
67.895 18.696394
67.900 19.134962
67.905 19.441469
67.910 19.303942
67.915 19.472128
67.920 19.871828
67.925 19.962671
67.930 19.971342
67.935 20.292585
67.940 20.697418
67.945 21.403231
67.950 21.287285
67.955 20.961458
67.960 20.883982
67.965 20.583345
67.970 20.473175
67.975 20.357944
67.980 20.201582
67.985 20.149525
67.990 19.468897
67.995 19.472731
68.000 20.077438
68.005 19.883791
68.010 19.756409
68.015 19.460575
68.020 19.547689
68.025 20.321775
68.030 20.499487
68.035 20.556749
68.040 21.419271
68.045 21.586937
68.050 22.044813
68.055 22.471182
68.060 22.382305
68.065 22.308619
68.070 21.647285
68.075 20.339792
68.080 20.45079
68.085 20.180346
68.090 20.207811
68.095 20.550234
68.100 20.763008
68.105 21.223579
68.110 21.273619
68.115 21.105141
68.120 21.036917
68.125 20.68763
68.130 20.522427
68.135 20.645742
68.140 20.846907
68.145 20.972334
68.150 20.699087
68.155 20.627104
68.160 20.571024
68.165 20.544353
68.170 20.380634
68.175 19.917593
68.180 20.306301
68.185 20.598061
68.190 20.760239
68.195 21.122049
68.200 20.866913
68.205 20.83614
68.210 21.163797
68.215 21.472927
68.220 21.606836
68.225 21.294361
68.230 20.79999
68.235 21.078917
68.240 21.032219
68.245 20.679518
68.250 19.776159
68.255 19.809111
68.260 19.738922
68.265 19.763256
68.270 19.593687
68.275 19.027672
68.280 18.972841
68.285 18.833874
68.290 18.815666
68.295 19.420261
68.300 18.936014
68.305 18.85342
68.310 18.763603
68.315 18.869009
68.320 19.024666
68.325 19.159523
68.330 19.205503
68.335 19.670712
68.340 19.852734
68.345 20.789122
68.350 20.81744
68.355 20.672377
68.360 20.384014
68.365 20.178621
68.370 20.514841
68.375 20.747005
68.380 20.163729
68.385 20.575346
68.390 20.815586
68.395 20.603561
68.400 20.199442
68.405 19.966602
68.410 20.067194
68.415 19.981861
68.420 19.175611
68.425 19.432951
68.430 20.583202
68.435 20.796373
68.440 20.763273
68.445 21.416862
68.450 22.317934
68.455 22.682816
68.460 22.267519
68.465 21.555737
68.470 22.060001
68.475 22.379333
68.480 21.095877
68.485 20.7446
68.490 20.82546
68.495 20.841291
68.500 20.804005
68.505 20.056995
68.510 19.627768
68.515 20.196352
68.520 20.121008
68.525 20.350632
68.530 20.529261
68.535 20.151018
68.540 20.574736
68.545 20.337778
68.550 19.994007
68.555 19.442108
68.560 19.284044
68.565 19.220604
68.570 19.738897
68.575 19.964455
68.580 19.950006
68.585 20.730747
68.590 21.21526
68.595 21.198355
68.600 21.479767
68.605 21.33165
68.610 21.595623
68.615 22.085287
68.620 21.392923
68.625 21.051493
68.630 20.944889
68.635 20.383585
68.640 20.497025
68.645 19.940327
68.650 19.251814
68.655 18.917839
68.660 19.040749
68.665 19.334845
68.670 20.000114
68.675 19.972607
68.680 20.118427
68.685 20.39352
68.690 20.511467
68.695 20.14538
68.700 19.9083
68.705 19.738771
68.710 19.827019
68.715 19.687834
68.720 19.670246
68.725 20.416969
68.730 21.384716
68.735 21.436262
68.740 21.771608
68.745 22.226568
68.750 22.589111
68.755 22.724966
68.760 21.970018
68.765 21.117121
68.770 21.342894
68.775 20.546179
68.780 20.362139
68.785 20.835623
68.790 21.197201
68.795 21.481495
68.800 21.507803
68.805 21.141232
68.810 21.296745
68.815 21.512222
68.820 21.184204
68.825 21.145166
68.830 21.966274
68.835 22.242132
68.840 22.669477
68.845 23.034538
68.850 22.569122
68.855 22.684164
68.860 23.075085
68.865 22.463749
68.870 22.916592
68.875 22.992348
68.880 22.765402
68.885 22.58849
68.890 22.123659
68.895 21.793879
68.900 22.418219
68.905 22.020958
68.910 21.800499
68.915 21.625927
68.920 22.112009
68.925 21.948355
68.930 21.843525
68.935 21.510336
68.940 21.832283
68.945 22.016127
68.950 22.03216
68.955 21.488241
68.960 21.737974
68.965 21.797314
68.970 21.940722
68.975 21.466038
68.980 21.306498
68.985 21.760359
68.990 21.880995
68.995 22.19529
69.000 22.476494
69.005 22.850534
69.010 24.067089
69.015 23.925926
69.020 23.789104
69.025 24.42642
69.030 24.320374
69.035 23.972912
69.040 23.479944
69.045 23.206408
69.050 23.320295
69.055 23.61381
69.060 24.310375
69.065 24.471373
69.070 24.723967
69.075 24.815639
69.080 25.191345
69.085 26.036997
69.090 26.535093
69.095 25.401581
69.100 25.60269
69.105 26.056448
69.110 26.028666
69.115 25.234379
69.120 24.764122
69.125 24.75304
69.130 25.011087
69.135 24.749601
69.140 25.127285
69.145 25.172577
69.150 25.150839
69.155 25.630426
69.160 25.396837
69.165 24.8657
69.170 25.141405
69.175 24.822088
69.180 24.978685
69.185 25.345356
69.190 24.966162
69.195 25.309797
69.200 25.051651
69.205 24.970434
69.210 25.649103
69.215 25.670435
69.220 25.493509
69.225 25.380749
69.230 25.825371
69.235 26.329119
69.240 25.679337
69.245 25.304415
69.250 25.137667
69.255 25.398529
69.260 25.723907
69.265 25.499231
69.270 26.308191
69.275 27.03516
69.280 27.372423
69.285 27.85667
69.290 28.207504
69.295 28.557037
69.300 29.234482
69.305 28.951155
69.310 29.70541
69.315 30.117575
69.320 30.42202
69.325 29.641762
69.330 29.085453
69.335 28.745485
69.340 28.195179
69.345 27.9883
69.350 29.011791
69.355 29.313547
69.360 29.867723
69.365 30.512978
69.370 30.897375
69.375 30.802204
69.380 30.70911
69.385 29.54862
69.390 29.091906
69.395 28.532377
69.400 27.75606
69.405 27.615606
69.410 28.160849
69.415 28.450533
69.420 28.408241
69.425 28.607885
69.430 28.815668
69.435 29.6131
69.440 29.535273
69.445 29.66506
69.450 29.974897
69.455 30.11725
69.460 30.091181
69.465 29.796715
69.470 29.616013
69.475 29.136124
69.480 28.919403
69.485 28.39604
69.490 28.624884
69.495 28.915125
69.500 29.476498
69.505 29.449677
69.510 29.768219
69.515 29.80846
69.520 30.011259
69.525 30.419268
69.530 30.597435
69.535 30.777956
69.540 31.074747
69.545 31.068283
69.550 30.222597
69.555 29.473717
69.560 29.24201
69.565 29.139097
69.570 29.09907
69.575 28.992214
69.580 28.485743
69.585 28.395735
69.590 28.39994
69.595 28.086298
69.600 27.995516
69.605 27.887949
69.610 27.611652
69.615 27.875158
69.620 27.598722
69.625 27.769629
69.630 27.597666
69.635 27.216616
69.640 26.864471
69.645 27.210497
69.650 27.269035
69.655 27.000834
69.660 27.40255
69.665 27.890924
69.670 28.43327
69.675 28.996065
69.680 29.140442
69.685 29.827057
69.690 30.300192
69.695 29.792221
69.700 29.085554
69.705 28.000898
69.710 27.915586
69.715 27.515621
69.720 27.232828
69.725 26.883701
69.730 27.233397
69.735 27.679626
69.740 27.647066
69.745 27.451109
69.750 27.670355
69.755 27.706959
69.760 27.834146
69.765 27.236177
69.770 27.678387
69.775 27.466372
69.780 27.13373
69.785 27.475094
69.790 26.658287
69.795 26.334309
69.800 26.141737
69.805 25.717007
69.810 25.842176
69.815 25.197674
69.820 24.135639
69.825 24.280043
69.830 24.038416
69.835 23.482454
69.840 22.982346
69.845 23.453672
69.850 23.944542
69.855 23.937414
69.860 24.082268
69.865 23.879763
69.870 24.269922
69.875 24.355087
69.880 24.182041
69.885 24.084173
69.890 24.047586
69.895 24.273771
69.900 23.863968
69.905 23.831978
69.910 23.062475
69.915 22.561846
69.920 22.698805
69.925 22.717342
69.930 22.496429
69.935 22.798443
69.940 22.630262
69.945 22.873102
69.950 22.946859
69.955 23.228783
69.960 23.193501
69.965 23.666182
69.970 23.418243
69.975 23.43581
69.980 23.077673
69.985 22.593222
69.990 22.048391
69.995 21.75794
70.000 21.782213
70.005 21.565094
70.010 21.875177
70.015 22.348919
70.020 22.236284
70.025 21.793324
70.030 21.422281
70.035 21.016411
70.040 20.54323
70.045 19.931625
70.050 20.344032
70.055 20.369558
70.060 19.772703
70.065 19.349731
70.070 18.883007
70.075 19.475382
70.080 19.425598
70.085 19.275026
70.090 19.910376
70.095 20.788488
70.100 21.268242
70.105 21.472414
70.110 21.764257
70.115 21.82563
70.120 21.435677
70.125 21.585409
70.130 21.611134
70.135 21.615595
70.140 21.859028
70.145 21.855366
70.150 21.783272
70.155 21.766562
70.160 21.435158
70.165 20.822725
70.170 21.295776
70.175 20.533451
70.180 19.924736
70.185 19.952717
70.190 19.907312
70.195 20.468485
70.200 20.617367
70.205 20.072948
70.210 19.979092
70.215 20.15287
70.220 20.191736
70.225 19.823214
70.230 19.30982
70.235 19.539734
70.240 19.981457
70.245 20.237389
70.250 20.456417
70.255 20.505005
70.260 20.67662
70.265 20.836533
70.270 20.951912
70.275 20.968201
70.280 20.590488
70.285 20.405121
70.290 20.397976
70.295 19.984209
70.300 19.489719
70.305 19.337133
70.310 19.03853
70.315 19.868158
70.320 20.200441
70.325 20.21693
70.330 21.032553
70.335 21.567209
70.340 21.618168
70.345 21.545946
70.350 20.874069
70.355 20.702379
70.360 21.067558
70.365 20.502243
70.370 19.933258
70.375 19.796974
70.380 20.379072
70.385 20.361311
70.390 20.327963
70.395 20.364149
70.400 20.7969
70.405 21.01969
70.410 20.538536
70.415 20.817623
70.420 20.630611
70.425 19.872543
70.430 19.24403
70.435 19.09259
70.440 19.311798
70.445 19.363503
70.450 19.124254
70.455 19.244892
70.460 20.269861
70.465 20.754061
70.470 20.937885
70.475 20.784151
70.480 20.824991
70.485 20.467196
70.490 20.923367
70.495 20.900299
70.500 20.409266
70.505 19.920832
70.510 20.683117
70.515 21.536261
70.520 21.897993
70.525 21.309374
70.530 21.171219
70.535 21.363152
70.540 21.608284
70.545 21.117216
70.550 21.089476
70.555 20.592562
70.560 20.839672
70.565 20.792944
70.570 20.431448
70.575 20.177288
70.580 19.713356
70.585 18.85836
70.590 19.325666
70.595 19.432344
70.600 19.129297
70.605 19.177773
70.610 19.191278
70.615 19.360373
70.620 19.637899
70.625 19.096552
70.630 18.671234
70.635 18.519934
70.640 18.79261
70.645 18.686943
70.650 18.203554
70.655 17.815149
70.660 18.207468
70.665 18.05204
70.670 18.114569
70.675 17.984177
70.680 18.764967
70.685 19.599131
70.690 20.075178
70.695 20.112068
70.700 19.895296
70.705 20.243864
70.710 20.405811
70.715 20.116436
70.720 20.228022
70.725 20.092567
70.730 19.674383
70.735 19.612036
70.740 18.91267
70.745 18.337496
70.750 18.13785
70.755 18.085497
70.760 18.120758
70.765 18.138803
70.770 18.661085
70.775 19.070578
70.780 19.142185
70.785 18.76512
70.790 18.800858
70.795 18.720261
70.800 18.809662
70.805 18.658737
70.810 18.586794
70.815 18.850754
70.820 19.248821
70.825 18.736305
70.830 18.808653
70.835 18.241201
70.840 17.903866
70.845 17.932024
70.850 17.425602
70.855 17.304258
70.860 16.980488
70.865 17.222588
70.870 17.653934
70.875 17.630655
70.880 17.823891
70.885 17.987898
70.890 18.846758
70.895 19.248631
70.900 19.525473
70.905 19.509525
70.910 19.94595
70.915 20.134542
70.920 19.655989
70.925 18.793501
70.930 18.441334
70.935 18.52216
70.940 19.491161
70.945 19.161406
70.950 19.249811
70.955 18.663567
70.960 18.736647
70.965 19.159157
70.970 19.371841
70.975 19.005228
70.980 19.186571
70.985 19.488173
70.990 19.650995
70.995 19.583452
71.000 19.328159
71.005 19.46623
71.010 19.420263
71.015 19.375153
71.020 19.251522
71.025 19.573545
71.030 19.62751
71.035 19.591099
71.040 19.067822
71.045 18.525116
71.050 18.065483
71.055 18.561163
71.060 18.297277
71.065 17.926266
71.070 17.887146
71.075 17.927828
71.080 18.493925
71.085 19.560997
71.090 19.901125
71.095 20.414606
71.100 20.010178
71.105 19.773735
71.110 19.958355
71.115 19.732916
71.120 19.282774
71.125 18.915943
71.130 19.401155
71.135 19.664288
71.140 20.097429
71.145 20.230377
71.150 19.953064
71.155 19.788109
71.160 19.550032
71.165 19.505062
71.170 20.05711
71.175 20.29216
71.180 19.413839
71.185 19.159407
71.190 19.083755
71.195 19.23522
71.200 18.894455
71.205 18.113071
71.210 17.913153
71.215 18.683704
71.220 18.608952
71.225 18.921928
71.230 19.315641
71.235 19.047022
71.240 19.135225
71.245 18.96537
71.250 18.872364
71.255 18.725573
71.260 17.683559
71.265 17.741831
71.270 18.436419
71.275 18.702757
71.280 19.004498
71.285 19.542349
71.290 20.127161
71.295 20.519852
71.300 19.970043
71.305 19.199766
71.310 18.996683
71.315 18.927677
71.320 18.35845
71.325 18.036932
71.330 17.890242
71.335 18.005114
71.340 18.164955
71.345 17.734928
71.350 17.804962
71.355 18.256102
71.360 18.30533
71.365 18.730507
71.370 18.811134
71.375 18.994656
71.380 19.554939
71.385 19.190382
71.390 18.617506
71.395 18.614307
71.400 18.583773
71.405 18.556019
71.410 18.149092
71.415 17.789562
71.420 17.91066
71.425 18.334652
71.430 18.033966
71.435 17.351578
71.440 17.606298
71.445 17.103312
71.450 16.974899
71.455 16.878645
71.460 17.522425
71.465 18.103167
71.470 18.422365
71.475 18.542498
71.480 19.061981
71.485 19.411497
71.490 18.931263
71.495 18.60853
71.500 18.228189
71.505 18.388695
71.510 17.824226
71.515 17.667662
71.520 18.294979
71.525 18.444378
71.530 18.19289
71.535 18.363773
71.540 18.118824
71.545 18.686443
71.550 18.473425
71.555 17.965815
71.560 17.884787
71.565 18.011318
71.570 18.221151
71.575 17.98885
71.580 17.928436
71.585 18.357128
71.590 17.988022
71.595 17.727726
71.600 17.381443
71.605 17.422993
71.610 17.297903
71.615 17.255219
71.620 17.878479
71.625 18.047018
71.630 18.551716
71.635 18.735271
71.640 18.885733
71.645 19.045229
71.650 18.859459
71.655 17.948915
71.660 17.766813
71.665 17.698383
71.670 17.231678
71.675 17.283789
71.680 17.364342
71.685 17.568214
71.690 17.688303
71.695 17.579939
71.700 17.403564
71.705 17.986023
71.710 17.609324
71.715 17.889292
71.720 18.047855
71.725 18.48881
71.730 18.662804
71.735 18.438414
71.740 18.83576
71.745 19.566271
71.750 19.226601
71.755 18.552231
71.760 18.562168
71.765 18.509188
71.770 18.643099
71.775 18.617998
71.780 18.847769
71.785 19.360727
71.790 19.539436
71.795 19.662836
71.800 19.629753
71.805 19.928604
71.810 19.783276
71.815 19.153082
71.820 19.225643
71.825 18.665073
71.830 18.194115
71.835 18.14249
71.840 17.774548
71.845 17.378492
71.850 17.298601
71.855 17.119707
71.860 17.566896
71.865 17.746689
71.870 17.533213
71.875 18.022064
71.880 18.184786
71.885 18.554266
71.890 19.039295
71.895 18.848488
71.900 18.450708
71.905 18.729099
71.910 18.31815
71.915 18.343266
71.920 18.016699
71.925 17.643908
71.930 18.352631
71.935 18.389757
71.940 18.21104
71.945 18.301344
71.950 18.539778
71.955 18.858145
71.960 19.321302
71.965 18.534754
71.970 18.657269
71.975 18.459293
71.980 18.463844
71.985 18.657507
71.990 18.893763
71.995 19.062649
72.000 19.84967
72.005 19.788895
72.010 19.078604
72.015 18.482458
72.020 17.922619
72.025 17.256548
72.030 16.947971
72.035 16.913904
72.040 17.035936
72.045 17.761911
72.050 18.304506
72.055 17.862087
72.060 17.698957
72.065 18.134886
72.070 18.75852
72.075 18.526136
72.080 17.882259
72.085 18.010269
72.090 18.462885
72.095 18.665443
72.100 17.975098
72.105 18.672962
72.110 19.466999
72.115 20.021887
72.120 20.25189
72.125 20.187462
72.130 20.240135
72.135 20.15513
72.140 19.222137
72.145 19.431396
72.150 18.509245
72.155 18.501389
72.160 18.657871
72.165 18.413567
72.170 18.561731
72.175 18.572508
72.180 18.951319
72.185 19.617718
72.190 19.778763
72.195 19.750788
72.200 19.49114
72.205 19.139502
72.210 18.706831
72.215 17.677631
72.220 17.490553
72.225 17.420677
72.230 17.33687
72.235 17.625235
72.240 17.664017
72.245 17.6847
72.250 17.583855
72.255 17.648085
72.260 17.470037
72.265 17.96349
72.270 18.134872
72.275 18.685444
72.280 18.637894
72.285 18.805237
72.290 18.576326
72.295 18.847992
72.300 18.599039
72.305 18.391636
72.310 18.174685
72.315 18.306074
72.320 18.619963
72.325 18.278849
72.330 18.137173
72.335 18.389275
72.340 18.97374
72.345 18.925278
72.350 19.362808
72.355 19.019754
72.360 19.372225
72.365 19.657295
72.370 19.359715
72.375 19.099018
72.380 19.307398
72.385 18.477337
72.390 18.419966
72.395 17.857286
72.400 17.535259
72.405 17.142971
72.410 17.260588
72.415 17.759016
72.420 18.349712
72.425 18.048822
72.430 18.055153
72.435 17.982115
72.440 18.111906
72.445 18.42441
72.450 17.896078
72.455 17.72879
72.460 18.10194
72.465 17.7379
72.470 17.664394
72.475 17.122442
72.480 16.179367
72.485 16.245766
72.490 16.406004
72.495 16.719866
72.500 16.839626
72.505 16.662872
72.510 16.937803
72.515 17.192791
72.520 18.438322
72.525 18.82069
72.530 18.547625
72.535 18.687017
72.540 18.647537
72.545 18.641869
72.550 18.724709
72.555 17.453251
72.560 17.500629
72.565 17.553152
72.570 17.099934
72.575 17.295639
72.580 17.394356
72.585 17.570997
72.590 17.631489
72.595 17.375614
72.600 17.573687
72.605 17.740179
72.610 17.545692
72.615 17.858381
72.620 18.034937
72.625 17.737785
72.630 17.373201
72.635 17.044468
72.640 17.380302
72.645 17.534119
72.650 17.314869
72.655 17.609604
72.660 18.051519
72.665 19.07461
72.670 19.650574
72.675 19.812019
72.680 19.501993
72.685 19.207998
72.690 19.212408
72.695 19.339914
72.700 18.703228
72.705 18.288002
72.710 17.935759
72.715 17.922388
72.720 17.488647
72.725 16.772894
72.730 16.784096
72.735 17.143862
72.740 17.288048
72.745 17.636734
72.750 17.843115
72.755 18.309624
72.760 18.313076
72.765 18.214651
72.770 18.307449
72.775 18.010695
72.780 17.716061
72.785 17.719513
72.790 17.149366
72.795 17.105246
72.800 16.649181
72.805 16.193966
72.810 16.135387
72.815 16.096708
72.820 15.88451
72.825 16.013195
72.830 16.108788
72.835 15.945882
72.840 15.967536
72.845 16.419151
72.850 16.547308
72.855 16.952351
72.860 17.384436
72.865 17.349319
72.870 17.315434
72.875 17.281279
72.880 17.015209
72.885 16.946335
72.890 16.426693
72.895 16.877268
72.900 17.246956
72.905 17.505745
72.910 17.750273
72.915 17.824163
72.920 18.250961
72.925 18.100836
72.930 17.226421
72.935 17.114607
72.940 17.446762
72.945 17.631727
72.950 17.783627
72.955 17.660433
72.960 17.588646
72.965 18.184767
72.970 18.523439
72.975 17.989836
72.980 17.118568
72.985 16.81102
72.990 16.674696
72.995 16.933847
73.000 16.407022
