!@!!GADDS PLOTSO FILE: Chi integration type
!@!!Title/SampleName: map-3b
!@!!Comment: ?
!@!!User: Bruker Instrument Administrator
!@!!Site: University of Illinois Chicago
!@!!Frame: map-3b_01_000.gfrm
!@!!Wavelengths    1.54184   1.54056   1.54439
!@!!Frame angles: 2Theta: 63.000 Omega: 50.000 Phi: 0.000 Chi: 90.000
!@!!Integration range: 2Theta: 53.000 to 73.000  Gamma: -105.000 to -75.000
!@!!Integration method: bin normalized
!@!N
!@!SS
!@!M
!@!L 0.0 0.0 0.0 0.0
!@!XDegrees
!@!YCounts
53.000 7.371917
53.005 6.909347
53.010 7.031443
53.015 7.294258
53.020 7.414808
53.025 7.088909
53.030 6.454696
53.035 6.59465
53.040 6.49062
53.045 6.27928
53.050 6.484321
53.055 6.657406
53.060 7.178641
53.065 7.608016
53.070 7.655576
53.075 7.733572
53.080 7.887239
53.085 7.857214
53.090 7.939703
53.095 7.969012
53.100 7.840656
53.105 7.778679
53.110 7.648798
53.115 7.166584
53.120 7.071007
53.125 6.96636
53.130 6.733675
53.135 6.480523
53.140 6.384343
53.145 6.811537
53.150 7.503039
53.155 7.684856
53.160 7.63012
53.165 8.171656
53.170 8.37703
53.175 8.429406
53.180 8.416349
53.185 8.288116
53.190 8.124115
53.195 7.997674
53.200 7.768629
53.205 7.663074
53.210 7.703152
53.215 7.427401
53.220 7.522141
53.225 7.988167
53.230 8.198284
53.235 8.285996
53.240 8.653634
53.245 8.594296
53.250 8.187029
53.255 7.733149
53.260 7.529073
53.265 7.10687
53.270 6.915458
53.275 6.401236
53.280 6.690021
53.285 7.243032
53.290 7.322248
53.295 7.500901
53.300 7.988873
53.305 8.488414
53.310 8.712793
53.315 8.583375
53.320 8.652429
53.325 9.001676
53.330 8.940828
53.335 8.669603
53.340 8.535846
53.345 8.659757
53.350 8.345939
53.355 8.22727
53.360 8.242596
53.365 7.944417
53.370 7.881589
53.375 7.888398
53.380 8.380496
53.385 8.471286
53.390 8.333364
53.395 8.133451
53.400 8.451477
53.405 8.042778
53.410 7.543196
53.415 6.648139
53.420 5.967044
53.425 5.564551
53.430 5.480781
53.435 5.657081
53.440 5.812829
53.445 5.90877
53.450 6.260468
53.455 7.049695
53.460 7.219884
53.465 7.299664
53.470 7.535613
53.475 7.65049
53.480 7.99012
53.485 8.232632
53.490 8.086713
53.495 8.135159
53.500 7.802845
53.505 7.966858
53.510 8.152349
53.515 8.392888
53.520 8.712388
53.525 8.950291
53.530 9.037437
53.535 9.172443
53.540 8.877067
53.545 9.15288
53.550 8.526236
53.555 8.212172
53.560 8.333816
53.565 8.290794
53.570 8.556284
53.575 9.167858
53.580 9.104788
53.585 9.386583
53.590 9.550328
53.595 10.013974
53.600 10.563031
53.605 10.331498
53.610 9.917663
53.615 10.229323
53.620 10.551379
53.625 10.665435
53.630 10.273598
53.635 10.102136
53.640 10.259911
53.645 10.052726
53.650 9.770788
53.655 9.263056
53.660 8.929321
53.665 9.038337
53.670 8.359738
53.675 8.223465
53.680 8.265208
53.685 8.335233
53.690 8.33093
53.695 8.123981
53.700 8.04575
53.705 8.173326
53.710 8.1108
53.715 8.258467
53.720 8.123599
53.725 8.317816
53.730 8.749302
53.735 9.293455
53.740 9.365427
53.745 9.553221
53.750 9.436222
53.755 9.336619
53.760 9.351786
53.765 8.864143
53.770 8.382651
53.775 8.076074
53.780 7.94344
53.785 8.444097
53.790 8.845539
53.795 8.593261
53.800 8.971766
53.805 9.010123
53.810 9.345575
53.815 9.276109
53.820 8.795904
53.825 8.581375
53.830 8.731236
53.835 8.604437
53.840 8.691047
53.845 8.212753
53.850 8.09796
53.855 7.985072
53.860 7.802728
53.865 7.831171
53.870 7.507233
53.875 7.764436
53.880 8.087334
53.885 8.552564
53.890 8.482584
53.895 8.324829
53.900 8.178492
53.905 8.284935
53.910 8.094163
53.915 8.400121
53.920 8.668791
53.925 8.961534
53.930 9.329615
53.935 9.427394
53.940 9.389865
53.945 9.388226
53.950 9.097585
53.955 8.848556
53.960 9.016984
53.965 9.431304
53.970 9.472521
53.975 9.556818
53.980 9.70731
53.985 9.350988
53.990 9.265494
53.995 8.856873
54.000 8.524773
54.005 9.005389
54.010 8.881145
54.015 8.924601
54.020 9.501462
54.025 9.705727
54.030 10.003095
54.035 9.714662
54.040 9.776418
54.045 9.755301
54.050 9.630392
54.055 9.100087
54.060 8.740808
54.065 8.623644
54.070 8.401832
54.075 8.15283
54.080 8.272515
54.085 8.443137
54.090 8.408711
54.095 8.644952
54.100 8.821676
54.105 8.99556
54.110 9.144109
54.115 9.019888
54.120 8.724898
54.125 9.057309
54.130 8.905993
54.135 8.773572
54.140 8.839932
54.145 8.625701
54.150 8.96142
54.155 8.938271
54.160 8.838592
54.165 9.177164
54.170 9.162563
54.175 9.245538
54.180 9.611859
54.185 9.558375
54.190 9.691467
54.195 9.790118
54.200 9.98497
54.205 9.797578
54.210 9.431216
54.215 9.067059
54.220 8.725325
54.225 8.480276
54.230 8.005622
54.235 8.148417
54.240 8.351429
54.245 8.356518
54.250 8.348379
54.255 9.054502
54.260 9.067533
54.265 8.85436
54.270 8.962864
54.275 9.042237
54.280 8.941236
54.285 8.805355
54.290 8.401807
54.295 8.530005
54.300 8.795962
54.305 8.893641
54.310 9.083049
54.315 9.05842
54.320 9.093342
54.325 9.372807
54.330 9.331448
54.335 8.999608
54.340 9.076029
54.345 9.415196
54.350 9.656651
54.355 9.612385
54.360 9.67979
54.365 9.698244
54.370 10.080403
54.375 9.68574
54.380 9.194739
54.385 9.214619
54.390 9.313509
54.395 9.323931
54.400 9.272834
54.405 8.77359
54.410 8.990859
54.415 8.863413
54.420 8.347116
54.425 8.215273
54.430 8.075221
54.435 8.278506
54.440 8.683928
54.445 9.105372
54.450 9.167191
54.455 9.646999
54.460 9.742576
54.465 9.718108
54.470 9.598577
54.475 9.859068
54.480 10.091235
54.485 9.69461
54.490 9.328225
54.495 9.284618
54.500 9.243386
54.505 9.114065
54.510 8.891129
54.515 8.760494
54.520 9.242435
54.525 9.419814
54.530 9.789082
54.535 10.217289
54.540 10.245097
54.545 10.059649
54.550 9.960172
54.555 9.80457
54.560 9.84806
54.565 8.948554
54.570 8.995566
54.575 9.14396
54.580 8.83636
54.585 9.011623
54.590 9.151566
54.595 9.236729
54.600 9.257347
54.605 8.980127
54.610 8.589507
54.615 9.134504
54.620 9.721515
54.625 9.796053
54.630 9.834782
54.635 10.013848
54.640 9.930224
54.645 10.421743
54.650 9.827003
54.655 9.329195
54.660 9.026625
54.665 9.131936
54.670 9.108384
54.675 8.780731
54.680 8.818998
54.685 9.047711
54.690 9.281522
54.695 9.566903
54.700 9.886353
54.705 10.140322
54.710 10.083821
54.715 9.980306
54.720 9.802331
54.725 9.792281
54.730 9.71877
54.735 9.478472
54.740 9.594358
54.745 9.764344
54.750 9.546994
54.755 9.463848
54.760 9.662894
54.765 9.778446
54.770 10.215002
54.775 10.288578
54.780 10.310934
54.785 10.596045
54.790 11.019779
54.795 10.682022
54.800 10.130112
54.805 10.117817
54.810 10.547009
54.815 10.450691
54.820 10.222013
54.825 9.81107
54.830 9.984157
54.835 10.089459
54.840 9.228732
54.845 9.120172
54.850 9.244412
54.855 9.587417
54.860 9.783842
54.865 10.008159
54.870 10.119864
54.875 10.415898
54.880 10.119925
54.885 10.351399
54.890 10.089499
54.895 10.278929
54.900 10.21654
54.905 10.324768
54.910 10.775036
54.915 11.660191
54.920 11.641455
54.925 11.420127
54.930 11.098656
54.935 11.300955
54.940 11.409749
54.945 10.784173
54.950 10.146651
54.955 10.223733
54.960 10.705338
54.965 10.810697
54.970 10.812348
54.975 10.828421
54.980 11.142508
54.985 11.068052
54.990 11.156728
54.995 11.119145
55.000 10.925515
55.005 10.777064
55.010 11.139967
55.015 10.874866
55.020 10.81005
55.025 10.815384
55.030 10.659981
55.035 11.02201
55.040 10.491211
55.045 9.698348
55.050 9.997817
55.055 9.477977
55.060 9.613075
55.065 9.657245
55.070 9.663991
55.075 10.103971
55.080 10.248292
55.085 9.838995
55.090 9.821986
55.095 9.688159
55.100 10.125899
55.105 10.214515
55.110 10.449723
55.115 10.773557
55.120 11.509502
55.125 11.870673
55.130 11.823663
55.135 11.796581
55.140 11.515782
55.145 11.408459
55.150 11.0423
55.155 10.335974
55.160 9.990382
55.165 9.898268
55.170 9.826003
55.175 10.031024
55.180 10.180148
55.185 10.60092
55.190 10.655501
55.195 10.07021
55.200 9.622704
55.205 9.376563
55.210 9.110326
55.215 8.839114
55.220 8.667883
55.225 9.163645
55.230 9.773066
55.235 10.240664
55.240 10.439936
55.245 10.959377
55.250 11.089869
55.255 11.037371
55.260 10.76838
55.265 11.062214
55.270 10.952332
55.275 10.867182
55.280 10.800076
55.285 10.787108
55.290 11.575313
55.295 11.405518
55.300 10.760659
55.305 10.494438
55.310 10.637956
55.315 10.539275
55.320 10.48598
55.325 10.604589
55.330 10.894455
55.335 11.079888
55.340 11.428514
55.345 11.279337
55.350 10.953959
55.355 10.978415
55.360 11.451159
55.365 11.768081
55.370 11.851791
55.375 11.724566
55.380 11.32412
55.385 11.319264
55.390 11.372783
55.395 10.431026
55.400 10.185218
55.405 10.332789
55.410 10.509756
55.415 11.263423
55.420 11.234504
55.425 11.2574
55.430 11.971919
55.435 12.353752
55.440 12.52486
55.445 12.130283
55.450 11.833438
55.455 11.978263
55.460 11.530442
55.465 11.257583
55.470 11.174072
55.475 10.756401
55.480 10.658435
55.485 10.412018
55.490 10.468608
55.495 11.267491
55.500 10.995511
55.505 10.882832
55.510 11.011183
55.515 11.309509
55.520 12.030963
55.525 11.923265
55.530 11.479283
55.535 11.798167
55.540 12.559198
55.545 12.557304
55.550 12.438781
55.555 12.122881
55.560 11.553895
55.565 11.415488
55.570 10.75001
55.575 10.055106
55.580 10.318144
55.585 10.469993
55.590 10.886923
55.595 11.153251
55.600 11.129384
55.605 11.613662
55.610 11.808184
55.615 11.429539
55.620 11.280419
55.625 10.860588
55.630 11.067924
55.635 11.398142
55.640 11.135044
55.645 10.86999
55.650 10.966052
55.655 11.092378
55.660 10.913068
55.665 10.576354
55.670 10.553739
55.675 10.342933
55.680 10.07651
55.685 10.255505
55.690 10.675867
55.695 11.145366
55.700 11.201303
55.705 11.194887
55.710 11.741936
55.715 12.098701
55.720 11.712046
55.725 11.354399
55.730 11.165024
55.735 11.0158
55.740 10.883166
55.745 10.301129
55.750 10.372766
55.755 10.418399
55.760 10.436502
55.765 10.787638
55.770 11.01263
55.775 11.297647
55.780 11.622918
55.785 11.627848
55.790 11.532967
55.795 11.326612
55.800 10.874434
55.805 10.567472
55.810 10.445025
55.815 10.758169
55.820 10.836069
55.825 10.780267
55.830 10.902762
55.835 11.185705
55.840 11.650197
55.845 11.347898
55.850 11.467914
55.855 11.618607
55.860 11.985511
55.865 11.785748
55.870 11.590454
55.875 11.63745
55.880 11.550366
55.885 11.452308
55.890 11.459079
55.895 11.372334
55.900 11.392611
55.905 11.358292
55.910 11.492966
55.915 11.867581
55.920 12.227064
55.925 12.379444
55.930 12.583273
55.935 12.683379
55.940 12.50149
55.945 12.694913
55.950 12.563465
55.955 12.25799
55.960 12.360804
55.965 12.601315
55.970 12.818684
55.975 12.204494
55.980 12.02757
55.985 12.113801
55.990 11.275859
55.995 10.743673
56.000 10.494797
56.005 10.463871
56.010 10.527141
56.015 10.283258
56.020 10.30559
56.025 10.579386
56.030 11.050393
56.035 11.171208
56.040 10.99868
56.045 11.065197
56.050 11.333881
56.055 11.553301
56.060 11.488378
56.065 11.02668
56.070 10.771117
56.075 11.166323
56.080 11.158358
56.085 10.809371
56.090 10.475174
56.095 10.725668
56.100 11.243214
56.105 11.398665
56.110 11.503855
56.115 12.149504
56.120 12.067895
56.125 11.974044
56.130 11.934142
56.135 11.691197
56.140 11.99276
56.145 11.881567
56.150 11.464857
56.155 11.796422
56.160 11.853542
56.165 11.480193
56.170 11.637553
56.175 11.398744
56.180 10.918376
56.185 10.737135
56.190 10.489288
56.195 10.680566
56.200 10.6456
56.205 10.294218
56.210 9.964442
56.215 10.42653
56.220 10.242599
56.225 10.132495
56.230 10.040315
56.235 10.378859
56.240 10.961847
56.245 11.628278
56.250 11.232756
56.255 11.939371
56.260 12.152086
56.265 12.25118
56.270 12.184207
56.275 12.344376
56.280 12.018104
56.285 12.327237
56.290 12.278543
56.295 11.924224
56.300 11.999566
56.305 11.817227
56.310 11.295579
56.315 11.712648
56.320 11.666552
56.325 11.798992
56.330 12.086461
56.335 11.612701
56.340 11.209881
56.345 10.969101
56.350 10.937961
56.355 10.502275
56.360 10.621856
56.365 10.577266
56.370 10.888914
56.375 10.949466
56.380 11.082335
56.385 10.654712
56.390 10.653301
56.395 10.135289
56.400 10.020661
56.405 9.98713
56.410 10.244788
56.415 10.165878
56.420 10.656779
56.425 11.132019
56.430 11.326236
56.435 11.682717
56.440 12.299186
56.445 12.161571
56.450 12.357505
56.455 12.427061
56.460 12.88748
56.465 13.004119
56.470 12.493945
56.475 12.106493
56.480 11.960201
56.485 11.881759
56.490 12.115679
56.495 12.182911
56.500 12.072193
56.505 12.190022
56.510 12.22096
56.515 12.699672
56.520 12.504622
56.525 12.177381
56.530 12.071884
56.535 12.248818
56.540 12.252149
56.545 12.375384
56.550 12.115753
56.555 12.203613
56.560 12.360003
56.565 12.026641
56.570 12.184319
56.575 11.975367
56.580 12.19681
56.585 12.454242
56.590 12.251604
56.595 12.179431
56.600 12.881824
56.605 12.926929
56.610 13.04459
56.615 12.759035
56.620 12.039496
56.625 12.318697
56.630 11.586556
56.635 11.295117
56.640 11.135735
56.645 11.070594
56.650 11.071679
56.655 11.237516
56.660 11.44519
56.665 11.572835
56.670 11.309307
56.675 11.247271
56.680 11.140673
56.685 11.123722
56.690 10.87256
56.695 10.6506
56.700 10.547562
56.705 10.73141
56.710 10.801131
56.715 11.097816
56.720 11.472672
56.725 12.209962
56.730 12.748236
56.735 12.964156
56.740 12.762784
56.745 12.82922
56.750 12.411868
56.755 12.538907
56.760 12.528363
56.765 12.9555
56.770 13.387797
56.775 13.610492
56.780 13.713675
56.785 13.942574
56.790 13.891308
56.795 13.625772
56.800 12.96579
56.805 13.269592
56.810 13.574775
56.815 13.526403
56.820 13.362335
56.825 12.822231
56.830 12.514051
56.835 12.034078
56.840 11.17894
56.845 11.142536
56.850 11.499732
56.855 11.850044
56.860 11.909739
56.865 12.251101
56.870 12.681631
56.875 12.608891
56.880 11.889508
56.885 11.494404
56.890 11.339522
56.895 11.617792
56.900 11.256085
56.905 11.175517
56.910 11.618836
56.915 12.003542
56.920 12.266535
56.925 12.637971
56.930 12.716149
56.935 12.9182
56.940 12.791215
56.945 12.532331
56.950 12.505564
56.955 12.175626
56.960 11.850183
56.965 11.450129
56.970 11.530167
56.975 11.498525
56.980 11.715086
56.985 11.618373
56.990 11.525891
56.995 11.507852
57.000 11.260696
57.005 11.324824
57.010 11.830935
57.015 12.679058
57.020 13.508473
57.025 13.57268
57.030 13.581565
57.035 13.736614
57.040 13.279751
57.045 12.221457
57.050 11.577511
57.055 11.150447
57.060 10.985171
57.065 11.232755
57.070 11.66043
57.075 12.124614
57.080 12.054121
57.085 11.90619
57.090 11.818139
57.095 12.063407
57.100 11.951146
57.105 12.020292
57.110 12.282497
57.115 12.850067
57.120 12.82917
57.125 12.897807
57.130 12.643731
57.135 12.585646
57.140 12.293418
57.145 12.101687
57.150 12.314469
57.155 12.679129
57.160 12.675341
57.165 12.938089
57.170 13.15013
57.175 13.093288
57.180 12.89568
57.185 12.202572
57.190 12.202942
57.195 12.169178
57.200 11.859316
57.205 11.749178
57.210 11.414112
57.215 11.338441
57.220 11.199148
57.225 10.860841
57.230 10.760094
57.235 10.797073
57.240 10.571738
57.245 10.769497
57.250 11.115956
57.255 11.318534
57.260 11.536509
57.265 11.663108
57.270 11.86242
57.275 12.163456
57.280 12.75754
57.285 13.198212
57.290 13.499539
57.295 13.662575
57.300 14.058216
57.305 14.44424
57.310 14.533393
57.315 14.75237
57.320 14.589108
57.325 14.345794
57.330 14.042184
57.335 13.612517
57.340 13.627834
57.345 13.459225
57.350 12.60267
57.355 12.520204
57.360 12.70896
57.365 13.302119
57.370 13.168577
57.375 12.890657
57.380 13.109928
57.385 13.210666
57.390 13.550283
57.395 13.776914
57.400 13.496058
57.405 13.962258
57.410 13.853696
57.415 14.025373
57.420 13.794879
57.425 13.636484
57.430 13.68596
57.435 13.560725
57.440 13.411839
57.445 13.526031
57.450 13.378207
57.455 13.797389
57.460 14.134971
57.465 14.094542
57.470 14.076545
57.475 13.967855
57.480 13.742198
57.485 13.629337
57.490 13.183041
57.495 12.792107
57.500 12.958491
57.505 13.327508
57.510 12.898731
57.515 13.277823
57.520 13.057113
57.525 13.059991
57.530 12.412233
57.535 12.18379
57.540 12.046765
57.545 12.23385
57.550 12.067811
57.555 12.915615
57.560 12.945965
57.565 13.264174
57.570 13.237098
57.575 13.166856
57.580 12.87714
57.585 12.910144
57.590 12.866369
57.595 12.970549
57.600 13.4967
57.605 13.551985
57.610 13.608308
57.615 13.510845
57.620 13.641073
57.625 13.205601
57.630 13.355667
57.635 13.148158
57.640 12.832302
57.645 12.919846
57.650 13.120152
57.655 13.230254
57.660 14.151393
57.665 14.124171
57.670 14.518064
57.675 14.500894
57.680 14.528252
57.685 14.47537
57.690 14.529064
57.695 13.991789
57.700 13.743541
57.705 14.043579
57.710 14.138809
57.715 14.096122
57.720 14.10465
57.725 13.977403
57.730 14.072436
57.735 13.579103
57.740 13.087356
57.745 13.475745
57.750 14.079746
57.755 13.821839
57.760 14.101749
57.765 14.101221
57.770 13.734212
57.775 13.31186
57.780 13.135738
57.785 12.791018
57.790 12.655534
57.795 12.31405
57.800 12.304988
57.805 12.694442
57.810 13.413405
57.815 13.080959
57.820 13.265413
57.825 13.831572
57.830 13.396763
57.835 13.419583
57.840 13.665447
57.845 13.207145
57.850 13.060085
57.855 12.665396
57.860 12.182592
57.865 12.797952
57.870 13.151829
57.875 13.394388
57.880 14.018513
57.885 14.289167
57.890 14.535361
57.895 14.88168
57.900 15.061138
57.905 14.922686
57.910 14.5762
57.915 14.591466
57.920 14.670137
57.925 14.856161
57.930 14.541022
57.935 14.093399
57.940 13.965413
57.945 13.417224
57.950 13.209126
57.955 12.716036
57.960 12.037655
57.965 12.132454
57.970 12.082689
57.975 12.019497
57.980 12.236425
57.985 12.538006
57.990 12.951582
57.995 13.343665
58.000 13.139563
58.005 13.281985
58.010 13.285987
58.015 12.964505
58.020 12.910936
58.025 12.629756
58.030 12.418139
58.035 12.803189
58.040 13.600582
58.045 14.431926
58.050 14.935338
58.055 14.778922
58.060 14.986436
58.065 15.130283
58.070 14.768519
58.075 14.557301
58.080 14.380708
58.085 14.196428
58.090 14.5807
58.095 14.732139
58.100 14.886585
58.105 14.975675
58.110 14.181846
58.115 14.190006
58.120 14.255708
58.125 13.902274
58.130 14.114777
58.135 14.11554
58.140 14.189633
58.145 14.239406
58.150 13.946855
58.155 14.368906
58.160 14.240248
58.165 13.710719
58.170 13.776378
58.175 13.649542
58.180 13.667866
58.185 13.331481
58.190 13.023044
58.195 13.545912
58.200 14.320455
58.205 14.670011
58.210 14.888516
58.215 15.004951
58.220 16.016441
58.225 16.221117
58.230 16.271885
58.235 15.789346
58.240 15.459443
58.245 15.368162
58.250 15.152575
58.255 14.454611
58.260 14.53368
58.265 14.260571
58.270 14.351336
58.275 14.595108
58.280 14.227895
58.285 14.204448
58.290 14.107188
58.295 13.699014
58.300 13.347375
58.305 13.085478
58.310 13.053387
58.315 14.007001
58.320 14.521941
58.325 15.026814
58.330 15.167005
58.335 15.452416
58.340 15.660397
58.345 16.182665
58.350 15.67006
58.355 15.826484
58.360 15.503851
58.365 15.40809
58.370 15.368789
58.375 15.65064
58.380 14.981713
58.385 14.370505
58.390 14.317761
58.395 14.251025
58.400 14.910638
58.405 14.916573
58.410 14.365048
58.415 14.582232
58.420 14.600161
58.425 14.775952
58.430 14.948172
58.435 14.814313
58.440 14.495852
58.445 14.500422
58.450 14.579635
58.455 14.336047
58.460 14.404442
58.465 14.326449
58.470 14.681801
58.475 15.517184
58.480 15.677814
58.485 16.041464
58.490 16.495886
58.495 16.509026
58.500 16.511852
58.505 16.221128
58.510 15.699821
58.515 15.446666
58.520 15.219092
58.525 15.556974
58.530 15.500196
58.535 15.806766
58.540 15.360774
58.545 15.809444
58.550 16.241341
58.555 15.945491
58.560 15.369691
58.565 15.070492
58.570 15.034107
58.575 15.320693
58.580 15.674212
58.585 16.00831
58.590 16.71924
58.595 17.646076
58.600 17.834095
58.605 17.833216
58.610 17.803308
58.615 17.642372
58.620 17.631832
58.625 17.354549
58.630 17.039501
58.635 17.170179
58.640 17.300697
58.645 17.201647
58.650 16.995306
58.655 16.669739
58.660 16.660357
58.665 16.521236
58.670 16.337812
58.675 15.891805
58.680 15.52031
58.685 15.321238
58.690 15.445593
58.695 15.890213
58.700 16.64431
58.705 17.424604
58.710 18.183369
58.715 18.949345
58.720 19.276325
58.725 19.591438
58.730 19.380671
58.735 18.873238
58.740 18.809883
58.745 19.420189
58.750 19.038752
58.755 18.452787
58.760 18.731857
58.765 18.386452
58.770 18.084606
58.775 17.42889
58.780 17.546608
58.785 18.071125
58.790 19.035311
58.795 18.817924
58.800 18.633007
58.805 18.710417
58.810 18.843246
58.815 18.305691
58.820 17.974842
58.825 17.483192
58.830 17.58544
58.835 18.209579
58.840 17.887972
58.845 17.969851
58.850 18.399059
58.855 18.396997
58.860 18.433128
58.865 18.160826
58.870 17.885395
58.875 18.138601
58.880 17.22822
58.885 16.892979
58.890 17.22925
58.895 17.341341
58.900 17.4352
58.905 17.155222
58.910 17.487141
58.915 18.551136
58.920 18.071535
58.925 17.386776
58.930 17.46343
58.935 17.201298
58.940 17.173018
58.945 16.763348
58.950 15.82664
58.955 16.005955
58.960 16.256174
58.965 16.112814
58.970 16.421806
58.975 16.508099
58.980 16.584665
58.985 16.518913
58.990 16.045404
58.995 15.977674
59.000 16.034826
59.005 16.263626
59.010 16.878822
59.015 17.483925
59.020 17.714108
59.025 17.904739
59.030 17.070175
59.035 16.950172
59.040 16.822914
59.045 16.001276
59.050 15.773577
59.055 16.003469
59.060 16.378218
59.065 17.233088
59.070 17.459684
59.075 17.734968
59.080 18.512291
59.085 18.499115
59.090 18.347805
59.095 18.181637
59.100 17.963924
59.105 17.809776
59.110 17.774916
59.115 17.120785
59.120 17.461205
59.125 17.731005
59.130 18.060768
59.135 18.273449
59.140 18.306873
59.145 18.494444
59.150 18.261198
59.155 18.070459
59.160 17.730936
59.165 17.398256
59.170 17.079798
59.175 17.406487
59.180 17.16551
59.185 17.182354
59.190 16.988369
59.195 16.858639
59.200 17.03377
59.205 17.158487
59.210 16.608202
59.215 16.187145
59.220 16.746279
59.225 17.006367
59.230 17.08522
59.235 17.060383
59.240 16.2477
59.245 16.457912
59.250 16.381258
59.255 15.468499
59.260 14.750578
59.265 14.746708
59.270 15.182632
59.275 15.349179
59.280 15.347597
59.285 15.375447
59.290 16.112528
59.295 16.832741
59.300 17.390005
59.305 17.725304
59.310 17.838959
59.315 17.504488
59.320 17.95236
59.325 18.251354
59.330 18.240705
59.335 18.11459
59.340 17.499556
59.345 17.5406
59.350 17.399223
59.355 17.340635
59.360 17.441278
59.365 17.27766
59.370 17.12195
59.375 16.882362
59.380 16.672688
59.385 17.503422
59.390 17.430283
59.395 16.528059
59.400 16.540922
59.405 16.421656
59.410 17.048634
59.415 17.539207
59.420 16.965288
59.425 16.797771
59.430 17.373936
59.435 17.495029
59.440 17.425388
59.445 17.757759
59.450 17.898968
59.455 17.619711
59.460 17.473986
59.465 17.423059
59.470 17.321272
59.475 17.607985
59.480 17.469532
59.485 18.003193
59.490 19.282183
59.495 19.579182
59.500 19.152538
59.505 19.19705
59.510 18.826502
59.515 18.379309
59.520 18.1591
59.525 17.195215
59.530 17.043667
59.535 17.24509
59.540 16.886292
59.545 17.120098
59.550 17.489679
59.555 17.322317
59.560 17.897043
59.565 18.35548
59.570 18.527699
59.575 18.983263
59.580 18.990793
59.585 18.880205
59.590 19.244705
59.595 19.477972
59.600 19.537081
59.605 19.513086
59.610 19.255596
59.615 19.199745
59.620 18.737249
59.625 18.16329
59.630 17.605341
59.635 17.532307
59.640 17.08131
59.645 17.134703
59.650 17.32159
59.655 17.768909
59.660 18.285006
59.665 18.755087
59.670 18.383097
59.675 18.74544
59.680 18.717154
59.685 18.256369
59.690 17.889503
59.695 17.456352
59.700 17.47164
59.705 18.15601
59.710 19.098343
59.715 19.313459
59.720 19.486368
59.725 19.510414
59.730 19.147032
59.735 19.252831
59.740 18.697525
59.745 17.843184
59.750 18.071884
59.755 18.388922
59.760 19.320593
59.765 19.509233
59.770 19.972162
59.775 20.221254
59.780 19.996971
59.785 19.529245
59.790 19.102839
59.795 18.822794
59.800 19.201595
59.805 18.392311
59.810 18.019014
59.815 18.322649
59.820 18.410677
59.825 18.473219
59.830 18.122082
59.835 17.826004
59.840 17.82626
59.845 17.704952
59.850 17.423151
59.855 17.307079
59.860 17.107504
59.865 17.158743
59.870 17.539984
59.875 17.736237
59.880 17.918158
59.885 18.525814
59.890 18.85923
59.895 19.139059
59.900 19.24231
59.905 19.172287
59.910 18.601881
59.915 18.446016
59.920 18.174551
59.925 17.945103
59.930 17.77508
59.935 17.757185
59.940 17.679064
59.945 18.315794
59.950 18.995344
59.955 19.307064
59.960 19.715765
59.965 19.652779
59.970 19.434961
59.975 19.011847
59.980 18.177416
59.985 17.334442
59.990 17.030331
59.995 16.910786
60.000 17.035749
60.005 17.240301
60.010 17.533604
60.015 17.57616
60.020 17.659117
60.025 18.042946
60.030 18.042212
60.035 17.837111
60.040 17.781267
60.045 18.379173
60.050 18.88303
60.055 19.157692
60.060 19.246271
60.065 19.023348
60.070 18.944551
60.075 18.946238
60.080 18.964615
60.085 19.359512
60.090 20.325325
60.095 20.386293
60.100 20.247839
60.105 20.244999
60.110 19.891298
60.115 19.314119
60.120 19.407187
60.125 18.925062
60.130 18.882841
60.135 19.534391
60.140 20.136877
60.145 20.253647
60.150 20.207701
60.155 19.36623
60.160 18.686108
60.165 18.699083
60.170 19.001791
60.175 18.871067
60.180 18.634529
60.185 18.835218
60.190 19.212406
60.195 19.848635
60.200 19.641743
60.205 19.003773
60.210 18.897881
60.215 18.888437
60.220 19.167627
60.225 19.534683
60.230 19.075327
60.235 18.580631
60.240 18.043133
60.245 18.250498
60.250 18.173405
60.255 18.001078
60.260 17.301502
60.265 17.186687
60.270 17.817997
60.275 18.06712
60.280 17.8568
60.285 18.131136
60.290 18.324587
60.295 18.937571
60.300 19.508993
60.305 19.055338
60.310 18.924072
60.315 19.208164
60.320 19.349197
60.325 19.282301
60.330 19.122265
60.335 19.162683
60.340 19.637384
60.345 20.044905
60.350 19.509953
60.355 19.698864
60.360 19.580687
60.365 19.263599
60.370 19.092854
60.375 18.941154
60.380 18.845173
60.385 18.927437
60.390 18.506035
60.395 17.986496
60.400 17.91029
60.405 17.31126
60.410 17.248331
60.415 17.539042
60.420 17.580994
60.425 17.647198
60.430 18.137905
60.435 18.536921
60.440 19.185366
60.445 19.228794
60.450 18.715099
60.455 19.010159
60.460 18.867393
60.465 19.204983
60.470 18.694254
60.475 18.684355
60.480 18.477713
60.485 18.712057
60.490 18.336372
60.495 18.065277
60.500 17.30582
60.505 17.413298
60.510 17.443371
60.515 17.662973
60.520 17.282551
60.525 16.895641
60.530 17.294109
60.535 17.684002
60.540 17.697323
60.545 17.219797
60.550 17.615742
60.555 18.01441
60.560 18.382126
60.565 18.139708
60.570 18.08259
60.575 17.3295
60.580 17.682444
60.585 17.501631
60.590 17.46883
60.595 17.646898
60.600 17.690907
60.605 17.57111
60.610 18.048738
60.615 17.300888
60.620 16.907047
60.625 17.110765
60.630 16.760706
60.635 16.391729
60.640 16.066763
60.645 16.656027
60.650 16.949654
60.655 17.225933
60.660 17.379286
60.665 17.334749
60.670 18.144201
60.675 18.209312
60.680 17.995279
60.685 18.435654
60.690 17.834461
60.695 18.126896
60.700 18.171078
60.705 17.724968
60.710 17.530584
60.715 17.250586
60.720 16.387165
60.725 15.965201
60.730 15.810941
60.735 16.083126
60.740 15.937957
60.745 16.219191
60.750 16.142204
60.755 16.905745
60.760 17.680273
60.765 17.452158
60.770 17.53208
60.775 17.114702
60.780 16.658344
60.785 16.131348
60.790 16.060631
60.795 15.500521
60.800 15.285303
60.805 15.464486
60.810 16.451155
60.815 17.17107
60.820 17.681032
60.825 17.517717
60.830 17.879852
60.835 17.502054
60.840 17.058016
60.845 16.434774
60.850 16.412144
60.855 16.669344
60.860 16.54278
60.865 16.110531
60.870 16.095282
60.875 15.918385
60.880 15.688006
60.885 15.064859
60.890 15.014978
60.895 14.819138
60.900 15.25381
60.905 15.778467
60.910 16.348566
60.915 16.371342
60.920 16.951643
60.925 17.169594
60.930 17.619289
60.935 17.629065
60.940 17.813643
60.945 17.941631
60.950 18.647984
60.955 18.36805
60.960 17.989824
60.965 18.062937
60.970 17.875593
60.975 17.506393
60.980 16.855745
60.985 16.171936
60.990 16.27813
60.995 16.330442
61.000 16.581692
61.005 16.190012
61.010 16.297684
61.015 16.772333
61.020 17.466152
61.025 17.331581
61.030 17.600845
61.035 17.484732
61.040 18.214037
61.045 18.170876
61.050 18.419237
61.055 17.765686
61.060 17.421051
61.065 17.649538
61.070 17.767511
61.075 17.33185
61.080 17.175571
61.085 17.031069
61.090 16.660788
61.095 16.285297
61.100 16.035875
61.105 15.800241
61.110 15.83957
61.115 15.983287
61.120 15.707012
61.125 16.477962
61.130 16.953508
61.135 16.767208
61.140 16.242933
61.145 16.365656
61.150 16.545341
61.155 16.372179
61.160 15.582237
61.165 15.167585
61.170 15.165752
61.175 15.931398
61.180 15.795169
61.185 15.230172
61.190 15.71236
61.195 16.46229
61.200 16.56712
61.205 16.397594
61.210 15.637793
61.215 15.648137
61.220 15.799109
61.225 15.09592
61.230 14.874276
61.235 15.181568
61.240 15.328881
61.245 15.89299
61.250 15.885283
61.255 16.34902
61.260 17.208143
61.265 17.47925
61.270 17.052471
61.275 16.975279
61.280 17.126375
61.285 17.827072
61.290 17.421824
61.295 16.869617
61.300 16.471737
61.305 16.449417
61.310 16.249741
61.315 15.877895
61.320 15.245028
61.325 15.232783
61.330 15.266783
61.335 14.806292
61.340 14.680309
61.345 14.802885
61.350 15.224818
61.355 15.343925
61.360 15.38397
61.365 15.375
61.370 16.334297
61.375 16.264256
61.380 16.307869
61.385 16.195457
61.390 16.272949
61.395 15.99387
61.400 16.104645
61.405 16.59198
61.410 16.873018
61.415 16.435852
61.420 16.112022
61.425 15.898809
61.430 16.351463
61.435 16.113453
61.440 15.507515
61.445 15.429174
61.450 15.539535
61.455 15.374996
61.460 15.518105
61.465 15.724089
61.470 15.943388
61.475 15.857265
61.480 15.806555
61.485 16.10515
61.490 16.250166
61.495 16.185345
61.500 15.933695
61.505 16.221582
61.510 16.920237
61.515 17.136736
61.520 17.084568
61.525 17.055672
61.530 17.11907
61.535 17.523754
61.540 17.111094
61.545 17.080879
61.550 17.062145
61.555 17.150316
61.560 17.674046
61.565 17.718622
61.570 17.395668
61.575 17.646917
61.580 17.31922
61.585 17.500681
61.590 17.632427
61.595 17.16268
61.600 16.939354
61.605 16.504597
61.610 16.128231
61.615 15.687027
61.620 15.144766
61.625 14.653311
61.630 14.302557
61.635 14.456413
61.640 15.003182
61.645 15.34802
61.650 15.422467
61.655 15.695601
61.660 15.939038
61.665 16.251049
61.670 15.989429
61.675 15.878983
61.680 15.726839
61.685 15.79678
61.690 15.724388
61.695 15.514987
61.700 15.338201
61.705 15.478758
61.710 15.280651
61.715 14.751256
61.720 14.830984
61.725 14.490993
61.730 14.659583
61.735 14.734213
61.740 14.43719
61.745 14.492288
61.750 15.146397
61.755 15.423405
61.760 16.06341
61.765 16.010691
61.770 16.106852
61.775 16.213705
61.780 16.474192
61.785 16.425467
61.790 15.668171
61.795 15.583432
61.800 15.894571
61.805 15.552472
61.810 15.753096
61.815 15.718028
61.820 15.985834
61.825 16.37203
61.830 16.245594
61.835 15.929417
61.840 16.04114
61.845 16.447857
61.850 16.093832
61.855 15.478206
61.860 15.881176
61.865 16.25527
61.870 16.841612
61.875 17.103661
61.880 16.748283
61.885 16.756069
61.890 17.039377
61.895 17.059343
61.900 16.547421
61.905 16.085054
61.910 15.720248
61.915 15.533166
61.920 15.617327
61.925 15.669894
61.930 15.287874
61.935 16.068932
61.940 16.616249
61.945 16.983192
61.950 17.328693
61.955 17.375017
61.960 17.152117
61.965 16.950531
61.970 16.600254
61.975 16.538059
61.980 16.24609
61.985 16.283173
61.990 16.343317
61.995 16.266731
62.000 16.605177
62.005 16.300638
62.010 16.350637
62.015 16.496777
62.020 16.440397
62.025 16.394781
62.030 16.415476
62.035 15.941997
62.040 15.744429
62.045 15.435776
62.050 15.238358
62.055 15.451762
62.060 15.875556
62.065 16.23941
62.070 16.323086
62.075 16.794022
62.080 16.766575
62.085 17.042242
62.090 16.718922
62.095 16.392855
62.100 16.374758
62.105 16.178921
62.110 15.722591
62.115 16.00279
62.120 16.135807
62.125 16.942825
62.130 17.496578
62.135 18.089577
62.140 18.550724
62.145 19.068338
62.150 18.818794
62.155 18.556402
62.160 17.827959
62.165 17.519892
62.170 16.795544
62.175 16.981001
62.180 17.16367
62.185 17.531717
62.190 17.372036
62.195 16.734737
62.200 16.373802
62.205 15.882459
62.210 15.436752
62.215 14.917283
62.220 14.707662
62.225 14.877209
62.230 15.068151
62.235 15.535263
62.240 16.044748
62.245 16.005253
62.250 15.909118
62.255 15.749941
62.260 15.546898
62.265 15.989097
62.270 15.534539
62.275 15.499459
62.280 15.725528
62.285 16.030781
62.290 16.53322
62.295 16.51659
62.300 16.294195
62.305 16.544367
62.310 16.471415
62.315 16.269411
62.320 15.684237
62.325 15.292431
62.330 15.651538
62.335 15.625134
62.340 15.551709
62.345 15.696218
62.350 15.694524
62.355 15.852987
62.360 15.856981
62.365 15.734282
62.370 15.884832
62.375 15.870954
62.380 15.457303
62.385 15.280193
62.390 14.757825
62.395 15.078477
62.400 15.346171
62.405 15.283843
62.410 15.771266
62.415 15.792706
62.420 15.984561
62.425 16.19095
62.430 15.881756
62.435 15.687324
62.440 15.290221
62.445 14.786305
62.450 15.080233
62.455 15.239878
62.460 15.331375
62.465 14.776734
62.470 14.53662
62.475 15.344074
62.480 16.230568
62.485 16.47991
62.490 16.961329
62.495 17.465294
62.500 17.639261
62.505 17.154705
62.510 17.042202
62.515 17.242176
62.520 17.384377
62.525 16.800259
62.530 16.180355
62.535 16.580425
62.540 17.026423
62.545 16.528702
62.550 15.501898
62.555 15.079756
62.560 15.157815
62.565 15.455307
62.570 14.96826
62.575 15.187105
62.580 15.490877
62.585 16.124233
62.590 16.112885
62.595 15.984303
62.600 16.537813
62.605 16.638218
62.610 16.14521
62.615 15.88108
62.620 15.387845
62.625 15.377367
62.630 15.345634
62.635 14.699189
62.640 14.976135
62.645 15.489577
62.650 15.290815
62.655 15.394517
62.660 15.285757
62.665 15.517627
62.670 15.65757
62.675 16.151712
62.680 16.406548
62.685 16.501982
62.690 16.883909
62.695 17.169973
62.700 16.911507
62.705 16.832827
62.710 16.782585
62.715 16.717274
62.720 16.743315
62.725 16.153423
62.730 15.97429
62.735 16.38541
62.740 16.41526
62.745 16.093451
62.750 15.746799
62.755 16.099432
62.760 16.503504
62.765 16.45426
62.770 16.38051
62.775 16.67094
62.780 16.45252
62.785 16.496605
62.790 15.947149
62.795 16.466537
62.800 17.118523
62.805 17.778542
62.810 17.82703
62.815 18.026152
62.820 17.962507
62.825 18.095249
62.830 18.634897
62.835 17.998392
62.840 17.422779
62.845 17.228168
62.850 16.995144
62.855 17.105413
62.860 16.866146
62.865 15.698923
62.870 16.150572
62.875 16.352066
62.880 16.41897
62.885 16.971151
62.890 17.178852
62.895 17.337654
62.900 17.760712
62.905 17.859974
62.910 17.505907
62.915 17.362909
62.920 16.936449
62.925 16.581312
62.930 16.758585
62.935 16.359297
62.940 15.781558
62.945 15.934081
62.950 15.866437
62.955 16.128717
62.960 15.891899
62.965 15.438136
62.970 15.614999
62.975 15.960079
62.980 16.064522
62.985 16.254358
62.990 16.609327
62.995 17.282513
63.000 17.396343
63.005 17.412104
63.010 17.268322
63.015 16.703472
63.020 16.704037
63.025 16.80533
63.030 17.165785
63.035 17.898384
63.040 18.126114
63.045 18.564785
63.050 18.515823
63.055 17.811558
63.060 16.98826
63.065 16.676603
63.070 16.39012
63.075 16.777792
63.080 16.518438
63.085 16.274063
63.090 16.121359
63.095 16.26469
63.100 16.611864
63.105 15.948873
63.110 14.956492
63.115 14.995606
63.120 15.98938
63.125 16.780352
63.130 16.674253
63.135 16.345158
63.140 16.620131
63.145 17.03298
63.150 17.121048
63.155 16.546135
63.160 16.53618
63.165 16.450123
63.170 15.98148
63.175 15.857442
63.180 15.767738
63.185 15.648275
63.190 16.31263
63.195 16.18136
63.200 16.478636
63.205 16.717054
63.210 16.443232
63.215 16.647198
63.220 16.760082
63.225 16.078642
63.230 16.32802
63.235 17.12216
63.240 17.525602
63.245 17.652035
63.250 17.964031
63.255 18.201721
63.260 18.876532
63.265 18.614405
63.270 17.426048
63.275 17.143063
63.280 17.276474
63.285 16.615644
63.290 16.377388
63.295 16.429081
63.300 17.383265
63.305 17.974066
63.310 18.748549
63.315 18.760582
63.320 18.855463
63.325 18.736917
63.330 18.886999
63.335 18.464283
63.340 18.970932
63.345 18.403603
63.350 18.522028
63.355 18.573626
63.360 18.87818
63.365 18.854624
63.370 18.479614
63.375 18.21244
63.380 18.246145
63.385 17.837044
63.390 17.77738
63.395 17.825644
63.400 17.720631
63.405 17.847721
63.410 18.073301
63.415 18.615473
63.420 18.941303
63.425 18.654654
63.430 18.628492
63.435 18.573185
63.440 18.300295
63.445 17.939533
63.450 17.741426
63.455 17.839005
63.460 17.811728
63.465 17.615595
63.470 17.23181
63.475 16.988241
63.480 16.65523
63.485 16.039639
63.490 15.844736
63.495 15.72458
63.500 15.529469
63.505 15.546789
63.510 16.292038
63.515 16.62586
63.520 16.669466
63.525 16.639078
63.530 17.049002
63.535 17.468754
63.540 17.680456
63.545 17.342291
63.550 17.083624
63.555 17.048042
63.560 17.600872
63.565 17.796213
63.570 17.603645
63.575 17.35507
63.580 17.105303
63.585 17.405306
63.590 17.712337
63.595 17.474348
63.600 17.252634
63.605 17.00013
63.610 16.968325
63.615 17.186953
63.620 17.028692
63.625 17.09166
63.630 17.43848
63.635 17.54093
63.640 18.088087
63.645 18.224485
63.650 18.340105
63.655 18.365171
63.660 18.482727
63.665 18.205948
63.670 18.311787
63.675 18.037119
63.680 17.981834
63.685 18.408802
63.690 18.84199
63.695 18.788767
63.700 18.581903
63.705 18.706869
63.710 18.523624
63.715 17.976469
63.720 17.877102
63.725 18.010519
63.730 18.619743
63.735 19.187569
63.740 18.654142
63.745 18.807596
63.750 19.277622
63.755 18.57671
63.760 18.314968
63.765 17.525837
63.770 17.071737
63.775 16.965105
63.780 16.952404
63.785 16.936388
63.790 16.996614
63.795 16.719332
63.800 16.914869
63.805 17.156507
63.810 17.798275
63.815 18.467628
63.820 18.914078
63.825 19.081278
63.830 19.129065
63.835 18.872362
63.840 19.283079
63.845 19.137892
63.850 18.570871
63.855 18.197304
63.860 18.173185
63.865 18.305611
63.870 18.265913
63.875 17.663441
63.880 17.562096
63.885 17.410244
63.890 17.680166
63.895 17.856936
63.900 17.758631
63.905 18.166639
63.910 18.061489
63.915 18.242775
63.920 18.614828
63.925 18.915064
63.930 19.149473
63.935 19.653343
63.940 19.414347
63.945 19.91449
63.950 19.563644
63.955 19.332893
63.960 18.794352
63.965 18.592585
63.970 18.008986
63.975 17.915115
63.980 18.029911
63.985 17.99622
63.990 18.170303
63.995 19.050226
64.000 19.216385
64.005 19.578697
64.010 19.637318
64.015 19.22924
64.020 19.789169
64.025 19.800531
64.030 18.967617
64.035 18.587626
64.040 18.750984
64.045 19.008064
64.050 19.095373
64.055 19.020071
64.060 18.839491
64.065 19.352528
64.070 19.874592
64.075 19.744152
64.080 19.797947
64.085 19.763464
64.090 19.15613
64.095 19.221302
64.100 18.788546
64.105 18.095634
64.110 17.876438
64.115 17.804878
64.120 17.218418
64.125 16.822845
64.130 16.901064
64.135 17.358006
64.140 17.703188
64.145 17.789507
64.150 17.573048
64.155 17.889391
64.160 18.179962
64.165 18.227781
64.170 18.271645
64.175 18.452171
64.180 18.427969
64.185 18.792202
64.190 19.215118
64.195 19.603432
64.200 19.514997
64.205 19.258623
64.210 18.836214
64.215 19.043259
64.220 19.972713
64.225 20.652782
64.230 20.42877
64.235 20.430313
64.240 21.347437
64.245 21.39353
64.250 20.768566
64.255 19.908979
64.260 19.738749
64.265 20.382982
64.270 20.657898
64.275 20.387283
64.280 20.621275
64.285 21.113245
64.290 21.467514
64.295 21.579622
64.300 21.392603
64.305 21.129585
64.310 20.969374
64.315 21.670752
64.320 21.422207
64.325 21.49464
64.330 21.077061
64.335 20.392557
64.340 20.615149
64.345 20.42993
64.350 19.736818
64.355 20.535398
64.360 20.570749
64.365 20.874201
64.370 21.409609
64.375 21.248655
64.380 21.407221
64.385 21.062824
64.390 19.884489
64.395 19.350525
64.400 19.457106
64.405 19.453308
64.410 20.2269
64.415 20.505945
64.420 21.399546
64.425 22.103144
64.430 21.910608
64.435 22.088343
64.440 22.478592
64.445 21.615202
64.450 21.69479
64.455 21.779823
64.460 21.337488
64.465 20.855217
64.470 20.014004
64.475 19.739477
64.480 19.773712
64.485 19.472494
64.490 19.374376
64.495 19.772907
64.500 20.45113
64.505 20.489578
64.510 21.010431
64.515 21.311863
64.520 21.4224
64.525 21.303427
64.530 21.129299
64.535 21.915285
64.540 23.003168
64.545 22.430916
64.550 22.507219
64.555 22.421316
64.560 21.874031
64.565 22.017887
64.570 22.102011
64.575 21.71426
64.580 21.516012
64.585 20.974871
64.590 21.237991
64.595 21.7854
64.600 21.584585
64.605 21.302294
64.610 21.657887
64.615 21.637381
64.620 21.964718
64.625 21.869865
64.630 21.803888
64.635 21.677458
64.640 21.536432
64.645 21.32132
64.650 21.427076
64.655 21.32357
64.660 21.562471
64.665 22.367702
64.670 22.43096
64.675 22.057491
64.680 21.858675
64.685 21.965118
64.690 21.728594
64.695 21.06386
64.700 20.239817
64.705 19.891352
64.710 19.530113
64.715 19.311193
64.720 19.676407
64.725 19.643032
64.730 19.532846
64.735 19.589209
64.740 19.287634
64.745 19.438728
64.750 19.339846
64.755 18.952232
64.760 18.59923
64.765 19.337206
64.770 19.306856
64.775 19.587187
64.780 19.771776
64.785 19.642288
64.790 19.261974
64.795 19.730831
64.800 19.16592
64.805 19.429583
64.810 19.314512
64.815 18.742807
64.820 18.839378
64.825 19.100273
64.830 19.425266
64.835 19.541687
64.840 19.409063
64.845 19.705889
64.850 19.694334
64.855 19.854326
64.860 19.580482
64.865 18.752954
64.870 18.541737
64.875 18.497116
64.880 18.629269
64.885 20.012369
64.890 20.40983
64.895 20.823629
64.900 21.374994
64.905 21.633881
64.910 22.020741
64.915 22.110277
64.920 21.726812
64.925 21.858042
64.930 21.934698
64.935 22.298903
64.940 22.634792
64.945 22.490246
64.950 21.729216
64.955 21.279371
64.960 21.614603
64.965 21.674549
64.970 21.204018
64.975 20.886848
64.980 20.899185
64.985 21.468199
64.990 21.57193
64.995 21.762892
65.000 21.488947
65.005 21.418585
65.010 22.058756
65.015 22.491194
65.020 23.484638
65.025 23.556574
65.030 23.110359
65.035 23.420101
65.040 23.554657
65.045 23.265427
65.050 22.919884
65.055 22.012226
65.060 21.946909
65.065 21.895864
65.070 22.249308
65.075 22.540138
65.080 22.351009
65.085 22.134914
65.090 21.722437
65.095 21.197254
65.100 21.486509
65.105 21.359764
65.110 20.842592
65.115 21.025194
65.120 21.322754
65.125 22.234432
65.130 22.516565
65.135 22.307898
65.140 22.590824
65.145 22.696989
65.150 22.457281
65.155 22.43219
65.160 22.091957
65.165 22.291527
65.170 22.348082
65.175 22.522867
65.180 22.882708
65.185 22.977005
65.190 22.683416
65.195 22.614302
65.200 22.308258
65.205 21.893654
65.210 21.358074
65.215 20.635527
65.220 20.501537
65.225 20.70594
65.230 21.446115
65.235 22.279173
65.240 23.243725
65.245 23.596266
65.250 24.699919
65.255 25.095461
65.260 25.128746
65.265 24.304401
65.270 23.433647
65.275 22.969545
65.280 22.416862
65.285 21.443766
65.290 21.5741
65.295 21.887928
65.300 22.313736
65.305 22.339531
65.310 22.411087
65.315 22.709507
65.320 22.722803
65.325 22.158302
65.330 21.848143
65.335 21.823298
65.340 22.855642
65.345 23.072872
65.350 23.909349
65.355 24.345978
65.360 24.594805
65.365 24.235312
65.370 23.752689
65.375 22.90196
65.380 22.868547
65.385 22.242441
65.390 22.527618
65.395 22.911829
65.400 23.11306
65.405 23.809902
65.410 23.792162
65.415 23.668133
65.420 23.725199
65.425 23.746403
65.430 24.008419
65.435 24.143167
65.440 24.393543
65.445 24.799679
65.450 24.646435
65.455 23.978018
65.460 23.945728
65.465 23.59362
65.470 23.565893
65.475 23.064981
65.480 23.109623
65.485 23.343151
65.490 24.496664
65.495 24.608259
65.500 25.494265
65.505 25.99855
65.510 25.943295
65.515 26.049261
65.520 26.267376
65.525 26.169304
65.530 26.116577
65.535 26.11133
65.540 26.021515
65.545 26.570301
65.550 26.659046
65.555 26.775728
65.560 26.768063
65.565 26.575279
65.570 25.924395
65.575 25.828304
65.580 26.287207
65.585 26.412045
65.590 26.281841
65.595 26.181826
65.600 25.84771
65.605 26.560646
65.610 26.716753
65.615 26.244617
65.620 26.655149
65.625 26.759785
65.630 27.097376
65.635 27.374094
65.640 27.041695
65.645 27.917393
65.650 28.009388
65.655 27.870659
65.660 28.461485
65.665 28.811668
65.670 29.304686
65.675 29.402254
65.680 29.862047
65.685 30.323383
65.690 30.560619
65.695 30.070183
65.700 29.667803
65.705 29.250784
65.710 29.313692
65.715 28.504351
65.720 28.070118
65.725 27.830933
65.730 27.877554
65.735 28.441219
65.740 29.062002
65.745 29.1782
65.750 29.84757
65.755 29.846079
65.760 30.282646
65.765 31.045263
65.770 30.60603
65.775 30.083838
65.780 30.357605
65.785 30.436518
65.790 30.616417
65.795 29.917843
65.800 29.530956
65.805 29.760504
65.810 30.151146
65.815 30.525599
65.820 31.222286
65.825 31.676928
65.830 32.854248
65.835 33.461937
65.840 34.469864
65.845 34.312569
65.850 33.866123
65.855 33.590153
65.860 34.019215
65.865 34.303665
65.870 34.356735
65.875 34.14843
65.880 34.655338
65.885 34.406078
65.890 34.759674
65.895 35.680954
65.900 35.655293
65.905 35.83046
65.910 36.181053
65.915 36.074123
65.920 36.332737
65.925 36.132751
65.930 35.277885
65.935 35.083099
65.940 35.317039
65.945 35.587101
65.950 36.091824
65.955 36.229477
65.960 36.256676
65.965 35.958515
65.970 35.593037
65.975 34.829464
65.980 34.498535
65.985 34.18943
65.990 34.593132
65.995 35.058624
66.000 35.401314
66.005 35.691391
66.010 35.628246
66.015 36.156742
66.020 36.644539
66.025 36.703697
66.030 36.687965
66.035 36.932632
66.040 37.559952
66.045 37.121185
66.050 36.563423
66.055 36.639641
66.060 37.651489
66.065 39.820015
66.070 40.740654
66.075 40.485435
66.080 41.793541
66.085 42.258778
66.090 42.744469
66.095 42.154671
66.100 39.872959
66.105 38.351189
66.110 38.855564
66.115 38.398617
66.120 37.697578
66.125 36.965721
66.130 36.207138
66.135 36.526573
66.140 37.315414
66.145 37.139492
66.150 37.368702
66.155 37.629768
66.160 37.500214
66.165 37.932056
66.170 38.325161
66.175 38.391163
66.180 38.10323
66.185 37.580883
66.190 37.615211
66.195 38.036205
66.200 37.396271
66.205 36.691368
66.210 36.764908
66.215 37.62413
66.220 38.307369
66.225 38.8032
66.230 38.110012
66.235 38.062744
66.240 38.984829
66.245 39.026176
66.250 38.768814
66.255 38.417488
66.260 37.832554
66.265 38.064953
66.270 38.315075
66.275 37.331692
66.280 37.12471
66.285 36.654305
66.290 36.561039
66.295 36.54995
66.300 36.805141
66.305 36.446587
66.310 36.546585
66.315 36.104591
66.320 36.63839
66.325 37.140133
66.330 36.929935
66.335 36.614445
66.340 36.400921
66.345 35.803444
66.350 35.833164
66.355 35.136543
66.360 34.295753
66.365 34.552292
66.370 34.323093
66.375 33.774429
66.380 33.519066
66.385 32.763931
66.390 32.708057
66.395 33.008591
66.400 33.306667
66.405 33.64959
66.410 33.143921
66.415 33.655914
66.420 33.602276
66.425 32.519394
66.430 31.501249
66.435 29.642128
66.440 28.550043
66.445 29.049093
66.450 28.075991
66.455 27.620398
66.460 28.112173
66.465 28.7363
66.470 28.891985
66.475 29.161861
66.480 28.455441
66.485 28.957029
66.490 28.590277
66.495 27.23715
66.500 26.726412
66.505 27.414171
66.510 27.753075
66.515 27.2033
66.520 27.073736
66.525 27.605175
66.530 28.222681
66.535 28.227375
66.540 27.789133
66.545 26.762922
66.550 27.012438
66.555 26.872368
66.560 26.445763
66.565 26.541002
66.570 26.496878
66.575 26.103085
66.580 26.540899
66.585 26.439711
66.590 26.586464
66.595 26.970564
66.600 26.581469
66.605 26.742981
66.610 27.45417
66.615 27.460136
66.620 26.772821
66.625 25.986475
66.630 25.292606
66.635 24.659567
66.640 24.125568
66.645 23.148991
66.650 23.232206
66.655 23.044859
66.660 23.620338
66.665 24.334545
66.670 24.586979
66.675 24.169678
66.680 24.119017
66.685 24.173723
66.690 23.710192
66.695 22.653065
66.700 22.473314
66.705 22.61602
66.710 22.879028
66.715 23.122299
66.720 23.048521
66.725 23.515888
66.730 23.873669
66.735 23.82152
66.740 23.685642
66.745 23.312202
66.750 22.444241
66.755 22.471041
66.760 21.968248
66.765 21.569357
66.770 20.99828
66.775 20.786633
66.780 21.38126
66.785 21.556555
66.790 21.833742
66.795 22.024801
66.800 21.813128
66.805 21.725832
66.810 21.14296
66.815 20.486771
66.820 20.574066
66.825 20.335464
66.830 20.571606
66.835 20.575663
66.840 20.395561
66.845 20.827662
66.850 21.482729
66.855 21.119856
66.860 20.74111
66.865 20.297235
66.870 20.181641
66.875 20.69685
66.880 21.014357
66.885 21.413946
66.890 21.217815
66.895 21.198988
66.900 21.939915
66.905 22.366756
66.910 22.223484
66.915 21.993387
66.920 21.635838
66.925 21.654093
66.930 21.030815
66.935 20.871176
66.940 21.15889
66.945 21.516792
66.950 21.280321
66.955 20.988504
66.960 21.118052
66.965 21.817093
66.970 21.667786
66.975 21.298605
66.980 21.248093
66.985 21.731428
66.990 22.279106
66.995 22.432905
67.000 21.952053
67.005 21.700544
67.010 21.667355
67.015 21.459467
67.020 20.622917
67.025 20.164333
67.030 19.873972
67.035 20.303156
67.040 20.628523
67.045 20.844397
67.050 20.97986
67.055 21.616158
67.060 22.055216
67.065 22.116747
67.070 22.119642
67.075 21.836933
67.080 21.130634
67.085 20.749815
67.090 20.630547
67.095 20.612734
67.100 20.569494
67.105 20.032
67.110 20.609617
67.115 20.992849
67.120 20.930109
67.125 20.277798
67.130 20.019007
67.135 20.596737
67.140 20.766981
67.145 20.666891
67.150 20.38393
67.155 20.214125
67.160 20.750639
67.165 20.753008
67.170 20.338087
67.175 20.653486
67.180 20.582846
67.185 21.025436
67.190 21.313427
67.195 21.175758
67.200 21.493147
67.205 20.937672
67.210 20.380379
67.215 20.193996
67.220 19.141834
67.225 18.711452
67.230 18.629858
67.235 18.68973
67.240 19.330317
67.245 19.801552
67.250 19.47201
67.255 19.996628
67.260 20.160435
67.265 20.120564
67.270 20.059078
67.275 19.366968
67.280 18.803822
67.285 19.417656
67.290 19.573647
67.295 19.622732
67.300 19.785164
67.305 20.074003
67.310 20.766558
67.315 20.729288
67.320 20.553411
67.325 21.068756
67.330 21.050856
67.335 21.144468
67.340 20.731588
67.345 20.216055
67.350 19.984156
67.355 20.224646
67.360 19.764297
67.365 19.193523
67.370 18.515083
67.375 18.401545
67.380 18.186481
67.385 18.327349
67.390 18.122993
67.395 18.642004
67.400 19.358665
67.405 19.479263
67.410 19.392008
67.415 19.71858
67.420 20.274927
67.425 20.099899
67.430 19.467501
67.435 19.887745
67.440 19.891712
67.445 19.923988
67.450 20.146231
67.455 19.709982
67.460 19.804453
67.465 19.833561
67.470 19.547165
67.475 20.040579
67.480 20.003164
67.485 19.880459
67.490 19.508698
67.495 19.515034
67.500 19.67742
67.505 19.04599
67.510 19.071712
67.515 19.219364
67.520 19.433611
67.525 19.909147
67.530 20.196363
67.535 20.367302
67.540 20.961586
67.545 21.211002
67.550 21.167732
67.555 21.197329
67.560 21.305639
67.565 21.085957
67.570 21.184502
67.575 21.239531
67.580 21.143127
67.585 21.324547
67.590 21.72225
67.595 21.905933
67.600 21.844233
67.605 21.57543
67.610 21.798618
67.615 21.884228
67.620 22.036699
67.625 21.862247
67.630 21.820635
67.635 22.128857
67.640 22.169136
67.645 21.891262
67.650 21.981625
67.655 21.622208
67.660 21.45001
67.665 21.119644
67.670 20.908794
67.675 20.75939
67.680 20.53685
67.685 20.43899
67.690 20.461691
67.695 20.294003
67.700 20.480663
67.705 20.984119
67.710 21.411276
67.715 21.309525
67.720 20.572823
67.725 20.424301
67.730 20.121386
67.735 19.885714
67.740 19.51549
67.745 18.899738
67.750 19.052979
67.755 19.047495
67.760 18.758083
67.765 19.249605
67.770 18.864342
67.775 18.45578
67.780 18.6015
67.785 18.71138
67.790 19.43841
67.795 20.424355
67.800 20.127602
67.805 20.211765
67.810 20.066458
67.815 20.101307
67.820 20.200079
67.825 19.827999
67.830 19.219604
67.835 19.180744
67.840 19.544867
67.845 19.612329
67.850 19.495832
67.855 19.403942
67.860 19.081282
67.865 19.307478
67.870 19.615963
67.875 19.288977
67.880 19.686926
67.885 19.961319
67.890 19.932047
67.895 20.506451
67.900 20.548109
67.905 20.948832
67.910 20.923872
67.915 20.735514
67.920 20.692194
67.925 20.136045
67.930 19.797306
67.935 19.426498
67.940 19.638538
67.945 20.149052
67.950 20.091661
67.955 20.203087
67.960 20.619871
67.965 20.911417
67.970 20.768408
67.975 20.164967
67.980 19.85092
67.985 20.275015
67.990 20.674793
67.995 20.55757
68.000 20.400795
68.005 20.228523
68.010 19.87043
68.015 19.928875
68.020 19.404108
68.025 18.887564
68.030 19.076878
68.035 18.756992
68.040 18.913666
68.045 19.520239
68.050 19.633629
68.055 19.488235
68.060 19.513357
68.065 19.43998
68.070 19.627886
68.075 19.659695
68.080 19.610277
68.085 19.603041
68.090 20.079161
68.095 19.917168
68.100 19.49538
68.105 19.720093
68.110 20.0089
68.115 20.342602
68.120 20.668037
68.125 20.304113
68.130 20.829111
68.135 21.378534
68.140 21.313505
68.145 20.836491
68.150 20.076864
68.155 19.788677
68.160 19.453934
68.165 18.760653
68.170 18.596436
68.175 18.607468
68.180 18.653053
68.185 19.685333
68.190 19.799915
68.195 20.151863
68.200 20.25477
68.205 20.142736
68.210 20.205753
68.215 20.860842
68.220 20.445679
68.225 19.932957
68.230 19.967079
68.235 20.237791
68.240 20.516138
68.245 20.660263
68.250 20.218967
68.255 19.769838
68.260 19.974422
68.265 20.168549
68.270 19.91621
68.275 19.699224
68.280 19.570328
68.285 19.264301
68.290 19.189983
68.295 19.54277
68.300 19.256384
68.305 19.470125
68.310 19.786175
68.315 19.464954
68.320 19.731386
68.325 19.889011
68.330 19.605825
68.335 19.657009
68.340 19.571615
68.345 19.502998
68.350 20.183933
68.355 20.61121
68.360 20.800982
68.365 21.050476
68.370 21.288887
68.375 21.329939
68.380 21.071091
68.385 20.207972
68.390 19.861008
68.395 20.409704
68.400 19.832134
68.405 19.832355
68.410 20.013119
68.415 19.782377
68.420 20.17038
68.425 20.413841
68.430 20.554993
68.435 21.495951
68.440 21.227219
68.445 20.987169
68.450 20.954714
68.455 20.484978
68.460 20.161701
68.465 19.352285
68.470 18.862734
68.475 18.725437
68.480 18.972824
68.485 18.321545
68.490 18.34289
68.495 18.413919
68.500 18.839621
68.505 18.903038
68.510 18.83799
68.515 19.016317
68.520 20.279722
68.525 21.017668
68.530 21.0079
68.535 20.810019
68.540 20.783943
68.545 21.099937
68.550 20.690279
68.555 20.005695
68.560 19.917286
68.565 19.936003
68.570 20.212841
68.575 20.309896
68.580 20.717882
68.585 21.333044
68.590 21.02861
68.595 20.471994
68.600 20.123102
68.605 19.961233
68.610 20.126591
68.615 19.919329
68.620 19.808678
68.625 20.410509
68.630 20.676224
68.635 20.609402
68.640 20.090614
68.645 19.828711
68.650 19.656609
68.655 19.90011
68.660 19.814186
68.665 20.206507
68.670 20.623251
68.675 20.887686
68.680 21.37462
68.685 22.05282
68.690 22.072277
68.695 22.264961
68.700 22.428461
68.705 22.641289
68.710 22.458157
68.715 22.320797
68.720 21.999332
68.725 21.434261
68.730 20.298412
68.735 19.866997
68.740 19.588549
68.745 19.765114
68.750 19.889502
68.755 20.225557
68.760 20.983627
68.765 21.926159
68.770 22.110666
68.775 21.992451
68.780 22.001867
68.785 21.304445
68.790 20.485596
68.795 19.938112
68.800 19.749912
68.805 19.949354
68.810 19.829521
68.815 20.022829
68.820 20.706045
68.825 20.929966
68.830 21.623196
68.835 21.930891
68.840 22.012569
68.845 22.567995
68.850 22.134079
68.855 21.972658
68.860 21.845419
68.865 21.728029
68.870 21.781113
68.875 21.695694
68.880 21.25835
68.885 21.055979
68.890 21.276516
68.895 22.106947
68.900 22.436888
68.905 22.603994
68.910 22.565945
68.915 22.732344
68.920 23.256968
68.925 23.571875
68.930 24.126678
68.935 23.518167
68.940 23.505131
68.945 24.202465
68.950 24.476107
68.955 23.679092
68.960 22.724129
68.965 22.054667
68.970 22.046492
68.975 22.413906
68.980 22.08264
68.985 22.187202
68.990 22.929876
68.995 23.120438
69.000 23.253761
69.005 22.805969
69.010 22.624594
69.015 22.654211
69.020 22.564669
69.025 22.221647
69.030 22.404184
69.035 22.442575
69.040 22.993254
69.045 22.784857
69.050 23.478342
69.055 24.085886
69.060 24.687365
69.065 25.083439
69.070 25.068521
69.075 24.990387
69.080 24.524294
69.085 23.984421
69.090 23.79076
69.095 24.33732
69.100 24.698496
69.105 25.085241
69.110 25.360512
69.115 25.439245
69.120 25.535946
69.125 25.620251
69.130 25.162985
69.135 24.975975
69.140 25.454855
69.145 26.358751
69.150 27.30928
69.155 28.024321
69.160 27.605076
69.165 27.122215
69.170 27.092224
69.175 27.017422
69.180 26.4615
69.185 25.804951
69.190 25.458477
69.195 25.74028
69.200 25.112659
69.205 24.988783
69.210 24.913946
69.215 25.980799
69.220 25.855812
69.225 25.625273
69.230 26.348173
69.235 27.259867
69.240 27.13348
69.245 27.488995
69.250 27.026623
69.255 27.906187
69.260 27.925056
69.265 27.312851
69.270 27.751656
69.275 28.111803
69.280 27.882471
69.285 28.437401
69.290 28.900921
69.295 29.891945
69.300 30.604933
69.305 30.728727
69.310 30.965843
69.315 31.044077
69.320 30.85561
69.325 29.725657
69.330 28.790831
69.335 28.459648
69.340 28.161781
69.345 28.517038
69.350 29.062437
69.355 28.844496
69.360 29.712738
69.365 30.893282
69.370 30.536293
69.375 30.719408
69.380 30.571535
69.385 30.672228
69.390 31.924778
69.395 32.04174
69.400 32.064671
69.405 32.972286
69.410 33.148426
69.415 33.571384
69.420 33.200378
69.425 32.970169
69.430 32.64402
69.435 32.599064
69.440 32.838398
69.445 32.944736
69.450 32.73534
69.455 32.768932
69.460 32.460327
69.465 32.54483
69.470 32.779728
69.475 32.540768
69.480 32.687416
69.485 32.777096
69.490 32.620327
69.495 32.493729
69.500 32.524448
69.505 32.483986
69.510 32.349037
69.515 32.098015
69.520 31.861382
69.525 31.672499
69.530 31.862183
69.535 31.276585
69.540 31.547033
69.545 32.240013
69.550 33.057564
69.555 33.572594
69.560 33.632824
69.565 34.105663
69.570 34.933441
69.575 34.831364
69.580 33.79361
69.585 33.510994
69.590 33.519894
69.595 32.934677
69.600 32.025894
69.605 31.123936
69.610 30.959873
69.615 30.715885
69.620 29.646473
69.625 29.992178
69.630 30.745005
69.635 31.375114
69.640 31.795322
69.645 31.78602
69.650 31.815525
69.655 32.669235
69.660 32.095898
69.665 31.683167
69.670 31.362892
69.675 30.871569
69.680 31.217758
69.685 30.917141
69.690 30.184381
69.695 30.131935
69.700 29.792425
69.705 29.282248
69.710 29.329231
69.715 29.231632
69.720 29.454575
69.725 28.534306
69.730 27.910269
69.735 28.036226
69.740 28.580194
69.745 28.141972
69.750 27.49791
69.755 27.016243
69.760 27.206526
69.765 26.869999
69.770 26.675766
69.775 26.720371
69.780 26.733835
69.785 27.20705
69.790 27.266386
69.795 27.465714
69.800 27.164988
69.805 26.082134
69.810 25.536989
69.815 24.832232
69.820 24.25898
69.825 24.434818
69.830 24.002764
69.835 24.273155
69.840 24.703259
69.845 24.237642
69.850 24.19735
69.855 23.768396
69.860 23.307365
69.865 23.745413
69.870 23.817562
69.875 24.370132
69.880 25.090231
69.885 25.499672
69.890 25.651052
69.895 24.630222
69.900 24.199747
69.905 23.717178
69.910 23.269981
69.915 22.739971
69.920 22.273949
69.925 22.323608
69.930 22.639231
69.935 22.644314
69.940 22.260059
69.945 21.841387
69.950 21.740711
69.955 21.967276
69.960 22.17301
69.965 22.66116
69.970 22.504011
69.975 22.643501
69.980 22.493359
69.985 22.387321
69.990 21.949217
69.995 21.631329
70.000 20.952984
70.005 21.076918
70.010 20.780785
70.015 20.479555
70.020 20.138685
70.025 20.319113
70.030 20.183643
70.035 20.594885
70.040 20.571671
70.045 20.861927
70.050 20.717232
70.055 21.186718
70.060 21.230799
70.065 21.652863
70.070 21.885674
70.075 22.309452
70.080 22.202578
70.085 22.179426
70.090 21.924013
70.095 22.073633
70.100 22.09741
70.105 20.854046
70.110 20.406187
70.115 20.480797
70.120 20.584713
70.125 20.82029
70.130 21.041826
70.135 21.276913
70.140 21.872368
70.145 22.050884
70.150 21.812397
70.155 20.976784
70.160 20.580564
70.165 19.825287
70.170 19.245087
70.175 19.095152
70.180 19.014549
70.185 19.748028
70.190 20.254639
70.195 20.367872
70.200 21.021837
70.205 21.670181
70.210 21.347855
70.215 21.33931
70.220 20.715023
70.225 20.554871
70.230 20.203571
70.235 19.265535
70.240 18.54763
70.245 18.570908
70.250 18.757334
70.255 18.916132
70.260 18.966516
70.265 19.351645
70.270 19.350548
70.275 19.063841
70.280 18.990971
70.285 19.407009
70.290 19.187527
70.295 19.039179
70.300 18.616846
70.305 18.407995
70.310 18.37776
70.315 18.061846
70.320 17.84651
70.325 17.700869
70.330 17.350006
70.335 17.648743
70.340 17.798346
70.345 17.862074
70.350 18.101254
70.355 17.826591
70.360 18.341862
70.365 18.583872
70.370 19.02895
70.375 19.568613
70.380 20.100269
70.385 20.221632
70.390 20.197922
70.395 20.521631
70.400 20.330101
70.405 19.653055
70.410 19.231579
70.415 18.726013
70.420 18.412344
70.425 18.703764
70.430 18.610394
70.435 18.69982
70.440 19.506878
70.445 19.687967
70.450 19.442238
70.455 19.241045
70.460 19.291592
70.465 19.082047
70.470 18.934216
70.475 19.021366
70.480 18.964359
70.485 19.885767
70.490 20.358936
70.495 20.179075
70.500 20.173317
70.505 20.017645
70.510 19.812298
70.515 19.775106
70.520 19.837252
70.525 19.707289
70.530 19.608965
70.535 19.772095
70.540 19.982437
70.545 20.47398
70.550 20.595301
70.555 19.701483
70.560 19.606863
70.565 19.464842
70.570 19.221815
70.575 18.751175
70.580 18.255194
70.585 18.209875
70.590 18.837809
70.595 18.626017
70.600 18.27195
70.605 18.555019
70.610 18.679251
70.615 18.161318
70.620 17.780428
70.625 17.770275
70.630 17.761271
70.635 17.869747
70.640 17.851952
70.645 18.168758
70.650 18.2847
70.655 18.006702
70.660 18.284458
70.665 18.382423
70.670 18.620249
70.675 18.24218
70.680 18.044306
70.685 18.552998
70.690 18.991451
70.695 19.007961
70.700 19.023582
70.705 18.7234
70.710 19.143002
70.715 19.302187
70.720 19.743631
70.725 18.904127
70.730 19.191608
70.735 19.715841
70.740 19.823502
70.745 19.421331
70.750 19.11054
70.755 19.042311
70.760 19.062975
70.765 18.892687
70.770 18.637358
70.775 18.756983
70.780 19.10618
70.785 18.930578
70.790 18.730471
70.795 18.872253
70.800 18.26438
70.805 18.515394
70.810 18.176397
70.815 17.914883
70.820 18.440235
70.825 18.691179
70.830 18.581587
70.835 19.073145
70.840 19.211128
70.845 19.536613
70.850 19.17771
70.855 18.549255
70.860 17.688921
70.865 17.934967
70.870 17.622652
70.875 17.087444
70.880 17.051163
70.885 17.369291
70.890 17.225439
70.895 17.50946
70.900 17.635265
70.905 17.82885
70.910 17.961645
70.915 18.186693
70.920 17.973795
70.925 18.205265
70.930 18.095125
70.935 17.807747
70.940 18.175711
70.945 18.156084
70.950 17.723099
70.955 18.438761
70.960 18.745642
70.965 18.898825
70.970 18.585363
70.975 18.486828
70.980 18.338665
70.985 18.24259
70.990 17.419292
70.995 16.967995
71.000 17.197147
71.005 17.140293
71.010 16.703953
71.015 16.974539
71.020 17.215258
71.025 17.902657
71.030 18.450922
71.035 18.89356
71.040 18.990036
71.045 19.286739
71.050 19.517536
71.055 19.677673
71.060 20.085649
71.065 19.808367
71.070 19.365482
71.075 19.527206
71.080 20.004429
71.085 19.746199
71.090 19.340868
71.095 19.399185
71.100 19.088915
71.105 19.126745
71.110 18.822912
71.115 18.71142
71.120 18.861582
71.125 18.257805
71.130 18.551327
71.135 19.164419
71.140 19.364693
71.145 18.65148
71.150 18.378708
71.155 18.445299
71.160 18.921726
71.165 18.081226
71.170 17.917212
71.175 18.012209
71.180 18.398056
71.185 18.315929
71.190 17.850075
71.195 17.795504
71.200 18.083664
71.205 18.131044
71.210 18.386709
71.215 18.197344
71.220 18.534098
71.225 19.185369
71.230 19.0725
71.235 18.997805
71.240 18.718948
71.245 18.317219
71.250 18.021236
71.255 17.759771
71.260 17.370386
71.265 16.756409
71.270 16.363543
71.275 16.14539
71.280 16.52632
71.285 17.031406
71.290 17.337112
71.295 17.88121
71.300 18.22286
71.305 18.090816
71.310 18.365644
71.315 18.125902
71.320 17.676655
71.325 17.273613
71.330 17.128031
71.335 17.814926
71.340 18.295834
71.345 18.895079
71.350 19.19784
71.355 19.626478
71.360 19.694099
71.365 19.861301
71.370 19.380516
71.375 19.080143
71.380 18.448587
71.385 18.878555
71.390 18.737608
71.395 18.312531
71.400 18.285336
71.405 18.003063
71.410 18.062792
71.415 17.961069
71.420 17.349672
71.425 17.430185
71.430 17.190922
71.435 16.707697
71.440 16.410749
71.445 16.745461
71.450 16.396511
71.455 16.694626
71.460 16.753843
71.465 17.202858
71.470 17.425905
71.475 18.064877
71.480 18.685844
71.485 19.021015
71.490 18.428257
71.495 18.643061
71.500 18.814163
71.505 19.245754
71.510 18.879032
71.515 18.845499
71.520 19.255962
71.525 19.282877
71.530 19.084293
71.535 18.327185
71.540 18.322327
71.545 18.078465
71.550 17.416857
71.555 17.137293
71.560 17.28282
71.565 17.384895
71.570 18.035961
71.575 17.858881
71.580 18.153845
71.585 18.37394
71.590 18.816429
71.595 19.327551
71.600 19.470819
71.605 19.233995
71.610 19.316734
71.615 19.38002
71.620 19.340822
71.625 19.672146
71.630 19.259905
71.635 18.969622
71.640 19.279404
71.645 18.797768
71.650 18.764204
71.655 18.469898
71.660 18.428345
71.665 18.785238
71.670 18.875532
71.675 19.456306
71.680 20.076015
71.685 20.046478
71.690 20.114231
71.695 19.832165
71.700 20.166761
71.705 20.239534
71.710 19.859396
71.715 19.873638
71.720 20.148365
71.725 20.429573
71.730 20.269005
71.735 19.958229
71.740 19.594301
71.745 19.414507
71.750 19.498985
71.755 19.528051
71.760 19.136957
71.765 18.985231
71.770 18.497925
71.775 19.0949
71.780 19.130177
71.785 18.641211
71.790 17.892641
71.795 17.798103
71.800 18.054678
71.805 18.132521
71.810 17.731579
71.815 17.230452
71.820 16.69138
71.825 16.365259
71.830 16.228325
71.835 15.992935
71.840 15.9543
71.845 15.702193
71.850 16.081161
71.855 16.826649
71.860 17.09868
71.865 17.042131
71.870 17.057861
71.875 17.394779
71.880 17.666029
71.885 17.370897
71.890 17.567476
71.895 17.60466
71.900 18.084793
71.905 17.949543
71.910 17.544085
71.915 17.668652
71.920 17.526554
71.925 17.761978
71.930 17.472134
71.935 17.892622
71.940 18.001293
71.945 18.006817
71.950 17.906057
71.955 18.112446
71.960 17.708191
71.965 17.706825
71.970 17.282515
71.975 16.560265
71.980 16.578869
71.985 16.595945
71.990 16.463369
71.995 16.529926
72.000 16.87079
72.005 16.965216
72.010 17.399458
72.015 17.93519
72.020 18.262772
72.025 19.031731
72.030 18.906513
72.035 18.387138
72.040 18.49684
72.045 18.199314
72.050 17.810114
72.055 17.192833
72.060 16.08098
72.065 16.244381
72.070 16.471298
72.075 16.625887
72.080 17.571375
72.085 17.978596
72.090 18.438173
72.095 18.356386
72.100 18.210352
72.105 18.173355
72.110 18.100445
72.115 17.21677
72.120 16.83428
72.125 17.08317
72.130 17.537067
72.135 18.269478
72.140 18.427763
72.145 18.188772
72.150 17.657093
72.155 17.865501
72.160 17.889614
72.165 17.76581
72.170 17.298437
72.175 17.418009
72.180 18.330723
72.185 19.216858
72.190 19.37299
72.195 18.972904
72.200 18.970196
72.205 18.934422
72.210 18.462357
72.215 17.781986
72.220 17.536869
72.225 17.804419
72.230 18.294954
72.235 17.85611
72.240 17.954138
72.245 18.787176
72.250 18.662848
72.255 18.70352
72.260 18.282705
72.265 18.495007
72.270 18.460323
72.275 18.151346
72.280 17.82312
72.285 17.608238
72.290 17.764442
72.295 18.228666
72.300 18.455523
72.305 18.759579
72.310 19.146496
72.315 19.810165
72.320 20.156361
72.325 20.374664
72.330 20.070007
72.335 20.159245
72.340 19.925169
72.345 19.646368
72.350 18.981659
72.355 18.375191
72.360 18.439028
72.365 18.610186
72.370 18.345459
72.375 17.96863
72.380 17.678579
72.385 17.573158
72.390 17.861158
72.395 17.420769
72.400 17.63299
72.405 17.747362
72.410 17.86203
72.415 18.210674
72.420 18.284502
72.425 17.818913
72.430 17.837814
72.435 17.672007
72.440 17.448448
72.445 17.781319
72.450 18.133942
72.455 18.303766
72.460 18.70409
72.465 18.318621
72.470 18.680403
72.475 18.970051
72.480 18.717274
72.485 17.720966
72.490 17.612484
72.495 17.282642
72.500 17.182768
72.505 16.890705
72.510 16.656294
72.515 16.363478
72.520 16.748362
72.525 17.401646
72.530 17.809855
72.535 17.749586
72.540 17.900631
72.545 18.238216
72.550 18.521465
72.555 17.837391
72.560 17.144491
72.565 17.131994
72.570 17.216545
72.575 17.018587
72.580 17.625751
72.585 18.095964
72.590 18.646988
72.595 18.787548
72.600 19.063774
72.605 19.549921
72.610 19.576485
72.615 18.971037
72.620 18.001995
72.625 17.740305
72.630 17.813789
72.635 17.098629
72.640 16.743687
72.645 16.642986
72.650 16.353935
72.655 17.037687
72.660 16.692322
72.665 16.336763
72.670 17.039532
72.675 16.650728
72.680 16.741592
72.685 16.780376
72.690 16.982765
72.695 17.160599
72.700 17.21381
72.705 17.423389
72.710 17.251516
72.715 17.297848
72.720 17.309235
72.725 17.384562
72.730 17.850187
72.735 17.675226
72.740 17.990774
72.745 18.392981
72.750 18.409679
72.755 18.218187
72.760 18.314629
72.765 17.70466
72.770 17.165852
72.775 16.836115
72.780 16.840872
72.785 16.840366
72.790 16.951845
72.795 17.343481
72.800 17.955303
72.805 18.12034
72.810 18.339066
72.815 18.355534
72.820 18.237953
72.825 17.849073
72.830 17.471821
72.835 17.176403
72.840 16.437408
72.845 15.970025
72.850 15.726494
72.855 15.597717
72.860 15.510905
72.865 15.577146
72.870 15.880518
72.875 16.527807
72.880 16.550976
72.885 16.757427
72.890 16.9967
72.895 16.922785
72.900 16.414032
72.905 16.492966
72.910 16.120319
72.915 15.718036
72.920 15.817592
72.925 15.753491
72.930 16.179585
72.935 16.238886
72.940 15.897361
72.945 15.919577
72.950 16.128149
72.955 15.940728
72.960 15.988926
72.965 15.728911
72.970 15.856347
72.975 16.240763
72.980 16.592367
72.985 16.677931
72.990 16.703598
72.995 16.897987
73.000 17.095047
