!@!!GADDS PLOTSO FILE: Chi integration type
!@!!Title/SampleName: map-2d
!@!!Comment: ?
!@!!User: Bruker Instrument Administrator
!@!!Site: University of Illinois Chicago
!@!!Frame: map-2d_01_000.gfrm
!@!!Wavelengths    1.54184   1.54056   1.54439
!@!!Frame angles: 2Theta: 63.000 Omega: 50.000 Phi: 0.000 Chi: 90.000
!@!!Integration range: 2Theta: 53.000 to 73.000  Gamma: -105.000 to -75.000
!@!!Integration method: bin normalized
!@!N
!@!SS
!@!M
!@!L 0.0 0.0 0.0 0.0
!@!XDegrees
!@!YCounts
53.000 11.16777
53.005 10.924143
53.010 10.471179
53.015 9.982845
53.020 9.42143
53.025 9.242371
53.030 9.28042
53.035 8.964191
53.040 9.397697
53.045 9.847853
53.050 10.143852
53.055 9.827091
53.060 9.646168
53.065 9.680934
53.070 9.739598
53.075 9.51307
53.080 9.032258
53.085 9.054043
53.090 9.837112
53.095 10.228628
53.100 10.442498
53.105 10.567141
53.110 10.642086
53.115 11.276767
53.120 11.285351
53.125 10.908453
53.130 10.561652
53.135 10.125582
53.140 9.674404
53.145 9.46861
53.150 9.290381
53.155 9.233567
53.160 9.763692
53.165 9.833594
53.170 10.170234
53.175 10.533124
53.180 10.465438
53.185 10.351288
53.190 10.118613
53.195 9.787039
53.200 10.047326
53.205 9.921597
53.210 9.579465
53.215 9.436918
53.220 9.303991
53.225 9.382994
53.230 9.628589
53.235 9.386586
53.240 9.502987
53.245 10.054768
53.250 10.396364
53.255 10.3397
53.260 10.10111
53.265 10.094648
53.270 10.303998
53.275 10.068536
53.280 9.651203
53.285 10.055332
53.290 10.242149
53.295 10.655552
53.300 10.627537
53.305 10.326003
53.310 10.578978
53.315 10.614073
53.320 9.830037
53.325 9.615428
53.330 9.306961
53.335 9.239455
53.340 9.508304
53.345 9.681312
53.350 9.94682
53.355 10.146498
53.360 9.985576
53.365 10.082744
53.370 10.210158
53.375 10.053323
53.380 9.731068
53.385 9.675329
53.390 9.88405
53.395 9.664187
53.400 9.623914
53.405 9.630197
53.410 9.814596
53.415 9.701743
53.420 10.016315
53.425 10.866889
53.430 11.035927
53.435 10.919851
53.440 11.38946
53.445 11.332666
53.450 11.51949
53.455 11.196826
53.460 10.694981
53.465 11.028292
53.470 11.038109
53.475 10.803002
53.480 10.835118
53.485 10.607187
53.490 10.919742
53.495 10.801302
53.500 10.543936
53.505 10.555248
53.510 10.099389
53.515 9.977803
53.520 10.014911
53.525 10.337573
53.530 10.292438
53.535 10.048171
53.540 9.747342
53.545 10.49626
53.550 11.111917
53.555 11.187839
53.560 10.70188
53.565 10.908264
53.570 10.752
53.575 10.900217
53.580 10.446711
53.585 10.388788
53.590 10.559922
53.595 10.908814
53.600 11.019808
53.605 11.334797
53.610 11.059315
53.615 11.104095
53.620 10.848545
53.625 10.379656
53.630 10.293424
53.635 10.481425
53.640 10.507113
53.645 10.729479
53.650 10.560105
53.655 10.732854
53.660 10.500379
53.665 10.321922
53.670 10.420262
53.675 10.635536
53.680 10.772955
53.685 10.512509
53.690 10.431127
53.695 10.390522
53.700 10.464287
53.705 10.263836
53.710 10.125351
53.715 9.733175
53.720 9.944411
53.725 10.009782
53.730 10.454826
53.735 10.625687
53.740 10.830534
53.745 10.954369
53.750 11.395706
53.755 11.478554
53.760 11.350569
53.765 11.031466
53.770 10.353117
53.775 10.512986
53.780 10.43745
53.785 10.31963
53.790 10.576307
53.795 10.742814
53.800 10.960854
53.805 11.149053
53.810 11.352736
53.815 11.962852
53.820 12.37733
53.825 12.235977
53.830 11.697294
53.835 11.903601
53.840 11.913539
53.845 12.112346
53.850 11.855855
53.855 11.637838
53.860 12.0236
53.865 12.822908
53.870 12.504548
53.875 11.993326
53.880 11.558514
53.885 11.536518
53.890 11.962831
53.895 11.420163
53.900 11.220296
53.905 11.429803
53.910 11.506636
53.915 11.55971
53.920 11.607524
53.925 11.309555
53.930 11.194419
53.935 11.178218
53.940 10.960137
53.945 10.871385
53.950 10.466054
53.955 10.011576
53.960 9.989316
53.965 10.166547
53.970 10.09516
53.975 10.027495
53.980 9.887443
53.985 9.826233
53.990 9.605609
53.995 9.258686
54.000 9.272251
54.005 9.111298
54.010 9.334222
54.015 9.646641
54.020 10.070062
54.025 10.426039
54.030 10.861136
54.035 10.560425
54.040 10.812462
54.045 10.835525
54.050 10.573438
54.055 10.242118
54.060 10.366053
54.065 10.985929
54.070 11.023806
54.075 10.903981
54.080 11.007664
54.085 11.307117
54.090 11.487226
54.095 11.14815
54.100 10.780824
54.105 11.588223
54.110 11.985865
54.115 12.257722
54.120 12.069982
54.125 11.958282
54.130 12.439775
54.135 12.267071
54.140 11.935163
54.145 12.106342
54.150 11.774625
54.155 12.083547
54.160 12.31636
54.165 11.952782
54.170 12.10237
54.175 11.714433
54.180 11.498369
54.185 10.990815
54.190 10.128608
54.195 9.956744
54.200 9.637243
54.205 9.401844
54.210 9.427577
54.215 9.309628
54.220 9.696398
54.225 10.013018
54.230 10.256957
54.235 10.998965
54.240 10.864021
54.245 10.916754
54.250 11.142027
54.255 11.047202
54.260 11.480201
54.265 11.388742
54.270 11.028101
54.275 11.413344
54.280 11.287159
54.285 11.251884
54.290 11.203973
54.295 10.856729
54.300 10.747759
54.305 11.247345
54.310 11.484404
54.315 11.843431
54.320 12.497142
54.325 12.65064
54.330 12.699499
54.335 12.577095
54.340 12.293635
54.345 12.516136
54.350 12.195295
54.355 11.544805
54.360 11.775735
54.365 12.033458
54.370 12.333494
54.375 11.830351
54.380 11.238681
54.385 11.307076
54.390 11.616688
54.395 11.478063
54.400 10.922957
54.405 10.511669
54.410 10.777193
54.415 11.348279
54.420 11.098181
54.425 11.083115
54.430 10.771837
54.435 11.198949
54.440 11.353895
54.445 11.313197
54.450 11.39996
54.455 11.456371
54.460 11.164068
54.465 11.391125
54.470 11.238838
54.475 11.027581
54.480 10.482374
54.485 9.743587
54.490 9.94161
54.495 9.768624
54.500 9.969066
54.505 10.682053
54.510 11.201159
54.515 11.489781
54.520 11.61591
54.525 11.757463
54.530 12.015776
54.535 11.687407
54.540 11.095695
54.545 10.723404
54.550 10.773273
54.555 10.766726
54.560 10.593831
54.565 10.653872
54.570 10.81182
54.575 11.264336
54.580 11.986354
54.585 12.457348
54.590 12.547315
54.595 12.715476
54.600 12.976084
54.605 12.88596
54.610 12.799194
54.615 12.259058
54.620 12.185475
54.625 12.828357
54.630 13.032541
54.635 12.35185
54.640 12.562617
54.645 12.288195
54.650 12.153132
54.655 12.021914
54.660 11.78099
54.665 12.08297
54.670 12.216879
54.675 11.842194
54.680 12.101421
54.685 12.205904
54.690 11.789107
54.695 11.061789
54.700 11.186971
54.705 11.307496
54.710 11.766223
54.715 12.119476
54.720 12.520999
54.725 12.575851
54.730 12.599858
54.735 12.820864
54.740 13.13942
54.745 12.52286
54.750 12.059318
54.755 12.146573
54.760 12.308896
54.765 12.149079
54.770 11.326781
54.775 11.022676
54.780 11.299527
54.785 11.242144
54.790 10.810699
54.795 10.764993
54.800 11.339554
54.805 11.878618
54.810 12.007629
54.815 11.91777
54.820 11.562791
54.825 11.941111
54.830 11.917033
54.835 11.797268
54.840 11.81088
54.845 11.403009
54.850 12.062423
54.855 12.499859
54.860 12.236093
54.865 12.087668
54.870 11.636064
54.875 11.980136
54.880 12.837626
54.885 12.42149
54.890 12.492038
54.895 12.883574
54.900 13.181884
54.905 13.315217
54.910 12.800591
54.915 12.193924
54.920 11.905087
54.925 11.39417
54.930 11.07002
54.935 10.594284
54.940 10.168927
54.945 10.176858
54.950 10.466373
54.955 10.829199
54.960 11.011175
54.965 10.67528
54.970 10.931021
54.975 11.063632
54.980 11.364018
54.985 11.326648
54.990 11.361983
54.995 11.988829
55.000 12.596444
55.005 12.99688
55.010 13.827663
55.015 13.650917
55.020 12.937719
55.025 12.93787
55.030 13.273067
55.035 13.345941
55.040 13.089173
55.045 12.746836
55.050 13.388605
55.055 13.523714
55.060 12.918242
55.065 12.256064
55.070 12.012688
55.075 11.653675
55.080 11.259594
55.085 10.787561
55.090 11.054745
55.095 11.174688
55.100 11.214047
55.105 11.301937
55.110 11.367103
55.115 11.42353
55.120 11.762547
55.125 11.791047
55.130 11.927218
55.135 12.277328
55.140 12.374297
55.145 12.445211
55.150 12.378817
55.155 12.073809
55.160 11.767028
55.165 11.455888
55.170 10.868407
55.175 10.814301
55.180 10.831706
55.185 11.232429
55.190 11.950536
55.195 12.134027
55.200 12.292824
55.205 12.495898
55.210 12.187523
55.215 12.250004
55.220 12.068588
55.225 11.933398
55.230 12.347577
55.235 12.733191
55.240 12.940515
55.245 13.29616
55.250 12.907067
55.255 12.731553
55.260 12.378735
55.265 12.031965
55.270 12.39373
55.275 12.1353
55.280 12.050986
55.285 12.077395
55.290 12.076582
55.295 12.471127
55.300 12.05221
55.305 11.252964
55.310 11.598666
55.315 11.469819
55.320 11.941325
55.325 11.955734
55.330 11.712522
55.335 12.012979
55.340 11.839249
55.345 11.860851
55.350 12.16497
55.355 11.809076
55.360 11.771265
55.365 12.066615
55.370 12.567312
55.375 12.825441
55.380 12.702762
55.385 12.99455
55.390 13.415314
55.395 13.729117
55.400 13.334571
55.405 13.279936
55.410 13.59516
55.415 13.468966
55.420 12.856662
55.425 12.735446
55.430 12.978226
55.435 13.268991
55.440 12.918161
55.445 13.230975
55.450 13.300189
55.455 13.335909
55.460 13.021672
55.465 13.161282
55.470 12.961212
55.475 12.878016
55.480 12.314301
55.485 12.129146
55.490 12.35925
55.495 12.729724
55.500 12.058411
55.505 12.529237
55.510 12.375147
55.515 12.677233
55.520 13.159645
55.525 13.007833
55.530 12.678147
55.535 12.800546
55.540 12.895521
55.545 12.994003
55.550 12.651779
55.555 12.062017
55.560 11.641808
55.565 11.388599
55.570 11.281831
55.575 11.507977
55.580 11.724854
55.585 12.083924
55.590 12.23942
55.595 12.414611
55.600 13.091417
55.605 12.743403
55.610 12.258843
55.615 12.282103
55.620 12.027558
55.625 12.131333
55.630 12.176051
55.635 11.800941
55.640 11.616597
55.645 11.57548
55.650 11.58041
55.655 11.923221
55.660 12.424942
55.665 12.231904
55.670 12.172
55.675 12.702368
55.680 12.496992
55.685 12.616812
55.690 12.401813
55.695 12.145816
55.700 12.853865
55.705 12.761481
55.710 12.860662
55.715 13.761477
55.720 13.638344
55.725 13.778567
55.730 14.086354
55.735 14.045712
55.740 14.203399
55.745 13.919073
55.750 13.569746
55.755 13.694833
55.760 13.649828
55.765 13.262589
55.770 13.136622
55.775 13.211935
55.780 13.584009
55.785 13.484102
55.790 13.525947
55.795 13.315181
55.800 13.458217
55.805 13.886284
55.810 13.690175
55.815 13.185899
55.820 12.927887
55.825 12.863821
55.830 12.915887
55.835 13.171907
55.840 13.022851
55.845 13.324809
55.850 14.132239
55.855 14.405103
55.860 14.429406
55.865 14.363782
55.870 13.9672
55.875 14.004309
55.880 13.612627
55.885 13.019257
55.890 12.783602
55.895 12.729121
55.900 12.680082
55.905 13.224416
55.910 13.884798
55.915 13.814054
55.920 13.818224
55.925 14.030038
55.930 14.1358
55.935 14.126025
55.940 13.889725
55.945 13.971965
55.950 13.790337
55.955 13.860517
55.960 13.619075
55.965 13.534708
55.970 13.352384
55.975 12.870787
55.980 12.299247
55.985 12.34959
55.990 12.23271
55.995 11.90113
56.000 12.086696
56.005 11.871745
56.010 12.020714
56.015 12.549569
56.020 13.160913
56.025 13.479228
56.030 13.775878
56.035 13.428614
56.040 13.277404
56.045 12.767761
56.050 12.38591
56.055 12.311077
56.060 11.700121
56.065 11.530327
56.070 11.939491
56.075 12.172804
56.080 12.016541
56.085 12.168057
56.090 11.611178
56.095 11.801371
56.100 11.947537
56.105 11.682046
56.110 11.278134
56.115 11.925536
56.120 11.663193
56.125 12.161353
56.130 12.351315
56.135 11.85388
56.140 11.968378
56.145 12.393791
56.150 12.888682
56.155 13.272509
56.160 13.127504
56.165 13.045223
56.170 13.349742
56.175 13.23514
56.180 12.991125
56.185 12.310187
56.190 12.597912
56.195 12.85509
56.200 13.546504
56.205 13.518155
56.210 13.590109
56.215 13.791964
56.220 13.736826
56.225 12.885962
56.230 12.473494
56.235 12.029859
56.240 12.179129
56.245 12.766915
56.250 12.63764
56.255 12.427907
56.260 12.792283
56.265 13.138132
56.270 13.040178
56.275 13.052943
56.280 12.599365
56.285 12.740549
56.290 12.917676
56.295 13.283255
56.300 13.195294
56.305 13.161159
56.310 13.023814
56.315 13.207881
56.320 13.748756
56.325 13.693282
56.330 13.406796
56.335 13.316516
56.340 13.694259
56.345 13.862605
56.350 13.453753
56.355 12.783867
56.360 12.45406
56.365 12.493937
56.370 12.321537
56.375 11.984925
56.380 12.123035
56.385 12.480871
56.390 12.964165
56.395 13.078165
56.400 13.00172
56.405 13.112404
56.410 13.103151
56.415 12.754041
56.420 12.837758
56.425 12.740223
56.430 12.451052
56.435 12.463289
56.440 12.32611
56.445 12.600271
56.450 12.254129
56.455 11.602829
56.460 11.65947
56.465 11.723356
56.470 11.737432
56.475 12.145649
56.480 11.918692
56.485 12.076029
56.490 12.957586
56.495 13.487006
56.500 13.545985
56.505 13.7286
56.510 13.373031
56.515 14.023156
56.520 14.285813
56.525 14.1856
56.530 14.099207
56.535 14.709131
56.540 14.811765
56.545 15.030001
56.550 14.847659
56.555 14.818722
56.560 14.723534
56.565 14.927538
56.570 14.856186
56.575 14.554512
56.580 14.094428
56.585 13.779053
56.590 13.392913
56.595 13.106421
56.600 12.897587
56.605 12.308715
56.610 12.091025
56.615 12.214915
56.620 12.334868
56.625 12.519454
56.630 12.551693
56.635 12.410353
56.640 12.792358
56.645 13.401843
56.650 13.64225
56.655 13.56577
56.660 14.118721
56.665 14.177553
56.670 14.681451
56.675 14.831931
56.680 15.082543
56.685 15.076428
56.690 15.2771
56.695 14.800035
56.700 14.989199
56.705 14.865842
56.710 15.187426
56.715 14.910993
56.720 14.596525
56.725 14.218416
56.730 14.250216
56.735 13.807301
56.740 13.358709
56.745 12.869117
56.750 12.995364
56.755 13.25351
56.760 13.514203
56.765 13.799981
56.770 13.873202
56.775 14.127488
56.780 14.31602
56.785 14.500601
56.790 14.610702
56.795 14.270444
56.800 13.938969
56.805 14.375736
56.810 14.580601
56.815 14.412179
56.820 13.997937
56.825 13.613412
56.830 13.863438
56.835 13.815235
56.840 14.045996
56.845 13.824428
56.850 13.611712
56.855 13.865364
56.860 13.969222
56.865 13.965531
56.870 13.99783
56.875 13.56373
56.880 13.950345
56.885 14.674591
56.890 15.123295
56.895 15.182988
56.900 14.623501
56.905 14.910361
56.910 14.82961
56.915 14.168734
56.920 13.308713
56.925 12.622674
56.930 12.739152
56.935 13.610246
56.940 13.431628
56.945 13.545172
56.950 13.452744
56.955 13.561469
56.960 13.787313
56.965 13.973466
56.970 13.125486
56.975 13.315696
56.980 13.42682
56.985 13.881646
56.990 14.15289
56.995 13.909602
57.000 13.533342
57.005 14.061009
57.010 14.006293
57.015 14.274363
57.020 14.248453
57.025 14.18172
57.030 14.42162
57.035 14.480728
57.040 14.56709
57.045 14.503648
57.050 14.265834
57.055 14.452182
57.060 14.494462
57.065 14.470382
57.070 14.606009
57.075 14.694672
57.080 14.801956
57.085 14.468767
57.090 14.314709
57.095 14.439801
57.100 14.670182
57.105 14.290063
57.110 13.726204
57.115 13.446038
57.120 14.0637
57.125 14.104192
57.130 14.190294
57.135 13.928658
57.140 13.953752
57.145 14.500389
57.150 14.752666
57.155 14.370065
57.160 14.529695
57.165 14.119843
57.170 14.134315
57.175 14.294438
57.180 14.832301
57.185 15.22271
57.190 15.120323
57.195 15.462744
57.200 16.174458
57.205 16.370001
57.210 16.123766
57.215 15.29966
57.220 15.222975
57.225 15.458738
57.230 15.431732
57.235 15.153934
57.240 14.946338
57.245 14.952225
57.250 15.329218
57.255 15.284992
57.260 15.232831
57.265 15.203758
57.270 14.970257
57.275 15.131893
57.280 14.900962
57.285 14.719231
57.290 14.377424
57.295 14.460334
57.300 14.152468
57.305 14.942518
57.310 15.284452
57.315 16.087851
57.320 16.276375
57.325 16.57021
57.330 16.663816
57.335 16.906668
57.340 16.728691
57.345 16.120813
57.350 15.334329
57.355 14.820715
57.360 14.633624
57.365 14.223448
57.370 13.991812
57.375 14.155284
57.380 14.784339
57.385 15.250759
57.390 15.818223
57.395 15.907022
57.400 16.412497
57.405 16.482187
57.410 16.679255
57.415 16.730459
57.420 16.744843
57.425 16.740946
57.430 15.992224
57.435 15.739677
57.440 16.048401
57.445 16.151695
57.450 15.93182
57.455 15.386314
57.460 15.090405
57.465 15.787619
57.470 16.540398
57.475 15.979412
57.480 15.506886
57.485 15.345193
57.490 15.495378
57.495 15.779805
57.500 15.303626
57.505 14.867194
57.510 15.450338
57.515 15.507106
57.520 15.886416
57.525 16.228664
57.530 16.188995
57.535 16.132378
57.540 15.879976
57.545 15.533851
57.550 15.887763
57.555 15.600469
57.560 15.159267
57.565 15.741172
57.570 16.210146
57.575 16.275362
57.580 16.069794
57.585 15.986105
57.590 16.383181
57.595 16.395327
57.600 16.525284
57.605 16.32892
57.610 16.126503
57.615 15.948447
57.620 15.921146
57.625 16.614981
57.630 17.449795
57.635 16.905083
57.640 16.395103
57.645 16.671093
57.650 17.214918
57.655 17.450176
57.660 16.994425
57.665 16.604279
57.670 17.032642
57.675 17.414597
57.680 17.19418
57.685 17.330124
57.690 17.119339
57.695 17.567875
57.700 17.838732
57.705 17.731157
57.710 17.580038
57.715 17.555767
57.720 17.658323
57.725 17.190926
57.730 16.312454
57.735 15.430803
57.740 15.273915
57.745 15.656045
57.750 15.343012
57.755 15.273793
57.760 15.498467
57.765 15.789784
57.770 16.215195
57.775 16.366827
57.780 16.48456
57.785 16.23197
57.790 15.970488
57.795 16.224363
57.800 16.110264
57.805 16.080595
57.810 15.869735
57.815 16.025038
57.820 16.13792
57.825 16.041861
57.830 16.33489
57.835 16.342356
57.840 16.553667
57.845 16.455959
57.850 16.325914
57.855 16.341068
57.860 16.189873
57.865 15.930951
57.870 16.062969
57.875 15.858399
57.880 16.370991
57.885 16.317553
57.890 16.541063
57.895 16.88719
57.900 16.609299
57.905 16.553043
57.910 17.265526
57.915 17.350128
57.920 17.376209
57.925 17.329853
57.930 17.557148
57.935 17.900743
57.940 17.957935
57.945 17.97489
57.950 18.224575
57.955 18.577868
57.960 18.550474
57.965 18.1824
57.970 17.97369
57.975 17.695475
57.980 17.701733
57.985 17.496504
57.990 16.951859
57.995 16.832779
58.000 16.986423
58.005 17.51586
58.010 17.443687
58.015 17.333065
58.020 17.603096
58.025 18.741337
58.030 19.167604
58.035 18.673437
58.040 18.356083
58.045 18.175106
58.050 18.021454
58.055 17.715755
58.060 17.14002
58.065 17.507288
58.070 17.668507
58.075 17.481588
58.080 17.407209
58.085 17.226589
58.090 17.072948
58.095 17.066498
58.100 16.808535
58.105 17.17082
58.110 17.684601
58.115 17.731693
58.120 17.487206
58.125 17.788191
58.130 17.722506
58.135 17.666948
58.140 17.620296
58.145 17.997766
58.150 18.650465
58.155 19.082569
58.160 18.58234
58.165 18.353716
58.170 18.466536
58.175 18.449684
58.180 18.157227
58.185 17.961241
58.190 17.511017
58.195 17.781992
58.200 17.821226
58.205 18.290525
58.210 18.925142
58.215 19.237665
58.220 19.11408
58.225 19.784046
58.230 19.9419
58.235 20.797503
58.240 20.99618
58.245 20.953936
58.250 20.998703
58.255 21.498211
58.260 21.718721
58.265 21.114643
58.270 20.255297
58.275 20.253347
58.280 20.434435
58.285 21.182508
58.290 21.002365
58.295 21.023615
58.300 21.829597
58.305 22.190205
58.310 22.067869
58.315 21.463934
58.320 21.80555
58.325 22.374163
58.330 22.637041
58.335 22.840155
58.340 23.383984
58.345 24.378841
58.350 25.36858
58.355 25.479034
58.360 25.693481
58.365 26.844522
58.370 27.454992
58.375 27.435085
58.380 27.169592
58.385 26.967173
58.390 27.116056
58.395 26.934219
58.400 26.660055
58.405 26.626236
58.410 26.722172
58.415 27.159958
58.420 27.904778
58.425 27.856325
58.430 27.80204
58.435 27.616859
58.440 27.940182
58.445 28.725048
58.450 28.381483
58.455 27.919764
58.460 28.375332
58.465 28.55328
58.470 28.517313
58.475 28.723352
58.480 28.711264
58.485 29.422861
58.490 30.133728
58.495 30.777706
58.500 31.453037
58.505 32.280457
58.510 32.244713
58.515 31.717516
58.520 31.478855
58.525 31.581009
58.530 31.847366
58.535 31.331499
58.540 30.844501
58.545 30.806812
58.550 30.920462
58.555 31.112432
58.560 31.595409
58.565 32.035984
58.570 32.592972
58.575 32.591473
58.580 32.247437
58.585 31.925659
58.590 31.726469
58.595 30.794161
58.600 29.688408
58.605 29.198265
58.610 28.75337
58.615 28.430817
58.620 28.6126
58.625 28.797186
58.630 29.747982
58.635 30.816324
58.640 31.552162
58.645 31.170952
58.650 31.418421
58.655 32.007072
58.660 31.527607
58.665 30.593393
58.670 30.177711
58.675 30.172121
58.680 30.654669
58.685 30.395283
58.690 29.845016
58.695 29.563826
58.700 29.579002
58.705 28.815784
58.710 28.0326
58.715 28.000696
58.720 27.776054
58.725 27.170116
58.730 27.209791
58.735 26.425095
58.740 26.257832
58.745 26.693102
58.750 26.481098
58.755 26.448854
58.760 26.406713
58.765 25.855446
58.770 25.800589
58.775 26.005873
58.780 25.424839
58.785 25.673136
58.790 26.133692
58.795 26.247362
58.800 26.90819
58.805 26.500713
58.810 25.417986
58.815 24.587095
58.820 23.645536
58.825 22.773523
58.830 22.064852
58.835 20.340685
58.840 20.035946
58.845 20.148682
58.850 20.462179
58.855 20.624733
58.860 20.71162
58.865 21.005493
58.870 22.142796
58.875 22.844694
58.880 22.735565
58.885 22.61179
58.890 22.647678
58.895 22.721619
58.900 22.632801
58.905 22.505028
58.910 22.276217
58.915 22.798906
58.920 22.742477
58.925 22.311678
58.930 22.287737
58.935 22.697226
58.940 22.463299
58.945 22.630438
58.950 22.612364
58.955 22.443357
58.960 22.058609
58.965 21.403969
58.970 20.612375
58.975 20.659031
58.980 19.921055
58.985 19.156284
58.990 19.042063
58.995 19.116886
59.000 19.073397
59.005 19.773075
59.010 19.535719
59.015 19.882317
59.020 20.022602
59.025 20.561533
59.030 21.000233
59.035 20.620428
59.040 20.058079
59.045 19.726849
59.050 19.790348
59.055 19.875956
59.060 19.683039
59.065 19.192167
59.070 19.619799
59.075 19.277452
59.080 19.296885
59.085 19.240736
59.090 19.656357
59.095 19.835581
59.100 19.719545
59.105 19.352335
59.110 18.870279
59.115 18.480522
59.120 18.032902
59.125 17.746143
59.130 17.427441
59.135 17.265938
59.140 17.148617
59.145 18.045
59.150 18.368477
59.155 18.555698
59.160 18.480438
59.165 18.512098
59.170 18.687166
59.175 18.575518
59.180 18.357294
59.185 18.544708
59.190 18.858479
59.195 18.411713
59.200 18.452616
59.205 18.233192
59.210 18.038568
59.215 18.393162
59.220 18.127602
59.225 17.490561
59.230 17.760443
59.235 17.779062
59.240 18.343494
59.245 18.784216
59.250 18.127043
59.255 18.144829
59.260 18.512205
59.265 18.482525
59.270 18.543352
59.275 18.530172
59.280 18.241117
59.285 17.640516
59.290 17.306461
59.295 16.845415
59.300 16.788076
59.305 16.391918
59.310 15.65431
59.315 15.427064
59.320 15.119494
59.325 15.685488
59.330 15.480732
59.335 14.965297
59.340 15.085778
59.345 15.351891
59.350 15.894729
59.355 16.759123
59.360 16.423153
59.365 16.645016
59.370 16.695564
59.375 16.563745
59.380 16.569759
59.385 16.721636
59.390 16.604477
59.395 16.085371
59.400 16.156139
59.405 16.228464
59.410 16.832483
59.415 16.757132
59.420 16.783621
59.425 16.91787
59.430 17.263302
59.435 16.945608
59.440 17.056528
59.445 16.896782
59.450 16.723923
59.455 16.372129
59.460 16.063946
59.465 15.748953
59.470 15.636391
59.475 15.654639
59.480 15.663497
59.485 15.901375
59.490 15.823181
59.495 16.290163
59.500 17.002316
59.505 17.472345
59.510 16.894476
59.515 16.765423
59.520 16.355854
59.525 16.844292
59.530 16.09478
59.535 15.335493
59.540 15.270275
59.545 15.752364
59.550 16.044596
59.555 16.034765
59.560 15.638541
59.565 16.090752
59.570 16.14216
59.575 15.926499
59.580 15.794003
59.585 15.613957
59.590 15.768346
59.595 16.032478
59.600 15.663707
59.605 15.518649
59.610 15.083915
59.615 15.156984
59.620 15.518428
59.625 15.441908
59.630 15.334834
59.635 15.082052
59.640 15.53265
59.645 16.04146
59.650 15.89654
59.655 15.652553
59.660 15.150215
59.665 15.403844
59.670 16.235304
59.675 16.555956
59.680 16.602688
59.685 16.868658
59.690 17.163528
59.695 18.470163
59.700 19.293198
59.705 19.388079
59.710 19.630285
59.715 19.804794
59.720 19.534632
59.725 19.104471
59.730 18.34197
59.735 17.747152
59.740 17.54388
59.745 17.287355
59.750 16.796604
59.755 17.099583
59.760 17.626265
59.765 17.542135
59.770 16.844643
59.775 16.595615
59.780 16.239323
59.785 16.351072
59.790 15.799509
59.795 14.783558
59.800 14.467964
59.805 14.28879
59.810 14.191386
59.815 14.147544
59.820 14.683774
59.825 15.472513
59.830 16.216022
59.835 16.149078
59.840 16.606192
59.845 17.015749
59.850 17.324694
59.855 17.085308
59.860 16.850601
59.865 17.058357
59.870 17.429148
59.875 17.298792
59.880 17.339577
59.885 17.211882
59.890 17.097248
59.895 16.834648
59.900 16.720509
59.905 16.721907
59.910 16.599546
59.915 16.955555
59.920 16.679167
59.925 16.893976
59.930 17.47645
59.935 17.787651
59.940 18.152599
59.945 17.779224
59.950 17.505806
59.955 17.753094
59.960 17.655655
59.965 16.913872
59.970 16.438412
59.975 15.827822
59.980 15.663602
59.985 15.244288
59.990 14.837039
59.995 14.727341
60.000 14.981872
60.005 15.117935
60.010 15.423246
60.015 15.238619
60.020 15.142773
60.025 15.170372
60.030 14.918838
60.035 15.029248
60.040 15.017148
60.045 15.780171
60.050 16.756388
60.055 16.984909
60.060 17.244652
60.065 17.753561
60.070 17.678192
60.075 17.278881
60.080 16.317554
60.085 16.080246
60.090 16.37438
60.095 16.671503
60.100 16.86202
60.105 17.218466
60.110 17.534723
60.115 17.264568
60.120 17.058935
60.125 17.187218
60.130 16.873077
60.135 16.789783
60.140 17.198324
60.145 17.125872
60.150 17.80489
60.155 18.085943
60.160 17.575903
60.165 17.8309
60.170 17.468592
60.175 16.933653
60.180 17.13526
60.185 17.2463
60.190 17.471016
60.195 17.25956
60.200 16.692501
60.205 16.304037
60.210 16.165056
60.215 15.980742
60.220 15.741057
60.225 15.428875
60.230 15.94762
60.235 16.559675
60.240 16.929405
60.245 17.245964
60.250 17.006281
60.255 17.257511
60.260 17.142357
60.265 16.76811
60.270 16.217283
60.275 16.029902
60.280 15.54223
60.285 15.655667
60.290 14.701473
60.295 14.326279
60.300 14.201006
60.305 14.291536
60.310 13.78277
60.315 13.667363
60.320 13.684023
60.325 14.312205
60.330 14.757505
60.335 14.709077
60.340 15.273337
60.345 16.12746
60.350 16.811235
60.355 16.606216
60.360 16.744236
60.365 16.74942
60.370 16.910694
60.375 16.314093
60.380 15.986346
60.385 15.968218
60.390 16.122742
60.395 16.267771
60.400 16.576868
60.405 16.638937
60.410 16.983427
60.415 17.182827
60.420 17.120996
60.425 17.064713
60.430 16.182159
60.435 16.149338
60.440 16.506752
60.445 16.789867
60.450 16.987589
60.455 17.411547
60.460 18.226463
60.465 18.849131
60.470 18.871454
60.475 18.58305
60.480 17.871948
60.485 17.362385
60.490 16.721622
60.495 15.86503
60.500 15.546869
60.505 15.657136
60.510 15.923785
60.515 16.042004
60.520 16.330915
60.525 16.606337
60.530 16.959082
60.535 17.195871
60.540 16.751926
60.545 16.16997
60.550 16.072578
60.555 16.120689
60.560 15.55718
60.565 15.27632
60.570 14.971576
60.575 14.779113
60.580 14.882435
60.585 14.548395
60.590 14.272231
60.595 14.435824
60.600 14.294498
60.605 14.621865
60.610 14.806515
60.615 15.008941
60.620 14.966504
60.625 14.96923
60.630 15.535316
60.635 15.712147
60.640 15.702939
60.645 16.384058
60.650 16.875845
60.655 17.569563
60.660 17.851255
60.665 17.46669
60.670 17.576708
60.675 17.132341
60.680 16.505348
60.685 16.002714
60.690 15.466546
60.695 15.485178
60.700 15.618873
60.705 16.228357
60.710 16.566519
60.715 16.550308
60.720 16.905508
60.725 17.205603
60.730 16.876684
60.735 16.622446
60.740 16.217325
60.745 16.113331
60.750 16.367329
60.755 16.200489
60.760 15.977462
60.765 16.55369
60.770 16.613138
60.775 16.508425
60.780 16.367722
60.785 16.62196
60.790 16.503531
60.795 16.572893
60.800 16.445938
60.805 16.578932
60.810 16.139378
60.815 16.003212
60.820 15.266113
60.825 15.210814
60.830 15.493815
60.835 15.462332
60.840 15.340878
60.845 15.667896
60.850 16.299843
60.855 16.277048
60.860 16.311615
60.865 16.297216
60.870 16.344496
60.875 16.298178
60.880 16.341358
60.885 16.045052
60.890 16.525805
60.895 16.881016
60.900 16.985264
60.905 17.011843
60.910 16.814152
60.915 17.116308
60.920 17.50396
60.925 17.611929
60.930 17.552057
60.935 17.178255
60.940 17.370874
60.945 17.476425
60.950 17.009693
60.955 16.260782
60.960 16.061245
60.965 16.067783
60.970 15.86013
60.975 15.761537
60.980 16.057009
60.985 16.350544
60.990 17.018299
60.995 17.18368
61.000 17.178253
61.005 17.025969
61.010 16.929531
61.015 16.960098
61.020 16.858072
61.025 16.635834
61.030 15.87219
61.035 15.390207
61.040 15.40253
61.045 15.641383
61.050 15.676651
61.055 15.704555
61.060 15.382322
61.065 15.792251
61.070 16.255468
61.075 16.115316
61.080 15.276787
61.085 15.044518
61.090 15.581043
61.095 16.122259
61.100 16.312494
61.105 16.402578
61.110 17.186123
61.115 17.647514
61.120 17.330732
61.125 16.837307
61.130 16.628437
61.135 16.54385
61.140 16.458456
61.145 16.097828
61.150 16.030502
61.155 16.62417
61.160 16.626165
61.165 16.467167
61.170 16.08651
61.175 15.739985
61.180 15.304772
61.185 15.451827
61.190 15.36924
61.195 16.360832
61.200 17.21353
61.205 17.472418
61.210 17.888144
61.215 18.487707
61.220 18.210939
61.225 18.192184
61.230 17.769951
61.235 16.900021
61.240 16.656616
61.245 16.691898
61.250 16.469429
61.255 16.727072
61.260 16.48517
61.265 16.034208
61.270 16.431673
61.275 16.462736
61.280 16.27141
61.285 16.829748
61.290 16.787533
61.295 16.488503
61.300 16.59062
61.305 16.466764
61.310 16.259516
61.315 16.120302
61.320 16.008703
61.325 16.683207
61.330 16.488277
61.335 16.56576
61.340 17.49626
61.345 18.201456
61.350 18.224182
61.355 17.992373
61.360 17.661436
61.365 17.813021
61.370 17.380161
61.375 16.488302
61.380 16.254168
61.385 15.834718
61.390 15.660955
61.395 15.246978
61.400 15.167295
61.405 15.190184
61.410 15.655016
61.415 15.646286
61.420 15.794209
61.425 16.192776
61.430 16.572599
61.435 16.338062
61.440 16.513269
61.445 16.549442
61.450 16.987158
61.455 17.404879
61.460 17.655247
61.465 17.772182
61.470 18.307266
61.475 18.541527
61.480 18.301783
61.485 18.282074
61.490 18.316942
61.495 18.060425
61.500 17.931629
61.505 17.732786
61.510 17.529789
61.515 17.766657
61.520 17.653446
61.525 17.074961
61.530 16.867931
61.535 16.563591
61.540 16.087084
61.545 15.690966
61.550 15.851492
61.555 15.826276
61.560 16.123119
61.565 16.070116
61.570 16.649607
61.575 17.825033
61.580 18.469624
61.585 17.687103
61.590 17.255205
61.595 17.047697
61.600 17.22266
61.605 16.834059
61.610 16.571424
61.615 16.862978
61.620 17.190325
61.625 17.368673
61.630 17.223507
61.635 17.495726
61.640 17.463177
61.645 16.995422
61.650 16.506483
61.655 17.13867
61.660 17.470953
61.665 17.427738
61.670 16.722839
61.675 16.918699
61.680 16.705549
61.685 16.343538
61.690 15.856676
61.695 16.070692
61.700 16.504982
61.705 16.757973
61.710 16.717344
61.715 16.612999
61.720 16.575031
61.725 16.452208
61.730 15.932331
61.735 15.490985
61.740 15.5446
61.745 15.893715
61.750 15.820467
61.755 16.030289
61.760 16.53838
61.765 16.901266
61.770 17.272461
61.775 17.424377
61.780 17.179272
61.785 17.294008
61.790 17.524269
61.795 17.097784
61.800 16.638708
61.805 16.859035
61.810 17.52857
61.815 17.501234
61.820 17.627634
61.825 17.663534
61.830 17.875059
61.835 18.008303
61.840 17.719044
61.845 17.202747
61.850 17.304943
61.855 17.290667
61.860 17.02947
61.865 16.963083
61.870 17.123114
61.875 16.68923
61.880 16.649393
61.885 16.91732
61.890 16.932978
61.895 16.774101
61.900 16.885826
61.905 16.751959
61.910 17.189911
61.915 17.173244
61.920 16.897936
61.925 17.154856
61.930 17.00771
61.935 16.780125
61.940 16.991978
61.945 16.719093
61.950 16.566111
61.955 16.671526
61.960 16.012348
61.965 16.134348
61.970 16.010416
61.975 16.391247
61.980 16.610054
61.985 16.621147
61.990 16.365511
61.995 16.672274
62.000 17.156408
62.005 17.679945
62.010 17.288631
62.015 17.171938
62.020 17.02734
62.025 17.297173
62.030 17.271723
62.035 17.47901
62.040 17.099396
62.045 17.02066
62.050 16.963209
62.055 16.89879
62.060 16.296413
62.065 16.188618
62.070 15.339325
62.075 15.20572
62.080 15.203907
62.085 15.0118
62.090 14.829101
62.095 15.068647
62.100 15.182473
62.105 15.55407
62.110 15.822988
62.115 16.13143
62.120 16.12042
62.125 16.335085
62.130 16.51535
62.135 16.518328
62.140 16.628189
62.145 16.423155
62.150 16.78821
62.155 17.196991
62.160 17.108963
62.165 17.301725
62.170 17.67745
62.175 17.614042
62.180 17.456133
62.185 17.130543
62.190 16.539356
62.195 16.6765
62.200 16.214706
62.205 16.177475
62.210 16.818638
62.215 17.363901
62.220 17.196812
62.225 17.716253
62.230 17.674734
62.235 18.296597
62.240 18.340593
62.245 17.927687
62.250 17.488279
62.255 17.865391
62.260 17.536375
62.265 17.235121
62.270 16.897755
62.275 16.859657
62.280 16.409294
62.285 16.365055
62.290 16.140114
62.295 16.5979
62.300 17.086679
62.305 16.951002
62.310 17.007198
62.315 17.158779
62.320 16.779364
62.325 16.731798
62.330 16.578192
62.335 16.651579
62.340 16.450928
62.345 16.070175
62.350 16.195284
62.355 16.057795
62.360 16.225054
62.365 16.377796
62.370 16.346176
62.375 16.6856
62.380 16.726816
62.385 17.142437
62.390 17.654556
62.395 17.32493
62.400 16.8255
62.405 16.728821
62.410 16.400883
62.415 16.852898
62.420 16.524368
62.425 16.04488
62.430 16.111769
62.435 16.63891
62.440 16.399788
62.445 16.88302
62.450 16.983198
62.455 17.398899
62.460 17.826666
62.465 18.430246
62.470 18.660408
62.475 18.572174
62.480 18.067886
62.485 17.596872
62.490 17.480158
62.495 17.947605
62.500 18.330997
62.505 17.699017
62.510 17.846014
62.515 17.918377
62.520 17.686401
62.525 17.141727
62.530 16.404408
62.535 16.148811
62.540 16.641085
62.545 16.562378
62.550 16.121525
62.555 16.217775
62.560 16.541388
62.565 16.97438
62.570 16.567347
62.575 16.028927
62.580 16.29686
62.585 16.693394
62.590 16.660194
62.595 16.48068
62.600 16.109457
62.605 15.99868
62.610 16.512423
62.615 16.515678
62.620 16.798744
62.625 16.476789
62.630 16.907936
62.635 16.715313
62.640 16.791355
62.645 16.433832
62.650 16.45668
62.655 16.556273
62.660 16.358267
62.665 15.550103
62.670 15.576882
62.675 15.686676
62.680 15.888593
62.685 15.010155
62.690 14.855164
62.695 14.900025
62.700 15.236851
62.705 15.593119
62.710 16.02482
62.715 16.228056
62.720 17.19356
62.725 17.463356
62.730 17.992809
62.735 18.193211
62.740 17.93985
62.745 17.558737
62.750 17.227699
62.755 17.094814
62.760 17.391968
62.765 18.099129
62.770 18.042356
62.775 18.128275
62.780 18.393257
62.785 18.745459
62.790 18.938675
62.795 18.804808
62.800 17.927404
62.805 18.083372
62.810 17.654089
62.815 17.788855
62.820 17.665531
62.825 16.971802
62.830 16.577618
62.835 16.728992
62.840 16.891975
62.845 17.162018
62.850 16.875805
62.855 16.923288
62.860 17.367296
62.865 17.094734
62.870 17.041693
62.875 17.374519
62.880 17.527586
62.885 17.095034
62.890 16.875437
62.895 16.493589
62.900 17.555052
62.905 17.587831
62.910 17.071249
62.915 16.7971
62.920 16.838743
62.925 17.31595
62.930 17.404001
62.935 16.658176
62.940 16.038958
62.945 15.887574
62.950 16.06686
62.955 16.337175
62.960 16.413828
62.965 16.325119
62.970 16.890598
62.975 17.39666
62.980 17.453432
62.985 17.618015
62.990 17.545818
62.995 17.320103
63.000 17.545319
63.005 17.120306
63.010 17.020939
63.015 17.278166
63.020 17.503731
63.025 17.536177
63.030 17.374319
63.035 17.412149
63.040 17.249762
63.045 17.073833
63.050 16.413082
63.055 16.046982
63.060 16.175596
63.065 16.169611
63.070 16.19553
63.075 16.430002
63.080 17.133434
63.085 17.386873
63.090 16.9681
63.095 16.86488
63.100 16.906893
63.105 16.993107
63.110 17.249498
63.115 17.625187
63.120 18.594364
63.125 19.403316
63.130 19.629667
63.135 19.81908
63.140 20.167072
63.145 20.219589
63.150 19.996962
63.155 20.046074
63.160 19.940084
63.165 19.425697
63.170 18.921965
63.175 18.748592
63.180 18.381504
63.185 18.007391
63.190 17.670401
63.195 17.51527
63.200 18.348846
63.205 18.720201
63.210 19.375673
63.215 19.730555
63.220 19.201328
63.225 19.125124
63.230 19.177341
63.235 18.683508
63.240 18.171495
63.245 17.085764
63.250 17.441334
63.255 17.496996
63.260 17.310513
63.265 16.657679
63.270 16.656244
63.275 16.908957
63.280 16.907068
63.285 16.214346
63.290 16.134279
63.295 16.681742
63.300 17.61977
63.305 17.669119
63.310 18.141939
63.315 18.657173
63.320 19.193251
63.325 19.022089
63.330 18.343897
63.335 17.901384
63.340 18.002138
63.345 17.515734
63.350 17.465117
63.355 17.985931
63.360 18.306129
63.365 18.146887
63.370 18.534828
63.375 18.660374
63.380 18.710587
63.385 18.773838
63.390 18.402082
63.395 18.654356
63.400 18.679203
63.405 17.694645
63.410 17.186563
63.415 16.717289
63.420 16.206659
63.425 16.323023
63.430 16.281227
63.435 17.023581
63.440 17.808458
63.445 18.132425
63.450 18.954197
63.455 19.632311
63.460 19.666716
63.465 19.562607
63.470 19.621613
63.475 19.726505
63.480 19.673132
63.485 19.616119
63.490 19.212345
63.495 19.085558
63.500 19.368502
63.505 18.769104
63.510 18.315245
63.515 18.598066
63.520 18.717751
63.525 18.341537
63.530 18.50304
63.535 18.501871
63.540 18.948769
63.545 19.211409
63.550 18.879671
63.555 18.470695
63.560 18.842823
63.565 18.914597
63.570 18.628054
63.575 18.817572
63.580 19.322374
63.585 19.600008
63.590 19.645361
63.595 19.514271
63.600 19.380882
63.605 19.41448
63.610 19.391977
63.615 18.88682
63.620 18.424107
63.625 18.434269
63.630 18.314848
63.635 18.859783
63.640 19.793804
63.645 19.637241
63.650 20.384882
63.655 21.269127
63.660 21.778717
63.665 22.149366
63.670 21.706503
63.675 21.312433
63.680 21.323071
63.685 20.80637
63.690 20.483755
63.695 20.320005
63.700 20.258625
63.705 20.140419
63.710 20.308384
63.715 20.626678
63.720 20.948694
63.725 21.551579
63.730 21.329277
63.735 21.300152
63.740 21.80689
63.745 22.304565
63.750 22.373716
63.755 21.957552
63.760 21.7237
63.765 21.558834
63.770 21.846247
63.775 21.900505
63.780 21.268625
63.785 21.495501
63.790 21.793362
63.795 22.241545
63.800 22.356068
63.805 21.97543
63.810 22.02952
63.815 22.456896
63.820 22.737036
63.825 22.367758
63.830 22.042194
63.835 22.810108
63.840 23.80521
63.845 23.667307
63.850 23.451397
63.855 23.712626
63.860 24.571209
63.865 25.197575
63.870 25.236877
63.875 25.090214
63.880 24.915701
63.885 25.216429
63.890 25.173365
63.895 25.4718
63.900 25.402222
63.905 24.981266
63.910 25.266466
63.915 26.116266
63.920 26.059193
63.925 25.788246
63.930 25.549105
63.935 26.002321
63.940 26.832037
63.945 27.486284
63.950 27.945534
63.955 28.827074
63.960 29.370594
63.965 29.772575
63.970 29.966311
63.975 29.494144
63.980 28.879702
63.985 28.710163
63.990 28.412241
63.995 28.572477
64.000 28.540575
64.005 29.071058
64.010 29.959585
64.015 30.685654
64.020 31.547243
64.025 32.24432
64.030 32.302177
64.035 32.623821
64.040 33.101131
64.045 33.869587
64.050 34.278275
64.055 34.180695
64.060 33.817249
64.065 34.061726
64.070 33.884754
64.075 33.92384
64.080 34.098583
64.085 34.622116
64.090 35.576702
64.095 36.055134
64.100 36.240261
64.105 36.068771
64.110 35.042557
64.115 34.647076
64.120 34.14069
64.125 33.203037
64.130 32.928196
64.135 33.272331
64.140 33.437466
64.145 34.287189
64.150 33.347702
64.155 33.091053
64.160 33.877899
64.165 34.53923
64.170 34.620201
64.175 34.881302
64.180 35.360321
64.185 36.555981
64.190 37.928352
64.195 37.684547
64.200 37.199959
64.205 37.442532
64.210 37.71796
64.215 37.18885
64.220 36.613941
64.225 36.76437
64.230 36.924294
64.235 36.149643
64.240 35.822716
64.245 36.113926
64.250 36.461449
64.255 37.1698
64.260 37.089302
64.265 37.456333
64.270 38.282883
64.275 38.145309
64.280 38.237087
64.285 38.30492
64.290 38.099243
64.295 37.944275
64.300 37.409878
64.305 37.474545
64.310 37.014812
64.315 36.284962
64.320 36.318691
64.325 36.602543
64.330 36.069332
64.335 36.086998
64.340 36.232136
64.345 36.498516
64.350 36.502548
64.355 36.282879
64.360 36.606773
64.365 36.942833
64.370 36.780884
64.375 36.857243
64.380 37.543049
64.385 36.967049
64.390 36.329624
64.395 35.341545
64.400 35.29763
64.405 35.675304
64.410 35.193455
64.415 34.981941
64.420 35.612972
64.425 35.588177
64.430 34.702171
64.435 33.798489
64.440 32.864132
64.445 32.372368
64.450 31.370605
64.455 31.17787
64.460 30.668846
64.465 29.822527
64.470 29.953413
64.475 29.447577
64.480 29.331839
64.485 29.834545
64.490 30.243113
64.495 30.890793
64.500 31.848232
64.505 31.22225
64.510 30.876347
64.515 31.389317
64.520 31.235462
64.525 30.316208
64.530 29.50984
64.535 28.317886
64.540 27.983149
64.545 27.864349
64.550 26.841515
64.555 26.162617
64.560 26.333181
64.565 25.88249
64.570 25.476727
64.575 25.176661
64.580 24.281729
64.585 23.540607
64.590 23.274643
64.595 23.153315
64.600 23.714899
64.605 24.51811
64.610 24.609062
64.615 25.280331
64.620 25.793049
64.625 25.379528
64.630 24.902615
64.635 24.174726
64.640 23.274982
64.645 22.88316
64.650 22.699045
64.655 22.674774
64.660 23.260937
64.665 23.015024
64.670 22.657331
64.675 22.325609
64.680 22.801096
64.685 22.651308
64.690 22.846247
64.695 22.522661
64.700 23.110338
64.705 23.371151
64.710 23.579447
64.715 23.829481
64.720 24.054707
64.725 24.480595
64.730 23.857647
64.735 23.54674
64.740 23.944302
64.745 23.925411
64.750 23.598051
64.755 22.937162
64.760 22.438278
64.765 22.870764
64.770 23.112295
64.775 22.97707
64.780 22.963957
64.785 23.038057
64.790 22.785667
64.795 22.347738
64.800 22.338102
64.805 22.713905
64.810 22.446289
64.815 22.481909
64.820 22.278498
64.825 22.346338
64.830 22.313417
64.835 22.608829
64.840 22.268574
64.845 22.101067
64.850 21.752321
64.855 21.697245
64.860 22.367138
64.865 22.155327
64.870 21.284784
64.875 21.353672
64.880 22.019121
64.885 22.399155
64.890 22.191433
64.895 21.667522
64.900 22.383089
64.905 22.492495
64.910 22.385662
64.915 21.916241
64.920 21.397118
64.925 21.274221
64.930 21.28425
64.935 21.462854
64.940 22.224192
64.945 22.585081
64.950 22.465221
64.955 23.308458
64.960 23.920326
64.965 23.836521
64.970 23.580154
64.975 23.404524
64.980 22.883144
64.985 22.683525
64.990 22.529545
64.995 22.68166
65.000 22.799637
65.005 22.788218
65.010 22.959345
65.015 23.051619
65.020 23.658823
65.025 23.565624
65.030 23.685432
65.035 23.791151
65.040 23.294834
65.045 23.01174
65.050 23.284357
65.055 23.3398
65.060 22.996487
65.065 22.610092
65.070 22.724342
65.075 22.842733
65.080 22.825153
65.085 22.678457
65.090 23.272903
65.095 23.850342
65.100 24.509443
65.105 24.809418
65.110 24.817585
65.115 24.783581
65.120 25.476465
65.125 24.962408
65.130 25.301376
65.135 24.946171
65.140 24.489096
65.145 24.773813
65.150 24.689568
65.155 23.50897
65.160 23.532639
65.165 23.258223
65.170 23.536381
65.175 23.952295
65.180 24.097403
65.185 24.147001
65.190 24.396427
65.195 24.056942
65.200 23.908525
65.205 23.471844
65.210 23.43161
65.215 23.130419
65.220 22.793772
65.225 23.752487
65.230 24.164547
65.235 24.437021
65.240 24.739256
65.245 24.656456
65.250 24.90498
65.255 25.114279
65.260 24.672926
65.265 24.933628
65.270 24.547029
65.275 24.186316
65.280 23.785662
65.285 24.219988
65.290 24.53299
65.295 24.791086
65.300 24.763945
65.305 25.286274
65.310 25.362244
65.315 25.211023
65.320 24.975496
65.325 24.38332
65.330 23.489227
65.335 23.636766
65.340 24.160164
65.345 24.637089
65.350 25.689903
65.355 26.582205
65.360 27.291576
65.365 27.904448
65.370 27.871401
65.375 27.890921
65.380 28.080418
65.385 27.818159
65.390 27.768688
65.395 28.431583
65.400 28.339245
65.405 28.721209
65.410 28.971632
65.415 29.427652
65.420 29.227196
65.425 28.366386
65.430 27.912664
65.435 27.98472
65.440 27.055597
65.445 26.105192
65.450 25.56098
65.455 25.638702
65.460 25.9354
65.465 26.296795
65.470 26.657261
65.475 27.824686
65.480 28.203175
65.485 28.61338
65.490 28.919519
65.495 28.640779
65.500 28.484705
65.505 28.722858
65.510 28.81543
65.515 29.071344
65.520 29.064182
65.525 28.974285
65.530 29.337898
65.535 29.380695
65.540 29.223812
65.545 28.862198
65.550 29.243078
65.555 29.868967
65.560 30.130178
65.565 29.763103
65.570 29.78743
65.575 29.874392
65.580 30.284819
65.585 30.163017
65.590 30.086479
65.595 30.392874
65.600 31.382956
65.605 31.23978
65.610 31.010384
65.615 30.999493
65.620 30.987583
65.625 30.761234
65.630 30.81996
65.635 30.225328
65.640 31.456923
65.645 32.310577
65.650 33.086075
65.655 33.74678
65.660 34.106316
65.665 34.216705
65.670 34.031311
65.675 33.483974
65.680 33.51968
65.685 32.858597
65.690 33.066559
65.695 32.767616
65.700 33.093121
65.705 33.723961
65.710 34.28688
65.715 33.846111
65.720 33.564766
65.725 32.976013
65.730 33.197487
65.735 33.377792
65.740 32.673531
65.745 31.956022
65.750 32.424755
65.755 32.624065
65.760 33.479633
65.765 33.119141
65.770 33.404617
65.775 34.057198
65.780 34.613319
65.785 34.465576
65.790 35.040581
65.795 35.035923
65.800 35.745773
65.805 36.286812
65.810 36.693913
65.815 36.450615
65.820 36.866959
65.825 37.222107
65.830 36.962933
65.835 36.676205
65.840 36.015285
65.845 35.296528
65.850 35.50071
65.855 35.912056
65.860 35.887028
65.865 36.374195
65.870 36.88047
65.875 36.771732
65.880 37.203438
65.885 37.163265
65.890 36.955452
65.895 36.465584
65.900 36.427654
65.905 36.209488
65.910 36.074261
65.915 35.698887
65.920 35.1278
65.925 33.944447
65.930 33.207458
65.935 33.210258
65.940 33.107903
65.945 33.548237
65.950 33.383099
65.955 33.735867
65.960 34.052654
65.965 34.370895
65.970 34.522144
65.975 34.976463
65.980 34.747189
65.985 34.554001
65.990 34.052876
65.995 34.74781
66.000 35.568737
66.005 35.377441
66.010 34.657814
66.015 35.150738
66.020 35.688061
66.025 35.888622
66.030 35.407524
66.035 35.027359
66.040 34.859432
66.045 34.888416
66.050 34.536465
66.055 34.440517
66.060 34.268398
66.065 34.357761
66.070 33.616318
66.075 33.061222
66.080 33.268116
66.085 33.066723
66.090 33.369732
66.095 33.414242
66.100 33.505394
66.105 33.246403
66.110 32.913628
66.115 32.834568
66.120 33.338909
66.125 33.616993
66.130 33.260319
66.135 32.805408
66.140 33.464375
66.145 33.030273
66.150 32.211048
66.155 32.054585
66.160 32.116573
66.165 32.835526
66.170 32.57547
66.175 32.271717
66.180 32.811813
66.185 33.238258
66.190 32.228924
66.195 31.478886
66.200 30.582649
66.205 30.139627
66.210 30.37121
66.215 30.818541
66.220 30.176043
66.225 30.829002
66.230 31.215994
66.235 31.324312
66.240 31.574148
66.245 31.318312
66.250 31.142317
66.255 31.954058
66.260 31.541056
66.265 31.353548
66.270 32.139156
66.275 32.439854
66.280 32.560974
66.285 32.054607
66.290 31.505894
66.295 31.159534
66.300 30.924515
66.305 30.54254
66.310 30.12052
66.315 29.895149
66.320 30.564064
66.325 30.125515
66.330 29.821493
66.335 29.955883
66.340 30.268368
66.345 29.819117
66.350 29.918724
66.355 29.725582
66.360 29.854334
66.365 29.134451
66.370 28.493465
66.375 27.89279
66.380 27.542929
66.385 26.629326
66.390 25.606588
66.395 25.364372
66.400 25.810301
66.405 25.710581
66.410 24.922306
66.415 24.730024
66.420 25.104483
66.425 25.841915
66.430 26.471895
66.435 26.360828
66.440 26.513363
66.445 26.490871
66.450 26.880194
66.455 26.682219
66.460 25.978224
66.465 24.98584
66.470 24.64493
66.475 24.668257
66.480 25.148886
66.485 25.103092
66.490 24.887831
66.495 24.069876
66.500 23.92054
66.505 23.68825
66.510 23.262251
66.515 22.735287
66.520 21.889994
66.525 22.146141
66.530 22.412691
66.535 22.991003
66.540 23.076527
66.545 23.146149
66.550 23.103327
66.555 22.874964
66.560 22.302113
66.565 22.285847
66.570 22.711155
66.575 22.401503
66.580 21.77154
66.585 21.999134
66.590 22.416851
66.595 22.401001
66.600 22.637007
66.605 22.20997
66.610 22.606697
66.615 22.551472
66.620 21.972548
66.625 22.245409
66.630 22.780472
66.635 21.983883
66.640 21.630756
66.645 22.114012
66.650 21.732042
66.655 21.880404
66.660 21.609644
66.665 21.513779
66.670 21.756235
66.675 21.8242
66.680 21.811562
66.685 21.756557
66.690 22.024666
66.695 21.680529
66.700 21.224119
66.705 21.298136
66.710 20.682028
66.715 20.813766
66.720 21.271618
66.725 20.665178
66.730 20.561398
66.735 20.539406
66.740 20.428185
66.745 20.103689
66.750 19.393274
66.755 19.191532
66.760 19.180569
66.765 19.53833
66.770 19.317402
66.775 19.005707
66.780 19.231611
66.785 18.807037
66.790 18.876213
66.795 19.269596
66.800 19.545885
66.805 19.771305
66.810 20.099304
66.815 20.298117
66.820 20.448427
66.825 20.798674
66.830 20.539856
66.835 20.564814
66.840 20.955257
66.845 20.55537
66.850 20.42779
66.855 20.604609
66.860 20.188112
66.865 20.527967
66.870 20.421183
66.875 20.441618
66.880 21.318752
66.885 21.307755
66.890 20.842974
66.895 21.005144
66.900 20.043404
66.905 18.853168
66.910 18.659197
66.915 18.559565
66.920 19.25806
66.925 19.554739
66.930 19.444376
66.935 20.26335
66.940 21.181896
66.945 20.70953
66.950 20.268152
66.955 19.698469
66.960 19.329849
66.965 19.086275
66.970 18.655638
66.975 18.531797
66.980 18.789555
66.985 18.927834
66.990 19.070932
66.995 19.253115
67.000 19.240562
67.005 19.613159
67.010 19.903145
67.015 20.107794
67.020 20.17182
67.025 20.289404
67.030 20.492231
67.035 20.793764
67.040 20.454063
67.045 20.154205
67.050 19.596588
67.055 18.974201
67.060 18.749468
67.065 19.048838
67.070 19.251217
67.075 19.191214
67.080 19.016451
67.085 19.50934
67.090 19.368235
67.095 19.037838
67.100 18.876446
67.105 18.506927
67.110 18.700138
67.115 18.685341
67.120 18.706221
67.125 19.21298
67.130 19.437151
67.135 19.084515
67.140 18.768614
67.145 19.252947
67.150 19.527058
67.155 19.33778
67.160 19.374796
67.165 19.210476
67.170 19.61412
67.175 19.714544
67.180 19.636938
67.185 19.609776
67.190 19.580185
67.195 19.626265
67.200 19.035763
67.205 18.693764
67.210 18.519033
67.215 18.126324
67.220 18.039078
67.225 17.591692
67.230 17.386703
67.235 17.91794
67.240 17.976017
67.245 17.611975
67.250 17.299044
67.255 18.127901
67.260 18.98983
67.265 19.188318
67.270 19.213425
67.275 19.174089
67.280 20.57192
67.285 20.500122
67.290 19.950264
67.295 19.784388
67.300 19.990742
67.305 19.755386
67.310 19.625963
67.315 19.24481
67.320 19.546371
67.325 19.240847
67.330 19.453022
67.335 19.611883
67.340 20.049873
67.345 20.192755
67.350 20.0417
67.355 20.149137
67.360 20.273859
67.365 20.052835
67.370 19.980953
67.375 19.861095
67.380 19.484764
67.385 18.961227
67.390 18.462877
67.395 18.525318
67.400 18.131861
67.405 17.755903
67.410 17.738321
67.415 18.063231
67.420 18.768307
67.425 18.541622
67.430 19.039404
67.435 19.683489
67.440 20.069942
67.445 19.873613
67.450 19.576857
67.455 19.350746
67.460 19.929268
67.465 19.576536
67.470 19.288155
67.475 19.082315
67.480 19.380562
67.485 19.323969
67.490 19.109104
67.495 19.167675
67.500 19.628113
67.505 19.38409
67.510 19.281376
67.515 19.421499
67.520 19.618635
67.525 20.056326
67.530 19.612165
67.535 19.563805
67.540 19.700912
67.545 19.644043
67.550 19.316988
67.555 19.443199
67.560 19.458963
67.565 19.201324
67.570 18.688435
67.575 18.049326
67.580 18.363228
67.585 18.516336
67.590 18.13883
67.595 17.571434
67.600 17.529152
67.605 18.046185
67.610 18.65671
67.615 18.766401
67.620 19.095278
67.625 19.266283
67.630 19.51153
67.635 19.948883
67.640 19.991201
67.645 20.144459
67.650 19.705734
67.655 19.627178
67.660 19.576113
67.665 20.146885
67.670 20.518677
67.675 20.505009
67.680 20.589468
67.685 20.825121
67.690 21.053308
67.695 21.169573
67.700 21.139437
67.705 20.976637
67.710 20.573418
67.715 20.497063
67.720 20.452122
67.725 20.064438
67.730 20.288946
67.735 19.878693
67.740 19.690235
67.745 19.399429
67.750 19.179399
67.755 18.792038
67.760 18.722311
67.765 18.049706
67.770 18.222549
67.775 18.313967
67.780 18.697256
67.785 18.755323
67.790 19.32032
67.795 19.763144
67.800 20.000023
67.805 19.731607
67.810 19.169891
67.815 19.516623
67.820 19.718657
67.825 19.650833
67.830 19.061632
67.835 18.89852
67.840 18.950562
67.845 19.224844
67.850 18.726271
67.855 18.515093
67.860 18.144758
67.865 18.581858
67.870 19.364012
67.875 19.507236
67.880 19.421839
67.885 19.390177
67.890 19.389229
67.895 19.521313
67.900 20.116936
67.905 20.062008
67.910 20.325356
67.915 20.839397
67.920 21.161057
67.925 21.169376
67.930 21.621302
67.935 21.287746
67.940 20.94767
67.945 20.769581
67.950 20.427732
67.955 20.236979
67.960 19.946985
67.965 19.888781
67.970 19.571936
67.975 19.429989
67.980 19.271265
67.985 19.042057
67.990 19.058601
67.995 19.002438
68.000 18.405493
68.005 18.442953
68.010 18.591711
68.015 18.878801
68.020 19.572868
68.025 19.684196
68.030 19.514931
68.035 19.836212
68.040 20.532009
68.045 21.162027
68.050 21.084265
68.055 20.501459
68.060 20.105152
68.065 20.230783
68.070 19.914534
68.075 19.077944
68.080 18.636824
68.085 18.664957
68.090 18.843174
68.095 18.959059
68.100 19.47423
68.105 20.122169
68.110 19.976051
68.115 20.072023
68.120 20.194206
68.125 20.487497
68.130 20.759605
68.135 20.321606
68.140 19.98847
68.145 19.997999
68.150 20.26182
68.155 19.889494
68.160 19.118235
68.165 19.31329
68.170 18.770548
68.175 18.385483
68.180 18.676035
68.185 19.100203
68.190 19.582153
68.195 20.425583
68.200 19.990313
68.205 19.559618
68.210 20.080647
68.215 19.78875
68.220 19.225338
68.225 19.379522
68.230 18.82679
68.235 18.834169
68.240 19.643307
68.245 19.484608
68.250 19.432222
68.255 19.285841
68.260 19.608496
68.265 20.160955
68.270 20.952934
68.275 21.327444
68.280 21.83482
68.285 22.038851
68.290 21.964649
68.295 21.70046
68.300 22.175064
68.305 21.721121
68.310 21.051519
68.315 20.635433
68.320 20.389627
68.325 20.888969
68.330 20.849173
68.335 20.389011
68.340 19.914188
68.345 19.718594
68.350 19.361912
68.355 19.175755
68.360 18.570879
68.365 18.514853
68.370 18.942295
68.375 19.930521
68.380 20.794548
68.385 21.601154
68.390 22.712337
68.395 23.203903
68.400 23.066334
68.405 22.808588
68.410 22.307402
68.415 22.235458
68.420 22.272501
68.425 21.632372
68.430 21.297419
68.435 21.368238
68.440 21.174582
68.445 21.204544
68.450 20.49441
68.455 19.535793
68.460 19.787966
68.465 20.306187
68.470 20.872934
68.475 20.643044
68.480 20.303619
68.485 20.714052
68.490 21.466145
68.495 21.248898
68.500 20.477371
68.505 20.012398
68.510 20.821533
68.515 22.015635
68.520 22.793108
68.525 22.924103
68.530 23.220869
68.535 22.964266
68.540 23.163141
68.545 22.494474
68.550 22.196934
68.555 23.249794
68.560 23.821102
68.565 24.138294
68.570 24.670572
68.575 24.801521
68.580 25.2633
68.585 24.978554
68.590 24.370411
68.595 24.246517
68.600 24.678856
68.605 25.360153
68.610 25.77914
68.615 25.764708
68.620 26.258829
68.625 26.493176
68.630 26.554592
68.635 26.450974
68.640 26.824564
68.645 27.404114
68.650 27.687864
68.655 27.731245
68.660 27.005499
68.665 26.740808
68.670 26.856173
68.675 26.61211
68.680 26.57711
68.685 26.548117
68.690 26.330048
68.695 26.986652
68.700 27.723577
68.705 27.170502
68.710 26.748953
68.715 26.577589
68.720 26.762053
68.725 26.756456
68.730 26.145494
68.735 26.040524
68.740 26.437622
68.745 26.591608
68.750 26.838696
68.755 27.561291
68.760 27.769342
68.765 27.744947
68.770 27.992968
68.775 27.971273
68.780 28.192078
68.785 27.820137
68.790 27.167074
68.795 27.320107
68.800 28.125
68.805 27.761871
68.810 27.662399
68.815 27.77297
68.820 27.351952
68.825 27.365265
68.830 27.567099
68.835 27.819035
68.840 28.467852
68.845 28.692379
68.850 29.662148
68.855 30.511995
68.860 30.821342
68.865 30.594746
68.870 30.335655
68.875 30.273909
68.880 30.139225
68.885 29.829451
68.890 29.660803
68.895 30.350714
68.900 31.106153
68.905 31.300329
68.910 31.739733
68.915 31.720428
68.920 31.374186
68.925 31.486502
68.930 30.541512
68.935 29.756462
68.940 30.372826
68.945 30.021173
68.950 30.824221
68.955 31.239765
68.960 31.110561
68.965 31.891367
68.970 31.856598
68.975 30.980833
68.980 31.832575
68.985 31.475613
68.990 31.736637
68.995 32.579041
69.000 32.495636
69.005 32.75676
69.010 32.961956
69.015 32.095055
69.020 31.820971
69.025 31.148954
69.030 30.126137
69.035 30.436522
69.040 31.549908
69.045 32.57869
69.050 33.055439
69.055 33.221298
69.060 33.478119
69.065 33.99477
69.070 33.932152
69.075 32.978619
69.080 32.663609
69.085 32.467838
69.090 33.352192
69.095 33.554115
69.100 33.560886
69.105 34.137547
69.110 34.322575
69.115 34.190491
69.120 34.260826
69.125 34.378494
69.130 34.983067
69.135 35.135853
69.140 34.618526
69.145 34.461536
69.150 33.600288
69.155 33.69997
69.160 32.912464
69.165 32.298241
69.170 31.494864
69.175 31.56765
69.180 31.479982
69.185 32.111862
69.190 31.69001
69.195 32.209995
69.200 32.849457
69.205 33.006077
69.210 33.509903
69.215 33.267429
69.220 33.447739
69.225 33.336838
69.230 33.172241
69.235 32.274303
69.240 32.113911
69.245 31.613285
69.250 31.663479
69.255 31.63279
69.260 30.576654
69.265 30.313669
69.270 31.04867
69.275 30.954399
69.280 31.231775
69.285 31.166395
69.290 30.891649
69.295 31.464657
69.300 31.35779
69.305 31.093061
69.310 30.954323
69.315 30.069609
69.320 29.876015
69.325 30.178789
69.330 30.145689
69.335 30.603033
69.340 29.825399
69.345 29.107048
69.350 29.625179
69.355 29.722853
69.360 29.224878
69.365 29.768024
69.370 29.584721
69.375 30.311996
69.380 30.731905
69.385 30.034689
69.390 30.359606
69.395 31.084455
69.400 30.61186
69.405 30.149576
69.410 29.116552
69.415 28.726128
69.420 28.799292
69.425 27.7509
69.430 27.324942
69.435 27.225271
69.440 27.817011
69.445 28.771044
69.450 28.543383
69.455 27.941484
69.460 27.458242
69.465 26.758333
69.470 25.98225
69.475 26.039507
69.480 25.749174
69.485 25.670204
69.490 25.975826
69.495 26.236629
69.500 26.741661
69.505 26.749973
69.510 26.364658
69.515 26.585707
69.520 27.6821
69.525 28.388056
69.530 28.587999
69.535 28.52005
69.540 28.083349
69.545 27.67009
69.550 26.981791
69.555 26.361238
69.560 25.809484
69.565 25.529821
69.570 25.95076
69.575 26.853495
69.580 27.443836
69.585 27.805172
69.590 27.479662
69.595 27.67399
69.600 27.093414
69.605 26.795448
69.610 27.144957
69.615 26.716885
69.620 26.354029
69.625 25.267679
69.630 25.15303
69.635 25.04916
69.640 24.986641
69.645 24.298883
69.650 23.943598
69.655 24.607399
69.660 25.418369
69.665 25.260786
69.670 25.564386
69.675 24.949684
69.680 24.938402
69.685 25.045675
69.690 24.704451
69.695 25.300844
69.700 25.326715
69.705 25.283384
69.710 25.236986
69.715 24.650436
69.720 25.112123
69.725 25.035183
69.730 23.652946
69.735 23.580675
69.740 23.660994
69.745 23.966124
69.750 23.908642
69.755 23.894333
69.760 23.786844
69.765 24.300806
69.770 23.878492
69.775 23.267782
69.780 23.056967
69.785 23.958858
69.790 22.638897
69.795 22.142403
69.800 21.831772
69.805 21.686153
69.810 21.481123
69.815 21.202248
69.820 20.405954
69.825 20.806601
69.830 20.293453
69.835 20.333355
69.840 20.58267
69.845 20.651821
69.850 20.499891
69.855 20.63093
69.860 20.823624
69.865 21.040462
69.870 20.836145
69.875 20.466238
69.880 20.898672
69.885 21.328815
69.890 21.327291
69.895 20.995796
69.900 20.590034
69.905 20.704149
69.910 20.626499
69.915 19.519634
69.920 18.677244
69.925 18.404238
69.930 18.316339
69.935 18.648611
69.940 18.734152
69.945 18.527151
69.950 18.611376
69.955 18.956322
69.960 18.828217
69.965 18.859184
69.970 18.687017
69.975 18.77322
69.980 19.294409
69.985 19.468716
69.990 19.208658
69.995 19.071503
70.000 19.642569
70.005 19.916918
70.010 19.521799
70.015 19.753433
70.020 19.974819
70.025 19.713554
70.030 19.688904
70.035 18.888952
70.040 18.607838
70.045 18.572815
70.050 17.993843
70.055 17.912786
70.060 18.2703
70.065 18.582788
70.070 18.349499
70.075 18.473232
70.080 18.267679
70.085 18.794556
70.090 19.27943
70.095 19.645901
70.100 20.041977
70.105 20.416088
70.110 20.807905
70.115 21.183418
70.120 20.63513
70.125 20.281321
70.130 19.982012
70.135 19.230772
70.140 19.104576
70.145 18.566431
70.150 18.388609
70.155 18.837547
70.160 18.800264
70.165 18.710684
70.170 19.192707
70.175 19.251675
70.180 19.549475
70.185 19.043776
70.190 19.373196
70.195 19.256968
70.200 19.456848
70.205 19.909233
70.210 19.561777
70.215 19.816349
70.220 19.486824
70.225 18.833385
70.230 19.004631
70.235 18.647554
70.240 18.112232
70.245 18.049656
70.250 18.098736
70.255 18.462433
70.260 18.127542
70.265 18.257977
70.270 18.204994
70.275 17.803513
70.280 17.792496
70.285 17.673443
70.290 18.065481
70.295 18.434801
70.300 18.236494
70.305 18.306494
70.310 18.546099
70.315 18.460186
70.320 18.024618
70.325 17.525192
70.330 17.343702
70.335 17.530102
70.340 18.921322
70.345 19.162912
70.350 19.078718
70.355 18.987301
70.360 18.937969
70.365 19.022825
70.370 18.268822
70.375 17.496906
70.380 17.289892
70.385 18.107361
70.390 18.9126
70.395 19.15132
70.400 19.240978
70.405 19.075678
70.410 19.146721
70.415 18.839113
70.420 18.296457
70.425 17.901215
70.430 17.617859
70.435 17.794649
70.440 18.152603
70.445 18.428087
70.450 18.934116
70.455 18.477671
70.460 18.482855
70.465 18.145527
70.470 17.595245
70.475 17.417416
70.480 17.392252
70.485 17.884933
70.490 18.24914
70.495 18.0672
70.500 18.639917
70.505 18.900698
70.510 18.650444
70.515 18.191324
70.520 18.62385
70.525 18.921137
70.530 19.353035
70.535 18.950033
70.540 19.051434
70.545 19.389744
70.550 19.693401
70.555 18.600491
70.560 18.655916
70.565 18.999235
70.570 19.385921
70.575 19.313385
70.580 19.118608
70.585 19.176046
70.590 19.840036
70.595 19.434998
70.600 18.804028
70.605 18.689957
70.610 19.273603
70.615 19.703373
70.620 19.394745
70.625 18.75041
70.630 19.181324
70.635 19.352552
70.640 19.345293
70.645 19.000156
70.650 18.592148
70.655 18.162626
70.660 18.655828
70.665 18.585945
70.670 18.391344
70.675 18.344824
70.680 18.383598
70.685 18.61702
70.690 19.187979
70.695 19.410835
70.700 19.222809
70.705 19.445827
70.710 19.657661
70.715 19.103392
70.720 18.766706
70.725 18.016264
70.730 17.702276
70.735 17.154959
70.740 17.0516
70.745 16.642574
70.750 17.82679
70.755 18.371367
70.760 19.239979
70.765 19.221544
70.770 18.933788
70.775 19.51874
70.780 19.60397
70.785 19.207111
70.790 19.450584
70.795 19.014494
70.800 19.318897
70.805 19.972588
70.810 19.362064
70.815 19.526882
70.820 19.443071
70.825 18.947594
70.830 18.980066
70.835 18.779482
70.840 18.616756
70.845 18.468977
70.850 18.081203
70.855 17.599129
70.860 17.43384
70.865 17.642956
70.870 17.596844
70.875 17.927685
70.880 18.16832
70.885 18.238312
70.890 18.934612
70.895 19.123102
70.900 18.681988
70.905 18.427385
70.910 18.599655
70.915 18.499863
70.920 18.393066
70.925 18.290094
70.930 19.021225
70.935 19.353746
70.940 19.441643
70.945 19.209238
70.950 19.633045
70.955 19.913372
70.960 19.557055
70.965 19.575321
70.970 19.84713
70.975 19.990593
70.980 20.188791
70.985 19.829563
70.990 19.044466
70.995 19.583597
71.000 19.375467
71.005 18.955769
71.010 18.896399
71.015 18.407999
71.020 18.954254
71.025 19.190256
71.030 17.837988
71.035 18.080359
71.040 18.064354
71.045 18.024368
71.050 18.159904
71.055 17.671175
71.060 17.771994
71.065 17.865953
71.070 17.292675
71.075 17.226707
71.080 17.335943
71.085 17.184624
71.090 17.7922
71.095 18.576815
71.100 18.605724
71.105 18.995518
71.110 19.04541
71.115 18.99544
71.120 18.736839
71.125 17.908352
71.130 17.411953
71.135 17.573792
71.140 17.475492
71.145 17.096922
71.150 17.009596
71.155 17.602688
71.160 17.723804
71.165 17.708773
71.170 17.35692
71.175 17.122746
71.180 17.430933
71.185 17.52033
71.190 17.203466
71.195 17.928841
71.200 17.733948
71.205 17.643251
71.210 17.921999
71.215 17.976322
71.220 17.932148
71.225 18.066574
71.230 18.354235
71.235 18.838299
71.240 19.709
71.245 19.752834
71.250 19.845266
71.255 20.201357
71.260 19.859404
71.265 19.699564
71.270 19.05645
71.275 18.347849
71.280 18.197859
71.285 17.46596
71.290 17.404949
71.295 17.008369
71.300 17.124706
71.305 17.339628
71.310 17.170742
71.315 17.457794
71.320 17.927332
71.325 17.637398
71.330 17.620058
71.335 17.883818
71.340 18.295254
71.345 18.355082
71.350 17.63341
71.355 17.746624
71.360 18.572405
71.365 17.997911
71.370 18.081408
71.375 18.241104
71.380 18.325897
71.385 18.731375
71.390 18.319736
71.395 17.872194
71.400 18.165174
71.405 18.593624
71.410 18.567738
71.415 18.78866
71.420 19.003189
71.425 18.97282
71.430 19.0112
71.435 18.289724
71.440 17.803965
71.445 17.911806
71.450 17.878975
71.455 18.077982
71.460 18.61603
71.465 18.640369
71.470 19.027519
71.475 19.375067
71.480 19.136045
71.485 19.190001
71.490 18.964045
71.495 18.416597
71.500 19.069218
71.505 19.226614
71.510 18.908363
71.515 19.254778
71.520 19.424305
71.525 19.277538
71.530 19.941769
71.535 19.419994
71.540 19.457956
71.545 19.363321
71.550 19.450542
71.555 19.596558
71.560 19.787344
71.565 19.611397
71.570 19.697845
71.575 19.721891
71.580 19.471716
71.585 18.870937
71.590 18.533268
71.595 18.684013
71.600 18.39329
71.605 17.764618
71.610 17.484241
71.615 17.40852
71.620 17.56439
71.625 16.939962
71.630 16.830141
71.635 16.925034
71.640 17.638027
71.645 18.101944
71.650 18.150625
71.655 18.427156
71.660 18.588402
71.665 18.756214
71.670 19.573908
71.675 19.64695
71.680 19.62121
71.685 19.684132
71.690 19.497229
71.695 19.550968
71.700 19.10288
71.705 17.828918
71.710 17.28212
71.715 17.105536
71.720 17.288176
71.725 17.597713
71.730 17.808393
71.735 18.059517
71.740 18.661222
71.745 19.279663
71.750 19.233349
71.755 19.286575
71.760 18.389811
71.765 17.973948
71.770 18.247761
71.775 18.248482
71.780 18.524788
71.785 18.892771
71.790 19.043135
71.795 19.535526
71.800 19.514763
71.805 19.525274
71.810 19.188591
71.815 18.94462
71.820 18.533596
71.825 18.473558
71.830 18.408863
71.835 18.520103
71.840 18.950876
71.845 18.963839
71.850 19.239304
71.855 19.363451
71.860 19.134838
71.865 18.686834
71.870 18.831453
71.875 19.279449
71.880 18.918873
71.885 18.300993
71.890 18.957233
71.895 19.786978
71.900 20.568184
71.905 19.875481
71.910 19.097294
71.915 19.759342
71.920 19.706018
71.925 18.711269
71.930 18.284212
71.935 18.116196
71.940 18.141142
71.945 18.249094
71.950 18.035507
71.955 18.332451
71.960 18.83226
71.965 18.800404
71.970 18.813719
71.975 18.55014
71.980 18.400862
71.985 18.225128
71.990 18.380861
71.995 18.173311
72.000 18.155798
72.005 18.624378
72.010 19.055183
72.015 19.691874
72.020 19.535032
72.025 19.573378
72.030 19.515266
72.035 19.564457
72.040 19.361761
72.045 18.822329
72.050 18.423828
72.055 18.33156
72.060 18.611582
72.065 18.849415
72.070 18.805456
72.075 19.013165
72.080 18.490818
72.085 18.400232
72.090 18.369877
72.095 17.905096
72.100 17.370821
72.105 16.833364
72.110 16.912785
72.115 17.118006
72.120 16.84613
72.125 17.141333
72.130 17.014854
72.135 17.574959
72.140 18.009632
72.145 17.840727
72.150 18.207413
72.155 18.341351
72.160 18.499428
72.165 18.367821
72.170 18.434597
72.175 18.721266
72.180 18.150059
72.185 18.422522
72.190 18.569141
72.195 18.832005
72.200 19.502497
72.205 18.718441
72.210 18.724503
72.215 19.94034
72.220 19.828266
72.225 18.996275
72.230 18.003815
72.235 18.195814
72.240 18.668489
72.245 18.204407
72.250 17.32728
72.255 17.407206
72.260 17.581543
72.265 17.699282
72.270 17.658075
72.275 17.468153
72.280 17.531155
72.285 17.412632
72.290 17.590961
72.295 17.921425
72.300 18.008917
72.305 17.623486
72.310 18.028662
72.315 18.39274
72.320 18.458431
72.325 18.492996
72.330 18.393045
72.335 18.08684
72.340 18.132578
72.345 18.322594
72.350 18.996639
72.355 18.558479
72.360 18.668467
72.365 19.26502
72.370 19.724003
72.375 19.609037
72.380 18.499041
72.385 18.214146
72.390 17.726057
72.395 17.267681
72.400 17.069178
72.405 17.2297
72.410 16.875715
72.415 17.499344
72.420 17.776995
72.425 18.585205
72.430 18.543165
72.435 18.33725
72.440 18.073078
72.445 18.079105
72.450 18.045181
72.455 17.48177
72.460 17.641512
72.465 16.971859
72.470 16.729078
72.475 16.431343
72.480 16.524677
72.485 16.406023
72.490 16.424131
72.495 16.235527
72.500 16.605717
72.505 16.49593
72.510 16.725355
72.515 16.715649
72.520 17.011774
72.525 16.853374
72.530 16.514166
72.535 16.496492
72.540 16.769161
72.545 16.388853
72.550 16.185604
72.555 16.410471
72.560 16.934473
72.565 17.18956
72.570 17.452187
72.575 17.415535
72.580 17.842827
72.585 18.399414
72.590 18.763151
72.595 18.524506
72.600 18.829952
72.605 19.189747
72.610 19.770861
72.615 19.786716
72.620 19.207743
72.625 18.807339
72.630 18.812819
72.635 18.931753
72.640 18.55772
72.645 18.306099
72.650 17.655231
72.655 17.55986
72.660 17.901651
72.665 17.930977
72.670 17.925121
72.675 17.875622
72.680 17.90625
72.685 18.213446
72.690 18.496435
72.695 18.316881
72.700 18.208677
72.705 18.356567
72.710 18.167355
72.715 18.18404
72.720 18.146362
72.725 17.877459
72.730 17.97142
72.735 17.849716
72.740 18.076624
72.745 18.270742
72.750 18.220816
72.755 17.815718
72.760 17.535517
72.765 17.088043
72.770 16.729
72.775 16.508131
72.780 16.569054
72.785 16.435396
72.790 16.894468
72.795 16.692509
72.800 16.931902
72.805 16.658525
72.810 16.767096
72.815 17.204227
72.820 17.254322
72.825 16.792404
72.830 16.542406
72.835 16.870619
72.840 16.959524
72.845 16.313778
72.850 16.375154
72.855 15.655185
72.860 15.417551
72.865 15.423857
72.870 15.285374
72.875 15.708413
72.880 15.427898
72.885 15.127849
72.890 16.217354
72.895 17.102531
72.900 17.111378
72.905 17.13154
72.910 17.409521
72.915 17.234581
72.920 17.08746
72.925 16.637022
72.930 16.796446
72.935 16.394888
72.940 16.281525
72.945 15.749109
72.950 16.180265
72.955 16.391651
72.960 16.865929
72.965 16.757359
72.970 16.679657
72.975 17.109827
72.980 17.443281
72.985 17.427568
72.990 17.082613
72.995 16.448397
73.000 16.725302
