!@!!GADDS PLOTSO FILE: Chi integration type
!@!!Title/SampleName: map-67
!@!!Comment: ?
!@!!User: Bruker Instrument Administrator
!@!!Site: University of Illinois Chicago
!@!!Frame: map-67_01_000.gfrm
!@!!Wavelengths    1.54184   1.54056   1.54439
!@!!Frame angles: 2Theta: 63.000 Omega: 50.000 Phi: 0.000 Chi: 90.000
!@!!Integration range: 2Theta: 53.000 to 73.000  Gamma: -105.000 to -75.000
!@!!Integration method: bin normalized
!@!N
!@!SS
!@!M
!@!L 0.0 0.0 0.0 0.0
!@!XDegrees
!@!YCounts
53.000 8.960422
53.005 9.147635
53.010 9.536204
53.015 9.988927
53.020 9.799047
53.025 9.831314
53.030 10.001824
53.035 9.657498
53.040 9.130391
53.045 8.71876
53.050 8.591918
53.055 8.527475
53.060 8.594888
53.065 8.635242
53.070 8.505327
53.075 8.678738
53.080 8.715074
53.085 8.532816
53.090 8.595911
53.095 8.613258
53.100 8.727725
53.105 9.365739
53.110 9.234124
53.115 9.001419
53.120 9.039205
53.125 9.104844
53.130 9.238898
53.135 9.292302
53.140 8.95886
53.145 9.02724
53.150 9.416694
53.155 9.120461
53.160 8.816491
53.165 8.824383
53.170 8.881839
53.175 9.336005
53.180 9.217526
53.185 9.137045
53.190 9.333789
53.195 9.197192
53.200 9.169763
53.205 8.869001
53.210 8.614091
53.215 8.500598
53.220 8.442394
53.225 8.635377
53.230 8.342675
53.235 8.428415
53.240 8.337762
53.245 8.11449
53.250 8.227551
53.255 8.179034
53.260 8.410882
53.265 8.586328
53.270 8.394759
53.275 8.67416
53.280 8.849216
53.285 8.896976
53.290 8.919415
53.295 8.797142
53.300 8.978139
53.305 9.147367
53.310 8.973897
53.315 8.76875
53.320 8.251155
53.325 8.26317
53.330 8.692801
53.335 8.657614
53.340 8.58494
53.345 8.757113
53.350 8.845016
53.355 9.363544
53.360 9.347779
53.365 8.952429
53.370 9.063716
53.375 9.06431
53.380 9.025166
53.385 9.590606
53.390 9.6272
53.395 9.388513
53.400 9.198969
53.405 9.231869
53.410 9.52578
53.415 9.547872
53.420 9.068726
53.425 8.850419
53.430 9.434944
53.435 9.841029
53.440 9.73058
53.445 9.775868
53.450 9.653439
53.455 10.145079
53.460 9.956386
53.465 9.719729
53.470 9.44762
53.475 9.322341
53.480 9.402216
53.485 9.728617
53.490 9.600098
53.495 9.50324
53.500 9.162334
53.505 9.176561
53.510 8.991996
53.515 8.855761
53.520 8.621354
53.525 8.500271
53.530 8.697534
53.535 9.293532
53.540 9.605062
53.545 9.778502
53.550 10.316517
53.555 10.105431
53.560 9.970514
53.565 9.33446
53.570 8.845689
53.575 8.591519
53.580 8.857103
53.585 8.91103
53.590 9.700977
53.595 10.16907
53.600 10.622718
53.605 11.247962
53.610 11.070042
53.615 10.473214
53.620 10.035039
53.625 10.082884
53.630 10.007477
53.635 9.853205
53.640 9.441726
53.645 9.698594
53.650 9.600159
53.655 8.867547
53.660 8.291866
53.665 8.754477
53.670 9.175745
53.675 9.20601
53.680 9.473869
53.685 9.565237
53.690 9.555842
53.695 9.57703
53.700 9.010397
53.705 8.409121
53.710 8.032152
53.715 7.648553
53.720 7.91504
53.725 8.434911
53.730 8.858791
53.735 8.849093
53.740 9.225973
53.745 9.408679
53.750 9.2923
53.755 9.193952
53.760 8.794447
53.765 8.349205
53.770 8.173234
53.775 8.084698
53.780 8.090254
53.785 8.22292
53.790 8.392287
53.795 8.692555
53.800 9.166519
53.805 9.592772
53.810 9.90951
53.815 9.924649
53.820 10.096575
53.825 10.518716
53.830 10.213769
53.835 9.725669
53.840 9.436771
53.845 9.363847
53.850 9.047892
53.855 8.72296
53.860 8.3527
53.865 8.429756
53.870 8.801992
53.875 8.86797
53.880 9.270404
53.885 9.968861
53.890 10.275271
53.895 10.575661
53.900 10.991163
53.905 11.268171
53.910 10.967518
53.915 10.587545
53.920 10.58701
53.925 10.252614
53.930 9.994221
53.935 9.608915
53.940 9.722174
53.945 9.901636
53.950 10.0626
53.955 9.633864
53.960 9.762564
53.965 9.959654
53.970 10.204399
53.975 10.110843
53.980 9.935494
53.985 9.400327
53.990 9.46545
53.995 9.464232
54.000 8.995011
54.005 8.316597
54.010 8.416937
54.015 8.598411
54.020 9.03407
54.025 9.43761
54.030 9.140864
54.035 9.857687
54.040 10.138244
54.045 9.801558
54.050 9.637055
54.055 9.065119
54.060 8.767976
54.065 8.755581
54.070 8.537983
54.075 8.453848
54.080 8.199847
54.085 8.616928
54.090 9.249205
54.095 10.068449
54.100 10.594923
54.105 10.760857
54.110 11.170725
54.115 11.415165
54.120 11.514191
54.125 10.782068
54.130 10.066337
54.135 10.057625
54.140 10.179812
54.145 10.207673
54.150 10.017211
54.155 9.834067
54.160 10.126691
54.165 10.402635
54.170 10.653837
54.175 10.495807
54.180 10.408456
54.185 10.381709
54.190 10.520721
54.195 10.871943
54.200 10.823462
54.205 10.553395
54.210 10.732028
54.215 10.801832
54.220 11.072692
54.225 11.232675
54.230 10.976909
54.235 10.622709
54.240 10.516705
54.245 10.914862
54.250 11.175
54.255 10.959811
54.260 11.115957
54.265 11.095581
54.270 10.684226
54.275 10.589336
54.280 10.322046
54.285 10.160281
54.290 10.498837
54.295 10.534636
54.300 10.538375
54.305 10.930089
54.310 10.62015
54.315 10.766376
54.320 10.800532
54.325 10.356436
54.330 10.32512
54.335 10.26929
54.340 10.7286
54.345 11.112593
54.350 11.270736
54.355 11.410865
54.360 11.509179
54.365 11.626586
54.370 11.977321
54.375 11.755061
54.380 11.739167
54.385 11.594378
54.390 11.558376
54.395 11.521068
54.400 11.189586
54.405 11.033135
54.410 10.76495
54.415 10.393641
54.420 10.287746
54.425 10.475768
54.430 10.733812
54.435 11.227453
54.440 11.168677
54.445 11.095367
54.450 11.077931
54.455 10.882875
54.460 10.792879
54.465 10.959044
54.470 10.564885
54.475 10.329769
54.480 10.192918
54.485 10.248848
54.490 10.132446
54.495 9.679475
54.500 9.305303
54.505 9.482965
54.510 9.822916
54.515 10.050079
54.520 10.118143
54.525 10.439939
54.530 10.945111
54.535 10.693316
54.540 10.583763
54.545 10.237911
54.550 10.174586
54.555 10.245672
54.560 9.635653
54.565 9.320589
54.570 9.414656
54.575 9.602466
54.580 9.938655
54.585 9.925188
54.590 9.853642
54.595 9.81741
54.600 9.68913
54.605 9.521716
54.610 8.820999
54.615 8.564059
54.620 8.945959
54.625 8.594288
54.630 8.888904
54.635 9.33539
54.640 10.023661
54.645 10.649973
54.650 10.312045
54.655 9.802826
54.660 9.961935
54.665 9.891139
54.670 9.409955
54.675 9.453718
54.680 9.92465
54.685 10.314784
54.690 10.942904
54.695 11.251798
54.700 11.088545
54.705 11.125849
54.710 10.31828
54.715 10.300341
54.720 10.394691
54.725 9.936337
54.730 9.856616
54.735 10.21498
54.740 10.496713
54.745 10.598292
54.750 9.996037
54.755 9.846209
54.760 9.880239
54.765 10.041463
54.770 9.957555
54.775 10.274097
54.780 10.537619
54.785 10.914647
54.790 11.1986
54.795 11.024461
54.800 11.027102
54.805 11.069489
54.810 10.762968
54.815 10.727006
54.820 10.489965
54.825 10.560672
54.830 11.030697
54.835 11.01145
54.840 11.106398
54.845 11.213464
54.850 11.404703
54.855 11.498007
54.860 11.291641
54.865 11.016157
54.870 11.127934
54.875 11.1468
54.880 11.150302
54.885 10.733257
54.890 10.834602
54.895 10.897116
54.900 10.891933
54.905 10.655041
54.910 10.366902
54.915 10.577125
54.920 10.455953
54.925 9.847271
54.930 9.994028
54.935 10.051079
54.940 9.784355
54.945 9.901196
54.950 9.725642
54.955 10.017607
54.960 10.406065
54.965 10.319789
54.970 10.709618
54.975 10.981611
54.980 11.025462
54.985 10.839972
54.990 10.762033
54.995 10.808435
55.000 10.743783
55.005 10.293587
55.010 10.202839
55.015 10.072289
55.020 10.668924
55.025 11.104734
55.030 11.138352
55.035 11.15082
55.040 11.561004
55.045 11.802374
55.050 11.835864
55.055 12.397605
55.060 12.259758
55.065 12.093493
55.070 11.647684
55.075 11.655992
55.080 11.800328
55.085 11.353032
55.090 10.319678
55.095 10.238093
55.100 9.839979
55.105 10.454204
55.110 10.538856
55.115 10.233446
55.120 10.420927
55.125 10.555716
55.130 10.474333
55.135 10.372283
55.140 10.058451
55.145 9.75843
55.150 10.121394
55.155 10.178205
55.160 10.287335
55.165 10.506766
55.170 10.643759
55.175 11.052558
55.180 11.072551
55.185 10.913505
55.190 11.199479
55.195 11.36372
55.200 11.455429
55.205 11.32788
55.210 10.477975
55.215 10.455822
55.220 10.946228
55.225 11.097372
55.230 11.520365
55.235 11.626039
55.240 12.123446
55.245 12.19932
55.250 11.923881
55.255 11.209347
55.260 10.919117
55.265 10.556276
55.270 10.174614
55.275 10.113738
55.280 10.281897
55.285 10.418769
55.290 10.968882
55.295 10.785608
55.300 10.554023
55.305 10.709759
55.310 10.63112
55.315 10.574071
55.320 10.825991
55.325 10.457791
55.330 10.644213
55.335 10.682348
55.340 10.045621
55.345 9.884353
55.350 9.923051
55.355 9.79606
55.360 9.984134
55.365 9.924204
55.370 10.384709
55.375 11.081946
55.380 11.513573
55.385 11.681037
55.390 11.919063
55.395 12.386979
55.400 12.599304
55.405 12.151856
55.410 11.898148
55.415 11.412985
55.420 11.128959
55.425 10.781153
55.430 10.395061
55.435 10.392763
55.440 10.329547
55.445 10.785716
55.450 11.491922
55.455 11.759947
55.460 12.280972
55.465 12.168791
55.470 12.373823
55.475 12.291889
55.480 11.682429
55.485 11.628308
55.490 11.331018
55.495 11.149838
55.500 11.281189
55.505 11.454835
55.510 11.966743
55.515 11.874324
55.520 11.862882
55.525 11.813983
55.530 11.438775
55.535 11.747631
55.540 12.08549
55.545 12.237772
55.550 12.717752
55.555 12.499651
55.560 12.685152
55.565 12.982171
55.570 12.052942
55.575 11.679704
55.580 11.492464
55.585 10.974181
55.590 10.966576
55.595 10.951324
55.600 11.411697
55.605 11.836335
55.610 11.806498
55.615 11.722437
55.620 12.314401
55.625 12.406736
55.630 11.623394
55.635 10.812268
55.640 10.185065
55.645 10.011357
55.650 10.054398
55.655 9.849873
55.660 9.86408
55.665 10.29974
55.670 10.572779
55.675 10.84304
55.680 10.913564
55.685 11.010808
55.690 11.058821
55.695 10.966578
55.700 10.568206
55.705 10.278224
55.710 10.46148
55.715 10.58222
55.720 10.890192
55.725 10.851465
55.730 11.088152
55.735 11.542621
55.740 11.808501
55.745 11.637551
55.750 11.587384
55.755 11.593367
55.760 11.613538
55.765 11.417446
55.770 11.40236
55.775 11.305701
55.780 11.367924
55.785 11.548424
55.790 11.127904
55.795 11.396383
55.800 10.9978
55.805 10.769681
55.810 11.211726
55.815 10.814869
55.820 10.932223
55.825 11.610547
55.830 11.897112
55.835 12.836095
55.840 13.126136
55.845 13.312021
55.850 13.324594
55.855 12.872223
55.860 12.399678
55.865 12.479891
55.870 12.243118
55.875 12.198513
55.880 12.187686
55.885 12.314092
55.890 12.369163
55.895 12.626882
55.900 12.676591
55.905 12.426815
55.910 12.165804
55.915 12.49018
55.920 12.693904
55.925 12.341892
55.930 11.664365
55.935 11.40823
55.940 11.653502
55.945 11.647055
55.950 11.299769
55.955 11.812793
55.960 11.981766
55.965 11.983651
55.970 12.056232
55.975 12.448007
55.980 12.560477
55.985 12.303823
55.990 12.123378
55.995 12.067781
56.000 12.536037
56.005 12.739923
56.010 12.706401
56.015 12.942035
56.020 12.733597
56.025 12.215909
56.030 12.646171
56.035 11.917969
56.040 11.374036
56.045 11.298114
56.050 11.153292
56.055 11.469562
56.060 11.556346
56.065 11.204472
56.070 11.284954
56.075 11.435704
56.080 11.361629
56.085 11.023422
56.090 10.984879
56.095 11.358149
56.100 11.673623
56.105 12.006041
56.110 11.924559
56.115 11.376474
56.120 11.611531
56.125 11.540013
56.130 11.618279
56.135 11.543882
56.140 11.668544
56.145 11.457877
56.150 11.619523
56.155 11.633126
56.160 11.798571
56.165 11.41983
56.170 11.799783
56.175 11.852437
56.180 12.228278
56.185 12.421901
56.190 12.666224
56.195 12.89782
56.200 13.270817
56.205 12.793946
56.210 12.438486
56.215 12.275041
56.220 12.261415
56.225 12.277651
56.230 12.193055
56.235 12.21654
56.240 12.483501
56.245 12.808034
56.250 12.78893
56.255 12.95416
56.260 12.891521
56.265 12.93672
56.270 12.823823
56.275 12.810249
56.280 12.983932
56.285 13.084972
56.290 13.071287
56.295 13.574885
56.300 13.495782
56.305 13.476549
56.310 13.680128
56.315 13.409786
56.320 13.222133
56.325 12.650734
56.330 11.956952
56.335 12.004368
56.340 12.316998
56.345 12.005448
56.350 12.201078
56.355 12.586776
56.360 12.53348
56.365 12.401861
56.370 12.317805
56.375 12.400497
56.380 12.98922
56.385 13.024389
56.390 13.122569
56.395 13.582891
56.400 14.191024
56.405 14.021638
56.410 13.827843
56.415 13.369133
56.420 12.985192
56.425 13.142708
56.430 12.83827
56.435 12.520525
56.440 12.126145
56.445 11.790964
56.450 11.480863
56.455 11.409245
56.460 11.592422
56.465 11.617191
56.470 11.367222
56.475 11.653431
56.480 11.800488
56.485 12.058085
56.490 12.179427
56.495 11.552056
56.500 11.435479
56.505 11.486452
56.510 11.613053
56.515 11.516861
56.520 11.669234
56.525 11.642159
56.530 12.035434
56.535 12.342822
56.540 12.717644
56.545 12.867969
56.550 13.195403
56.555 13.160822
56.560 13.31221
56.565 13.006329
56.570 12.736187
56.575 12.681089
56.580 12.742936
56.585 12.672652
56.590 12.861858
56.595 12.760595
56.600 13.058504
56.605 12.939368
56.610 12.68623
56.615 12.45823
56.620 12.235982
56.625 12.157537
56.630 12.065314
56.635 12.221821
56.640 12.271627
56.645 12.514324
56.650 12.632547
56.655 12.714672
56.660 12.444432
56.665 12.542117
56.670 12.656749
56.675 12.399606
56.680 12.327302
56.685 12.598992
56.690 13.156466
56.695 13.495967
56.700 12.923881
56.705 12.709754
56.710 13.182288
56.715 12.703827
56.720 12.404572
56.725 12.30154
56.730 12.38573
56.735 13.121762
56.740 13.568261
56.745 13.915423
56.750 14.519016
56.755 14.907792
56.760 15.330736
56.765 16.02898
56.770 15.484312
56.775 15.215592
56.780 14.688969
56.785 14.170304
56.790 13.612927
56.795 13.000267
56.800 12.686564
56.805 13.711176
56.810 13.92539
56.815 14.285987
56.820 14.576516
56.825 14.601601
56.830 14.459816
56.835 13.988022
56.840 13.278666
56.845 13.377586
56.850 13.198091
56.855 13.144567
56.860 13.030902
56.865 13.455544
56.870 13.645774
56.875 13.206205
56.880 12.896793
56.885 12.792109
56.890 12.840445
56.895 12.874884
56.900 12.445881
56.905 12.482268
56.910 13.136133
56.915 13.252586
56.920 13.176311
56.925 12.936812
56.930 12.638731
56.935 12.583447
56.940 12.330442
56.945 11.730305
56.950 11.71044
56.955 11.723968
56.960 11.808111
56.965 12.187629
56.970 12.395127
56.975 13.133974
56.980 13.376317
56.985 13.644821
56.990 14.113641
56.995 14.089676
57.000 13.65281
57.005 13.440973
57.010 12.998109
57.015 13.074534
57.020 13.145955
57.025 13.249717
57.030 13.581846
57.035 13.553277
57.040 13.166539
57.045 13.428459
57.050 13.562057
57.055 12.8894
57.060 12.68725
57.065 12.98631
57.070 13.306729
57.075 13.982127
57.080 13.845871
57.085 13.259081
57.090 13.294827
57.095 13.056585
57.100 12.625397
57.105 12.23932
57.110 11.547685
57.115 11.38554
57.120 11.657781
57.125 11.664949
57.130 12.11376
57.135 12.009766
57.140 12.378251
57.145 12.610271
57.150 12.7253
57.155 12.340289
57.160 12.103088
57.165 12.204762
57.170 12.987614
57.175 12.886327
57.180 13.284523
57.185 13.421876
57.190 13.705646
57.195 14.043207
57.200 14.113105
57.205 13.45706
57.210 13.579555
57.215 13.65743
57.220 14.170967
57.225 14.345822
57.230 14.294432
57.235 13.97667
57.240 14.253864
57.245 14.436395
57.250 14.494422
57.255 14.035505
57.260 14.22465
57.265 14.158622
57.270 14.089879
57.275 14.126225
57.280 13.616879
57.285 13.132988
57.290 13.253242
57.295 13.023029
57.300 13.329007
57.305 13.425336
57.310 13.08603
57.315 13.763733
57.320 13.748179
57.325 13.710596
57.330 13.695729
57.335 13.558941
57.340 13.840438
57.345 14.278261
57.350 14.002045
57.355 14.105134
57.360 14.461333
57.365 14.417388
57.370 14.124548
57.375 13.340943
57.380 12.585658
57.385 12.375218
57.390 12.447684
57.395 12.143308
57.400 12.28174
57.405 12.453094
57.410 12.585836
57.415 12.827735
57.420 13.015522
57.425 13.058524
57.430 12.839674
57.435 12.653512
57.440 12.505068
57.445 12.638691
57.450 12.408648
57.455 11.771392
57.460 11.824066
57.465 12.444481
57.470 12.583859
57.475 13.1366
57.480 13.196542
57.485 13.891907
57.490 14.441524
57.495 14.156404
57.500 13.695123
57.505 13.035913
57.510 12.643408
57.515 12.965931
57.520 12.970108
57.525 12.882181
57.530 12.733785
57.535 13.299982
57.540 13.889139
57.545 14.649612
57.550 14.680902
57.555 14.155294
57.560 14.059716
57.565 14.273242
57.570 14.095808
57.575 14.264166
57.580 13.250601
57.585 12.654876
57.590 13.305305
57.595 13.950583
57.600 14.984761
57.605 14.933534
57.610 14.442396
57.615 14.688595
57.620 14.937602
57.625 15.256329
57.630 14.728931
57.635 14.109162
57.640 14.1393
57.645 14.181725
57.650 14.374786
57.655 14.066131
57.660 13.325512
57.665 13.40038
57.670 13.291619
57.675 13.594737
57.680 13.897072
57.685 13.940799
57.690 14.269588
57.695 14.187653
57.700 14.038343
57.705 13.50593
57.710 13.541077
57.715 14.036223
57.720 14.059673
57.725 14.6464
57.730 14.886245
57.735 14.837184
57.740 15.526076
57.745 15.568726
57.750 15.563834
57.755 15.677361
57.760 15.381336
57.765 15.346879
57.770 15.454391
57.775 15.237365
57.780 14.915203
57.785 14.895851
57.790 14.632646
57.795 14.3241
57.800 14.467943
57.805 14.839619
57.810 14.80075
57.815 14.616714
57.820 14.364038
57.825 14.625718
57.830 14.814581
57.835 15.09962
57.840 15.157424
57.845 14.889087
57.850 14.775556
57.855 14.543288
57.860 14.35727
57.865 14.46545
57.870 14.401729
57.875 14.40607
57.880 14.784625
57.885 14.945055
57.890 14.925164
57.895 15.296758
57.900 15.107967
57.905 14.654952
57.910 14.880391
57.915 15.204221
57.920 15.589888
57.925 15.789288
57.930 15.358279
57.935 15.854777
57.940 16.340672
57.945 15.655948
57.950 15.569741
57.955 15.516735
57.960 15.972334
57.965 16.024191
57.970 15.857022
57.975 16.040686
57.980 17.121412
57.985 17.542439
57.990 17.111275
57.995 16.951742
58.000 17.56192
58.005 17.515572
58.010 17.201653
58.015 16.773867
58.020 17.027477
58.025 17.560337
58.030 17.323671
58.035 16.975248
58.040 17.02972
58.045 16.662565
58.050 16.321165
58.055 15.904363
58.060 15.429129
58.065 15.444334
58.070 15.103513
58.075 15.308651
58.080 16.046028
58.085 16.007088
58.090 16.266605
58.095 16.513607
58.100 16.242943
58.105 16.434038
58.110 16.154068
58.115 15.647705
58.120 15.549458
58.125 15.300244
58.130 14.938926
58.135 15.082122
58.140 15.154468
58.145 15.186415
58.150 16.067822
58.155 16.221462
58.160 16.505579
58.165 17.016453
58.170 16.900021
58.175 17.285324
58.180 17.428215
58.185 16.585222
58.190 16.011295
58.195 15.940062
58.200 16.296591
58.205 17.120283
58.210 16.860895
58.215 16.898148
58.220 17.376167
58.225 17.990366
58.230 18.122458
58.235 18.073069
58.240 18.137085
58.245 17.957584
58.250 17.305304
58.255 17.25609
58.260 17.03116
58.265 17.292166
58.270 16.666962
58.275 15.956349
58.280 16.265587
58.285 16.718578
58.290 17.517895
58.295 17.727537
58.300 17.343641
58.305 17.956478
58.310 18.023338
58.315 18.213581
58.320 18.301226
58.325 18.164705
58.330 18.485468
58.335 19.316776
58.340 19.689665
58.345 19.981112
58.350 20.060265
58.355 20.303837
58.360 20.281485
58.365 20.914431
58.370 21.108408
58.375 20.933641
58.380 21.060455
58.385 21.012581
58.390 21.680929
58.395 21.971161
58.400 21.64963
58.405 21.642759
58.410 21.824118
58.415 22.084303
58.420 23.073719
58.425 22.737404
58.430 22.705166
58.435 23.000334
58.440 22.99399
58.445 22.777332
58.450 22.683809
58.455 22.698298
58.460 23.811579
58.465 24.4774
58.470 25.270643
58.475 25.691681
58.480 26.268707
58.485 26.840609
58.490 27.036888
58.495 27.317896
58.500 27.43799
58.505 27.912657
58.510 28.729277
58.515 28.96015
58.520 29.466587
58.525 29.431036
58.530 29.600431
58.535 29.422731
58.540 29.602045
58.545 30.334997
58.550 31.287752
58.555 32.083401
58.560 32.487839
58.565 31.822206
58.570 32.138149
58.575 32.156769
58.580 31.957325
58.585 31.683294
58.590 31.890087
58.595 32.8228
58.600 34.025917
58.605 34.253456
58.610 33.490662
58.615 33.731842
58.620 34.190987
58.625 34.504154
58.630 34.942818
58.635 34.731293
58.640 34.90218
58.645 35.399014
58.650 35.612705
58.655 35.953773
58.660 35.663704
58.665 35.251087
58.670 35.19426
58.675 35.580433
58.680 35.552452
58.685 35.170071
58.690 34.830399
58.695 35.473137
58.700 35.072277
58.705 34.985798
58.710 34.038273
58.715 34.201038
58.720 33.627094
58.725 33.168091
58.730 32.509182
58.735 32.971619
58.740 32.584396
58.745 32.602135
58.750 32.354385
58.755 32.32822
58.760 32.632915
58.765 31.423004
58.770 30.886314
58.775 30.751575
58.780 30.428381
58.785 29.556274
58.790 29.56373
58.795 29.306032
58.800 29.324162
58.805 29.06246
58.810 28.880831
58.815 28.387566
58.820 28.394354
58.825 27.787575
58.830 26.752089
58.835 25.218721
58.840 24.853928
58.845 24.748224
58.850 24.94651
58.855 24.816561
58.860 24.53516
58.865 24.423004
58.870 23.675465
58.875 23.204239
58.880 22.151291
58.885 21.451578
58.890 20.723042
58.895 20.147715
58.900 20.590677
58.905 21.457571
58.910 21.595196
58.915 22.568718
58.920 22.496998
58.925 22.73304
58.930 22.424147
58.935 21.911131
58.940 21.615582
58.945 20.85288
58.950 19.838966
58.955 19.356121
58.960 19.218075
58.965 19.070913
58.970 19.092974
58.975 18.989328
58.980 19.190901
58.985 19.018637
58.990 19.185095
58.995 19.193674
59.000 19.511858
59.005 19.532755
59.010 18.923595
59.015 18.415668
59.020 18.370781
59.025 18.445753
59.030 17.617546
59.035 17.155012
59.040 16.564615
59.045 16.042843
59.050 15.976661
59.055 16.32649
59.060 16.302309
59.065 16.837116
59.070 16.855825
59.075 17.271191
59.080 17.892773
59.085 18.38102
59.090 18.230093
59.095 18.307602
59.100 18.228378
59.105 18.206909
59.110 17.55167
59.115 17.200436
59.120 16.640774
59.125 16.235723
59.130 15.815958
59.135 15.493422
59.140 15.714087
59.145 15.930067
59.150 15.533811
59.155 15.2377
59.160 15.137892
59.165 15.370953
59.170 15.319346
59.175 14.849433
59.180 14.757035
59.185 14.629221
59.190 14.949986
59.195 15.126297
59.200 15.021259
59.205 15.109845
59.210 15.512644
59.215 15.35776
59.220 15.201787
59.225 14.909555
59.230 14.93242
59.235 15.402908
59.240 15.555911
59.245 15.516272
59.250 15.806843
59.255 15.889827
59.260 15.852154
59.265 15.730248
59.270 15.551751
59.275 15.391619
59.280 15.079832
59.285 15.051493
59.290 15.28411
59.295 15.363685
59.300 15.434855
59.305 15.411869
59.310 15.639315
59.315 15.810615
59.320 15.762939
59.325 16.094439
59.330 16.715775
59.335 16.903336
59.340 16.333988
59.345 15.830544
59.350 16.111702
59.355 16.160564
59.360 15.792004
59.365 15.463347
59.370 14.664956
59.375 14.962869
59.380 15.441819
59.385 15.430368
59.390 15.395329
59.395 15.842135
59.400 15.984127
59.405 16.350428
59.410 16.834888
59.415 16.54475
59.420 16.44768
59.425 16.797003
59.430 16.077068
59.435 15.736103
59.440 15.797878
59.445 15.625979
59.450 15.543941
59.455 15.247892
59.460 15.420899
59.465 15.324864
59.470 14.964355
59.475 15.00635
59.480 15.26486
59.485 16.014164
59.490 16.323366
59.495 15.705317
59.500 15.95956
59.505 16.441006
59.510 16.666327
59.515 16.46427
59.520 16.024736
59.525 15.701446
59.530 15.686251
59.535 15.296442
59.540 14.851521
59.545 14.711739
59.550 14.717298
59.555 14.790647
59.560 14.850511
59.565 14.909782
59.570 15.206746
59.575 14.770984
59.580 14.338311
59.585 14.04964
59.590 14.329693
59.595 14.592194
59.600 14.725019
59.605 15.00574
59.610 15.578227
59.615 15.345012
59.620 15.334046
59.625 14.898313
59.630 14.527622
59.635 14.549699
59.640 14.456114
59.645 14.579354
59.650 14.817235
59.655 14.54254
59.660 14.533755
59.665 14.825258
59.670 14.944904
59.675 14.985735
59.680 15.303047
59.685 15.481816
59.690 15.954439
59.695 15.794725
59.700 16.071251
59.705 15.982558
59.710 15.874678
59.715 16.018635
59.720 16.169153
59.725 16.055944
59.730 15.682867
59.735 15.503307
59.740 15.739324
59.745 15.878544
59.750 15.178583
59.755 14.86999
59.760 14.809213
59.765 15.270393
59.770 15.457527
59.775 15.65795
59.780 15.68317
59.785 15.625386
59.790 15.510039
59.795 15.653399
59.800 15.304474
59.805 14.828357
59.810 15.065064
59.815 15.094748
59.820 15.43123
59.825 15.850299
59.830 15.69559
59.835 15.973252
59.840 15.42268
59.845 14.711897
59.850 13.880157
59.855 13.487902
59.860 13.645224
59.865 14.135798
59.870 14.340888
59.875 14.628841
59.880 15.022264
59.885 15.655879
59.890 15.911763
59.895 15.555009
59.900 15.372917
59.905 15.716932
59.910 15.88304
59.915 15.600957
59.920 15.811489
59.925 15.543583
59.930 15.234173
59.935 14.598399
59.940 13.880647
59.945 13.860373
59.950 14.768469
59.955 14.988478
59.960 15.023991
59.965 15.400272
59.970 16.197508
59.975 16.357067
59.980 15.765511
59.985 15.009583
59.990 14.683838
59.995 15.167092
60.000 14.582403
60.005 14.433732
60.010 14.804013
60.015 16.139431
60.020 16.248749
60.025 16.276863
60.030 15.995891
60.035 16.239904
60.040 15.904781
60.045 15.729522
60.050 15.316835
60.055 15.10574
60.060 14.86368
60.065 15.151732
60.070 15.238648
60.075 15.262687
60.080 15.337595
60.085 15.374667
60.090 15.941989
60.095 15.740203
60.100 15.307161
60.105 15.028157
60.110 14.798418
60.115 13.961535
60.120 13.693964
60.125 13.234229
60.130 13.317384
60.135 14.220201
60.140 14.70663
60.145 14.765724
60.150 15.340466
60.155 15.541341
60.160 15.673691
60.165 15.690101
60.170 15.284685
60.175 15.122078
60.180 15.424541
60.185 15.523742
60.190 15.495872
60.195 15.390739
60.200 15.499707
60.205 15.552578
60.210 15.830945
60.215 15.825918
60.220 15.339732
60.225 15.275288
60.230 15.583321
60.235 15.761974
60.240 15.377834
60.245 14.59289
60.250 14.758873
60.255 15.079294
60.260 14.499081
60.265 13.962795
60.270 13.377985
60.275 13.112352
60.280 13.802055
60.285 13.542583
60.290 13.103792
60.295 13.016368
60.300 13.268028
60.305 13.795349
60.310 14.573503
60.315 14.676099
60.320 14.848612
60.325 15.61108
60.330 15.974098
60.335 15.884493
60.340 15.96306
60.345 15.636174
60.350 15.409907
60.355 15.179983
60.360 15.50031
60.365 15.720499
60.370 15.479063
60.375 15.730127
60.380 15.557367
60.385 15.578439
60.390 15.532674
60.395 15.14268
60.400 15.782612
60.405 16.278753
60.410 16.579027
60.415 16.696518
60.420 16.761257
60.425 16.557114
60.430 16.713041
60.435 16.364872
60.440 16.015749
60.445 15.397591
60.450 15.532628
60.455 15.367336
60.460 15.756876
60.465 16.158314
60.470 16.157347
60.475 16.051394
60.480 16.318235
60.485 16.063725
60.490 15.90407
60.495 15.597125
60.500 14.482833
60.505 14.420345
60.510 14.418917
60.515 13.928563
60.520 13.863064
60.525 13.907788
60.530 14.034964
60.535 14.39769
60.540 14.121256
60.545 14.429592
60.550 14.95712
60.555 15.091656
60.560 15.28214
60.565 15.67094
60.570 16.416153
60.575 17.01053
60.580 16.946405
60.585 16.543087
60.590 16.416641
60.595 16.199926
60.600 15.972842
60.605 15.452936
60.610 15.615075
60.615 15.879326
60.620 16.141438
60.625 16.388172
60.630 16.482466
60.635 16.967077
60.640 17.527784
60.645 17.366253
60.650 17.161243
60.655 16.966516
60.660 16.502419
60.665 15.96366
60.670 15.377813
60.675 14.574303
60.680 13.915453
60.685 13.833095
60.690 13.971394
60.695 14.651824
60.700 15.28758
60.705 15.278914
60.710 15.683445
60.715 16.010269
60.720 16.180645
60.725 16.175642
60.730 15.860261
60.735 15.093619
60.740 14.831648
60.745 14.433446
60.750 14.359982
60.755 14.701643
60.760 15.036216
60.765 15.344128
60.770 15.622685
60.775 15.550903
60.780 15.31129
60.785 15.350587
60.790 15.033956
60.795 14.862204
60.800 14.799455
60.805 14.624591
60.810 14.85753
60.815 15.136957
60.820 15.122471
60.825 15.370209
60.830 15.657382
60.835 15.47721
60.840 15.408717
60.845 15.708165
60.850 15.636334
60.855 15.315236
60.860 14.636418
60.865 14.840119
60.870 15.081156
60.875 15.063245
60.880 15.7546
60.885 16.276306
60.890 16.01503
60.895 15.71233
60.900 14.809221
60.905 14.735604
60.910 14.933508
60.915 14.075304
60.920 13.454897
60.925 13.974641
60.930 14.76143
60.935 15.268414
60.940 15.515484
60.945 15.291435
60.950 14.836052
60.955 15.2693
60.960 15.036519
60.965 14.308933
60.970 14.140933
60.975 14.1287
60.980 14.446729
60.985 15.130823
60.990 15.149393
60.995 15.733128
61.000 16.484278
61.005 16.518255
61.010 16.65011
61.015 16.860388
61.020 16.593086
61.025 16.728395
61.030 16.753613
61.035 16.348366
61.040 16.06131
61.045 15.769293
61.050 15.206981
61.055 15.271523
61.060 14.738805
61.065 14.397851
61.070 14.55006
61.075 15.235209
61.080 15.378371
61.085 15.648394
61.090 15.673171
61.095 15.796823
61.100 16.007021
61.105 16.279257
61.110 15.910752
61.115 15.769468
61.120 15.651987
61.125 15.795069
61.130 15.811696
61.135 15.507512
61.140 15.111465
61.145 14.803834
61.150 14.628177
61.155 14.854693
61.160 14.791569
61.165 15.329929
61.170 15.464245
61.175 15.569578
61.180 15.735725
61.185 16.302153
61.190 16.454077
61.195 16.949753
61.200 16.820127
61.205 17.236729
61.210 17.478703
61.215 17.996622
61.220 17.960251
61.225 17.808382
61.230 17.662252
61.235 17.883137
61.240 18.18144
61.245 18.541224
61.250 18.549755
61.255 18.510139
61.260 18.759106
61.265 17.873051
61.270 17.142954
61.275 16.241989
61.280 15.747435
61.285 15.441838
61.290 15.68798
61.295 15.324974
61.300 15.85929
61.305 16.236315
61.310 16.231525
61.315 16.146038
61.320 16.68329
61.325 16.474852
61.330 16.510504
61.335 15.9373
61.340 15.346138
61.345 15.48
61.350 14.950322
61.355 14.63611
61.360 14.294481
61.365 13.651695
61.370 14.115586
61.375 14.829934
61.380 15.170017
61.385 15.690765
61.390 15.517868
61.395 15.762589
61.400 16.192932
61.405 15.764353
61.410 15.153441
61.415 14.553398
61.420 14.065492
61.425 14.011525
61.430 14.016681
61.435 14.584091
61.440 14.899479
61.445 15.58958
61.450 16.345045
61.455 17.045362
61.460 17.127134
61.465 17.58161
61.470 17.178837
61.475 17.004793
61.480 16.319801
61.485 16.311663
61.490 16.119625
61.495 16.222368
61.500 15.832745
61.505 16.281696
61.510 16.630802
61.515 16.899151
61.520 16.914227
61.525 16.885437
61.530 16.763426
61.535 17.058224
61.540 17.022213
61.545 17.09651
61.550 17.193747
61.555 16.863811
61.560 16.91206
61.565 16.613661
61.570 15.935722
61.575 15.274437
61.580 14.741857
61.585 14.604892
61.590 14.783939
61.595 14.595115
61.600 14.677791
61.605 14.93386
61.610 15.44088
61.615 15.837928
61.620 16.116842
61.625 16.019255
61.630 16.015329
61.635 15.848131
61.640 15.529978
61.645 15.917023
61.650 15.728601
61.655 15.67555
61.660 15.283216
61.665 15.204837
61.670 15.540021
61.675 15.646843
61.680 15.066691
61.685 14.957022
61.690 14.983392
61.695 15.312326
61.700 15.265485
61.705 15.01407
61.710 15.467952
61.715 15.626644
61.720 15.247727
61.725 15.115146
61.730 15.333085
61.735 15.530554
61.740 15.516065
61.745 15.425029
61.750 15.419139
61.755 15.793484
61.760 15.822206
61.765 15.328125
61.770 15.374892
61.775 15.896947
61.780 15.684274
61.785 16.311613
61.790 16.507996
61.795 16.290031
61.800 16.575323
61.805 16.413048
61.810 16.310675
61.815 16.864058
61.820 17.282763
61.825 17.250265
61.830 17.517433
61.835 17.950842
61.840 17.858995
61.845 17.586561
61.850 17.354805
61.855 17.286283
61.860 17.590176
61.865 17.341137
61.870 16.722328
61.875 17.001844
61.880 17.58079
61.885 17.679396
61.890 17.005617
61.895 16.626434
61.900 16.644712
61.905 17.613857
61.910 17.796722
61.915 17.474829
61.920 17.44128
61.925 17.418913
61.930 17.102545
61.935 17.029924
61.940 16.708757
61.945 16.503805
61.950 16.587168
61.955 16.632919
61.960 16.719339
61.965 17.42441
61.970 17.327248
61.975 17.075949
61.980 16.689116
61.985 16.029991
61.990 15.741405
61.995 15.629388
62.000 15.583035
62.005 15.701923
62.010 16.34263
62.015 16.887594
62.020 16.664248
62.025 16.393307
62.030 16.388554
62.035 16.360559
62.040 16.372702
62.045 15.93516
62.050 15.76107
62.055 16.364569
62.060 17.050274
62.065 17.010443
62.070 16.65736
62.075 16.585739
62.080 16.767773
62.085 17.263449
62.090 17.059288
62.095 16.475967
62.100 16.681259
62.105 17.393353
62.110 17.422268
62.115 17.335478
62.120 16.79426
62.125 17.05685
62.130 16.966516
62.135 16.995726
62.140 16.428112
62.145 16.28558
62.150 15.809549
62.155 15.51565
62.160 15.458435
62.165 15.965955
62.170 15.957293
62.175 15.846216
62.180 15.695411
62.185 16.241951
62.190 16.682819
62.195 16.238615
62.200 15.515413
62.205 15.386021
62.210 15.75076
62.215 16.206085
62.220 16.337355
62.225 16.085236
62.230 16.777922
62.235 17.309219
62.240 17.425859
62.245 17.05549
62.250 16.645498
62.255 16.220579
62.260 16.088604
62.265 15.897941
62.270 15.839114
62.275 15.565741
62.280 15.921114
62.285 15.335906
62.290 14.982578
62.295 15.110789
62.300 15.188478
62.305 14.894929
62.310 14.747992
62.315 14.651173
62.320 15.178465
62.325 15.328796
62.330 15.461877
62.335 15.171563
62.340 15.67166
62.345 16.330568
62.350 16.374052
62.355 17.043354
62.360 17.5641
62.365 18.188675
62.370 18.613283
62.375 18.534098
62.380 18.661924
62.385 18.409126
62.390 17.428938
62.395 17.039568
62.400 16.630091
62.405 16.94784
62.410 17.17252
62.415 16.595409
62.420 16.738117
62.425 17.41921
62.430 17.344563
62.435 16.98818
62.440 16.583076
62.445 16.254633
62.450 17.057243
62.455 17.656031
62.460 17.406364
62.465 17.800049
62.470 18.585045
62.475 18.640541
62.480 18.658772
62.485 17.38364
62.490 17.040257
62.495 16.954529
62.500 16.965866
62.505 16.273882
62.510 15.834143
62.515 16.660437
62.520 17.316269
62.525 17.137362
62.530 16.985996
62.535 16.12887
62.540 16.111168
62.545 16.234425
62.550 15.208423
62.555 15.669463
62.560 15.932995
62.565 16.531719
62.570 16.942396
62.575 17.203268
62.580 17.590925
62.585 17.374552
62.590 17.111942
62.595 17.198658
62.600 16.958977
62.605 16.841612
62.610 16.906677
62.615 16.553591
62.620 16.789236
62.625 16.672621
62.630 16.675434
62.635 16.794489
62.640 16.985828
62.645 16.355591
62.650 16.779623
62.655 16.59675
62.660 16.3234
62.665 16.285049
62.670 16.679411
62.675 17.141136
62.680 17.687151
62.685 17.333334
62.690 17.623358
62.695 17.591145
62.700 17.473711
62.705 17.118128
62.710 16.841654
62.715 16.653246
62.720 16.834467
62.725 16.828415
62.730 17.315746
62.735 17.439507
62.740 17.800098
62.745 17.555168
62.750 17.378241
62.755 17.089426
62.760 17.535482
62.765 17.790001
62.770 17.553925
62.775 17.033127
62.780 17.103096
62.785 17.12109
62.790 17.687332
62.795 17.570976
62.800 17.073704
62.805 17.475313
62.810 17.353621
62.815 17.19779
62.820 17.174868
62.825 16.54524
62.830 16.003746
62.835 15.913939
62.840 15.868019
62.845 15.737947
62.850 16.500113
62.855 16.795631
62.860 17.089237
62.865 16.659353
62.870 16.342958
62.875 16.2201
62.880 16.23526
62.885 15.709746
62.890 15.924982
62.895 15.831364
62.900 15.920289
62.905 15.649199
62.910 15.458654
62.915 15.313232
62.920 15.219359
62.925 14.745797
62.930 14.855439
62.935 15.43216
62.940 15.903172
62.945 16.269043
62.950 16.741199
62.955 16.471193
62.960 16.360703
62.965 16.0026
62.970 16.56987
62.975 16.778582
62.980 16.760433
62.985 16.896389
62.990 17.699898
62.995 18.524912
63.000 18.918329
63.005 18.267246
63.010 18.121012
63.015 17.903582
63.020 17.208948
63.025 16.656544
63.030 16.332113
63.035 16.28924
63.040 16.33073
63.045 16.47525
63.050 16.783154
63.055 17.288103
63.060 17.068602
63.065 17.282965
63.070 17.853506
63.075 17.045031
63.080 16.375656
63.085 15.964636
63.090 15.909519
63.095 16.404612
63.100 16.113632
63.105 15.507275
63.110 15.706618
63.115 16.128893
63.120 16.393105
63.125 15.930063
63.130 15.691313
63.135 15.845636
63.140 16.001476
63.145 16.242529
63.150 16.039867
63.155 15.830287
63.160 16.402105
63.165 16.447247
63.170 16.036724
63.175 16.170723
63.180 16.299253
63.185 16.556135
63.190 16.219027
63.195 15.993184
63.200 16.012356
63.205 16.100912
63.210 16.449327
63.215 16.332804
63.220 16.422644
63.225 16.791054
63.230 16.985544
63.235 17.388628
63.240 17.845078
63.245 17.864481
63.250 18.633255
63.255 19.294968
63.260 19.995016
63.265 20.152702
63.270 20.032232
63.275 20.050415
63.280 19.882097
63.285 19.392929
63.290 19.010368
63.295 18.416016
63.300 18.381149
63.305 18.223604
63.310 18.033815
63.315 18.193861
63.320 18.030987
63.325 17.928175
63.330 18.040148
63.335 17.970402
63.340 17.813316
63.345 17.359062
63.350 16.723089
63.355 16.700594
63.360 16.873629
63.365 16.822392
63.370 16.792879
63.375 16.707348
63.380 16.864769
63.385 17.016665
63.390 17.130016
63.395 17.06193
63.400 16.696482
63.405 16.282696
63.410 16.416908
63.415 16.484852
63.420 17.037052
63.425 16.882393
63.430 16.808832
63.435 16.875381
63.440 16.988962
63.445 17.22945
63.450 17.402435
63.455 17.506958
63.460 17.287813
63.465 17.382608
63.470 18.149958
63.475 18.466856
63.480 18.325006
63.485 18.557158
63.490 18.391045
63.495 19.107685
63.500 18.828186
63.505 18.38242
63.510 18.376574
63.515 18.400312
63.520 18.015848
63.525 17.508678
63.530 16.902056
63.535 16.771811
63.540 16.663853
63.545 16.659403
63.550 16.309
63.555 16.136543
63.560 16.411385
63.565 16.802052
63.570 16.995972
63.575 17.413744
63.580 17.078722
63.585 17.568201
63.590 17.89603
63.595 17.876328
63.600 17.489122
63.605 17.619913
63.610 17.327019
63.615 18.140141
63.620 17.780725
63.625 17.394892
63.630 17.778425
63.635 18.480825
63.640 18.244925
63.645 17.489603
63.650 16.742477
63.655 17.293402
63.660 18.277975
63.665 18.157806
63.670 17.585964
63.675 17.663557
63.680 18.443827
63.685 19.051167
63.690 18.85351
63.695 18.319504
63.700 18.293989
63.705 18.627714
63.710 19.418945
63.715 19.603096
63.720 19.332376
63.725 19.44273
63.730 19.937929
63.735 19.822878
63.740 19.932022
63.745 19.678204
63.750 18.965355
63.755 18.475128
63.760 18.35368
63.765 17.906771
63.770 18.240267
63.775 18.051062
63.780 18.44622
63.785 18.887968
63.790 19.22855
63.795 19.583656
63.800 20.168177
63.805 19.76808
63.810 19.684679
63.815 19.595638
63.820 19.751156
63.825 20.201288
63.830 20.084694
63.835 19.960415
63.840 20.587297
63.845 20.516499
63.850 19.623295
63.855 19.287123
63.860 18.693022
63.865 18.888561
63.870 18.796495
63.875 18.526899
63.880 18.665859
63.885 18.599335
63.890 18.606741
63.895 18.869749
63.900 18.6462
63.905 18.292498
63.910 18.798471
63.915 19.32309
63.920 20.098867
63.925 20.463789
63.930 20.86574
63.935 20.8946
63.940 21.488705
63.945 20.9662
63.950 20.543049
63.955 21.213417
63.960 21.544109
63.965 21.246986
63.970 21.145247
63.975 21.264563
63.980 21.581764
63.985 22.139513
63.990 21.414249
63.995 20.803516
64.000 21.49144
64.005 21.918409
64.010 22.485992
64.015 23.044109
64.020 23.326195
64.025 24.04668
64.030 24.984791
64.035 24.910339
64.040 24.824629
64.045 24.88574
64.050 24.734249
64.055 24.615719
64.060 24.276939
64.065 24.388491
64.070 24.661348
64.075 25.202038
64.080 25.585903
64.085 26.546291
64.090 26.984287
64.095 26.789467
64.100 26.486032
64.105 26.991159
64.110 27.254858
64.115 27.496813
64.120 27.854908
64.125 28.935616
64.130 30.338236
64.135 31.616819
64.140 32.037388
64.145 32.147469
64.150 32.259605
64.155 32.608227
64.160 32.298927
64.165 31.889183
64.170 31.666832
64.175 32.018097
64.180 32.345257
64.185 32.333817
64.190 32.555592
64.195 33.54715
64.200 34.579765
64.205 34.529953
64.210 34.498299
64.215 35.12249
64.220 36.022484
64.225 36.407219
64.230 36.521744
64.235 36.732327
64.240 37.138725
64.245 37.29884
64.250 36.822193
64.255 37.708439
64.260 39.416714
64.265 40.666676
64.270 41.634159
64.275 41.954948
64.280 42.525681
64.285 43.803436
64.290 44.342686
64.295 43.881844
64.300 43.122677
64.305 42.5714
64.310 43.421333
64.315 44.077595
64.320 44.568428
64.325 44.274883
64.330 43.708839
64.335 43.816158
64.340 45.312885
64.345 45.349251
64.350 45.53894
64.355 45.513805
64.360 46.144562
64.365 47.329464
64.370 48.207806
64.375 47.754826
64.380 47.894135
64.385 47.833595
64.390 47.239758
64.395 47.444576
64.400 47.13905
64.405 46.457554
64.410 46.475109
64.415 46.733227
64.420 46.91901
64.425 47.21629
64.430 45.864761
64.435 46.289181
64.440 46.097355
64.445 45.421494
64.450 45.199066
64.455 45.129719
64.460 44.962429
64.465 45.551044
64.470 44.257908
64.475 43.600239
64.480 43.794334
64.485 42.787209
64.490 41.850929
64.495 41.738831
64.500 41.453678
64.505 41.565819
64.510 41.614185
64.515 41.293022
64.520 41.544334
64.525 41.509132
64.530 41.010227
64.535 41.010181
64.540 40.782715
64.545 39.927341
64.550 38.955887
64.555 38.355755
64.560 38.094982
64.565 37.673409
64.570 36.152306
64.575 34.702873
64.580 33.868069
64.585 33.553661
64.590 33.080601
64.595 32.095703
64.600 31.342896
64.605 31.656698
64.610 32.116726
64.615 32.35078
64.620 31.700699
64.625 31.17498
64.630 31.096935
64.635 30.737062
64.640 29.876808
64.645 29.428318
64.650 29.013281
64.655 28.729872
64.660 28.087076
64.665 27.74424
64.670 27.096628
64.675 26.431282
64.680 26.124264
64.685 25.770809
64.690 25.153088
64.695 24.740496
64.700 25.113756
64.705 24.704756
64.710 24.783438
64.715 24.673822
64.720 24.32033
64.725 24.362726
64.730 24.463175
64.735 23.952848
64.740 23.761225
64.745 23.124607
64.750 22.437607
64.755 22.873827
64.760 23.017521
64.765 23.291895
64.770 23.75106
64.775 23.703543
64.780 23.222572
64.785 23.499147
64.790 22.41626
64.795 22.052559
64.800 22.479454
64.805 21.764982
64.810 21.713501
64.815 21.59165
64.820 21.536751
64.825 22.722498
64.830 23.399267
64.835 22.674202
64.840 22.353159
64.845 21.369207
64.850 20.802515
64.855 20.479313
64.860 19.789484
64.865 19.490593
64.870 19.599285
64.875 19.850855
64.880 19.961651
64.885 20.123795
64.890 19.860014
64.895 20.110592
64.900 20.409664
64.905 20.925203
64.910 21.721994
64.915 22.3482
64.920 22.534086
64.925 22.356033
64.930 21.826582
64.935 21.35465
64.940 20.711798
64.945 20.197445
64.950 20.394646
64.955 21.191965
64.960 22.214062
64.965 23.327848
64.970 23.604309
64.975 24.260479
64.980 24.630713
64.985 24.766577
64.990 25.275043
64.995 25.625877
65.000 25.477335
65.005 25.729256
65.010 25.447998
65.015 25.400898
65.020 26.232475
65.025 25.761774
65.030 25.644341
65.035 25.919374
65.040 26.385513
65.045 27.685226
65.050 28.316931
65.055 27.933735
65.060 28.497778
65.065 28.596531
65.070 28.416607
65.075 28.432972
65.080 28.463127
65.085 28.241377
65.090 27.891592
65.095 27.663094
65.100 28.421352
65.105 29.355879
65.110 29.445229
65.115 28.68548
65.120 28.852085
65.125 30.418577
65.130 31.006449
65.135 30.924681
65.140 29.946142
65.145 29.349857
65.150 29.5107
65.155 29.445297
65.160 29.477619
65.165 29.089468
65.170 28.592035
65.175 29.515446
65.180 30.14934
65.185 30.487061
65.190 30.865795
65.195 29.808184
65.200 29.475437
65.205 29.240803
65.210 28.666512
65.215 28.714567
65.220 29.547117
65.225 30.087315
65.230 31.505257
65.235 32.41946
65.240 33.606621
65.245 34.975594
65.250 35.290257
65.255 35.245575
65.260 34.946232
65.265 34.400242
65.270 34.681496
65.275 34.570492
65.280 34.16367
65.285 34.298351
65.290 34.073769
65.295 34.781536
65.300 35.003922
65.305 35.185184
65.310 35.183315
65.315 34.956352
65.320 34.609997
65.325 34.426395
65.330 33.847813
65.335 33.080276
65.340 32.708973
65.345 32.878197
65.350 34.316891
65.355 34.723019
65.360 35.02766
65.365 35.528725
65.370 35.903912
65.375 36.622074
65.380 36.401676
65.385 35.676891
65.390 35.468094
65.395 35.140392
65.400 34.842228
65.405 34.65144
65.410 34.072723
65.415 34.481178
65.420 34.293755
65.425 34.265285
65.430 33.607838
65.435 34.148003
65.440 35.947144
65.445 37.119591
65.450 37.678257
65.455 38.245029
65.460 38.513039
65.465 39.305595
65.470 39.372761
65.475 38.387531
65.480 37.341812
65.485 38.045826
65.490 38.438404
65.495 39.211384
65.500 39.793743
65.505 39.611839
65.510 39.387833
65.515 39.570457
65.520 38.344196
65.525 37.593742
65.530 36.557369
65.535 36.203636
65.540 36.360165
65.545 36.454975
65.550 36.054092
65.555 36.387558
65.560 36.620148
65.565 37.035252
65.570 37.314651
65.575 39.037666
65.580 39.629696
65.585 39.501854
65.590 38.753647
65.595 38.045837
65.600 38.09568
65.605 38.247375
65.610 36.675873
65.615 35.874199
65.620 36.425747
65.625 37.586048
65.630 37.555435
65.635 37.505463
65.640 36.629875
65.645 36.262123
65.650 36.393127
65.655 36.026222
65.660 35.913712
65.665 36.012608
65.670 35.568989
65.675 36.148655
65.680 37.104748
65.685 37.648239
65.690 37.311188
65.695 37.450432
65.700 38.368809
65.705 39.343784
65.710 39.43845
65.715 39.451576
65.720 39.278328
65.725 39.634136
65.730 39.485039
65.735 38.886131
65.740 37.807892
65.745 36.885376
65.750 36.355549
65.755 36.491905
65.760 35.937744
65.765 36.039963
65.770 36.61272
65.775 37.014477
65.780 37.116985
65.785 36.313061
65.790 36.004421
65.795 36.553932
65.800 36.575378
65.805 35.625977
65.810 35.327454
65.815 35.475117
65.820 35.288887
65.825 35.538536
65.830 34.864307
65.835 33.894817
65.840 34.191288
65.845 34.087116
65.850 33.975395
65.855 33.793968
65.860 33.261456
65.865 33.044582
65.870 32.974491
65.875 32.959713
65.880 32.54689
65.885 32.427299
65.890 32.575054
65.895 31.911123
65.900 31.865618
65.905 31.505192
65.910 31.208853
65.915 31.18107
65.920 31.331306
65.925 31.006151
65.930 30.7174
65.935 30.236116
65.940 30.229511
65.945 29.808062
65.950 29.35137
65.955 28.794571
65.960 28.74967
65.965 28.91807
65.970 28.699753
65.975 28.089245
65.980 28.015192
65.985 27.596668
65.990 26.281221
65.995 25.39189
66.000 25.884378
66.005 25.84503
66.010 25.569536
66.015 25.042515
66.020 25.572119
66.025 26.541784
66.030 26.364574
66.035 24.900068
66.040 24.775072
66.045 25.226738
66.050 25.424995
66.055 25.454258
66.060 25.43379
66.065 25.320641
66.070 26.302811
66.075 26.094683
66.080 25.326115
66.085 24.938404
66.090 24.126926
66.095 23.892776
66.100 23.488117
66.105 22.848169
66.110 23.008512
66.115 23.515705
66.120 23.415791
66.125 23.493279
66.130 23.279026
66.135 23.333673
66.140 23.202852
66.145 22.78093
66.150 22.392855
66.155 22.120306
66.160 22.152491
66.165 22.439108
66.170 22.660358
66.175 22.69578
66.180 22.721836
66.185 22.348536
66.190 22.031969
66.195 21.944748
66.200 21.764383
66.205 21.097525
66.210 21.235786
66.215 21.089561
66.220 21.872644
66.225 22.414425
66.230 22.333477
66.235 21.678793
66.240 21.551725
66.245 20.818712
66.250 20.707226
66.255 19.945389
66.260 19.586664
66.265 19.442062
66.270 19.63559
66.275 19.915874
66.280 20.391167
66.285 20.269539
66.290 19.907969
66.295 19.629759
66.300 19.781666
66.305 19.620718
66.310 18.914963
66.315 18.24398
66.320 18.298506
66.325 18.816534
66.330 18.958876
66.335 19.353867
66.340 19.440445
66.345 19.476273
66.350 19.881176
66.355 19.827114
66.360 19.630329
66.365 19.456366
66.370 18.740082
66.375 18.23085
66.380 18.319767
66.385 17.707361
66.390 17.754416
66.395 18.248318
66.400 18.718719
66.405 19.219814
66.410 19.566486
66.415 19.81263
66.420 20.791264
66.425 20.773142
66.430 20.118874
66.435 19.195852
66.440 19.262884
66.445 20.116114
66.450 20.064703
66.455 19.290993
66.460 19.726244
66.465 20.019033
66.470 20.120741
66.475 19.950699
66.480 19.868422
66.485 20.374763
66.490 19.913845
66.495 19.257973
66.500 18.651676
66.505 18.391287
66.510 17.986883
66.515 17.176779
66.520 16.690401
66.525 17.205484
66.530 17.509073
66.535 17.370636
66.540 17.533657
66.545 17.848406
66.550 18.114946
66.555 18.164673
66.560 18.310514
66.565 18.457819
66.570 19.298433
66.575 19.066254
66.580 18.611534
66.585 18.427351
66.590 18.222326
66.595 18.238951
66.600 17.91778
66.605 17.888567
66.610 17.985312
66.615 18.109343
66.620 18.643942
66.625 18.656424
66.630 18.523523
66.635 18.314301
66.640 17.956726
66.645 17.87999
66.650 18.202911
66.655 17.660343
66.660 17.624071
66.665 17.702932
66.670 17.559217
66.675 17.409544
66.680 17.506046
66.685 17.956753
66.690 18.558752
66.695 18.513926
66.700 19.260798
66.705 20.111416
66.710 20.163557
66.715 20.00737
66.720 19.026648
66.725 19.131422
66.730 19.156721
66.735 18.779226
66.740 18.28121
66.745 18.064859
66.750 18.189804
66.755 18.064661
66.760 18.267395
66.765 17.702013
66.770 16.885414
66.775 17.557524
66.780 18.124836
66.785 17.756422
66.790 17.428583
66.795 17.137669
66.800 17.038946
66.805 17.75803
66.810 16.991932
66.815 16.88641
66.820 17.691973
66.825 18.469587
66.830 18.445854
66.835 19.178204
66.840 18.852623
66.845 19.07217
66.850 19.43482
66.855 19.189219
66.860 18.80047
66.865 18.773094
66.870 19.044086
66.875 19.324604
66.880 19.437971
66.885 18.868296
66.890 18.425232
66.895 18.070229
66.900 18.503233
66.905 18.072353
66.910 17.520901
66.915 17.746481
66.920 18.27948
66.925 18.929403
66.930 19.563894
66.935 19.086597
66.940 19.061979
66.945 18.718058
66.950 18.420523
66.955 18.052479
66.960 18.118437
66.965 17.78933
66.970 18.100475
66.975 18.343859
66.980 18.613295
66.985 18.166849
66.990 17.653854
66.995 17.314056
67.000 17.349794
67.005 17.382589
67.010 17.484529
67.015 18.035891
67.020 18.848022
67.025 19.575157
67.030 19.651144
67.035 19.888762
67.040 19.949953
67.045 19.451794
67.050 19.131519
67.055 18.772654
67.060 18.70019
67.065 18.268377
67.070 17.611225
67.075 17.938967
67.080 17.914326
67.085 18.123569
67.090 18.056211
67.095 17.721039
67.100 18.107323
67.105 17.964828
67.110 17.517475
67.115 17.688038
67.120 17.254881
67.125 17.158836
67.130 16.98661
67.135 16.81291
67.140 17.223812
67.145 17.579563
67.150 17.7883
67.155 18.028517
67.160 18.451136
67.165 18.561277
67.170 19.25662
67.175 19.824419
67.180 19.807173
67.185 20.056229
67.190 20.383999
67.195 20.699339
67.200 21.077595
67.205 20.373756
67.210 19.671961
67.215 19.156261
67.220 18.588951
67.225 18.108425
67.230 17.852968
67.235 17.616667
67.240 17.400555
67.245 17.386463
67.250 17.422117
67.255 17.485264
67.260 17.48719
67.265 18.025372
67.270 18.066713
67.275 18.088974
67.280 18.390291
67.285 18.786283
67.290 18.990061
67.295 18.894949
67.300 18.548267
67.305 18.887007
67.310 19.562021
67.315 19.432901
67.320 19.870855
67.325 19.598392
67.330 19.492945
67.335 19.202593
67.340 18.714148
67.345 17.765314
67.350 17.348145
67.355 16.518906
67.360 16.365122
67.365 16.188139
67.370 15.890316
67.375 16.432098
67.380 17.319563
67.385 17.236048
67.390 17.577158
67.395 18.253792
67.400 18.932903
67.405 18.833895
67.410 18.842302
67.415 18.287064
67.420 18.539522
67.425 18.99782
67.430 18.663479
67.435 18.741802
67.440 19.485455
67.445 19.320463
67.450 19.691933
67.455 19.823551
67.460 20.023817
67.465 19.567511
67.470 19.230412
67.475 18.973459
67.480 19.178886
67.485 19.5028
67.490 19.555662
67.495 19.355732
67.500 20.152939
67.505 19.973177
67.510 20.171785
67.515 20.184185
67.520 20.407656
67.525 20.445786
67.530 19.542408
67.535 19.033939
67.540 19.004065
67.545 18.978338
67.550 18.988317
67.555 18.365402
67.560 17.990627
67.565 18.069742
67.570 18.166645
67.575 17.967245
67.580 17.259581
67.585 17.079784
67.590 17.269447
67.595 17.387512
67.600 17.785482
67.605 17.846384
67.610 18.239779
67.615 18.461002
67.620 18.326616
67.625 18.181858
67.630 18.892973
67.635 19.271309
67.640 19.099985
67.645 18.842945
67.650 18.6415
67.655 19.124933
67.660 19.191475
67.665 18.557032
67.670 17.841444
67.675 18.438398
67.680 18.842216
67.685 19.151419
67.690 18.980171
67.695 19.319117
67.700 19.910158
67.705 20.172989
67.710 19.927734
67.715 19.983255
67.720 19.731796
67.725 19.260532
67.730 18.609293
67.735 18.443865
67.740 18.775566
67.745 18.867811
67.750 19.466955
67.755 20.006329
67.760 19.920734
67.765 19.650604
67.770 19.777008
67.775 19.764526
67.780 19.376366
67.785 18.918699
67.790 18.830002
67.795 19.140387
67.800 19.394291
67.805 19.123472
67.810 18.76635
67.815 18.779028
67.820 18.816238
67.825 18.871071
67.830 19.589376
67.835 19.234283
67.840 18.953295
67.845 18.536268
67.850 18.132259
67.855 17.573755
67.860 17.53754
67.865 17.402517
67.870 18.020552
67.875 18.533985
67.880 18.574123
67.885 18.66151
67.890 19.131243
67.895 19.048868
67.900 18.484079
67.905 18.239126
67.910 18.152664
67.915 18.440502
67.920 18.708235
67.925 18.44245
67.930 18.334549
67.935 18.469284
67.940 19.306383
67.945 19.564188
67.950 19.541908
67.955 19.361153
67.960 19.591927
67.965 19.344158
67.970 18.872297
67.975 18.199781
67.980 18.218248
67.985 18.818497
67.990 19.276476
67.995 19.316265
68.000 19.393349
68.005 19.236343
68.010 19.2572
68.015 18.848207
68.020 18.66411
68.025 18.37912
68.030 18.260098
68.035 18.401602
68.040 18.776863
68.045 18.947071
68.050 19.206425
68.055 19.282276
68.060 19.523073
68.065 19.386728
68.070 19.927931
68.075 20.543396
68.080 20.965019
68.085 21.00098
68.090 20.824852
68.095 20.679264
68.100 20.48229
68.105 19.970421
68.110 19.130089
68.115 18.674002
68.120 18.467375
68.125 18.404598
68.130 18.692184
68.135 18.990751
68.140 19.543018
68.145 19.925686
68.150 20.125965
68.155 20.306206
68.160 20.238268
68.165 19.747192
68.170 19.862991
68.175 19.589857
68.180 19.201092
68.185 18.68779
68.190 18.882463
68.195 18.865528
68.200 19.145212
68.205 19.284399
68.210 19.993864
68.215 20.706717
68.220 21.303148
68.225 21.259161
68.230 21.667679
68.235 21.870918
68.240 21.778643
68.245 21.547182
68.250 21.727499
68.255 21.613548
68.260 21.811344
68.265 22.284975
68.270 22.320196
68.275 22.86994
68.280 23.386723
68.285 22.816191
68.290 22.935917
68.295 23.464933
68.300 23.296539
68.305 23.280813
68.310 22.646887
68.315 22.543455
68.320 23.174623
68.325 23.229942
68.330 22.648676
68.335 22.60214
68.340 23.003052
68.345 24.024475
68.350 24.055048
68.355 24.132961
68.360 24.343325
68.365 24.404678
68.370 24.590925
68.375 24.601625
68.380 24.017542
68.385 24.617373
68.390 24.692677
68.395 24.707647
68.400 25.048101
68.405 25.143734
68.410 25.664267
68.415 26.793947
68.420 27.205591
68.425 26.974977
68.430 27.042412
68.435 27.057745
68.440 27.085901
68.445 26.651541
68.450 26.730999
68.455 26.935028
68.460 28.302549
68.465 29.072462
68.470 29.790356
68.475 29.867132
68.480 30.547482
68.485 30.057886
68.490 30.038387
68.495 29.441195
68.500 28.994461
68.505 28.650883
68.510 28.852211
68.515 28.382858
68.520 28.17141
68.525 28.868673
68.530 29.63835
68.535 29.953487
68.540 30.261875
68.545 30.650276
68.550 31.519144
68.555 31.51697
68.560 31.352688
68.565 31.45406
68.570 31.260405
68.575 31.742123
68.580 31.768932
68.585 32.205978
68.590 33.069511
68.595 33.324135
68.600 33.70929
68.605 33.954807
68.610 33.366741
68.615 33.083858
68.620 32.984039
68.625 32.3545
68.630 32.054588
68.635 31.750887
68.640 31.39382
68.645 31.957811
68.650 32.195946
68.655 32.743084
68.660 33.109051
68.665 33.058838
68.670 33.284763
68.675 33.716137
68.680 34.057156
68.685 34.348827
68.690 34.574539
68.695 35.031315
68.700 35.618656
68.705 36.230598
68.710 36.765617
68.715 36.203289
68.720 36.153179
68.725 35.756596
68.730 34.945927
68.735 34.137218
68.740 33.828671
68.745 33.028072
68.750 33.547935
68.755 33.440838
68.760 33.690304
68.765 34.462288
68.770 35.632519
68.775 35.800049
68.780 35.832924
68.785 35.345596
68.790 35.049965
68.795 34.838615
68.800 34.518261
68.805 34.037338
68.810 33.930771
68.815 35.323738
68.820 35.264648
68.825 34.697029
68.830 34.850281
68.835 35.230804
68.840 35.278816
68.845 35.238918
68.850 34.896042
68.855 35.2384
68.860 35.945583
68.865 36.255524
68.870 36.619175
68.875 36.174332
68.880 35.75148
68.885 35.642502
68.890 35.141266
68.895 34.729027
68.900 34.836723
68.905 34.178482
68.910 34.703899
68.915 34.457253
68.920 34.786205
68.925 34.796055
68.930 34.972706
68.935 34.646767
68.940 34.942116
68.945 34.436111
68.950 34.049477
68.955 33.378376
68.960 33.802143
68.965 33.482151
68.970 33.290607
68.975 32.916805
68.980 33.180038
68.985 33.808823
68.990 34.187138
68.995 34.35614
69.000 34.234974
69.005 33.902966
69.010 33.751728
69.015 33.757179
69.020 33.367798
69.025 33.117817
69.030 32.94746
69.035 32.808895
69.040 32.382565
69.045 31.857391
69.050 31.295809
69.055 31.109047
69.060 30.787701
69.065 30.406654
69.070 30.083454
69.075 30.260118
69.080 30.480478
69.085 30.754253
69.090 30.569624
69.095 30.808287
69.100 30.826601
69.105 31.14316
69.110 31.513315
69.115 31.710974
69.120 31.036789
69.125 31.480026
69.130 31.647171
69.135 31.361856
69.140 30.557138
69.145 29.492199
69.150 28.781939
69.155 28.719215
69.160 27.589703
69.165 27.407022
69.170 27.621637
69.175 27.803095
69.180 28.154617
69.185 27.930994
69.190 27.622395
69.195 27.775551
69.200 27.577335
69.205 27.799435
69.210 26.773806
69.215 26.06395
69.220 26.055079
69.225 25.216043
69.230 24.623802
69.235 23.891436
69.240 23.495001
69.245 24.204636
69.250 24.092674
69.255 24.187904
69.260 24.936222
69.265 25.662916
69.270 25.627531
69.275 25.540586
69.280 25.223972
69.285 25.284924
69.290 24.798416
69.295 24.196741
69.300 23.188509
69.305 22.997581
69.310 22.269417
69.315 21.722416
69.320 21.500198
69.325 21.74711
69.330 22.212238
69.335 22.368078
69.340 22.387297
69.345 22.533581
69.350 22.970146
69.355 22.769476
69.360 22.027658
69.365 21.431698
69.370 21.241205
69.375 20.884638
69.380 21.325594
69.385 20.561476
69.390 20.674833
69.395 20.992649
69.400 21.092001
69.405 20.455599
69.410 20.094133
69.415 19.174322
69.420 19.253065
69.425 19.115456
69.430 18.634703
69.435 19.151007
69.440 19.773149
69.445 19.612509
69.450 20.202532
69.455 20.396667
69.460 20.098715
69.465 19.795595
69.470 19.394995
69.475 19.64274
69.480 19.745703
69.485 19.015675
69.490 19.039217
69.495 19.719831
69.500 19.54845
69.505 19.395311
69.510 18.95438
69.515 18.938366
69.520 19.104719
69.525 18.391378
69.530 18.173447
69.535 18.427275
69.540 18.745792
69.545 18.679867
69.550 18.450439
69.555 18.227463
69.560 18.783007
69.565 18.953875
69.570 18.467031
69.575 18.026228
69.580 18.476885
69.585 18.836845
69.590 18.80151
69.595 18.699715
69.600 18.684834
69.605 19.411919
69.610 19.808289
69.615 19.469576
69.620 19.602514
69.625 19.591259
69.630 19.190575
69.635 19.238632
69.640 19.015381
69.645 19.523466
69.650 19.832571
69.655 20.243444
69.660 20.231079
69.665 20.712795
69.670 20.737427
69.675 21.250364
69.680 20.58234
69.685 20.598158
69.690 20.263779
69.695 20.252495
69.700 20.592815
69.705 20.336842
69.710 19.846422
69.715 19.921124
69.720 19.938395
69.725 20.199129
69.730 20.436457
69.735 19.90238
69.740 18.949038
69.745 18.645693
69.750 17.823336
69.755 17.740015
69.760 17.584841
69.765 17.080008
69.770 17.974411
69.775 18.505424
69.780 18.497213
69.785 18.756958
69.790 18.029049
69.795 17.526255
69.800 17.808294
69.805 17.123287
69.810 17.250238
69.815 17.631105
69.820 17.489706
69.825 17.548351
69.830 17.66437
69.835 17.817247
69.840 18.000154
69.845 17.904427
69.850 17.500702
69.855 18.13496
69.860 18.367136
69.865 17.840017
69.870 17.300852
69.875 17.614569
69.880 17.930275
69.885 17.712524
69.890 17.224932
69.895 17.402351
69.900 18.229195
69.905 18.630106
69.910 18.705816
69.915 18.553213
69.920 19.08342
69.925 19.433294
69.930 19.513931
69.935 19.09193
69.940 18.72847
69.945 18.422363
69.950 18.976877
69.955 19.275204
69.960 19.701317
69.965 19.718363
69.970 19.529047
69.975 19.556213
69.980 19.732056
69.985 18.957991
69.990 18.102802
69.995 17.288187
70.000 17.446568
70.005 17.711239
70.010 18.139036
70.015 18.501257
70.020 18.57744
70.025 18.735001
70.030 18.972424
70.035 19.155712
70.040 19.131386
70.045 18.241722
70.050 17.975954
70.055 18.53702
70.060 18.660532
70.065 18.516195
70.070 17.693939
70.075 17.702486
70.080 18.156757
70.085 17.998724
70.090 17.837299
70.095 17.983561
70.100 17.653088
70.105 17.928658
70.110 18.068037
70.115 18.470053
70.120 18.851444
70.125 19.234554
70.130 20.022623
70.135 21.233896
70.140 21.967228
70.145 21.991159
70.150 21.461176
70.155 21.105185
70.160 20.945341
70.165 20.385231
70.170 19.391264
70.175 18.69783
70.180 18.726393
70.185 18.781956
70.190 18.70822
70.195 18.236437
70.200 17.96843
70.205 18.484076
70.210 18.822662
70.215 19.343996
70.220 19.420126
70.225 19.118708
70.230 18.966015
70.235 18.961208
70.240 18.406071
70.245 18.288425
70.250 18.045
70.255 18.522667
70.260 19.063383
70.265 19.503887
70.270 19.329678
70.275 18.942778
70.280 18.662891
70.285 18.109844
70.290 17.994059
70.295 17.623562
70.300 17.247364
70.305 17.565653
70.310 18.472935
70.315 19.193672
70.320 19.594931
70.325 19.529423
70.330 20.091349
70.335 20.425442
70.340 20.338156
70.345 19.736261
70.350 19.611855
70.355 19.430943
70.360 19.140022
70.365 18.632336
70.370 18.35438
70.375 17.796009
70.380 17.156235
70.385 17.221291
70.390 17.067272
70.395 17.308142
70.400 16.976173
70.405 16.830051
70.410 17.211836
70.415 17.431709
70.420 16.670486
70.425 16.792391
70.430 16.870544
70.435 17.693977
70.440 18.246899
70.445 18.427803
70.450 18.681229
70.455 19.180012
70.460 19.199932
70.465 18.915657
70.470 18.604069
70.475 18.581757
70.480 18.375748
70.485 18.138096
70.490 18.2005
70.495 17.884007
70.500 17.911751
70.505 17.566267
70.510 17.725657
70.515 17.27705
70.520 17.155178
70.525 17.439556
70.530 17.330692
70.535 17.502041
70.540 17.795805
70.545 17.604755
70.550 18.375937
70.555 18.267271
70.560 18.030821
70.565 18.743475
70.570 19.28013
70.575 19.421249
70.580 19.289602
70.585 18.956451
70.590 18.820427
70.595 18.115381
70.600 17.609627
70.605 16.861534
70.610 17.06468
70.615 17.137142
70.620 17.519358
70.625 17.41296
70.630 18.165705
70.635 18.375786
70.640 18.88718
70.645 18.646297
70.650 18.722517
70.655 18.349752
70.660 18.611069
70.665 18.532372
70.670 18.06493
70.675 17.106676
70.680 17.316023
70.685 18.278835
70.690 18.523321
70.695 18.957283
70.700 19.499418
70.705 19.970974
70.710 20.090807
70.715 19.953733
70.720 19.12145
70.725 18.508282
70.730 18.271383
70.735 17.46423
70.740 17.202377
70.745 17.604856
70.750 16.839193
70.755 17.276762
70.760 17.830315
70.765 17.590912
70.770 17.214561
70.775 17.170492
70.780 16.878681
70.785 16.951714
70.790 16.198402
70.795 16.093876
70.800 16.117952
70.805 16.282122
70.810 16.19832
70.815 16.847321
70.820 17.368067
70.825 18.103199
70.830 18.225019
70.835 18.434692
70.840 18.908148
70.845 18.729843
70.850 18.363432
70.855 18.31959
70.860 18.502707
70.865 19.016891
70.870 19.069336
70.875 19.364145
70.880 20.018103
70.885 20.336533
70.890 20.55323
70.895 20.051147
70.900 20.301041
70.905 20.163195
70.910 19.853729
70.915 19.429678
70.920 18.948133
70.925 18.539602
70.930 18.295744
70.935 18.207054
70.940 18.290092
70.945 18.393665
70.950 18.726974
70.955 18.900051
70.960 19.176615
70.965 18.608543
70.970 18.195301
70.975 18.548317
70.980 18.684862
70.985 18.288221
70.990 17.898937
70.995 17.645218
71.000 17.969635
71.005 17.443161
71.010 16.880152
71.015 16.642748
71.020 16.702629
71.025 16.91021
71.030 16.98805
71.035 17.172783
71.040 17.668098
71.045 18.031818
71.050 18.118147
71.055 18.160839
71.060 18.273684
71.065 18.583679
71.070 18.606159
71.075 17.900307
71.080 17.625305
71.085 18.161692
71.090 18.653826
71.095 18.828447
71.100 18.842613
71.105 19.036989
71.110 18.85998
71.115 18.508015
71.120 17.985687
71.125 17.010267
71.130 16.692093
71.135 16.00342
71.140 15.957129
71.145 16.685953
71.150 16.697441
71.155 16.728477
71.160 17.216774
71.165 17.628067
71.170 17.898792
71.175 17.783449
71.180 17.430998
71.185 17.541306
71.190 17.477722
71.195 16.796415
71.200 15.932962
71.205 15.59293
71.210 16.280111
71.215 16.663414
71.220 16.929991
71.225 17.202814
71.230 17.760279
71.235 18.060383
71.240 17.536499
71.245 17.307585
71.250 17.26552
71.255 17.143469
71.260 17.540009
71.265 17.63765
71.270 17.523262
71.275 18.02598
71.280 17.643454
71.285 18.156561
71.290 18.510344
71.295 18.296093
71.300 18.174328
71.305 18.48246
71.310 18.197041
71.315 18.052816
71.320 17.903225
71.325 17.802752
71.330 17.86334
71.335 18.02326
71.340 18.082457
71.345 18.576973
71.350 18.721701
71.355 18.595514
71.360 17.882095
71.365 17.507694
71.370 17.588095
71.375 17.562107
71.380 17.519297
71.385 17.343838
71.390 17.412558
71.395 18.139755
71.400 18.849806
71.405 18.804617
71.410 19.128971
71.415 19.64921
71.420 19.583021
71.425 19.162567
71.430 19.501312
71.435 19.673187
71.440 19.578201
71.445 19.042898
71.450 18.663969
71.455 18.812918
71.460 18.197287
71.465 17.191986
71.470 16.628811
71.475 16.898201
71.480 17.447113
71.485 17.340601
71.490 17.398499
71.495 17.950386
71.500 18.76947
71.505 18.986115
71.510 18.646858
71.515 17.840895
71.520 18.253616
71.525 18.20682
71.530 17.808813
71.535 17.390882
71.540 17.716085
71.545 17.852226
71.550 17.875105
71.555 17.24972
71.560 17.232109
71.565 17.167141
71.570 16.825293
71.575 16.052605
71.580 16.009863
71.585 16.524244
71.590 16.806967
71.595 16.847301
71.600 17.148018
71.605 17.860559
71.610 18.281998
71.615 18.31632
71.620 18.280064
71.625 18.801428
71.630 18.683376
71.635 18.470545
71.640 18.401558
71.645 18.765059
71.650 18.915609
71.655 18.671711
71.660 18.309612
71.665 18.13509
71.670 18.152323
71.675 18.543089
71.680 18.536411
71.685 18.879356
71.690 18.507233
71.695 18.572168
71.700 19.254513
71.705 18.557018
71.710 18.215174
71.715 17.441847
71.720 17.352436
71.725 17.811584
71.730 18.1991
71.735 18.635143
71.740 19.242489
71.745 19.293306
71.750 19.251789
71.755 19.217957
71.760 18.761866
71.765 18.022966
71.770 17.088957
71.775 16.714104
71.780 17.135279
71.785 17.633423
71.790 17.342377
71.795 17.638376
71.800 18.333485
71.805 18.745985
71.810 18.88464
71.815 18.458982
71.820 18.427719
71.825 18.544573
71.830 18.151213
71.835 17.964062
71.840 17.935543
71.845 17.775639
71.850 18.235786
71.855 18.129709
71.860 18.792704
71.865 19.016993
71.870 18.583113
71.875 18.574806
71.880 18.373198
71.885 17.997496
71.890 17.738039
71.895 17.154575
71.900 17.156057
71.905 17.578192
71.910 17.630764
71.915 17.578814
71.920 17.706186
71.925 17.724751
71.930 17.623732
71.935 17.354141
71.940 17.216902
71.945 17.982147
71.950 18.117752
71.955 17.742727
71.960 17.859798
71.965 17.709332
71.970 17.986132
71.975 17.405516
71.980 16.732224
71.985 16.569096
71.990 16.428198
71.995 16.901112
72.000 17.096159
72.005 16.803083
72.010 16.841925
72.015 17.02639
72.020 17.25075
72.025 17.271408
72.030 16.957258
72.035 16.946123
72.040 16.899479
72.045 17.288202
72.050 17.382744
72.055 17.261713
72.060 17.70549
72.065 18.04698
72.070 17.975948
72.075 18.318483
72.080 18.129339
72.085 18.037077
72.090 17.885048
72.095 17.418634
72.100 17.066065
72.105 17.55724
72.110 17.409777
72.115 17.462591
72.120 17.692556
72.125 18.183001
72.130 18.281103
72.135 18.08213
72.140 17.487146
72.145 17.118988
72.150 16.743069
72.155 16.591232
72.160 16.715933
72.165 17.21966
72.170 17.942394
72.175 18.568295
72.180 18.670496
72.185 18.652758
72.190 18.589115
72.195 18.107231
72.200 18.020636
72.205 17.409302
72.210 17.100956
72.215 17.539938
72.220 17.832539
72.225 18.003159
72.230 18.510828
72.235 18.648808
72.240 18.956688
72.245 19.662373
72.250 19.41188
72.255 19.113375
72.260 18.508314
72.265 17.970743
72.270 17.694189
72.275 17.62569
72.280 17.43788
72.285 17.766333
72.290 17.509592
72.295 17.96368
72.300 18.114605
72.305 18.240559
72.310 18.2927
72.315 18.165627
72.320 18.204973
72.325 18.454424
72.330 18.547245
72.335 18.761971
72.340 18.76844
72.345 17.869198
72.350 17.438557
72.355 17.236435
72.360 17.305773
72.365 17.016918
72.370 16.970697
72.375 17.507404
72.380 18.049906
72.385 17.935896
72.390 18.279034
72.395 18.019463
72.400 18.459045
72.405 18.953209
72.410 19.157011
72.415 19.740963
72.420 20.004976
72.425 19.853191
72.430 19.506363
72.435 19.269072
72.440 18.124847
72.445 17.735052
72.450 17.210894
72.455 16.552629
72.460 16.708557
72.465 16.808634
72.470 16.951029
72.475 17.143377
72.480 17.498781
72.485 18.192213
72.490 18.742796
72.495 18.31785
72.500 17.681448
72.505 17.309698
72.510 17.165224
72.515 16.632299
72.520 15.75827
72.525 16.12401
72.530 16.49855
72.535 16.809456
72.540 16.980776
72.545 17.515348
72.550 18.001482
72.555 18.362923
72.560 18.590565
72.565 18.910576
72.570 18.623154
72.575 18.560808
72.580 18.674725
72.585 18.654619
72.590 18.65773
72.595 18.123074
72.600 18.030499
72.605 18.241173
72.610 18.139292
72.615 17.210035
72.620 17.032043
72.625 17.319052
72.630 17.866407
72.635 18.36212
72.640 17.851982
72.645 17.694759
72.650 17.572905
72.655 17.713125
72.660 17.465918
72.665 17.018236
72.670 17.259768
72.675 17.579144
72.680 17.84771
72.685 18.231968
72.690 18.046337
72.695 18.340466
72.700 18.662634
72.705 18.041931
72.710 17.769598
72.715 17.249834
72.720 17.098619
72.725 17.101845
72.730 16.987926
72.735 16.850754
72.740 17.521946
72.745 17.528391
72.750 17.222097
72.755 16.920462
72.760 16.811993
72.765 16.943644
72.770 16.971855
72.775 17.174625
72.780 18.034689
72.785 18.543879
72.790 18.959993
72.795 18.62122
72.800 18.041475
72.805 17.484076
72.810 17.047672
72.815 16.622591
72.820 16.200882
72.825 15.55687
72.830 14.992381
72.835 14.716559
72.840 15.119133
72.845 14.910731
72.850 15.436296
72.855 15.492895
72.860 15.33414
72.865 15.955132
72.870 15.718713
72.875 15.819551
72.880 15.540998
72.885 15.482136
72.890 15.898432
72.895 15.707726
72.900 15.584059
72.905 15.860786
72.910 16.144375
72.915 16.558945
72.920 16.170198
72.925 16.061705
72.930 16.561924
72.935 16.715282
72.940 17.068996
72.945 17.115187
72.950 17.298895
72.955 17.776861
72.960 17.169565
72.965 17.057064
72.970 16.82889
72.975 16.168068
72.980 15.231937
72.985 14.92213
72.990 14.8807
72.995 15.029984
73.000 15.198555
