!@!!GADDS PLOTSO FILE: Chi integration type
!@!!Title/SampleName: map-bd
!@!!Comment: ?
!@!!User: Bruker Instrument Administrator
!@!!Site: University of Illinois Chicago
!@!!Frame: map-bd_01_000.gfrm
!@!!Wavelengths    1.54184   1.54056   1.54439
!@!!Frame angles: 2Theta: 63.000 Omega: 50.000 Phi: 0.000 Chi: 90.000
!@!!Integration range: 2Theta: 53.000 to 73.000  Gamma: -105.000 to -75.000
!@!!Integration method: bin normalized
!@!N
!@!SS
!@!M
!@!L 0.0 0.0 0.0 0.0
!@!XDegrees
!@!YCounts
53.000 7.197967
53.005 7.839538
53.010 8.367504
53.015 8.495353
53.020 8.548854
53.025 8.577722
53.030 8.523754
53.035 8.667165
53.040 8.552033
53.045 8.427021
53.050 8.199631
53.055 8.016279
53.060 7.788518
53.065 7.826571
53.070 7.746193
53.075 7.670505
53.080 7.656466
53.085 7.801533
53.090 7.691794
53.095 7.761947
53.100 7.58425
53.105 7.778934
53.110 7.800733
53.115 7.924577
53.120 7.762837
53.125 7.775773
53.130 7.986313
53.135 7.553676
53.140 7.321314
53.145 6.917069
53.150 7.175408
53.155 7.26627
53.160 7.281983
53.165 7.560846
53.170 8.110407
53.175 8.283907
53.180 8.61667
53.185 8.851175
53.190 8.825635
53.195 8.319416
53.200 7.926764
53.205 7.856596
53.210 7.82063
53.215 7.390851
53.220 7.411708
53.225 7.832705
53.230 7.97159
53.235 8.0307
53.240 7.725123
53.245 7.953025
53.250 8.413009
53.255 8.201315
53.260 8.031466
53.265 7.935943
53.270 7.906033
53.275 7.812291
53.280 7.672616
53.285 7.818244
53.290 7.635854
53.295 7.744358
53.300 7.959142
53.305 8.033976
53.310 8.088484
53.315 7.898253
53.320 7.794732
53.325 7.885117
53.330 7.583369
53.335 7.371836
53.340 6.982551
53.345 6.928972
53.350 6.618605
53.355 6.464828
53.360 6.727953
53.365 6.915614
53.370 7.113674
53.375 7.547335
53.380 7.51386
53.385 8.071287
53.390 8.311815
53.395 8.215098
53.400 8.24423
53.405 8.074449
53.410 7.751129
53.415 7.573551
53.420 7.549345
53.425 7.390988
53.430 7.142046
53.435 6.950052
53.440 7.003898
53.445 7.772481
53.450 8.21736
53.455 8.301279
53.460 8.279074
53.465 8.641897
53.470 8.961558
53.475 8.979998
53.480 8.772987
53.485 8.285239
53.490 8.66775
53.495 9.111803
53.500 9.291986
53.505 8.955585
53.510 8.713867
53.515 8.76655
53.520 9.202683
53.525 8.978063
53.530 8.61439
53.535 8.531387
53.540 8.729607
53.545 8.908046
53.550 8.84831
53.555 8.471013
53.560 8.43227
53.565 8.192156
53.570 8.194683
53.575 8.154839
53.580 8.456267
53.585 8.505085
53.590 8.287259
53.595 8.209789
53.600 8.395427
53.605 8.558368
53.610 8.58373
53.615 8.424868
53.620 8.512036
53.625 8.62099
53.630 8.772583
53.635 8.714302
53.640 8.562754
53.645 8.454818
53.650 8.64682
53.655 8.58808
53.660 8.54539
53.665 9.047009
53.670 9.261121
53.675 9.239305
53.680 8.855131
53.685 8.638983
53.690 8.863462
53.695 8.711448
53.700 8.206143
53.705 8.259313
53.710 8.296196
53.715 8.110578
53.720 7.743989
53.725 7.590174
53.730 7.745524
53.735 7.712885
53.740 7.538492
53.745 7.737012
53.750 7.91958
53.755 8.347532
53.760 8.318642
53.765 8.167678
53.770 8.266184
53.775 8.210922
53.780 8.279748
53.785 8.72318
53.790 8.451786
53.795 8.952532
53.800 9.507978
53.805 9.865455
53.810 10.268402
53.815 10.2105
53.820 9.998957
53.825 10.224225
53.830 9.916657
53.835 9.390907
53.840 8.686603
53.845 8.238703
53.850 8.184674
53.855 7.99346
53.860 7.700279
53.865 7.641312
53.870 8.093138
53.875 8.293633
53.880 8.186396
53.885 7.946038
53.890 7.864271
53.895 7.788181
53.900 7.902572
53.905 7.891508
53.910 7.97871
53.915 8.397067
53.920 8.427462
53.925 8.385679
53.930 8.492494
53.935 8.514953
53.940 8.394073
53.945 8.217074
53.950 8.34863
53.955 8.318027
53.960 8.399079
53.965 8.437564
53.970 8.29673
53.975 8.414129
53.980 8.596311
53.985 8.589663
53.990 8.638697
53.995 8.71502
54.000 8.292165
54.005 8.295007
54.010 8.271995
54.015 7.882727
54.020 7.922469
54.025 7.918603
54.030 8.144573
54.035 8.567493
54.040 8.290466
54.045 8.141655
54.050 8.482607
54.055 8.544077
54.060 8.420695
54.065 8.579852
54.070 8.418353
54.075 8.774559
54.080 9.292059
54.085 9.051862
54.090 8.800168
54.095 8.883818
54.100 8.708871
54.105 8.908699
54.110 8.827977
54.115 8.501767
54.120 8.521412
54.125 8.531939
54.130 7.910012
54.135 7.974167
54.140 7.878278
54.145 8.006521
54.150 7.89407
54.155 7.971757
54.160 7.909261
54.165 8.325207
54.170 8.313813
54.175 8.430763
54.180 8.644181
54.185 8.693229
54.190 9.048289
54.195 9.522846
54.200 9.82238
54.205 9.26836
54.210 8.70994
54.215 8.627879
54.220 8.455941
54.225 8.269207
54.230 8.160312
54.235 8.551829
54.240 9.132664
54.245 9.156557
54.250 9.202525
54.255 9.664505
54.260 9.801974
54.265 9.23158
54.270 8.898546
54.275 8.618196
54.280 8.740665
54.285 8.539293
54.290 8.396673
54.295 8.604537
54.300 8.460889
54.305 8.827262
54.310 9.113372
54.315 9.040537
54.320 8.961185
54.325 8.941088
54.330 9.228011
54.335 10.117785
54.340 9.976364
54.345 9.936787
54.350 9.916379
54.355 10.018372
54.360 10.177505
54.365 9.779729
54.370 9.432236
54.375 9.613245
54.380 9.905005
54.385 10.157316
54.390 9.748355
54.395 9.576396
54.400 9.199725
54.405 8.873951
54.410 8.874311
54.415 8.53935
54.420 8.400621
54.425 8.397046
54.430 8.227494
54.435 8.380587
54.440 8.300095
54.445 8.010478
54.450 7.946666
54.455 7.981762
54.460 7.934426
54.465 8.177168
54.470 8.510001
54.475 8.905021
54.480 9.078429
54.485 8.802691
54.490 8.55107
54.495 8.929231
54.500 8.941684
54.505 8.88731
54.510 8.472219
54.515 8.636685
54.520 9.080787
54.525 8.989767
54.530 8.97672
54.535 8.719666
54.540 8.601318
54.545 8.442304
54.550 8.375061
54.555 8.589808
54.560 8.62668
54.565 8.468569
54.570 8.482486
54.575 8.559969
54.580 8.788937
54.585 8.642826
54.590 8.711861
54.595 8.729981
54.600 8.85277
54.605 9.092946
54.610 9.512741
54.615 9.689731
54.620 9.8456
54.625 9.716872
54.630 9.612553
54.635 9.768166
54.640 9.451998
54.645 9.107575
54.650 8.852897
54.655 8.949163
54.660 9.390479
54.665 9.970516
54.670 10.372398
54.675 10.61177
54.680 10.664387
54.685 10.536022
54.690 10.395216
54.695 10.305875
54.700 9.765533
54.705 9.635986
54.710 9.304381
54.715 9.075481
54.720 9.205314
54.725 8.66497
54.730 8.751337
54.735 8.523578
54.740 8.44633
54.745 8.582028
54.750 8.622987
54.755 8.938887
54.760 9.16629
54.765 9.277904
54.770 9.555564
54.775 9.797277
54.780 10.089956
54.785 10.318472
54.790 9.925051
54.795 9.86593
54.800 9.511519
54.805 9.066157
54.810 9.396559
54.815 9.492147
54.820 8.904646
54.825 9.360839
54.830 9.396078
54.835 9.687745
54.840 9.712019
54.845 9.15211
54.850 9.120904
54.855 9.521995
54.860 9.47935
54.865 9.664192
54.870 9.726389
54.875 9.811661
54.880 10.214983
54.885 10.212336
54.890 10.361732
54.895 10.281359
54.900 9.825011
54.905 9.408778
54.910 9.573786
54.915 9.608722
54.920 9.34022
54.925 9.084367
54.930 9.504938
54.935 9.686653
54.940 9.843616
54.945 9.404736
54.950 9.340841
54.955 9.340473
54.960 9.259849
54.965 8.758937
54.970 8.882711
54.975 8.854559
54.980 9.138192
54.985 9.311607
54.990 9.745436
54.995 10.170672
55.000 10.47389
55.005 10.882293
55.010 10.888371
55.015 10.3358
55.020 9.767866
55.025 9.434098
55.030 8.957067
55.035 8.653441
55.040 7.836636
55.045 8.290836
55.050 9.090817
55.055 9.323899
55.060 9.293355
55.065 9.233143
55.070 9.29447
55.075 9.706964
55.080 9.790108
55.085 10.217178
55.090 10.464938
55.095 10.53339
55.100 10.658355
55.105 11.055071
55.110 11.110099
55.115 10.699148
55.120 9.952101
55.125 10.035535
55.130 9.972413
55.135 10.11495
55.140 9.959144
55.145 10.141882
55.150 10.586439
55.155 10.871658
55.160 10.886522
55.165 11.041265
55.170 10.997472
55.175 10.963619
55.180 10.1197
55.185 9.745026
55.190 9.92273
55.195 10.262676
55.200 10.653363
55.205 10.764477
55.210 11.105244
55.215 11.563747
55.220 11.407554
55.225 10.997034
55.230 10.517032
55.235 10.245206
55.240 10.022705
55.245 9.819268
55.250 9.783787
55.255 9.585363
55.260 9.836382
55.265 10.248027
55.270 10.467873
55.275 10.575305
55.280 10.385306
55.285 10.401576
55.290 10.866838
55.295 10.736044
55.300 10.452352
55.305 10.185644
55.310 10.12458
55.315 10.438056
55.320 10.578354
55.325 10.558422
55.330 10.89215
55.335 11.043579
55.340 11.132976
55.345 11.012183
55.350 10.44367
55.355 10.109636
55.360 10.22196
55.365 9.662568
55.370 9.016146
55.375 8.841957
55.380 8.859765
55.385 9.053853
55.390 9.221688
55.395 9.018774
55.400 8.897785
55.405 9.023495
55.410 8.94343
55.415 9.073322
55.420 9.083168
55.425 8.855519
55.430 8.578645
55.435 8.632751
55.440 8.786889
55.445 8.918795
55.450 8.730788
55.455 8.909455
55.460 9.044662
55.465 9.613318
55.470 9.617128
55.475 9.837168
55.480 9.949071
55.485 9.986275
55.490 9.786784
55.495 9.613508
55.500 9.67642
55.505 10.462817
55.510 10.65608
55.515 10.366082
55.520 10.415279
55.525 10.38997
55.530 10.440675
55.535 10.241118
55.540 9.800185
55.545 9.396836
55.550 10.031914
55.555 10.272536
55.560 10.248652
55.565 10.368005
55.570 10.420736
55.575 10.337219
55.580 10.284844
55.585 9.970192
55.590 10.016488
55.595 10.193394
55.600 9.775783
55.605 10.054315
55.610 10.148274
55.615 10.227553
55.620 10.25984
55.625 10.30019
55.630 9.971581
55.635 10.009256
55.640 10.110799
55.645 10.350869
55.650 10.40913
55.655 10.5552
55.660 10.619663
55.665 10.815859
55.670 10.52827
55.675 10.12985
55.680 9.701609
55.685 9.516107
55.690 9.806691
55.695 9.750817
55.700 9.656267
55.705 9.772393
55.710 9.787886
55.715 10.349407
55.720 10.901957
55.725 10.927525
55.730 11.162833
55.735 11.244895
55.740 10.947453
55.745 11.318993
55.750 11.490112
55.755 10.503407
55.760 9.95603
55.765 10.206596
55.770 10.154759
55.775 10.748096
55.780 10.233274
55.785 9.881243
55.790 10.260514
55.795 10.269248
55.800 10.000438
55.805 9.798887
55.810 9.672592
55.815 9.915316
55.820 10.098704
55.825 9.84528
55.830 9.820952
55.835 10.340029
55.840 10.228476
55.845 9.722093
55.850 9.698409
55.855 10.083384
55.860 10.489884
55.865 10.671757
55.870 10.584569
55.875 11.032413
55.880 11.29844
55.885 11.388257
55.890 11.678315
55.895 11.938637
55.900 11.855834
55.905 11.903687
55.910 11.766662
55.915 11.907053
55.920 11.606485
55.925 11.116436
55.930 11.007455
55.935 10.758665
55.940 11.382811
55.945 11.695106
55.950 11.600349
55.955 11.722033
55.960 11.802665
55.965 11.854589
55.970 12.164817
55.975 11.603907
55.980 11.251439
55.985 11.318099
55.990 11.370687
55.995 11.308123
56.000 11.326469
56.005 11.19574
56.010 11.422491
56.015 11.600975
56.020 11.84798
56.025 12.041227
56.030 12.182932
56.035 11.986826
56.040 11.928057
56.045 11.499393
56.050 11.369859
56.055 10.444185
56.060 9.819924
56.065 9.784256
56.070 9.908841
56.075 10.030326
56.080 9.886925
56.085 10.001031
56.090 10.204928
56.095 10.280159
56.100 10.412112
56.105 10.389
56.110 10.854692
56.115 11.208089
56.120 11.748126
56.125 12.263549
56.130 12.343987
56.135 12.264994
56.140 12.097986
56.145 11.729927
56.150 11.547847
56.155 11.387536
56.160 11.253196
56.165 11.126671
56.170 11.189372
56.175 11.695873
56.180 12.171062
56.185 12.406788
56.190 11.659633
56.195 11.548383
56.200 11.325462
56.205 10.851722
56.210 10.387579
56.215 10.043759
56.220 10.241915
56.225 10.941503
56.230 10.976171
56.235 11.753738
56.240 12.153322
56.245 12.795177
56.250 12.701065
56.255 12.430818
56.260 12.478181
56.265 12.452143
56.270 12.052197
56.275 11.808024
56.280 11.465673
56.285 11.609918
56.290 11.66501
56.295 11.508557
56.300 11.96442
56.305 12.301218
56.310 12.438314
56.315 12.692216
56.320 12.375666
56.325 12.323742
56.330 12.446334
56.335 12.279689
56.340 12.188143
56.345 12.115585
56.350 11.794549
56.355 12.095116
56.360 11.78256
56.365 11.433125
56.370 11.129328
56.375 10.843824
56.380 10.978728
56.385 10.837361
56.390 10.460432
56.395 10.545464
56.400 10.888206
56.405 11.122399
56.410 11.316309
56.415 11.165848
56.420 11.338115
56.425 11.515769
56.430 11.47823
56.435 11.396463
56.440 11.090542
56.445 10.542287
56.450 10.263094
56.455 10.361851
56.460 10.713943
56.465 10.57099
56.470 10.285159
56.475 10.043442
56.480 10.31813
56.485 10.823297
56.490 11.312355
56.495 11.537769
56.500 11.564753
56.505 11.617664
56.510 12.127643
56.515 12.178591
56.520 11.757496
56.525 11.507525
56.530 11.079242
56.535 11.014112
56.540 11.46017
56.545 11.092853
56.550 10.934126
56.555 11.047909
56.560 10.900238
56.565 11.62001
56.570 11.765039
56.575 11.761841
56.580 12.465545
56.585 12.447058
56.590 12.88925
56.595 12.955404
56.600 12.543673
56.605 12.586793
56.610 12.281075
56.615 12.675926
56.620 12.94754
56.625 12.348796
56.630 12.225681
56.635 12.344153
56.640 11.899994
56.645 11.845398
56.650 11.314607
56.655 11.017761
56.660 11.194579
56.665 11.19013
56.670 11.050981
56.675 11.050285
56.680 11.089526
56.685 11.212733
56.690 11.47858
56.695 11.483449
56.700 11.714382
56.705 12.118413
56.710 12.328761
56.715 12.033358
56.720 12.017542
56.725 11.938023
56.730 11.997726
56.735 12.270979
56.740 12.291438
56.745 12.236432
56.750 12.350779
56.755 12.954779
56.760 13.325014
56.765 13.41465
56.770 12.789063
56.775 12.578842
56.780 12.593205
56.785 12.608184
56.790 11.943254
56.795 11.626987
56.800 11.60529
56.805 12.190847
56.810 11.994449
56.815 11.643195
56.820 11.416637
56.825 11.431593
56.830 11.287862
56.835 11.04782
56.840 11.05645
56.845 11.548708
56.850 12.080073
56.855 12.264129
56.860 12.280776
56.865 12.601721
56.870 12.64559
56.875 12.012984
56.880 11.927673
56.885 11.582164
56.890 11.237312
56.895 11.145505
56.900 10.973354
56.905 11.05424
56.910 10.951363
56.915 11.261712
56.920 11.776442
56.925 12.557278
56.930 13.016493
56.935 12.940004
56.940 12.692251
56.945 12.70994
56.950 12.616851
56.955 12.500636
56.960 12.158301
56.965 11.915822
56.970 11.86975
56.975 12.514796
56.980 12.70625
56.985 12.519552
56.990 12.893746
56.995 12.912497
57.000 12.865373
57.005 12.55052
57.010 12.011689
57.015 12.041018
57.020 12.10673
57.025 11.477428
57.030 11.144255
57.035 11.214138
57.040 11.18531
57.045 11.328477
57.050 11.322644
57.055 11.192813
57.060 10.951826
57.065 10.730477
57.070 10.634357
57.075 11.600374
57.080 11.549561
57.085 11.291551
57.090 11.399768
57.095 11.969397
57.100 12.200179
57.105 12.157057
57.110 11.545135
57.115 11.475639
57.120 11.467774
57.125 11.206142
57.130 11.690696
57.135 12.189675
57.140 12.618931
57.145 13.106095
57.150 13.543525
57.155 13.542137
57.160 13.683085
57.165 13.767917
57.170 13.48199
57.175 13.409357
57.180 13.578819
57.185 13.859426
57.190 13.989421
57.195 14.224976
57.200 14.164623
57.205 14.447922
57.210 13.793542
57.215 13.381848
57.220 12.685375
57.225 12.65935
57.230 11.99397
57.235 11.276423
57.240 10.706657
57.245 10.767983
57.250 11.269691
57.255 11.802241
57.260 12.256436
57.265 12.866192
57.270 13.314097
57.275 13.545671
57.280 13.661321
57.285 13.556847
57.290 13.31421
57.295 12.754079
57.300 12.220535
57.305 12.179306
57.310 12.402061
57.315 12.297795
57.320 11.628969
57.325 11.594611
57.330 12.083956
57.335 12.17003
57.340 12.003607
57.345 11.757478
57.350 11.723023
57.355 12.467523
57.360 13.02852
57.365 12.919711
57.370 13.552705
57.375 13.724634
57.380 13.92063
57.385 13.773231
57.390 13.620436
57.395 13.43632
57.400 13.523111
57.405 12.768292
57.410 12.613271
57.415 12.940834
57.420 13.378539
57.425 13.19316
57.430 12.755193
57.435 12.799559
57.440 13.073888
57.445 12.892596
57.450 12.14357
57.455 11.423409
57.460 11.501579
57.465 11.577997
57.470 11.039069
57.475 11.006804
57.480 11.219981
57.485 11.478133
57.490 11.844233
57.495 11.729978
57.500 11.208785
57.505 11.484208
57.510 11.406439
57.515 11.349104
57.520 11.434614
57.525 11.50506
57.530 11.418223
57.535 12.226869
57.540 12.583082
57.545 12.839578
57.550 13.387596
57.555 14.42396
57.560 15.36963
57.565 15.424105
57.570 14.965517
57.575 14.755706
57.580 14.710769
57.585 14.564031
57.590 13.87698
57.595 12.517096
57.600 12.51189
57.605 12.460086
57.610 12.389715
57.615 12.172267
57.620 11.928531
57.625 11.455202
57.630 12.031559
57.635 12.339362
57.640 12.460367
57.645 12.087201
57.650 12.059063
57.655 11.8464
57.660 11.665234
57.665 11.616524
57.670 10.91747
57.675 11.315616
57.680 11.941936
57.685 12.440145
57.690 12.894339
57.695 13.472088
57.700 13.534431
57.705 13.882852
57.710 13.601888
57.715 13.725763
57.720 13.542824
57.725 13.863071
57.730 14.032007
57.735 14.461197
57.740 14.773057
57.745 14.916099
57.750 14.246303
57.755 13.904679
57.760 13.786552
57.765 13.100739
57.770 12.699675
57.775 12.972258
57.780 13.469728
57.785 14.003171
57.790 14.182161
57.795 14.163866
57.800 15.130448
57.805 15.415511
57.810 15.29986
57.815 14.96767
57.820 14.768793
57.825 14.70388
57.830 14.370802
57.835 13.500524
57.840 13.080825
57.845 13.362001
57.850 13.58946
57.855 14.034698
57.860 13.976961
57.865 14.470606
57.870 15.142228
57.875 15.521049
57.880 15.394657
57.885 15.530789
57.890 15.62973
57.895 15.60663
57.900 15.364081
57.905 15.159024
57.910 15.02882
57.915 14.798039
57.920 14.22207
57.925 13.848589
57.930 13.7434
57.935 13.844278
57.940 13.883882
57.945 13.722577
57.950 13.819257
57.955 14.08525
57.960 14.185333
57.965 14.447653
57.970 14.401582
57.975 14.131225
57.980 14.418783
57.985 15.105293
57.990 15.161299
57.995 14.9511
58.000 14.296877
58.005 13.948564
58.010 14.812924
58.015 14.65354
58.020 13.857593
58.025 13.764217
58.030 14.253711
58.035 14.96277
58.040 15.289268
58.045 14.939752
58.050 15.218124
58.055 15.690165
58.060 16.345039
58.065 16.446899
58.070 16.662687
58.075 16.666636
58.080 16.34034
58.085 16.02179
58.090 15.553971
58.095 15.91405
58.100 15.920134
58.105 15.706631
58.110 15.280915
58.115 15.553812
58.120 15.158654
58.125 15.38716
58.130 14.524783
58.135 14.350587
58.140 14.421362
58.145 14.967658
58.150 15.626476
58.155 16.385557
58.160 15.606557
58.165 15.341669
58.170 15.024966
58.175 15.079602
58.180 14.974836
58.185 14.710291
58.190 14.162144
58.195 14.482917
58.200 14.920358
58.205 15.329054
58.210 15.345914
58.215 15.139528
58.220 14.814746
58.225 14.942833
58.230 15.28932
58.235 15.556415
58.240 15.3678
58.245 15.032059
58.250 14.793062
58.255 15.137085
58.260 15.222041
58.265 14.872555
58.270 14.425208
58.275 14.586121
58.280 15.319231
58.285 16.180403
58.290 16.34663
58.295 16.814154
58.300 17.72229
58.305 17.908869
58.310 17.637009
58.315 17.550148
58.320 16.469151
58.325 16.425882
58.330 15.965605
58.335 15.741146
58.340 16.489725
58.345 17.196907
58.350 17.652929
58.355 18.220297
58.360 18.019804
58.365 18.29336
58.370 18.267067
58.375 17.85219
58.380 17.450596
58.385 17.887087
58.390 17.466702
58.395 17.933849
58.400 18.387959
58.405 18.736435
58.410 18.992125
58.415 19.186255
58.420 19.112881
58.425 19.739115
58.430 20.070438
58.435 19.719234
58.440 19.888399
58.445 20.578234
58.450 21.096554
58.455 21.406773
58.460 21.940569
58.465 22.316507
58.470 23.283209
58.475 23.664974
58.480 23.426016
58.485 23.785366
58.490 24.183554
58.495 24.352743
58.500 23.99229
58.505 23.474504
58.510 23.388336
58.515 24.476656
58.520 25.032854
58.525 25.880697
58.530 26.759649
58.535 28.394575
58.540 29.300621
58.545 29.906944
58.550 30.060652
58.555 29.953386
58.560 30.494478
58.565 30.652637
58.570 30.392803
58.575 31.086964
58.580 31.016462
58.585 31.092768
58.590 31.498516
58.595 32.526001
58.600 33.3722
58.605 33.404133
58.610 33.459171
58.615 33.769169
58.620 33.886913
58.625 33.711872
58.630 32.623547
58.635 32.415268
58.640 32.947338
58.645 33.038845
58.650 33.479961
58.655 34.74762
58.660 35.598148
58.665 35.672462
58.670 35.528297
58.675 35.911182
58.680 36.224262
58.685 35.138718
58.690 33.73344
58.695 33.280682
58.700 33.542034
58.705 33.204075
58.710 32.418106
58.715 32.33667
58.720 32.491402
58.725 32.487926
58.730 31.90436
58.735 31.552593
58.740 31.691008
58.745 31.691988
58.750 31.240454
58.755 30.927734
58.760 30.912537
58.765 30.52964
58.770 29.913879
58.775 29.386324
58.780 29.218435
58.785 28.268549
58.790 27.939915
58.795 27.647301
58.800 27.663818
58.805 27.309408
58.810 27.15233
58.815 26.292238
58.820 26.018614
58.825 26.293526
58.830 26.033859
58.835 25.805235
58.840 25.769112
58.845 25.00403
58.850 25.21607
58.855 25.085104
58.860 24.325129
58.865 24.015749
58.870 23.560585
58.875 22.938818
58.880 22.570288
58.885 22.563118
58.890 22.470329
58.895 22.212439
58.900 21.885555
58.905 21.26156
58.910 21.188122
58.915 21.080887
58.920 20.81975
58.925 20.360903
58.930 20.424788
58.935 19.97761
58.940 19.901316
58.945 20.256634
58.950 20.290565
58.955 19.794865
58.960 20.100718
58.965 20.063318
58.970 19.776812
58.975 19.634176
58.980 19.260139
58.985 19.315008
58.990 18.979708
58.995 18.760029
59.000 18.270315
59.005 17.794025
59.010 17.170891
59.015 16.87948
59.020 16.324139
59.025 16.335386
59.030 16.70886
59.035 17.006996
59.040 17.600885
59.045 17.614059
59.050 17.163931
59.055 17.56357
59.060 17.049505
59.065 16.294165
59.070 16.502001
59.075 15.998755
59.080 15.585614
59.085 15.746201
59.090 15.816294
59.095 15.948111
59.100 15.73842
59.105 14.695596
59.110 14.51873
59.115 14.034976
59.120 13.324102
59.125 12.712284
59.130 12.78967
59.135 12.944588
59.140 13.349692
59.145 13.259091
59.150 13.482862
59.155 13.919211
59.160 14.118403
59.165 14.257063
59.170 14.4754
59.175 14.576332
59.180 14.844206
59.185 15.375434
59.190 15.659747
59.195 15.818222
59.200 15.469378
59.205 15.150703
59.210 15.362586
59.215 15.334771
59.220 15.210159
59.225 15.066944
59.230 14.916527
59.235 15.026283
59.240 14.986541
59.245 14.720405
59.250 14.639276
59.255 14.305527
59.260 14.181013
59.265 14.022904
59.270 14.486716
59.275 14.768127
59.280 14.670211
59.285 14.623275
59.290 14.978829
59.295 14.861129
59.300 15.414946
59.305 14.895303
59.310 15.108344
59.315 15.002069
59.320 14.781764
59.325 14.781733
59.330 14.838483
59.335 14.453429
59.340 14.394979
59.345 14.533388
59.350 14.820054
59.355 15.342505
59.360 14.924465
59.365 14.947821
59.370 14.770669
59.375 14.369676
59.380 13.882414
59.385 14.015275
59.390 14.192646
59.395 14.879008
59.400 14.988136
59.405 15.052697
59.410 15.172452
59.415 15.214103
59.420 14.794223
59.425 13.77557
59.430 13.184096
59.435 13.149855
59.440 13.756261
59.445 14.019109
59.450 13.966578
59.455 13.988829
59.460 14.523844
59.465 14.816339
59.470 14.882527
59.475 14.120486
59.480 13.638144
59.485 13.726628
59.490 13.919017
59.495 14.030119
59.500 13.942376
59.505 14.149628
59.510 14.711903
59.515 15.103435
59.520 15.203588
59.525 14.973949
59.530 14.467521
59.535 13.951035
59.540 13.330798
59.545 12.54718
59.550 12.526249
59.555 12.578387
59.560 12.864307
59.565 13.005713
59.570 12.921106
59.575 13.226933
59.580 13.791506
59.585 13.611316
59.590 13.697184
59.595 14.050783
59.600 13.955301
59.605 14.256667
59.610 14.61079
59.615 14.4878
59.620 14.571507
59.625 14.225368
59.630 14.424907
59.635 14.971112
59.640 15.040578
59.645 14.354192
59.650 14.28916
59.655 14.814665
59.660 15.004205
59.665 14.464464
59.670 14.30648
59.675 14.245664
59.680 14.631397
59.685 14.646978
59.690 14.664256
59.695 15.164535
59.700 15.914353
59.705 15.986623
59.710 16.209108
59.715 16.200903
59.720 16.116041
59.725 15.172776
59.730 14.53877
59.735 13.93263
59.740 14.308573
59.745 14.164021
59.750 14.09973
59.755 13.950246
59.760 14.580033
59.765 15.124748
59.770 15.167657
59.775 14.511667
59.780 14.320017
59.785 14.025852
59.790 14.24103
59.795 14.141102
59.800 13.847555
59.805 13.395263
59.810 13.794877
59.815 14.364754
59.820 14.704275
59.825 14.231612
59.830 13.884317
59.835 14.144295
59.840 14.174983
59.845 14.231095
59.850 14.121339
59.855 14.410753
59.860 14.468154
59.865 14.399337
59.870 14.295399
59.875 14.805235
59.880 14.849448
59.885 14.742411
59.890 14.350245
59.895 14.259225
59.900 14.040339
59.905 14.032451
59.910 13.741524
59.915 13.600931
59.920 13.77298
59.925 14.194292
59.930 14.594345
59.935 14.758398
59.940 14.782079
59.945 14.717943
59.950 14.262675
59.955 14.147777
59.960 13.833452
59.965 13.391523
59.970 13.344378
59.975 13.048162
59.980 12.833432
59.985 12.802682
59.990 12.602899
59.995 12.551935
60.000 12.857792
60.005 13.283311
60.010 13.655666
60.015 13.643373
60.020 13.76351
60.025 13.906092
60.030 14.020134
60.035 14.072103
60.040 13.796276
60.045 14.089371
60.050 14.678387
60.055 14.63781
60.060 14.791321
60.065 14.772397
60.070 14.62863
60.075 14.486325
60.080 14.450269
60.085 14.712728
60.090 15.048987
60.095 14.871894
60.100 15.168521
60.105 15.349506
60.110 15.275623
60.115 14.613561
60.120 14.222991
60.125 14.29321
60.130 14.411126
60.135 14.168638
60.140 14.201246
60.145 14.029279
60.150 14.223086
60.155 14.123314
60.160 13.848013
60.165 13.757937
60.170 13.635779
60.175 13.882073
60.180 14.30975
60.185 14.358596
60.190 14.517811
60.195 14.916913
60.200 15.37678
60.205 15.603477
60.210 15.74179
60.215 15.408384
60.220 15.153302
60.225 14.78031
60.230 14.491753
60.235 14.402216
60.240 14.108295
60.245 13.554293
60.250 13.606181
60.255 14.090785
60.260 14.27868
60.265 14.463619
60.270 14.635931
60.275 14.608042
60.280 15.058918
60.285 15.117358
60.290 14.706888
60.295 14.260122
60.300 13.765161
60.305 13.412037
60.310 13.665936
60.315 13.917164
60.320 14.302258
60.325 14.572423
60.330 14.827091
60.335 15.141401
60.340 15.371655
60.345 15.217273
60.350 15.11377
60.355 14.875902
60.360 15.031094
60.365 15.555703
60.370 15.336803
60.375 14.806541
60.380 14.874706
60.385 14.516358
60.390 14.416293
60.395 15.223877
60.400 15.340665
60.405 15.956082
60.410 16.197823
60.415 15.845607
60.420 16.028906
60.425 16.209183
60.430 15.324204
60.435 14.578038
60.440 14.274105
60.445 14.556332
60.450 14.410431
60.455 13.954121
60.460 13.833593
60.465 14.131021
60.470 15.137295
60.475 15.903034
60.480 15.475517
60.485 15.682499
60.490 16.125633
60.495 16.211771
60.500 15.812239
60.505 14.963545
60.510 14.053721
60.515 14.483479
60.520 14.531038
60.525 14.409448
60.530 14.285474
60.535 14.284524
60.540 14.430628
60.545 15.033911
60.550 14.799603
60.555 14.567698
60.560 14.479534
60.565 15.00983
60.570 14.877698
60.575 14.771856
60.580 14.236086
60.585 14.096166
60.590 14.061342
60.595 14.173089
60.600 14.251116
60.605 14.590002
60.610 14.476012
60.615 14.426455
60.620 14.966316
60.625 15.106599
60.630 14.177055
60.635 13.2491
60.640 13.209149
60.645 13.880857
60.650 14.305618
60.655 13.937538
60.660 14.214388
60.665 14.649096
60.670 14.988545
60.675 14.3213
60.680 13.873937
60.685 13.632641
60.690 13.716686
60.695 13.426943
60.700 13.222822
60.705 13.262431
60.710 13.352513
60.715 12.873817
60.720 12.820529
60.725 13.109797
60.730 13.767327
60.735 13.910319
60.740 13.753631
60.745 14.232207
60.750 14.121881
60.755 14.292531
60.760 13.623937
60.765 13.314899
60.770 13.382377
60.775 13.291669
60.780 12.915261
60.785 13.367368
60.790 13.259417
60.795 13.301181
60.800 13.454869
60.805 14.099235
60.810 14.719137
60.815 14.794851
60.820 14.775514
60.825 14.99494
60.830 14.97501
60.835 14.858323
60.840 14.669152
60.845 14.900611
60.850 15.68643
60.855 15.486341
60.860 15.451132
60.865 16.028265
60.870 15.998636
60.875 15.29056
60.880 14.682887
60.885 14.243768
60.890 14.351748
60.895 14.266615
60.900 14.200755
60.905 14.228952
60.910 14.566647
60.915 14.12256
60.920 13.815568
60.925 13.77733
60.930 13.521978
60.935 13.206182
60.940 13.370166
60.945 14.18047
60.950 14.956165
60.955 15.743852
60.960 15.820146
60.965 16.133402
60.970 16.377836
60.975 16.185396
60.980 14.93839
60.985 14.829576
60.990 13.995093
60.995 13.863262
61.000 13.826354
61.005 13.717813
61.010 13.850585
61.015 14.521831
61.020 14.373109
61.025 14.319074
61.030 14.551406
61.035 14.066973
61.040 13.59479
61.045 13.364491
61.050 13.202991
61.055 12.81146
61.060 12.504458
61.065 12.286793
61.070 12.886243
61.075 13.191223
61.080 13.957077
61.085 14.528735
61.090 15.459279
61.095 16.312662
61.100 16.399994
61.105 16.103909
61.110 15.760743
61.115 15.309879
61.120 14.423474
61.125 13.978788
61.130 14.211258
61.135 14.351342
61.140 14.422798
61.145 14.876098
61.150 14.437101
61.155 14.942221
61.160 15.019685
61.165 14.262445
61.170 14.305682
61.175 14.612453
61.180 14.751706
61.185 15.203656
61.190 15.488396
61.195 15.915932
61.200 16.225882
61.205 16.405758
61.210 16.115723
61.215 15.882924
61.220 16.06089
61.225 16.034033
61.230 16.715698
61.235 16.976305
61.240 16.553799
61.245 16.596167
61.250 16.229448
61.255 16.061218
61.260 16.099007
61.265 15.839764
61.270 15.814544
61.275 15.863708
61.280 15.87524
61.285 15.901148
61.290 15.694311
61.295 15.111504
61.300 14.200758
61.305 13.9648
61.310 14.234303
61.315 14.016174
61.320 14.359892
61.325 14.398262
61.330 14.527453
61.335 15.080714
61.340 15.115119
61.345 14.867726
61.350 14.723803
61.355 14.778173
61.360 15.020559
61.365 15.356078
61.370 15.336875
61.375 15.635204
61.380 16.257202
61.385 16.17819
61.390 16.001358
61.395 15.882601
61.400 15.532516
61.405 15.19416
61.410 14.678121
61.415 14.86752
61.420 15.809363
61.425 15.608724
61.430 15.581887
61.435 15.741309
61.440 15.726542
61.445 15.706353
61.450 15.413892
61.455 14.739388
61.460 14.694416
61.465 14.447636
61.470 14.101786
61.475 14.712362
61.480 15.40058
61.485 15.194708
61.490 15.528324
61.495 15.790543
61.500 15.831665
61.505 15.917673
61.510 15.411736
61.515 15.466558
61.520 15.231188
61.525 15.140001
61.530 15.392673
61.535 15.727081
61.540 15.899899
61.545 16.281675
61.550 16.824493
61.555 17.579254
61.560 17.507977
61.565 17.588789
61.570 17.436213
61.575 17.744469
61.580 17.28937
61.585 16.544094
61.590 16.097303
61.595 16.135845
61.600 15.691624
61.605 15.867156
61.610 15.980119
61.615 15.944828
61.620 15.431108
61.625 15.282323
61.630 14.685674
61.635 14.834071
61.640 14.831469
61.645 14.364266
61.650 14.057848
61.655 14.440468
61.660 14.860875
61.665 15.337045
61.670 15.14553
61.675 15.133507
61.680 15.185278
61.685 15.374279
61.690 15.313671
61.695 14.927127
61.700 15.081367
61.705 15.297678
61.710 15.215388
61.715 15.34244
61.720 15.189457
61.725 15.310106
61.730 15.740895
61.735 15.501085
61.740 14.89044
61.745 14.640059
61.750 14.310191
61.755 14.47305
61.760 14.5659
61.765 14.197955
61.770 14.358694
61.775 14.560596
61.780 15.028125
61.785 15.145164
61.790 15.078568
61.795 15.460407
61.800 15.41376
61.805 15.367324
61.810 15.55387
61.815 15.419498
61.820 15.528915
61.825 15.902045
61.830 15.956483
61.835 15.982634
61.840 15.963328
61.845 15.9913
61.850 16.083998
61.855 16.50672
61.860 15.948893
61.865 15.428965
61.870 15.523968
61.875 15.829695
61.880 16.348835
61.885 16.06736
61.890 16.352123
61.895 16.909285
61.900 17.243944
61.905 17.626286
61.910 17.345915
61.915 16.613089
61.920 16.434717
61.925 15.618946
61.930 15.417233
61.935 15.741521
61.940 15.445147
61.945 15.307023
61.950 15.562952
61.955 15.635674
61.960 15.826189
61.965 15.016693
61.970 14.332541
61.975 14.597832
61.980 14.757895
61.985 14.371279
61.990 14.541436
61.995 14.188169
62.000 14.775021
62.005 15.021639
62.010 15.27048
62.015 15.495584
62.020 15.632184
62.025 15.606786
62.030 15.506315
62.035 15.478397
62.040 15.449776
62.045 14.853671
62.050 14.637039
62.055 14.484378
62.060 14.612919
62.065 14.953458
62.070 14.754629
62.075 14.483636
62.080 14.761003
62.085 14.660171
62.090 14.763696
62.095 15.080873
62.100 15.882083
62.105 16.359983
62.110 16.590231
62.115 16.662888
62.120 16.761013
62.125 16.923899
62.130 16.510633
62.135 15.639757
62.140 15.360417
62.145 15.166553
62.150 14.891779
62.155 15.511345
62.160 15.93718
62.165 16.068003
62.170 16.522858
62.175 16.571672
62.180 16.369379
62.185 16.386356
62.190 15.947963
62.195 15.490696
62.200 15.173797
62.205 14.92238
62.210 15.026153
62.215 15.07312
62.220 14.831849
62.225 14.668435
62.230 14.868512
62.235 14.80328
62.240 14.808762
62.245 15.191059
62.250 15.194558
62.255 15.33567
62.260 15.207509
62.265 15.073337
62.270 15.552456
62.275 15.371142
62.280 15.185358
62.285 15.403205
62.290 15.576892
62.295 15.966623
62.300 15.936418
62.305 15.633267
62.310 15.545391
62.315 15.012689
62.320 14.707199
62.325 14.708155
62.330 14.172607
62.335 14.366344
62.340 14.087921
62.345 14.091599
62.350 14.632227
62.355 14.969539
62.360 14.97606
62.365 15.253639
62.370 15.00445
62.375 15.418886
62.380 16.221859
62.385 16.923599
62.390 17.179384
62.395 17.354063
62.400 17.519835
62.405 17.955809
62.410 18.248693
62.415 17.505201
62.420 16.521935
62.425 16.2153
62.430 15.957458
62.435 15.847173
62.440 15.085078
62.445 15.058105
62.450 15.825087
62.455 16.670992
62.460 17.26638
62.465 17.94203
62.470 18.420393
62.475 18.651115
62.480 18.059177
62.485 17.313721
62.490 16.248814
62.495 15.55851
62.500 15.26669
62.505 14.667503
62.510 14.677296
62.515 14.873491
62.520 15.461765
62.525 15.92843
62.530 15.788641
62.535 15.393203
62.540 15.464467
62.545 15.49614
62.550 14.836698
62.555 14.299418
62.560 14.373363
62.565 14.808698
62.570 15.360643
62.575 15.991573
62.580 16.150894
62.585 16.808723
62.590 17.037455
62.595 17.056826
62.600 17.328236
62.605 16.45233
62.610 15.570777
62.615 15.264359
62.620 15.003452
62.625 15.197025
62.630 15.533185
62.635 15.299863
62.640 16.045383
62.645 16.47402
62.650 16.871008
62.655 17.510979
62.660 17.21961
62.665 17.0103
62.670 17.004936
62.675 16.818695
62.680 16.76181
62.685 16.622147
62.690 16.511784
62.695 16.334558
62.700 16.010529
62.705 15.664738
62.710 15.245505
62.715 15.060566
62.720 15.44883
62.725 15.256767
62.730 14.928164
62.735 15.205766
62.740 15.649205
62.745 16.207947
62.750 16.251257
62.755 15.803471
62.760 15.499034
62.765 15.535299
62.770 15.103394
62.775 14.780706
62.780 14.431476
62.785 14.812799
62.790 14.624515
62.795 14.634411
62.800 15.438765
62.805 16.096189
62.810 16.650455
62.815 16.648216
62.820 16.426735
62.825 16.869757
62.830 16.886379
62.835 16.51745
62.840 16.345726
62.845 15.738196
62.850 15.512997
62.855 15.427871
62.860 15.260385
62.865 15.649481
62.870 14.974079
62.875 14.476335
62.880 14.430403
62.885 14.595724
62.890 14.719712
62.895 14.666533
62.900 14.079015
62.905 14.446611
62.910 14.727284
62.915 15.308416
62.920 15.370936
62.925 15.29048
62.930 15.224541
62.935 15.789659
62.940 15.775913
62.945 15.753314
62.950 15.42779
62.955 15.490234
62.960 15.76194
62.965 16.098829
62.970 16.560801
62.975 17.432171
62.980 17.457548
62.985 17.176859
62.990 17.164474
62.995 17.482992
63.000 17.280186
63.005 17.130182
63.010 16.492336
63.015 16.236309
63.020 16.459816
63.025 16.128294
63.030 15.45796
63.035 15.278204
63.040 14.340061
63.045 13.831668
63.050 14.40858
63.055 15.012293
63.060 15.17599
63.065 15.476524
63.070 15.821835
63.075 15.820112
63.080 16.034016
63.085 16.027353
63.090 15.320232
63.095 14.992848
63.100 14.784848
63.105 14.935616
63.110 15.463933
63.115 15.655255
63.120 15.393393
63.125 15.720401
63.130 16.161184
63.135 15.799863
63.140 15.551595
63.145 15.279139
63.150 15.314647
63.155 15.320223
63.160 15.158334
63.165 14.986848
63.170 14.880956
63.175 14.682439
63.180 14.304818
63.185 14.576194
63.190 14.61275
63.195 14.894291
63.200 14.859008
63.205 15.049588
63.210 15.066082
63.215 15.935376
63.220 15.810253
63.225 15.883363
63.230 16.129522
63.235 16.163494
63.240 16.157797
63.245 16.525148
63.250 16.229355
63.255 16.696945
63.260 16.354589
63.265 15.841789
63.270 16.318373
63.275 16.66077
63.280 16.708092
63.285 16.469599
63.290 15.948298
63.295 16.472191
63.300 17.426052
63.305 17.071815
63.310 16.654512
63.315 17.07336
63.320 17.740417
63.325 17.817789
63.330 17.444386
63.335 16.914007
63.340 17.016792
63.345 17.013704
63.350 16.496395
63.355 15.820892
63.360 15.952335
63.365 16.184919
63.370 16.251339
63.375 16.208128
63.380 16.641575
63.385 16.841026
63.390 17.028942
63.395 16.767448
63.400 16.256353
63.405 15.652555
63.410 15.853228
63.415 15.079104
63.420 14.965115
63.425 15.372904
63.430 15.586213
63.435 15.822193
63.440 15.969814
63.445 15.658052
63.450 16.515127
63.455 17.142862
63.460 16.855894
63.465 16.798271
63.470 17.135723
63.475 17.442892
63.480 17.760889
63.485 17.526262
63.490 16.945349
63.495 17.268181
63.500 17.362181
63.505 17.240126
63.510 17.410145
63.515 17.587072
63.520 17.784565
63.525 17.209259
63.530 17.027018
63.535 17.629007
63.540 18.319214
63.545 18.240612
63.550 17.922382
63.555 17.907833
63.560 18.900011
63.565 18.95295
63.570 18.275318
63.575 18.120361
63.580 18.064383
63.585 18.284552
63.590 18.488825
63.595 18.588009
63.600 18.680498
63.605 18.662907
63.610 18.125669
63.615 18.554859
63.620 18.08939
63.625 17.398144
63.630 16.986616
63.635 16.979322
63.640 16.615088
63.645 16.416079
63.650 16.035896
63.655 16.37966
63.660 16.616686
63.665 16.422329
63.670 16.128414
63.675 16.011816
63.680 15.973713
63.685 15.897877
63.690 15.445293
63.695 15.008817
63.700 14.33351
63.705 14.75475
63.710 15.31498
63.715 15.913631
63.720 16.125647
63.725 16.566242
63.730 17.50659
63.735 18.578558
63.740 19.068512
63.745 18.91136
63.750 18.411789
63.755 18.80114
63.760 18.707806
63.765 18.033022
63.770 17.082582
63.775 16.331787
63.780 16.491453
63.785 16.526985
63.790 15.698184
63.795 15.952803
63.800 16.082315
63.805 16.082186
63.810 16.660551
63.815 17.29829
63.820 17.541103
63.825 18.118179
63.830 18.537579
63.835 19.255014
63.840 19.783861
63.845 19.288336
63.850 19.168486
63.855 19.314613
63.860 19.006466
63.865 18.252029
63.870 17.933229
63.875 18.318605
63.880 18.547886
63.885 18.414951
63.890 17.837557
63.895 17.760946
63.900 17.909306
63.905 18.08836
63.910 17.583191
63.915 17.620457
63.920 17.817533
63.925 18.392555
63.930 18.365608
63.935 18.277279
63.940 18.193506
63.945 18.730511
63.950 18.390787
63.955 18.097078
63.960 18.271662
63.965 18.634525
63.970 19.198288
63.975 19.863562
63.980 20.269966
63.985 20.575274
63.990 21.12701
63.995 21.019199
64.000 21.261105
64.005 21.163263
64.010 21.25676
64.015 21.431511
64.020 22.358711
64.025 22.318687
64.030 22.819277
64.035 22.998039
64.040 22.919052
64.045 22.523645
64.050 22.22237
64.055 21.477337
64.060 21.435509
64.065 21.721035
64.070 22.049381
64.075 22.026623
64.080 22.075447
64.085 22.473574
64.090 22.727903
64.095 23.535135
64.100 23.478994
64.105 23.155224
64.110 23.823904
64.115 24.659607
64.120 25.527561
64.125 25.675575
64.130 25.523197
64.135 25.86425
64.140 26.231071
64.145 26.386158
64.150 25.760462
64.155 24.883247
64.160 26.097233
64.165 26.518621
64.170 26.918804
64.175 27.399321
64.180 27.65745
64.185 29.371984
64.190 29.557981
64.195 29.054285
64.200 29.365479
64.205 29.283718
64.210 29.200449
64.215 29.710487
64.220 29.546228
64.225 30.652128
64.230 32.047543
64.235 32.057793
64.240 32.847214
64.245 33.468323
64.250 32.857624
64.255 34.263287
64.260 34.631809
64.265 33.978054
64.270 34.580864
64.275 34.857758
64.280 35.29422
64.285 36.200645
64.290 36.589035
64.295 37.226772
64.300 38.017921
64.305 38.420155
64.310 39.079296
64.315 39.240875
64.320 39.97625
64.325 40.302029
64.330 40.767406
64.335 41.10474
64.340 41.463005
64.345 42.034676
64.350 43.449474
64.355 44.168167
64.360 45.294704
64.365 46.127041
64.370 46.310932
64.375 46.69936
64.380 46.579533
64.385 46.30788
64.390 46.60107
64.395 46.996395
64.400 47.840576
64.405 48.316647
64.410 48.775982
64.415 48.926182
64.420 49.14809
64.425 48.903053
64.430 48.287376
64.435 47.394466
64.440 48.231754
64.445 47.855419
64.450 47.770607
64.455 47.290489
64.460 47.043098
64.465 47.065678
64.470 47.15239
64.475 46.601341
64.480 46.993748
64.485 47.142231
64.490 47.834503
64.495 47.780426
64.500 47.623596
64.505 47.41851
64.510 46.458057
64.515 45.956192
64.520 45.448334
64.525 43.944092
64.530 43.200138
64.535 42.877529
64.540 42.683823
64.545 42.679367
64.550 41.824417
64.555 41.449345
64.560 41.186993
64.565 40.033867
64.570 38.861824
64.575 38.388584
64.580 38.069134
64.585 37.6628
64.590 37.032246
64.595 36.64257
64.600 36.80014
64.605 36.127464
64.610 35.441795
64.615 35.454586
64.620 35.368446
64.625 34.998402
64.630 34.496399
64.635 34.039177
64.640 33.388073
64.645 32.691078
64.650 32.532722
64.655 31.844643
64.660 31.72715
64.665 31.164942
64.670 31.0695
64.675 30.05872
64.680 29.41176
64.685 28.597206
64.690 28.616842
64.695 28.801624
64.700 28.876751
64.705 28.589508
64.710 29.147814
64.715 28.98868
64.720 28.506151
64.725 27.980379
64.730 27.260185
64.735 26.655266
64.740 26.273739
64.745 25.892864
64.750 25.054531
64.755 25.006498
64.760 25.019976
64.765 24.97547
64.770 24.974512
64.775 24.644871
64.780 24.237759
64.785 24.005644
64.790 23.321266
64.795 22.87677
64.800 22.769783
64.805 23.091103
64.810 22.348614
64.815 21.81501
64.820 21.921148
64.825 21.965313
64.830 21.742172
64.835 21.40757
64.840 21.210266
64.845 21.506372
64.850 21.46332
64.855 21.852013
64.860 21.692019
64.865 21.494602
64.870 21.272121
64.875 20.831942
64.880 20.937233
64.885 20.736662
64.890 20.735737
64.895 21.60729
64.900 22.088503
64.905 22.531178
64.910 22.871344
64.915 23.018677
64.920 23.152479
64.925 22.964748
64.930 23.652565
64.935 23.650356
64.940 23.728411
64.945 23.912949
64.950 24.804844
64.955 26.556107
64.960 26.835907
64.965 26.344826
64.970 27.155235
64.975 27.689672
64.980 28.317726
64.985 28.559298
64.990 27.921888
64.995 27.892372
65.000 27.671925
65.005 27.395868
65.010 28.243328
65.015 28.530733
65.020 28.986958
65.025 29.471949
65.030 30.40345
65.035 31.393532
65.040 32.420067
65.045 31.724325
65.050 31.585653
65.055 31.144264
65.060 31.57333
65.065 31.934269
65.070 32.112934
65.075 32.066032
65.080 32.623047
65.085 33.417919
65.090 33.751087
65.095 33.952454
65.100 34.031906
65.105 34.114071
65.110 34.025734
65.115 34.373989
65.120 34.286503
65.125 35.165127
65.130 35.490093
65.135 35.622345
65.140 35.896244
65.145 36.484482
65.150 36.550209
65.155 36.982628
65.160 37.308563
65.165 37.299137
65.170 38.043468
65.175 38.267242
65.180 38.256241
65.185 38.10384
65.190 37.919403
65.195 38.011913
65.200 37.81213
65.205 37.043713
65.210 37.727802
65.215 37.906456
65.220 37.677628
65.225 36.950043
65.230 36.030418
65.235 36.754917
65.240 36.601101
65.245 36.181946
65.250 35.275898
65.255 35.307343
65.260 36.009361
65.265 36.736145
65.270 36.961475
65.275 37.212288
65.280 37.184975
65.285 37.646942
65.290 37.406719
65.295 37.621826
65.300 37.762535
65.305 38.063919
65.310 38.31461
65.315 37.853279
65.320 38.161434
65.325 38.788475
65.330 38.631058
65.335 38.22451
65.340 37.588398
65.345 37.61694
65.350 36.927094
65.355 36.947918
65.360 37.18906
65.365 36.923481
65.370 36.213375
65.375 35.906696
65.380 35.673622
65.385 36.288036
65.390 36.308449
65.395 36.133511
65.400 36.54393
65.405 37.031467
65.410 37.729664
65.415 37.648365
65.420 37.114193
65.425 37.067783
65.430 36.94582
65.435 36.657631
65.440 36.015404
65.445 36.012157
65.450 36.028873
65.455 35.845387
65.460 35.459805
65.465 35.21394
65.470 35.044327
65.475 35.267555
65.480 34.924202
65.485 34.86367
65.490 35.338093
65.495 35.106628
65.500 35.662121
65.505 36.558563
65.510 37.168842
65.515 37.371147
65.520 37.490402
65.525 37.809349
65.530 37.956348
65.535 37.958729
65.540 37.516239
65.545 37.023067
65.550 36.750645
65.555 37.497932
65.560 37.542805
65.565 36.810593
65.570 35.897728
65.575 35.211899
65.580 34.917793
65.585 34.822277
65.590 34.120159
65.595 34.825226
65.600 35.823082
65.605 36.4888
65.610 36.821865
65.615 36.814465
65.620 36.364719
65.625 36.115696
65.630 34.511623
65.635 34.4729
65.640 34.894432
65.645 35.015793
65.650 34.552544
65.655 34.57233
65.660 34.470741
65.665 34.627197
65.670 34.163219
65.675 33.493137
65.680 33.050549
65.685 33.225307
65.690 33.240074
65.695 33.282978
65.700 33.065037
65.705 32.990498
65.710 33.041149
65.715 32.764042
65.720 31.629862
65.725 30.227112
65.730 29.807238
65.735 30.033812
65.740 29.629576
65.745 29.257671
65.750 28.746143
65.755 29.740274
65.760 31.020512
65.765 31.440535
65.770 31.46529
65.775 30.880728
65.780 30.185646
65.785 29.740242
65.790 28.802036
65.795 28.20188
65.800 28.090012
65.805 27.736887
65.810 28.176777
65.815 28.394382
65.820 29.175508
65.825 29.170477
65.830 29.242399
65.835 29.1663
65.840 28.859495
65.845 28.406012
65.850 28.10244
65.855 27.850492
65.860 27.588364
65.865 27.328087
65.870 26.7927
65.875 26.959635
65.880 27.093166
65.885 26.842218
65.890 26.002657
65.895 25.622469
65.900 25.394192
65.905 24.790098
65.910 24.574505
65.915 24.704544
65.920 24.337898
65.925 23.489244
65.930 23.200809
65.935 22.685238
65.940 22.317347
65.945 22.215628
65.950 21.729071
65.955 22.664383
65.960 22.901726
65.965 22.658018
65.970 22.586143
65.975 22.183231
65.980 21.637125
65.985 21.02112
65.990 20.0602
65.995 19.845314
66.000 19.615692
66.005 19.260735
66.010 18.941704
66.015 18.547316
66.020 18.787235
66.025 18.825895
66.030 19.450256
66.035 20.062256
66.040 20.584438
66.045 21.401197
66.050 21.434299
66.055 21.551872
66.060 21.478251
66.065 20.980461
66.070 20.368568
66.075 20.308414
66.080 20.382915
66.085 20.448484
66.090 20.04497
66.095 19.307226
66.100 19.227394
66.105 19.10623
66.110 18.693365
66.115 18.252699
66.120 17.86492
66.125 18.183552
66.130 18.658396
66.135 18.572783
66.140 18.078846
66.145 18.085642
66.150 17.997759
66.155 18.367315
66.160 18.325039
66.165 18.466372
66.170 18.200439
66.175 18.393646
66.180 18.037327
66.185 18.001499
66.190 17.989775
66.195 18.46538
66.200 18.689751
66.205 18.670986
66.210 19.214758
66.215 20.022915
66.220 19.956327
66.225 20.410433
66.230 20.272091
66.235 19.916973
66.240 19.675207
66.245 18.866732
66.250 18.28734
66.255 18.481844
66.260 17.610212
66.265 17.348305
66.270 17.601358
66.275 17.827913
66.280 17.945232
66.285 17.914999
66.290 17.501135
66.295 17.547375
66.300 17.165466
66.305 17.056322
66.310 17.193626
66.315 17.307621
66.320 17.633465
66.325 17.63604
66.330 17.251116
66.335 17.291035
66.340 17.364067
66.345 17.458775
66.350 16.894051
66.355 16.587786
66.360 17.076691
66.365 17.051327
66.370 17.085917
66.375 16.504553
66.380 16.492655
66.385 16.630806
66.390 16.770741
66.395 16.523628
66.400 17.290583
66.405 17.514887
66.410 17.879499
66.415 18.305895
66.420 18.414927
66.425 18.050978
66.430 17.88728
66.435 18.029789
66.440 18.476166
66.445 19.154993
66.450 18.723406
66.455 18.820711
66.460 18.722126
66.465 18.360395
66.470 17.87985
66.475 17.857492
66.480 17.862577
66.485 18.433489
66.490 18.789249
66.495 19.406242
66.500 19.784609
66.505 19.714861
66.510 18.659149
66.515 17.98427
66.520 17.410208
66.525 17.319225
66.530 17.520557
66.535 17.549366
66.540 17.356009
66.545 17.455915
66.550 17.612505
66.555 17.585516
66.560 17.638573
66.565 17.750635
66.570 17.957804
66.575 18.218166
66.580 18.470636
66.585 18.538353
66.590 18.918655
66.595 18.923595
66.600 18.445038
66.605 17.930864
66.610 17.570271
66.615 17.119629
66.620 17.43292
66.625 17.183924
66.630 17.172724
66.635 16.988726
66.640 17.239986
66.645 17.473127
66.650 17.599123
66.655 17.382635
66.660 17.010384
66.665 16.650183
66.670 16.801966
66.675 16.786524
66.680 16.851269
66.685 16.689808
66.690 16.247192
66.695 16.306547
66.700 16.447891
66.705 16.648222
66.710 16.514032
66.715 16.872841
66.720 17.293093
66.725 17.550203
66.730 17.767429
66.735 17.417759
66.740 17.7089
66.745 17.615164
66.750 17.10059
66.755 16.842781
66.760 17.015646
66.765 17.478933
66.770 17.472124
66.775 16.864729
66.780 16.822493
66.785 17.157251
66.790 16.885706
66.795 16.158596
66.800 15.731768
66.805 16.133791
66.810 16.464951
66.815 16.56741
66.820 16.17635
66.825 16.176163
66.830 16.613268
66.835 16.173796
66.840 16.074095
66.845 16.843088
66.850 17.337397
66.855 17.713154
66.860 17.711048
66.865 17.501905
66.870 17.716379
66.875 18.285673
66.880 17.793226
66.885 17.685282
66.890 18.244495
66.895 18.665022
66.900 18.686815
66.905 18.982159
66.910 18.298786
66.915 18.33395
66.920 18.031445
66.925 17.493084
66.930 17.545641
66.935 18.108421
66.940 18.387716
66.945 18.02034
66.950 17.877386
66.955 17.672346
66.960 17.705791
66.965 16.979727
66.970 16.223757
66.975 16.325808
66.980 17.006321
66.985 17.04285
66.990 17.399975
66.995 18.307863
67.000 19.228947
67.005 19.582119
67.010 19.532969
67.015 19.321951
67.020 19.590508
67.025 19.676775
67.030 19.539328
67.035 19.459286
67.040 19.384233
67.045 19.017128
67.050 18.543047
67.055 18.54221
67.060 18.172741
67.065 17.524275
67.070 17.210678
67.075 16.826614
67.080 17.164574
67.085 17.220253
67.090 16.768549
67.095 16.621727
67.100 16.891283
67.105 17.373219
67.110 17.997801
67.115 17.763206
67.120 17.687521
67.125 17.938421
67.130 18.040941
67.135 17.509506
67.140 17.252724
67.145 17.154396
67.150 16.857338
67.155 17.092682
67.160 17.659119
67.165 17.907202
67.170 18.264872
67.175 17.968288
67.180 17.288673
67.185 17.488693
67.190 17.844334
67.195 17.448812
67.200 17.765419
67.205 17.85952
67.210 18.14687
67.215 18.922464
67.220 19.860573
67.225 20.090683
67.230 20.058855
67.235 19.719147
67.240 19.906469
67.245 20.554607
67.250 20.171535
67.255 19.622458
67.260 19.034508
67.265 19.000624
67.270 18.910145
67.275 19.019669
67.280 18.769379
67.285 18.980553
67.290 18.674313
67.295 19.077986
67.300 18.933247
67.305 18.470695
67.310 17.996611
67.315 17.646715
67.320 17.348112
67.325 17.061975
67.330 16.248768
67.335 16.489311
67.340 16.971085
67.345 17.357431
67.350 17.140209
67.355 16.904882
67.360 16.886425
67.365 16.813253
67.370 16.528099
67.375 16.276068
67.380 16.046024
67.385 16.171583
67.390 16.375811
67.395 17.235357
67.400 17.844679
67.405 17.996849
67.410 18.715679
67.415 19.104254
67.420 19.247213
67.425 19.134703
67.430 18.441359
67.435 17.883076
67.440 17.70429
67.445 17.183052
67.450 16.606752
67.455 17.018417
67.460 17.303722
67.465 17.309736
67.470 17.744003
67.475 17.687101
67.480 17.911013
67.485 18.162642
67.490 18.174971
67.495 18.365936
67.500 18.692789
67.505 18.199921
67.510 18.180696
67.515 18.345909
67.520 18.550558
67.525 18.482204
67.530 18.281076
67.535 18.23444
67.540 18.425552
67.545 18.368057
67.550 18.17417
67.555 18.197981
67.560 17.829626
67.565 17.604151
67.570 17.89048
67.575 17.88129
67.580 18.024139
67.585 17.725559
67.590 17.935154
67.595 18.445047
67.600 18.318203
67.605 18.212145
67.610 18.598404
67.615 18.416208
67.620 18.370777
67.625 17.978651
67.630 18.137424
67.635 19.029238
67.640 19.365507
67.645 18.911522
67.650 18.974268
67.655 19.222254
67.660 19.238337
67.665 18.800966
67.670 18.48266
67.675 18.190622
67.680 18.576668
67.685 19.115707
67.690 19.007971
67.695 19.386786
67.700 18.945818
67.705 18.553396
67.710 18.188631
67.715 18.169468
67.720 17.924055
67.725 17.828384
67.730 16.994022
67.735 17.195814
67.740 17.534485
67.745 17.478142
67.750 17.190821
67.755 16.71616
67.760 16.91534
67.765 17.392538
67.770 17.68305
67.775 17.868042
67.780 17.98341
67.785 17.595993
67.790 17.413998
67.795 17.451658
67.800 17.296249
67.805 17.117748
67.810 16.980438
67.815 17.566483
67.820 18.452612
67.825 18.552202
67.830 18.541304
67.835 18.48102
67.840 18.23122
67.845 18.010965
67.850 17.423124
67.855 16.82988
67.860 16.890554
67.865 16.864935
67.870 16.647779
67.875 16.278728
67.880 16.46007
67.885 16.556713
67.890 16.769419
67.895 16.830494
67.900 17.166288
67.905 18.219568
67.910 18.744864
67.915 18.788836
67.920 19.112553
67.925 18.960707
67.930 19.438482
67.935 19.895203
67.940 19.458704
67.945 19.634418
67.950 19.618797
67.955 19.398567
67.960 19.555231
67.965 18.910294
67.970 18.652245
67.975 18.706688
67.980 18.568535
67.985 18.80892
67.990 19.141039
67.995 18.748266
68.000 18.325033
68.005 18.268196
68.010 19.061131
68.015 19.594383
68.020 19.867048
68.025 20.474876
68.030 20.918478
68.035 21.485886
68.040 21.181751
68.045 20.947729
68.050 20.412302
68.055 20.499407
68.060 20.350893
68.065 20.353022
68.070 20.208904
68.075 19.731022
68.080 18.886015
68.085 19.484354
68.090 19.00115
68.095 19.079102
68.100 18.543564
68.105 18.218523
68.110 18.2987
68.115 18.298519
68.120 17.983168
68.125 18.218479
68.130 17.803228
68.135 18.148176
68.140 18.833536
68.145 19.101282
68.150 19.028936
68.155 18.412182
68.160 18.466188
68.165 18.810514
68.170 18.886324
68.175 18.735878
68.180 18.996632
68.185 19.454687
68.190 19.905525
68.195 20.28113
68.200 20.549566
68.205 20.597481
68.210 20.838015
68.215 20.709248
68.220 20.863659
68.225 21.052435
68.230 21.082285
68.235 21.580715
68.240 22.026234
68.245 22.402727
68.250 23.007864
68.255 23.270113
68.260 23.243902
68.265 23.279644
68.270 23.06951
68.275 23.272533
68.280 24.2335
68.285 24.958521
68.290 24.958931
68.295 24.873043
68.300 24.99839
68.305 24.83276
68.310 25.011915
68.315 24.31008
68.320 23.351624
68.325 23.649529
68.330 23.96447
68.335 24.529997
68.340 24.978008
68.345 25.218349
68.350 26.040173
68.355 27.448515
68.360 27.917597
68.365 28.099054
68.370 27.76811
68.375 27.545712
68.380 27.275335
68.385 27.653471
68.390 27.76362
68.395 28.294031
68.400 28.454367
68.405 29.05237
68.410 29.728357
68.415 29.97106
68.420 29.840149
68.425 29.752611
68.430 29.977627
68.435 30.64127
68.440 30.911858
68.445 30.903883
68.450 31.561752
68.455 31.218441
68.460 31.134563
68.465 30.685755
68.470 29.904171
68.475 29.977402
68.480 30.611227
68.485 30.638588
68.490 31.000742
68.495 30.97559
68.500 30.846478
68.505 31.234549
68.510 31.360231
68.515 31.457697
68.520 31.494537
68.525 32.156887
68.530 32.702061
68.535 33.101631
68.540 33.217495
68.545 32.545765
68.550 32.510643
68.555 32.479218
68.560 32.356777
68.565 32.240585
68.570 32.38134
68.575 32.147984
68.580 32.338165
68.585 31.948526
68.590 31.996906
68.595 31.670488
68.600 32.634354
68.605 32.411591
68.610 32.781406
68.615 33.151165
68.620 33.612583
68.625 33.97036
68.630 34.524429
68.635 34.064014
68.640 34.145836
68.645 34.956841
68.650 34.904697
68.655 35.169758
68.660 34.314491
68.665 33.886589
68.670 33.869839
68.675 33.710869
68.680 33.024139
68.685 33.07
68.690 32.873222
68.695 32.862839
68.700 32.644711
68.705 32.442928
68.710 32.486938
68.715 32.37986
68.720 32.445354
68.725 32.530537
68.730 33.076763
68.735 33.266563
68.740 33.554058
68.745 33.75848
68.750 33.86908
68.755 33.12484
68.760 33.138821
68.765 33.764233
68.770 33.873619
68.775 33.677334
68.780 33.374336
68.785 32.983173
68.790 33.904449
68.795 33.00853
68.800 32.603642
68.805 32.790981
68.810 31.925739
68.815 32.034767
68.820 32.403645
68.825 31.914883
68.830 31.69916
68.835 32.216919
68.840 32.614254
68.845 33.392395
68.850 33.51675
68.855 33.428719
68.860 34.182533
68.865 34.481701
68.870 33.533669
68.875 33.262768
68.880 32.53923
68.885 32.197697
68.890 32.388103
68.895 32.072182
68.900 31.940273
68.905 32.512535
68.910 32.76136
68.915 33.564816
68.920 33.882179
68.925 34.407551
68.930 34.236614
68.935 33.300362
68.940 32.716351
68.945 31.057941
68.950 29.921253
68.955 29.14909
68.960 27.699505
68.965 27.024168
68.970 26.474707
68.975 26.143785
68.980 26.530523
68.985 26.377016
68.990 26.542023
68.995 26.62471
69.000 27.767309
69.005 28.46184
69.010 29.202518
69.015 30.441093
69.020 30.981447
69.025 30.689651
69.030 30.688612
69.035 30.201157
69.040 29.707693
69.045 29.199265
69.050 28.071983
69.055 27.474209
69.060 26.904558
69.065 26.14257
69.070 25.865366
69.075 25.609072
69.080 25.319902
69.085 25.062021
69.090 25.103247
69.095 25.324038
69.100 25.756042
69.105 25.112148
69.110 24.878738
69.115 24.740395
69.120 24.618788
69.125 24.490715
69.130 24.287201
69.135 23.861753
69.140 23.849321
69.145 23.583944
69.150 23.137613
69.155 22.306564
69.160 21.949467
69.165 21.837431
69.170 21.574667
69.175 21.486528
69.180 21.389442
69.185 21.741575
69.190 22.440031
69.195 23.05773
69.200 23.903683
69.205 24.358202
69.210 24.185307
69.215 23.387455
69.220 23.353975
69.225 23.420132
69.230 23.222109
69.235 22.653038
69.240 22.468161
69.245 22.232275
69.250 22.327143
69.255 21.620554
69.260 21.128506
69.265 20.672386
69.270 20.585764
69.275 20.390747
69.280 20.513168
69.285 20.758537
69.290 20.912512
69.295 20.943636
69.300 21.093786
69.305 21.110453
69.310 21.103241
69.315 20.257475
69.320 20.029432
69.325 19.271387
69.330 18.93162
69.335 18.642477
69.340 17.971796
69.345 18.596167
69.350 19.198149
69.355 19.124002
69.360 19.739958
69.365 19.660471
69.370 19.717466
69.375 19.629852
69.380 19.008768
69.385 18.336174
69.390 18.541636
69.395 18.613337
69.400 18.326242
69.405 17.526039
69.410 17.693859
69.415 17.798622
69.420 18.929319
69.425 18.828531
69.430 19.051188
69.435 19.25705
69.440 19.963591
69.445 19.982824
69.450 20.584127
69.455 20.132771
69.460 20.599121
69.465 20.56835
69.470 20.525904
69.475 20.388483
69.480 19.880138
69.485 18.698648
69.490 17.853809
69.495 16.985186
69.500 16.713234
69.505 16.515266
69.510 16.564985
69.515 16.854427
69.520 17.248672
69.525 17.149769
69.530 17.178308
69.535 17.074234
69.540 16.979454
69.545 16.772377
69.550 16.566589
69.555 16.751335
69.560 17.224459
69.565 16.92396
69.570 17.639387
69.575 18.535521
69.580 18.447155
69.585 18.519075
69.590 18.155581
69.595 18.472984
69.600 18.634274
69.605 17.667931
69.610 17.505413
69.615 17.856804
69.620 17.751984
69.625 18.201624
69.630 17.716448
69.635 17.505264
69.640 18.06097
69.645 17.271463
69.650 17.319508
69.655 17.569828
69.660 17.214809
69.665 17.155525
69.670 16.74823
69.675 16.398666
69.680 16.884502
69.685 17.012272
69.690 16.870617
69.695 17.188066
69.700 17.606941
69.705 18.314249
69.710 18.494886
69.715 17.93593
69.720 17.856789
69.725 17.766726
69.730 18.278458
69.735 18.757706
69.740 18.806957
69.745 18.916067
69.750 19.534292
69.755 19.565235
69.760 19.342165
69.765 18.542221
69.770 18.03586
69.775 17.987917
69.780 18.058144
69.785 17.592051
69.790 17.506905
69.795 17.374716
69.800 17.742065
69.805 17.716557
69.810 17.626392
69.815 18.41271
69.820 18.674328
69.825 18.926014
69.830 19.951458
69.835 20.054482
69.840 19.791121
69.845 19.286951
69.850 18.100744
69.855 17.849867
69.860 17.964108
69.865 17.49439
69.870 17.340355
69.875 17.800049
69.880 17.930832
69.885 18.767818
69.890 19.252428
69.895 19.049946
69.900 18.817085
69.905 18.492781
69.910 18.543243
69.915 19.151934
69.920 19.433308
69.925 18.978399
69.930 18.887087
69.935 19.200552
69.940 19.107115
69.945 18.885311
69.950 17.650553
69.955 17.087793
69.960 16.879278
69.965 16.598986
69.970 16.700567
69.975 16.420095
69.980 16.3438
69.985 16.884892
69.990 17.021833
69.995 17.139017
70.000 17.501654
70.005 17.520855
70.010 17.536469
70.015 17.484398
70.020 17.131142
70.025 17.16386
70.030 17.236813
70.035 17.226513
70.040 17.844812
70.045 18.236322
70.050 18.324591
70.055 18.649975
70.060 18.754763
70.065 18.999651
70.070 18.940125
70.075 18.977806
70.080 19.728733
70.085 19.615221
70.090 19.549623
70.095 19.405643
70.100 18.757601
70.105 18.39517
70.110 18.040136
70.115 17.42436
70.120 17.436977
70.125 17.601351
70.130 17.455698
70.135 17.490099
70.140 17.725092
70.145 17.962263
70.150 18.487818
70.155 18.623516
70.160 18.63637
70.165 18.436409
70.170 18.322561
70.175 18.114107
70.180 17.585447
70.185 17.311098
70.190 16.871452
70.195 16.781698
70.200 17.145157
70.205 18.113779
70.210 17.904858
70.215 18.198858
70.220 18.351299
70.225 18.660917
70.230 18.379601
70.235 18.279987
70.240 18.050657
70.245 18.748959
70.250 18.631662
70.255 18.466799
70.260 18.853209
70.265 18.944138
70.270 18.872725
70.275 18.355152
70.280 18.004238
70.285 17.607149
70.290 17.357803
70.295 16.785311
70.300 17.277496
70.305 16.837101
70.310 17.036186
70.315 17.000799
70.320 17.056332
70.325 16.987606
70.330 17.272554
70.335 17.044142
70.340 16.916531
70.345 16.408903
70.350 16.266407
70.355 16.173948
70.360 16.229454
70.365 15.996458
70.370 16.046257
70.375 16.778896
70.380 16.722479
70.385 17.363319
70.390 18.217331
70.395 18.42741
70.400 18.299982
70.405 18.386831
70.410 18.748283
70.415 19.109358
70.420 18.427446
70.425 17.986645
70.430 18.150139
70.435 18.755728
70.440 18.585657
70.445 18.452293
70.450 18.432674
70.455 18.307209
70.460 17.943258
70.465 18.121586
70.470 18.104803
70.475 18.270117
70.480 18.203314
70.485 18.333405
70.490 18.723577
70.495 18.725725
70.500 18.826254
70.505 18.687881
70.510 18.356283
70.515 17.965229
70.520 17.463062
70.525 16.841026
70.530 16.499655
70.535 16.023836
70.540 15.864346
70.545 16.068739
70.550 16.53417
70.555 17.465363
70.560 18.340158
70.565 18.106909
70.570 18.091234
70.575 18.127773
70.580 17.928535
70.585 17.821342
70.590 17.413782
70.595 17.281399
70.600 17.492748
70.605 17.610031
70.610 17.604471
70.615 17.566071
70.620 16.855551
70.625 17.154587
70.630 17.444685
70.635 17.566687
70.640 17.570864
70.645 16.686047
70.650 16.669476
70.655 16.745388
70.660 16.353546
70.665 15.644597
70.670 15.179541
70.675 15.067705
70.680 16.032261
70.685 16.379642
70.690 16.651155
70.695 16.787163
70.700 17.346613
70.705 17.653679
70.710 18.105272
70.715 18.177349
70.720 18.148729
70.725 18.292488
70.730 18.170635
70.735 18.319069
70.740 18.648384
70.745 18.128012
70.750 17.778513
70.755 17.972088
70.760 17.457727
70.765 17.523533
70.770 17.439518
70.775 17.224655
70.780 17.580441
70.785 17.183294
70.790 17.241787
70.795 17.855368
70.800 18.420626
70.805 18.370996
70.810 18.276173
70.815 17.947025
70.820 18.944351
70.825 18.926992
70.830 18.443941
70.835 18.342531
70.840 18.623297
70.845 18.916487
70.850 18.760212
70.855 17.693325
70.860 17.555851
70.865 17.819223
70.870 17.63298
70.875 17.53056
70.880 17.195616
70.885 17.582495
70.890 17.455057
70.895 17.523069
70.900 17.112911
70.905 17.023098
70.910 16.793373
70.915 16.919216
70.920 17.329908
70.925 17.599987
70.930 17.003624
70.935 16.747803
70.940 16.584858
70.945 16.958218
70.950 16.645655
70.955 16.344633
70.960 16.517538
70.965 17.117151
70.970 17.2827
70.975 17.050682
70.980 16.90941
70.985 17.333893
70.990 16.814972
70.995 16.51643
71.000 16.443939
71.005 16.276482
71.010 16.566179
71.015 16.467213
71.020 16.945305
71.025 17.743725
71.030 18.143145
71.035 18.587572
71.040 18.824301
71.045 19.395271
71.050 19.287931
71.055 19.12182
71.060 19.043877
71.065 18.680384
71.070 18.44322
71.075 17.696573
71.080 17.182476
71.085 17.333504
71.090 17.816801
71.095 17.893318
71.100 17.881924
71.105 18.035248
71.110 18.366112
71.115 18.091242
71.120 18.325972
71.125 17.184313
71.130 17.020689
71.135 17.424551
71.140 17.395348
71.145 17.657101
71.150 17.446524
71.155 17.724773
71.160 18.33593
71.165 18.88105
71.170 18.983887
71.175 19.329679
71.180 19.294888
71.185 19.541431
71.190 19.41345
71.195 19.263391
71.200 19.181568
71.205 19.020874
71.210 18.976601
71.215 18.674238
71.220 18.136509
71.225 18.15406
71.230 17.850208
71.235 17.053366
71.240 16.182756
71.245 15.855965
71.250 16.404535
71.255 16.345276
71.260 16.208479
71.265 16.533026
71.270 17.265867
71.275 17.489391
71.280 17.909811
71.285 17.426004
71.290 17.327927
71.295 17.100893
71.300 16.51976
71.305 16.063248
71.310 16.184996
71.315 15.867726
71.320 16.331106
71.325 16.467783
71.330 16.320496
71.335 16.654247
71.340 16.589821
71.345 17.18124
71.350 17.664387
71.355 17.656
71.360 17.618153
71.365 17.413645
71.370 17.474363
71.375 17.131233
71.380 16.264559
71.385 16.330301
71.390 16.416529
71.395 17.032433
71.400 18.017359
71.405 18.083374
71.410 18.845442
71.415 19.13586
71.420 18.93429
71.425 18.912834
71.430 18.399269
71.435 18.235544
71.440 18.523546
71.445 18.601498
71.450 18.640238
71.455 18.592417
71.460 18.61775
71.465 18.442537
71.470 18.052759
71.475 17.64599
71.480 16.815599
71.485 17.072218
71.490 16.877792
71.495 16.993526
71.500 17.167744
71.505 16.942381
71.510 17.016516
71.515 17.169228
71.520 17.213108
71.525 17.74077
71.530 17.409334
71.535 17.358828
71.540 17.956333
71.545 18.63166
71.550 18.823593
71.555 18.710474
71.560 19.095078
71.565 19.540939
71.570 19.605396
71.575 19.220669
71.580 18.884695
71.585 18.504009
71.590 17.790812
71.595 17.775307
71.600 17.638523
71.605 17.270693
71.610 16.721455
71.615 15.963466
71.620 16.070415
71.625 15.946752
71.630 15.67279
71.635 15.655695
71.640 16.080233
71.645 16.242744
71.650 17.198994
71.655 17.500732
71.660 17.772169
71.665 17.498447
71.670 16.75333
71.675 16.712658
71.680 16.635336
71.685 16.175409
71.690 16.585596
71.695 16.830137
71.700 16.998352
71.705 16.876488
71.710 17.292082
71.715 17.67799
71.720 17.274801
71.725 16.65172
71.730 16.112856
71.735 16.689827
71.740 16.755007
71.745 16.500559
71.750 16.500298
71.755 16.452894
71.760 16.945034
71.765 17.550184
71.770 17.152061
71.775 17.64296
71.780 17.692034
71.785 18.259356
71.790 17.804853
71.795 17.010672
71.800 16.841351
71.805 17.483437
71.810 18.013128
71.815 18.031744
71.820 17.8904
71.825 18.109301
71.830 18.028316
71.835 17.931818
71.840 17.696354
71.845 17.442753
71.850 17.247889
71.855 16.88343
71.860 17.043575
71.865 17.55089
71.870 17.466171
71.875 17.829878
71.880 18.304419
71.885 18.539534
71.890 19.241058
71.895 19.173857
71.900 19.249098
71.905 19.035931
71.910 18.955845
71.915 18.536659
71.920 18.845291
71.925 18.737988
71.930 18.500595
71.935 18.420158
71.940 18.055956
71.945 16.880123
71.950 16.336323
71.955 16.134848
71.960 16.041742
71.965 15.979519
71.970 15.955476
71.975 16.715111
71.980 17.471302
71.985 17.969133
71.990 17.883314
71.995 18.410332
72.000 18.779016
72.005 18.158266
72.010 17.412729
72.015 17.717403
72.020 17.623283
72.025 17.252638
72.030 17.056669
72.035 17.5882
72.040 18.016563
72.045 18.109983
72.050 17.311394
72.055 17.408457
72.060 17.644308
72.065 16.832081
72.070 16.632105
72.075 16.960108
72.080 17.648664
72.085 18.43145
72.090 18.473707
72.095 18.788326
72.100 19.575331
72.105 19.461611
72.110 18.668146
72.115 17.90789
72.120 18.109812
72.125 18.129356
72.130 17.26371
72.135 17.174496
72.140 17.323448
72.145 18.140388
72.150 18.47224
72.155 18.416759
72.160 18.659206
72.165 19.275188
72.170 18.824055
72.175 18.625887
72.180 17.479839
72.185 16.700472
72.190 16.672913
72.195 16.770672
72.200 16.714491
72.205 16.944019
72.210 16.733358
72.215 17.348223
72.220 17.354895
72.225 17.077322
72.230 16.639814
72.235 16.898319
72.240 17.197786
72.245 17.741756
72.250 18.083414
72.255 18.179781
72.260 17.911013
72.265 17.93071
72.270 17.607967
72.275 17.827225
72.280 17.782583
72.285 17.696747
72.290 18.142794
72.295 18.460403
72.300 18.651161
72.305 18.789782
72.310 18.478155
72.315 18.20512
72.320 17.302141
72.325 16.665905
72.330 16.588421
72.335 16.519098
72.340 16.136063
72.345 15.786498
72.350 15.901494
72.355 16.447941
72.360 16.163536
72.365 16.071943
72.370 15.89498
72.375 15.550915
72.380 15.976892
72.385 15.992665
72.390 16.426369
72.395 16.595606
72.400 16.622652
72.405 16.923437
72.410 17.168354
72.415 16.780054
72.420 16.798422
72.425 16.346388
72.430 16.144093
72.435 15.653623
72.440 15.450659
72.445 15.459962
72.450 15.556796
72.455 15.179148
72.460 15.135509
72.465 15.516993
72.470 15.83445
72.475 16.15353
72.480 16.087019
72.485 16.069368
72.490 16.059862
72.495 16.129761
72.500 16.368015
72.505 16.538202
72.510 16.320232
72.515 16.537289
72.520 17.138262
72.525 17.795546
72.530 18.041956
72.535 18.078859
72.540 17.894873
72.545 17.728313
72.550 17.823166
72.555 17.463417
72.560 17.013575
72.565 16.92979
72.570 16.630928
72.575 16.542616
72.580 16.713047
72.585 16.986513
72.590 17.200403
72.595 17.265957
72.600 17.164803
72.605 17.208897
72.610 17.335281
72.615 17.025703
72.620 16.228807
72.625 16.069986
72.630 16.086252
72.635 16.443977
72.640 16.741581
72.645 17.430826
72.650 17.906904
72.655 18.363159
72.660 18.720074
72.665 18.279158
72.670 17.74231
72.675 17.573885
72.680 17.115881
72.685 16.692093
72.690 17.130005
72.695 16.920389
72.700 16.926725
72.705 16.908798
72.710 16.381243
72.715 16.652937
72.720 16.170132
72.725 15.810043
72.730 16.168262
72.735 16.850321
72.740 16.851303
72.745 17.234566
72.750 17.021427
72.755 17.200129
72.760 17.190102
72.765 17.05547
72.770 16.67938
72.775 16.592978
72.780 16.781473
72.785 16.689119
72.790 16.603277
72.795 15.981702
72.800 15.897338
72.805 16.482302
72.810 16.636408
72.815 16.369738
72.820 16.739464
72.825 16.496382
72.830 16.513071
72.835 16.429787
72.840 16.05015
72.845 16.089417
72.850 16.029861
72.855 16.181698
72.860 16.355167
72.865 16.424583
72.870 16.163357
72.875 16.242174
72.880 15.860343
72.885 15.858741
72.890 15.328892
72.895 15.794242
72.900 15.671676
72.905 15.950383
72.910 15.959667
72.915 16.108002
72.920 16.126085
72.925 16.284908
72.930 16.067232
72.935 16.292812
72.940 15.871623
72.945 15.660005
72.950 15.51817
72.955 15.89614
72.960 15.824022
72.965 15.811656
72.970 15.575871
72.975 15.91953
72.980 16.147654
72.985 16.171345
72.990 15.672162
72.995 15.698081
73.000 16.323154
