!@!!GADDS PLOTSO FILE: Chi integration type
!@!!Title/SampleName: map-a4
!@!!Comment: ?
!@!!User: Bruker Instrument Administrator
!@!!Site: University of Illinois Chicago
!@!!Frame: map-a4_01_000.gfrm
!@!!Wavelengths    1.54184   1.54056   1.54439
!@!!Frame angles: 2Theta: 63.000 Omega: 50.000 Phi: 0.000 Chi: 90.000
!@!!Integration range: 2Theta: 53.000 to 73.000  Gamma: -105.000 to -75.000
!@!!Integration method: bin normalized
!@!N
!@!SS
!@!M
!@!L 0.0 0.0 0.0 0.0
!@!XDegrees
!@!YCounts
53.000 7.634486
53.005 7.722497
53.010 7.902034
53.015 8.451338
53.020 8.484888
53.025 8.494222
53.030 8.087697
53.035 7.773185
53.040 7.839828
53.045 7.919367
53.050 7.89771
53.055 8.407916
53.060 8.351146
53.065 8.256257
53.070 8.246971
53.075 7.89529
53.080 7.827887
53.085 7.621811
53.090 7.589397
53.095 8.131934
53.100 8.580291
53.105 8.766967
53.110 8.850487
53.115 8.791485
53.120 9.219223
53.125 8.733363
53.130 8.350882
53.135 8.109794
53.140 8.358582
53.145 8.3922
53.150 8.357154
53.155 8.086083
53.160 8.030972
53.165 8.377006
53.170 8.076826
53.175 7.845958
53.180 7.965802
53.185 7.731555
53.190 7.813249
53.195 7.889221
53.200 8.148874
53.205 8.469728
53.210 8.459852
53.215 8.337663
53.220 8.484347
53.225 8.902029
53.230 8.759424
53.235 8.367933
53.240 8.442861
53.245 8.596761
53.250 8.854575
53.255 8.796208
53.260 8.742135
53.265 8.597732
53.270 8.643124
53.275 8.525864
53.280 8.043028
53.285 7.957103
53.290 7.606439
53.295 7.416949
53.300 7.607804
53.305 7.347872
53.310 6.959264
53.315 6.821867
53.320 6.841884
53.325 7.339382
53.330 7.284476
53.335 7.124805
53.340 7.485081
53.345 7.554247
53.350 8.037073
53.355 7.998447
53.360 7.766846
53.365 8.307716
53.370 8.938998
53.375 9.393617
53.380 9.738498
53.385 9.473347
53.390 9.236349
53.395 9.35476
53.400 9.078575
53.405 8.854874
53.410 8.784652
53.415 8.798357
53.420 8.818558
53.425 8.708277
53.430 8.468884
53.435 8.834647
53.440 8.58384
53.445 8.592213
53.450 8.366394
53.455 8.129687
53.460 8.281126
53.465 8.249461
53.470 7.938242
53.475 8.367996
53.480 8.208974
53.485 8.488119
53.490 8.698805
53.495 8.46444
53.500 8.279939
53.505 7.986092
53.510 7.820806
53.515 7.807911
53.520 7.850431
53.525 8.021976
53.530 8.433011
53.535 8.625903
53.540 8.841736
53.545 8.685081
53.550 8.767286
53.555 8.530838
53.560 8.598692
53.565 8.436261
53.570 8.414592
53.575 8.302924
53.580 8.584322
53.585 8.630293
53.590 8.546861
53.595 8.246485
53.600 8.311776
53.605 8.685326
53.610 8.771985
53.615 8.442829
53.620 8.48736
53.625 8.217545
53.630 8.3377
53.635 8.255529
53.640 8.305939
53.645 8.722944
53.650 8.773565
53.655 8.749875
53.660 9.584148
53.665 9.675453
53.670 9.450556
53.675 8.722284
53.680 8.599006
53.685 8.902048
53.690 8.792581
53.695 8.490015
53.700 8.203756
53.705 8.328484
53.710 8.343486
53.715 8.370638
53.720 8.348282
53.725 8.619828
53.730 8.529205
53.735 8.632111
53.740 8.832949
53.745 8.941516
53.750 8.895683
53.755 8.957489
53.760 8.827869
53.765 8.988093
53.770 8.909557
53.775 9.024964
53.780 8.952133
53.785 8.979606
53.790 9.064506
53.795 8.90704
53.800 9.118316
53.805 9.280726
53.810 8.818571
53.815 8.448938
53.820 8.323332
53.825 8.260709
53.830 8.197412
53.835 8.304588
53.840 8.296656
53.845 8.665217
53.850 9.19644
53.855 9.326341
53.860 9.439007
53.865 9.865423
53.870 10.024315
53.875 10.15815
53.880 10.061665
53.885 9.613799
53.890 9.414435
53.895 9.544614
53.900 8.612562
53.905 8.195333
53.910 7.998224
53.915 8.217594
53.920 8.373938
53.925 8.519336
53.930 8.644865
53.935 8.892993
53.940 9.036707
53.945 9.078923
53.950 9.039728
53.955 9.155354
53.960 9.06092
53.965 9.14611
53.970 9.245031
53.975 9.505196
53.980 9.226315
53.985 9.014716
53.990 8.698596
53.995 8.767653
54.000 8.856664
54.005 8.651975
54.010 8.650621
54.015 9.157432
54.020 9.79108
54.025 9.715629
54.030 9.35197
54.035 9.164796
54.040 9.114347
54.045 8.83956
54.050 8.864461
54.055 8.429042
54.060 8.754068
54.065 8.960525
54.070 9.204039
54.075 9.515694
54.080 9.373734
54.085 9.024596
54.090 8.966778
54.095 8.595819
54.100 8.58814
54.105 8.156091
54.110 8.0151
54.115 7.96948
54.120 7.844998
54.125 8.091198
54.130 8.24262
54.135 8.363062
54.140 8.59218
54.145 8.948959
54.150 9.024505
54.155 9.512516
54.160 9.564822
54.165 9.183467
54.170 9.281838
54.175 9.319671
54.180 9.333011
54.185 9.653456
54.190 9.378405
54.195 9.266404
54.200 9.64136
54.205 9.74568
54.210 9.73292
54.215 9.473666
54.220 9.129375
54.225 8.992137
54.230 9.07739
54.235 9.348168
54.240 9.008575
54.245 8.738621
54.250 8.472682
54.255 8.793452
54.260 8.716119
54.265 8.266761
54.270 8.433184
54.275 8.729985
54.280 9.285324
54.285 9.67807
54.290 9.745316
54.295 9.737164
54.300 10.083886
54.305 9.684435
54.310 9.433025
54.315 9.361905
54.320 9.17385
54.325 9.257468
54.330 9.477146
54.335 9.367223
54.340 8.746626
54.345 8.857821
54.350 8.678741
54.355 9.02966
54.360 8.951969
54.365 8.852189
54.370 9.360278
54.375 9.805068
54.380 9.513138
54.385 9.645524
54.390 9.30473
54.395 9.641628
54.400 10.029413
54.405 9.792244
54.410 10.00437
54.415 10.370361
54.420 10.641879
54.425 10.723726
54.430 10.599295
54.435 10.516209
54.440 10.669372
54.445 10.678604
54.450 10.536409
54.455 10.418447
54.460 10.27632
54.465 10.043605
54.470 9.755963
54.475 9.336882
54.480 9.163062
54.485 8.821158
54.490 8.829241
54.495 8.724073
54.500 8.466556
54.505 8.57808
54.510 8.910192
54.515 9.228909
54.520 9.558049
54.525 9.626537
54.530 10.000567
54.535 10.091924
54.540 9.674432
54.545 9.224855
54.550 8.726866
54.555 8.586828
54.560 8.474625
54.565 8.374208
54.570 8.232459
54.575 8.805118
54.580 8.973269
54.585 9.525685
54.590 9.879912
54.595 9.658192
54.600 9.749689
54.605 9.752065
54.610 9.59459
54.615 9.695333
54.620 9.098048
54.625 8.979577
54.630 9.333838
54.635 9.536278
54.640 10.327275
54.645 10.026371
54.650 9.874882
54.655 9.973942
54.660 9.410717
54.665 9.224888
54.670 9.217715
54.675 9.164981
54.680 9.318155
54.685 9.364979
54.690 9.705904
54.695 10.000602
54.700 10.043799
54.705 9.893006
54.710 9.571346
54.715 10.039179
54.720 10.09607
54.725 10.167361
54.730 10.205088
54.735 10.004097
54.740 9.867004
54.745 9.623437
54.750 9.134386
54.755 8.93115
54.760 8.906963
54.765 8.932772
54.770 9.257814
54.775 9.656067
54.780 9.986101
54.785 10.066691
54.790 10.088485
54.795 9.96351
54.800 9.567214
54.805 9.244367
54.810 8.926549
54.815 9.152418
54.820 9.142093
54.825 9.167389
54.830 9.261179
54.835 9.590247
54.840 10.141559
54.845 10.302457
54.850 9.925244
54.855 9.527686
54.860 9.266932
54.865 9.236176
54.870 9.005214
54.875 8.297923
54.880 8.464318
54.885 8.761688
54.890 9.292907
54.895 9.642461
54.900 9.75151
54.905 9.741675
54.910 10.113008
54.915 10.086037
54.920 9.739797
54.925 9.510556
54.930 9.338218
54.935 9.138941
54.940 9.185614
54.945 8.941489
54.950 8.944728
54.955 9.290544
54.960 9.748304
54.965 10.065861
54.970 10.257368
54.975 10.173644
54.980 10.154171
54.985 10.152897
54.990 10.050957
54.995 9.513012
55.000 9.404441
55.005 9.332045
55.010 9.676754
55.015 9.705173
55.020 9.579636
55.025 10.19196
55.030 10.747519
55.035 10.744088
55.040 10.661041
55.045 10.342951
55.050 10.160541
55.055 9.808117
55.060 9.023254
55.065 8.508653
55.070 8.386283
55.075 8.348126
55.080 8.496196
55.085 8.621903
55.090 8.518485
55.095 8.349971
55.100 8.105189
55.105 8.330237
55.110 8.770945
55.115 8.992065
55.120 9.482462
55.125 9.57303
55.130 10.260775
55.135 10.957863
55.140 10.900193
55.145 10.723624
55.150 10.817236
55.155 10.759611
55.160 11.302083
55.165 11.001017
55.170 10.749778
55.175 10.929688
55.180 10.392507
55.185 10.029828
55.190 10.144188
55.195 10.086196
55.200 10.662687
55.205 10.486112
55.210 10.538979
55.215 11.221622
55.220 11.17806
55.225 10.931186
55.230 10.313246
55.235 9.749812
55.240 9.736267
55.245 9.646492
55.250 9.542726
55.255 9.947625
55.260 10.403272
55.265 10.648646
55.270 11.005111
55.275 10.764131
55.280 10.394373
55.285 9.823256
55.290 9.256766
55.295 9.089764
55.300 8.503586
55.305 8.423178
55.310 8.732595
55.315 8.976321
55.320 9.265019
55.325 9.619695
55.330 9.855366
55.335 10.420421
55.340 10.391531
55.345 10.023042
55.350 10.048681
55.355 10.424446
55.360 10.668322
55.365 10.738254
55.370 10.47646
55.375 10.523115
55.380 11.327919
55.385 11.379657
55.390 11.041665
55.395 10.953649
55.400 10.773926
55.405 10.696713
55.410 10.355014
55.415 9.950414
55.420 10.060193
55.425 10.235317
55.430 10.130801
55.435 10.005827
55.440 10.426323
55.445 10.910558
55.450 11.216357
55.455 11.253824
55.460 11.600826
55.465 11.877216
55.470 11.875525
55.475 11.622108
55.480 10.832826
55.485 10.058518
55.490 9.551148
55.495 9.109234
55.500 9.487545
55.505 9.903216
55.510 10.051814
55.515 10.603659
55.520 11.126978
55.525 11.172832
55.530 10.834516
55.535 10.793759
55.540 10.827765
55.545 10.576631
55.550 10.565626
55.555 10.673405
55.560 10.619107
55.565 10.525127
55.570 9.999166
55.575 9.936213
55.580 10.014134
55.585 9.725477
55.590 9.438077
55.595 9.711005
55.600 10.090789
55.605 10.211411
55.610 10.915771
55.615 10.819069
55.620 10.944836
55.625 11.392843
55.630 11.413302
55.635 11.336912
55.640 11.465602
55.645 11.233285
55.650 11.494953
55.655 11.705543
55.660 11.394516
55.665 11.171879
55.670 11.026812
55.675 10.777623
55.680 10.713523
55.685 10.653603
55.690 10.551524
55.695 10.347521
55.700 10.433133
55.705 9.99023
55.710 10.045621
55.715 10.085191
55.720 10.399731
55.725 10.613577
55.730 10.839828
55.735 10.877107
55.740 11.042115
55.745 10.948857
55.750 10.956086
55.755 10.600616
55.760 10.511457
55.765 10.827815
55.770 11.175256
55.775 11.294709
55.780 11.091562
55.785 10.825462
55.790 10.648421
55.795 10.827023
55.800 10.728198
55.805 10.416239
55.810 10.262541
55.815 10.824122
55.820 11.44968
55.825 12.078946
55.830 12.127956
55.835 12.316163
55.840 12.610221
55.845 12.534847
55.850 12.307736
55.855 12.056642
55.860 11.483488
55.865 11.341321
55.870 11.37041
55.875 11.476338
55.880 11.626224
55.885 11.49567
55.890 11.409243
55.895 11.482403
55.900 11.133929
55.905 10.645332
55.910 10.501662
55.915 10.612972
55.920 10.282227
55.925 10.219292
55.930 10.462333
55.935 10.804336
55.940 11.40128
55.945 11.536622
55.950 11.643405
55.955 11.984986
55.960 11.913774
55.965 11.806913
55.970 11.710325
55.975 11.182822
55.980 11.941799
55.985 12.040411
55.990 11.753966
55.995 11.624264
56.000 11.517321
56.005 11.49495
56.010 11.621232
56.015 10.997815
56.020 10.693092
56.025 10.567748
56.030 10.567094
56.035 10.349323
56.040 9.916445
56.045 10.029085
56.050 9.996049
56.055 10.431447
56.060 10.99121
56.065 11.201074
56.070 11.468998
56.075 11.997576
56.080 12.166664
56.085 12.362284
56.090 11.87685
56.095 11.894295
56.100 11.793182
56.105 11.442754
56.110 10.924314
56.115 10.240226
56.120 10.058786
56.125 9.784978
56.130 9.751688
56.135 9.835081
56.140 10.139372
56.145 10.429203
56.150 10.765615
56.155 11.003667
56.160 11.465029
56.165 11.344771
56.170 11.924188
56.175 12.305938
56.180 12.214853
56.185 12.233638
56.190 12.132388
56.195 12.104504
56.200 12.030139
56.205 11.804065
56.210 12.175101
56.215 12.75384
56.220 12.695515
56.225 12.673629
56.230 12.744444
56.235 12.865591
56.240 12.615676
56.245 11.756097
56.250 11.562231
56.255 11.460735
56.260 11.542665
56.265 11.342546
56.270 11.06468
56.275 10.68907
56.280 11.057903
56.285 11.4274
56.290 11.635601
56.295 11.775565
56.300 11.72609
56.305 12.135722
56.310 12.29134
56.315 12.052434
56.320 11.208661
56.325 11.142891
56.330 11.032259
56.335 11.408474
56.340 11.733085
56.345 11.650115
56.350 11.482644
56.355 11.94965
56.360 11.833124
56.365 11.684183
56.370 10.963448
56.375 10.855359
56.380 11.551641
56.385 11.559838
56.390 11.194499
56.395 11.339005
56.400 11.486278
56.405 11.614685
56.410 11.412605
56.415 11.073233
56.420 11.335061
56.425 11.714961
56.430 11.659618
56.435 11.733545
56.440 11.862404
56.445 12.179325
56.450 12.106853
56.455 11.847657
56.460 11.467678
56.465 11.388764
56.470 11.224196
56.475 11.121686
56.480 10.857643
56.485 10.972772
56.490 11.88374
56.495 12.244103
56.500 12.199081
56.505 12.55439
56.510 12.464625
56.515 12.166621
56.520 12.101481
56.525 12.13234
56.530 12.516521
56.535 12.576877
56.540 12.294212
56.545 12.341318
56.550 12.556835
56.555 13.141407
56.560 12.346519
56.565 12.122602
56.570 12.021371
56.575 11.908156
56.580 12.165902
56.585 12.107432
56.590 11.29791
56.595 11.407948
56.600 11.089145
56.605 11.046337
56.610 11.009241
56.615 10.882174
56.620 10.585306
56.625 11.144431
56.630 11.216313
56.635 11.593661
56.640 11.701283
56.645 11.907311
56.650 11.594951
56.655 11.485593
56.660 10.865644
56.665 10.888283
56.670 10.645523
56.675 10.606817
56.680 10.531743
56.685 10.729211
56.690 11.12768
56.695 11.529968
56.700 11.48334
56.705 11.370909
56.710 11.559643
56.715 11.33014
56.720 11.463896
56.725 10.927936
56.730 10.325889
56.735 10.381169
56.740 10.656551
56.745 10.943144
56.750 11.830187
56.755 11.946852
56.760 12.275249
56.765 12.639314
56.770 12.799755
56.775 12.895126
56.780 13.042303
56.785 13.235596
56.790 13.614708
56.795 14.165405
56.800 14.336605
56.805 14.592469
56.810 14.145262
56.815 13.820456
56.820 13.196786
56.825 12.860126
56.830 12.870289
56.835 12.513871
56.840 12.275659
56.845 12.637038
56.850 12.264343
56.855 12.086891
56.860 11.857928
56.865 11.432279
56.870 12.142437
56.875 12.57509
56.880 12.371456
56.885 12.485773
56.890 12.253689
56.895 12.103615
56.900 12.111948
56.905 11.638542
56.910 10.948281
56.915 10.96311
56.920 11.084598
56.925 11.784786
56.930 12.165682
56.935 12.180947
56.940 11.983706
56.945 12.295991
56.950 12.418798
56.955 12.522627
56.960 11.984463
56.965 11.628026
56.970 11.583865
56.975 12.103229
56.980 12.276937
56.985 12.318222
56.990 12.345456
56.995 12.499542
57.000 12.649121
57.005 13.017852
57.010 13.171783
57.015 13.602275
57.020 14.01749
57.025 14.314606
57.030 14.150452
57.035 13.774584
57.040 13.605365
57.045 13.480237
57.050 13.030405
57.055 12.488402
57.060 11.914719
57.065 11.81813
57.070 12.095008
57.075 12.030414
57.080 11.690241
57.085 11.418505
57.090 11.585621
57.095 11.734181
57.100 12.057881
57.105 11.842282
57.110 11.615046
57.115 11.417016
57.120 11.43183
57.125 11.295598
57.130 11.892121
57.135 11.842229
57.140 11.844324
57.145 11.791829
57.150 12.337481
57.155 12.214127
57.160 12.307308
57.165 12.074356
57.170 12.088136
57.175 12.352977
57.180 12.2199
57.185 11.91315
57.190 12.06251
57.195 12.03374
57.200 12.832066
57.205 13.407472
57.210 13.777052
57.215 14.060085
57.220 14.283691
57.225 14.106002
57.230 13.798007
57.235 13.199055
57.240 12.955924
57.245 12.552707
57.250 12.51523
57.255 12.828772
57.260 13.609563
57.265 13.662075
57.270 13.082796
57.275 12.634259
57.280 12.497398
57.285 12.470305
57.290 12.163813
57.295 11.831061
57.300 12.339576
57.305 13.253243
57.310 13.6445
57.315 13.606997
57.320 13.373905
57.325 13.792407
57.330 13.836207
57.335 13.534111
57.340 13.232217
57.345 13.516223
57.350 13.616907
57.355 13.689233
57.360 13.528033
57.365 13.701674
57.370 13.947732
57.375 14.277365
57.380 14.029803
57.385 14.465091
57.390 14.63436
57.395 13.965463
57.400 13.695281
57.405 12.940786
57.410 12.764967
57.415 12.820879
57.420 13.029111
57.425 12.982422
57.430 13.30158
57.435 13.399862
57.440 14.013547
57.445 13.911282
57.450 14.339034
57.455 14.206192
57.460 14.605145
57.465 14.708978
57.470 14.860385
57.475 14.572227
57.480 14.41393
57.485 13.818441
57.490 13.595604
57.495 13.24684
57.500 13.799554
57.505 13.795889
57.510 13.947631
57.515 13.804648
57.520 13.97611
57.525 14.028804
57.530 13.814105
57.535 13.160316
57.540 12.526839
57.545 12.496755
57.550 13.045974
57.555 12.787253
57.560 13.102293
57.565 13.600515
57.570 13.867982
57.575 14.373436
57.580 14.131279
57.585 13.786261
57.590 13.924787
57.595 13.505906
57.600 13.48992
57.605 13.364722
57.610 13.35572
57.615 13.356579
57.620 13.174498
57.625 13.236962
57.630 13.240891
57.635 13.008673
57.640 13.101172
57.645 13.046391
57.650 12.908356
57.655 13.006335
57.660 12.643687
57.665 12.225957
57.670 11.904296
57.675 11.949811
57.680 12.437334
57.685 12.586302
57.690 12.760938
57.695 13.271129
57.700 13.575655
57.705 13.921677
57.710 13.559833
57.715 13.446315
57.720 13.554624
57.725 13.089172
57.730 12.833949
57.735 12.865828
57.740 12.875848
57.745 13.297765
57.750 13.059669
57.755 13.180341
57.760 14.308105
57.765 14.618642
57.770 14.273647
57.775 13.934684
57.780 13.904356
57.785 14.331395
57.790 13.912085
57.795 12.898977
57.800 12.663404
57.805 12.966657
57.810 13.258531
57.815 12.895567
57.820 12.655204
57.825 12.780203
57.830 13.257312
57.835 13.79089
57.840 14.239416
57.845 14.695069
57.850 14.775575
57.855 14.717257
57.860 14.73793
57.865 14.739656
57.870 14.432833
57.875 13.947356
57.880 13.059852
57.885 12.908518
57.890 13.190334
57.895 13.284964
57.900 12.853138
57.905 12.668612
57.910 12.616083
57.915 13.213082
57.920 13.674303
57.925 13.949298
57.930 14.033002
57.935 14.452773
57.940 14.992753
57.945 15.177161
57.950 15.152341
57.955 14.597518
57.960 13.733656
57.965 13.594055
57.970 13.023301
57.975 12.228278
57.980 12.368875
57.985 12.538505
57.990 13.013875
57.995 13.779952
58.000 13.687954
58.005 14.017176
58.010 14.817678
58.015 14.893693
58.020 14.436376
58.025 14.04926
58.030 14.073124
58.035 14.101247
58.040 14.265971
58.045 13.715708
58.050 13.303807
58.055 13.665412
58.060 14.269226
58.065 14.507755
58.070 15.086362
58.075 15.315345
58.080 15.590381
58.085 15.992523
58.090 15.906007
58.095 15.261162
58.100 14.804032
58.105 14.848297
58.110 14.67565
58.115 14.397932
58.120 14.129942
58.125 14.04173
58.130 14.148427
58.135 13.950296
58.140 13.412248
58.145 13.180738
58.150 13.415562
58.155 13.179596
58.160 13.05731
58.165 12.929277
58.170 12.777061
58.175 12.835183
58.180 12.656194
58.185 12.672508
58.190 12.753186
58.195 12.71123
58.200 13.184901
58.205 13.268799
58.210 13.516395
58.215 13.803455
58.220 13.536965
58.225 13.622589
58.230 13.827537
58.235 13.556034
58.240 13.976084
58.245 13.980896
58.250 13.820663
58.255 13.678422
58.260 13.638556
58.265 13.278305
58.270 13.687586
58.275 13.717611
58.280 13.543757
58.285 13.66116
58.290 13.495816
58.295 13.419086
58.300 13.388596
58.305 12.732522
58.310 12.472645
58.315 12.653724
58.320 12.802649
58.325 13.185782
58.330 12.987005
58.335 13.472657
58.340 13.655824
58.345 13.801089
58.350 13.936949
58.355 13.886502
58.360 13.890529
58.365 14.128334
58.370 14.034441
58.375 14.26287
58.380 14.341918
58.385 13.897885
58.390 13.673458
58.395 13.29516
58.400 13.583287
58.405 13.52596
58.410 13.507936
58.415 13.437248
58.420 13.699422
58.425 14.279966
58.430 14.660321
58.435 14.011443
58.440 13.962303
58.445 13.695318
58.450 14.03028
58.455 14.234182
58.460 14.575424
58.465 15.201604
58.470 15.810102
58.475 15.760974
58.480 15.991917
58.485 15.887176
58.490 15.854791
58.495 15.499914
58.500 15.71258
58.505 15.624172
58.510 15.229524
58.515 14.814692
58.520 14.433496
58.525 14.473799
58.530 14.508758
58.535 13.764082
58.540 13.908891
58.545 14.457694
58.550 14.522676
58.555 14.181904
58.560 14.026021
58.565 14.398438
58.570 14.175966
58.575 13.83018
58.580 12.933731
58.585 12.590327
58.590 12.683484
58.595 12.377727
58.600 12.236022
58.605 12.161258
58.610 11.956006
58.615 12.652662
58.620 13.328317
58.625 14.00744
58.630 14.118278
58.635 14.20249
58.640 14.704639
58.645 15.371192
58.650 15.169274
58.655 14.78652
58.660 14.216945
58.665 14.065307
58.670 13.723213
58.675 13.424666
58.680 13.342708
58.685 13.774778
58.690 14.149501
58.695 14.472332
58.700 14.343073
58.705 14.257704
58.710 14.524842
58.715 14.725048
58.720 14.396845
58.725 14.025867
58.730 13.664813
58.735 13.791512
58.740 14.110707
58.745 13.538481
58.750 13.27708
58.755 13.202725
58.760 13.412625
58.765 13.736708
58.770 13.849603
58.775 13.898561
58.780 14.085971
58.785 13.738289
58.790 13.672188
58.795 13.760098
58.800 13.614303
58.805 13.778885
58.810 14.049717
58.815 14.290592
58.820 14.889375
58.825 15.055984
58.830 15.048856
58.835 14.786408
58.840 14.714591
58.845 14.454763
58.850 14.364764
58.855 14.413819
58.860 14.566347
58.865 14.554603
58.870 14.18951
58.875 13.846747
58.880 14.181692
58.885 14.191221
58.890 14.219898
58.895 13.84138
58.900 13.72849
58.905 14.515217
58.910 14.39451
58.915 13.989815
58.920 13.5897
58.925 13.135074
58.930 13.625154
58.935 13.698269
58.940 13.946189
58.945 14.199657
58.950 13.924774
58.955 13.797814
58.960 13.828583
58.965 13.521228
58.970 12.953577
58.975 12.544055
58.980 12.426296
58.985 12.663267
58.990 12.729584
58.995 13.107702
59.000 13.61985
59.005 14.169415
59.010 14.529775
59.015 15.159448
59.020 15.413691
59.025 15.588062
59.030 15.77001
59.035 15.825911
59.040 16.223839
59.045 16.676416
59.050 16.655453
59.055 17.197092
59.060 17.808958
59.065 17.89242
59.070 17.978243
59.075 17.752771
59.080 17.827213
59.085 17.1362
59.090 16.897696
59.095 16.793011
59.100 16.590487
59.105 16.572866
59.110 16.097296
59.115 15.782634
59.120 16.113907
59.125 15.770174
59.130 15.354612
59.135 15.518085
59.140 15.18036
59.145 14.725688
59.150 14.273371
59.155 14.152338
59.160 14.017053
59.165 14.058743
59.170 13.631104
59.175 14.164431
59.180 14.968056
59.185 15.032061
59.190 14.997162
59.195 15.132356
59.200 14.942564
59.205 14.861341
59.210 14.892554
59.215 14.851158
59.220 15.414804
59.225 15.895597
59.230 15.615162
59.235 15.551586
59.240 15.810596
59.245 15.855601
59.250 15.937616
59.255 15.614863
59.260 15.526777
59.265 16.196573
59.270 16.409555
59.275 15.712323
59.280 15.022287
59.285 14.801764
59.290 14.422986
59.295 14.669654
59.300 14.434673
59.305 14.659946
59.310 15.185927
59.315 15.63975
59.320 15.647944
59.325 16.139893
59.330 16.403847
59.335 16.203491
59.340 15.82706
59.345 15.624321
59.350 16.238108
59.355 16.383776
59.360 16.738171
59.365 16.430414
59.370 16.212383
59.375 16.099394
59.380 15.5367
59.385 15.018725
59.390 15.107963
59.395 14.397585
59.400 14.685671
59.405 14.970245
59.410 14.986299
59.415 15.645995
59.420 15.526057
59.425 15.295638
59.430 15.084146
59.435 14.837032
59.440 14.745081
59.445 14.981464
59.450 15.142996
59.455 15.667957
59.460 16.156916
59.465 16.443544
59.470 16.965836
59.475 17.760614
59.480 18.462395
59.485 19.001493
59.490 19.019663
59.495 18.988155
59.500 19.003489
59.505 18.963383
59.510 18.186674
59.515 17.281088
59.520 16.111286
59.525 15.918758
59.530 16.064203
59.535 15.754592
59.540 15.423202
59.545 16.117363
59.550 16.382832
59.555 16.734541
59.560 16.432304
59.565 16.434189
59.570 16.445223
59.575 16.215429
59.580 15.69199
59.585 15.452149
59.590 15.402845
59.595 15.961026
59.600 15.672625
59.605 15.765412
59.610 15.488326
59.615 15.467173
59.620 15.626018
59.625 15.91007
59.630 16.114471
59.635 16.762291
59.640 16.798874
59.645 17.472839
59.650 17.991379
59.655 17.807947
59.660 17.274567
59.665 16.763193
59.670 16.525862
59.675 17.033737
59.680 16.59367
59.685 16.392942
59.690 16.350367
59.695 17.052656
59.700 17.54447
59.705 17.348827
59.710 17.234056
59.715 17.20149
59.720 17.090837
59.725 17.197195
59.730 16.552578
59.735 16.165833
59.740 15.893369
59.745 16.049688
59.750 16.261156
59.755 16.750498
59.760 17.122475
59.765 17.100058
59.770 17.313301
59.775 18.165976
59.780 18.167599
59.785 17.952177
59.790 17.713879
59.795 17.980467
59.800 18.542732
59.805 18.281872
59.810 18.396883
59.815 18.199381
59.820 18.45451
59.825 18.273424
59.830 17.722586
59.835 17.772106
59.840 17.481817
59.845 17.129198
59.850 17.277565
59.855 17.427896
59.860 17.435143
59.865 17.444656
59.870 16.852596
59.875 16.301826
59.880 16.213737
59.885 16.178135
59.890 16.166136
59.895 16.314081
59.900 16.792692
59.905 17.228596
59.910 17.919634
59.915 17.96212
59.920 17.763233
59.925 18.276577
59.930 18.228388
59.935 17.862328
59.940 18.051785
59.945 18.232321
59.950 18.269726
59.955 18.416222
59.960 18.732933
59.965 19.546154
59.970 19.618895
59.975 19.181379
59.980 19.293127
59.985 18.921473
59.990 18.769091
59.995 18.250006
60.000 17.973629
60.005 17.815235
60.010 18.13209
60.015 18.258595
60.020 18.23328
60.025 18.819263
60.030 18.795742
60.035 18.794119
60.040 19.475542
60.045 19.299236
60.050 19.75651
60.055 19.812771
60.060 19.770432
60.065 19.663271
60.070 19.49074
60.075 18.789892
60.080 18.012693
60.085 17.426241
60.090 17.580147
60.095 17.523323
60.100 17.528078
60.105 17.602303
60.110 17.951502
60.115 18.626244
60.120 18.932344
60.125 19.557419
60.130 19.851107
60.135 20.470066
60.140 20.038273
60.145 20.466049
60.150 20.693243
60.155 21.058043
60.160 20.447994
60.165 19.76314
60.170 19.719885
60.175 20.873512
60.180 20.656216
60.185 20.252581
60.190 20.018887
60.195 20.309767
60.200 20.951918
60.205 21.131872
60.210 20.692945
60.215 20.233448
60.220 20.107632
60.225 19.685345
60.230 19.601389
60.235 19.287743
60.240 19.154896
60.245 18.9585
60.250 19.19091
60.255 18.957117
60.260 19.074028
60.265 19.012239
60.270 18.566784
60.275 17.982971
60.280 18.008387
60.285 18.031906
60.290 18.789858
60.295 18.968462
60.300 19.296219
60.305 19.776897
60.310 20.210518
60.315 20.183699
60.320 20.792513
60.325 20.727274
60.330 20.340387
60.335 19.921654
60.340 19.69886
60.345 19.439928
60.350 19.301029
60.355 19.314522
60.360 19.176756
60.365 19.561798
60.370 19.863409
60.375 19.993191
60.380 20.432322
60.385 20.528959
60.390 19.957712
60.395 21.019592
60.400 21.325541
60.405 21.432922
60.410 21.249062
60.415 21.234312
60.420 21.089491
60.425 21.225994
60.430 20.54044
60.435 20.164948
60.440 20.29421
60.445 20.311449
60.450 20.508204
60.455 20.411966
60.460 20.508419
60.465 20.653296
60.470 20.972643
60.475 21.193954
60.480 21.492832
60.485 21.197508
60.490 21.371597
60.495 20.833881
60.500 20.068905
60.505 19.966368
60.510 19.208914
60.515 18.486645
60.520 18.417353
60.525 18.796572
60.530 19.508348
60.535 19.400686
60.540 19.188759
60.545 19.401014
60.550 19.900059
60.555 20.037695
60.560 19.685747
60.565 19.28624
60.570 19.664249
60.575 20.247587
60.580 20.581797
60.585 20.508223
60.590 20.549513
60.595 20.511284
60.600 20.929895
60.605 20.550676
60.610 19.594471
60.615 19.048349
60.620 18.78289
60.625 18.519997
60.630 18.362759
60.635 17.736822
60.640 16.728537
60.645 17.055727
60.650 17.183849
60.655 16.783924
60.660 16.684538
60.665 16.892038
60.670 17.258856
60.675 18.544189
60.680 18.882093
60.685 18.768999
60.690 19.051079
60.695 19.470388
60.700 19.671379
60.705 19.855875
60.710 19.728727
60.715 19.394251
60.720 19.507324
60.725 19.592709
60.730 19.27351
60.735 18.922018
60.740 18.508554
60.745 18.405966
60.750 18.266224
60.755 18.598753
60.760 19.602716
60.765 20.284302
60.770 20.327642
60.775 20.424582
60.780 20.49823
60.785 20.448534
60.790 20.049494
60.795 19.223846
60.800 18.327248
60.805 18.41333
60.810 18.568937
60.815 18.579823
60.820 18.846642
60.825 19.154749
60.830 19.19281
60.835 19.260887
60.840 19.034697
60.845 18.704556
60.850 18.966896
60.855 18.814951
60.860 18.365566
60.865 18.158449
60.870 18.124317
60.875 17.720457
60.880 17.252731
60.885 16.824642
60.890 16.589546
60.895 16.896156
60.900 16.753391
60.905 16.913099
60.910 17.382648
60.915 17.507666
60.920 17.631081
60.925 17.086449
60.930 16.669266
60.935 16.89406
60.940 16.581726
60.945 16.826998
60.950 16.537226
60.955 16.927374
60.960 16.915331
60.965 16.191841
60.970 16.061342
60.975 16.138769
60.980 15.704359
60.985 15.632929
60.990 16.024029
60.995 16.739458
61.000 17.854401
61.005 18.269178
61.010 17.928284
61.015 17.582752
61.020 17.161518
61.025 16.264484
61.030 16.50292
61.035 16.71006
61.040 16.843952
61.045 17.05102
61.050 17.636509
61.055 18.431389
61.060 18.901262
61.065 18.323011
61.070 18.050867
61.075 17.805655
61.080 17.844318
61.085 17.270634
61.090 16.461716
61.095 16.351431
61.100 16.945139
61.105 16.946497
61.110 16.80508
61.115 16.832771
61.120 16.727528
61.125 16.737556
61.130 16.583082
61.135 15.474576
61.140 15.095105
61.145 15.350763
61.150 15.412533
61.155 15.871341
61.160 16.213312
61.165 16.309013
61.170 16.772058
61.175 16.618134
61.180 16.375822
61.185 16.124063
61.190 16.540304
61.195 16.704353
61.200 16.700098
61.205 16.408894
61.210 16.547182
61.215 17.040543
61.220 17.408802
61.225 17.408047
61.230 17.610975
61.235 17.906437
61.240 17.916435
61.245 17.644754
61.250 17.044096
61.255 16.921997
61.260 16.872505
61.265 16.409628
61.270 16.181009
61.275 16.530991
61.280 16.374277
61.285 16.489082
61.290 16.442163
61.295 15.851607
61.300 15.797258
61.305 16.023144
61.310 16.062775
61.315 16.321548
61.320 16.472734
61.325 16.318586
61.330 16.880735
61.335 16.60483
61.340 16.269636
61.345 16.082657
61.350 15.936469
61.355 15.720754
61.360 15.58396
61.365 15.339935
61.370 15.249355
61.375 15.179198
61.380 14.93183
61.385 15.305484
61.390 15.516664
61.395 15.63104
61.400 16.120386
61.405 16.895103
61.410 17.606258
61.415 18.118326
61.420 17.8395
61.425 18.012138
61.430 18.171318
61.435 17.683376
61.440 17.43227
61.445 17.018204
61.450 17.419006
61.455 17.559423
61.460 17.352526
61.465 17.072437
61.470 16.826874
61.475 16.367147
61.480 16.056297
61.485 14.976637
61.490 14.857554
61.495 15.623651
61.500 15.853892
61.505 16.040094
61.510 16.498997
61.515 16.958466
61.520 17.544527
61.525 18.027126
61.530 16.907179
61.535 16.446627
61.540 16.4897
61.545 16.605497
61.550 16.241262
61.555 16.388916
61.560 16.212135
61.565 16.621517
61.570 16.979658
61.575 16.92424
61.580 16.455757
61.585 16.692497
61.590 16.467905
61.595 16.110634
61.600 16.205029
61.605 16.375935
61.610 16.766428
61.615 16.821083
61.620 16.753336
61.625 16.725109
61.630 16.901028
61.635 16.923927
61.640 16.43203
61.645 15.929079
61.650 15.891703
61.655 16.216431
61.660 16.223011
61.665 15.881918
61.670 15.455655
61.675 15.429768
61.680 15.547972
61.685 15.385237
61.690 15.133906
61.695 15.117393
61.700 15.177272
61.705 15.324844
61.710 16.007463
61.715 16.487103
61.720 17.018105
61.725 16.77331
61.730 16.736525
61.735 16.841358
61.740 16.799715
61.745 16.63512
61.750 16.052675
61.755 15.593815
61.760 16.28191
61.765 16.867592
61.770 17.046518
61.775 17.259905
61.780 16.783394
61.785 16.400599
61.790 16.14682
61.795 15.715833
61.800 15.684919
61.805 16.051264
61.810 16.47448
61.815 16.885519
61.820 16.981375
61.825 17.369987
61.830 17.527128
61.835 17.173965
61.840 17.10461
61.845 16.600657
61.850 16.257689
61.855 16.437611
61.860 16.270489
61.865 16.519192
61.870 16.840374
61.875 16.615288
61.880 17.080616
61.885 17.489065
61.890 17.700914
61.895 17.777452
61.900 17.561646
61.905 17.437628
61.910 17.523554
61.915 17.07053
61.920 16.991907
61.925 16.672642
61.930 16.660563
61.935 16.134947
61.940 15.974981
61.945 16.863544
61.950 17.27471
61.955 17.371157
61.960 17.366034
61.965 17.151606
61.970 16.861187
61.975 16.459085
61.980 15.266012
61.985 14.973316
61.990 14.793276
61.995 15.099028
62.000 15.675302
62.005 16.509417
62.010 16.69381
62.015 16.698622
62.020 16.576437
62.025 16.527397
62.030 15.770205
62.035 14.714314
62.040 13.958427
62.045 14.031728
62.050 14.512266
62.055 14.43132
62.060 14.504496
62.065 14.749766
62.070 14.846132
62.075 15.074722
62.080 14.962267
62.085 14.899241
62.090 14.935122
62.095 15.112514
62.100 15.430658
62.105 15.631029
62.110 15.740562
62.115 15.772285
62.120 15.821106
62.125 16.152895
62.130 16.256445
62.135 16.308329
62.140 15.981664
62.145 15.77007
62.150 15.685684
62.155 15.503152
62.160 15.867267
62.165 15.94826
62.170 16.52253
62.175 16.914253
62.180 16.941011
62.185 17.06772
62.190 17.220024
62.195 17.359068
62.200 17.146173
62.205 16.73036
62.210 16.752573
62.215 16.892445
62.220 17.083838
62.225 17.106857
62.230 16.876415
62.235 16.901562
62.240 16.950548
62.245 17.49457
62.250 17.715755
62.255 17.624678
62.260 17.232067
62.265 16.788298
62.270 16.254673
62.275 15.926459
62.280 15.629165
62.285 15.470462
62.290 15.276837
62.295 15.553775
62.300 16.080404
62.305 16.63574
62.310 16.654881
62.315 16.276051
62.320 16.434771
62.325 16.256977
62.330 16.123674
62.335 16.369009
62.340 15.80057
62.345 15.600903
62.350 15.587632
62.355 15.870838
62.360 16.371508
62.365 16.533266
62.370 16.078621
62.375 16.945944
62.380 17.171133
62.385 17.3041
62.390 17.035881
62.395 16.421324
62.400 16.271982
62.405 16.53919
62.410 16.528028
62.415 17.139376
62.420 17.401821
62.425 17.825317
62.430 18.40748
62.435 18.541645
62.440 18.581297
62.445 18.68047
62.450 18.414053
62.455 18.755487
62.460 18.918949
62.465 19.155071
62.470 19.099911
62.475 19.216372
62.480 19.072063
62.485 18.49222
62.490 17.985973
62.495 17.327316
62.500 16.908766
62.505 16.581312
62.510 16.61235
62.515 16.357454
62.520 16.388083
62.525 16.416798
62.530 16.633776
62.535 16.805151
62.540 16.996035
62.545 16.460123
62.550 16.725956
62.555 16.90196
62.560 16.774302
62.565 16.72929
62.570 16.786873
62.575 17.182594
62.580 17.724092
62.585 18.292992
62.590 18.225826
62.595 18.137671
62.600 18.255537
62.605 17.962269
62.610 17.620876
62.615 17.654043
62.620 17.261524
62.625 17.111103
62.630 17.295752
62.635 16.993084
62.640 17.128149
62.645 17.042747
62.650 16.34627
62.655 15.627091
62.660 16.241529
62.665 16.139574
62.670 15.41485
62.675 14.932346
62.680 15.022392
62.685 15.254007
62.690 16.033566
62.695 15.734724
62.700 15.766541
62.705 16.374821
62.710 16.494179
62.715 16.237165
62.720 16.157299
62.725 16.137627
62.730 15.988967
62.735 16.301012
62.740 16.851099
62.745 16.785265
62.750 16.581629
62.755 16.742626
62.760 16.814615
62.765 17.01502
62.770 17.008417
62.775 17.161308
62.780 17.416889
62.785 17.352612
62.790 16.892822
62.795 16.572559
62.800 16.394983
62.805 16.449457
62.810 15.675818
62.815 15.794792
62.820 16.229872
62.825 16.640493
62.830 16.510149
62.835 16.631783
62.840 16.165707
62.845 16.506098
62.850 16.668034
62.855 16.745146
62.860 16.92412
62.865 17.500086
62.870 17.439531
62.875 17.707273
62.880 17.842112
62.885 18.118721
62.890 17.797781
62.895 17.128073
62.900 17.169523
62.905 17.251942
62.910 17.129421
62.915 17.267878
62.920 16.879042
62.925 16.832891
62.930 16.65196
62.935 16.387074
62.940 16.392435
62.945 16.204723
62.950 16.15521
62.955 16.470369
62.960 16.499737
62.965 16.636253
62.970 17.09783
62.975 17.201538
62.980 17.295332
62.985 16.555798
62.990 16.090965
62.995 16.253174
63.000 16.685623
63.005 16.099691
63.010 15.525808
63.015 15.38874
63.020 15.506404
63.025 15.677897
63.030 15.99134
63.035 15.992424
63.040 15.668746
63.045 15.963254
63.050 16.166494
63.055 16.428049
63.060 16.294857
63.065 15.903324
63.070 15.86371
63.075 15.840714
63.080 16.121023
63.085 16.513277
63.090 16.216974
63.095 16.073898
63.100 15.979987
63.105 16.003485
63.110 16.451624
63.115 16.886286
63.120 16.920851
63.125 17.250906
63.130 17.346189
63.135 17.516607
63.140 17.392656
63.145 17.339916
63.150 16.489052
63.155 15.796938
63.160 15.405123
63.165 15.089937
63.170 14.86484
63.175 15.417055
63.180 15.467331
63.185 15.700572
63.190 16.147484
63.195 16.815224
63.200 17.250006
63.205 17.136463
63.210 16.75684
63.215 15.980198
63.220 15.716149
63.225 15.845506
63.230 15.581646
63.235 15.377932
63.240 15.460697
63.245 15.285877
63.250 15.442055
63.255 15.860498
63.260 15.818997
63.265 16.144623
63.270 16.687281
63.275 17.618961
63.280 18.127048
63.285 19.228645
63.290 19.778927
63.295 20.029417
63.300 20.160114
63.305 19.627052
63.310 18.766113
63.315 18.882605
63.320 18.737862
63.325 17.857462
63.330 17.988964
63.335 17.737606
63.340 17.88224
63.345 18.167429
63.350 17.906099
63.355 17.625217
63.360 18.421749
63.365 18.493164
63.370 18.313238
63.375 18.182533
63.380 18.194828
63.385 17.957376
63.390 17.829395
63.395 16.83024
63.400 16.814264
63.405 17.029345
63.410 16.576618
63.415 16.037121
63.420 15.615059
63.425 15.916338
63.430 16.281008
63.435 16.04166
63.440 15.592991
63.445 16.167492
63.450 16.384985
63.455 16.496052
63.460 16.170887
63.465 16.330339
63.470 16.548157
63.475 17.039949
63.480 17.129204
63.485 17.709698
63.490 17.411011
63.495 17.528807
63.500 17.189907
63.505 16.918633
63.510 17.331264
63.515 17.705959
63.520 17.851494
63.525 18.510731
63.530 18.332291
63.535 18.928602
63.540 19.005743
63.545 18.14113
63.550 17.299835
63.555 16.956919
63.560 16.873503
63.565 17.226694
63.570 17.010826
63.575 17.122709
63.580 17.944363
63.585 18.502535
63.590 18.660021
63.595 18.367308
63.600 18.476231
63.605 18.230902
63.610 17.744419
63.615 17.041239
63.620 16.768915
63.625 16.547216
63.630 16.775103
63.635 17.000681
63.640 17.058981
63.645 17.364803
63.650 17.563822
63.655 18.19783
63.660 18.442511
63.665 18.34659
63.670 17.873867
63.675 17.80018
63.680 17.905142
63.685 17.532793
63.690 17.06682
63.695 17.182571
63.700 16.803406
63.705 16.393431
63.710 16.844196
63.715 16.681452
63.720 16.833752
63.725 16.502518
63.730 16.806808
63.735 17.441866
63.740 17.153101
63.745 16.407814
63.750 16.171185
63.755 16.309967
63.760 16.513103
63.765 15.836141
63.770 15.476227
63.775 15.817794
63.780 16.766779
63.785 16.997972
63.790 16.810261
63.795 16.847013
63.800 16.864918
63.805 16.945124
63.810 17.047585
63.815 16.293608
63.820 16.209751
63.825 16.470793
63.830 16.952888
63.835 17.087135
63.840 17.347807
63.845 17.170465
63.850 17.483681
63.855 17.774101
63.860 18.011307
63.865 17.817102
63.870 17.90037
63.875 17.511293
63.880 17.618618
63.885 17.448713
63.890 17.863424
63.895 17.822838
63.900 17.320539
63.905 17.297894
63.910 17.708105
63.915 17.512655
63.920 17.740555
63.925 17.230593
63.930 17.358179
63.935 17.727262
63.940 17.485624
63.945 17.615185
63.950 18.027643
63.955 17.331251
63.960 17.487597
63.965 17.694311
63.970 18.420349
63.975 18.33493
63.980 17.95352
63.985 17.899094
63.990 18.489456
63.995 18.267015
64.000 18.032612
64.005 17.422613
64.010 18.187986
64.015 18.728477
64.020 19.253658
64.025 19.163769
64.030 19.292637
64.035 19.017084
64.040 19.441868
64.045 20.044971
64.050 20.304331
64.055 19.505692
64.060 19.571054
64.065 19.297195
64.070 19.095535
64.075 18.37776
64.080 17.739162
64.085 17.190125
64.090 17.046204
64.095 17.228251
64.100 17.468262
64.105 17.816603
64.110 18.223652
64.115 17.871073
64.120 18.646141
64.125 18.722906
64.130 18.233801
64.135 18.162773
64.140 18.091129
64.145 17.370008
64.150 16.827888
64.155 16.357027
64.160 16.777056
64.165 17.421228
64.170 16.852522
64.175 16.593655
64.180 16.907042
64.185 17.228447
64.190 17.439018
64.195 17.559216
64.200 17.315834
64.205 17.694305
64.210 18.277178
64.215 18.910744
64.220 19.286337
64.225 19.193365
64.230 19.054314
64.235 18.498888
64.240 18.485397
64.245 18.289436
64.250 17.944422
64.255 18.186941
64.260 17.84794
64.265 17.07937
64.270 17.116945
64.275 17.379803
64.280 17.654978
64.285 17.472759
64.290 17.188557
64.295 17.850214
64.300 18.426414
64.305 18.625603
64.310 18.219854
64.315 17.626362
64.320 17.494509
64.325 17.060776
64.330 17.158733
64.335 17.070269
64.340 17.60256
64.345 17.979149
64.350 18.26898
64.355 18.376703
64.360 17.842852
64.365 17.288786
64.370 17.304268
64.375 17.017399
64.380 17.014252
64.385 16.969404
64.390 17.007317
64.395 17.373478
64.400 17.75547
64.405 17.691727
64.410 17.707584
64.415 18.028296
64.420 17.943798
64.425 18.363886
64.430 18.285748
64.435 18.063772
64.440 18.853151
64.445 19.239445
64.450 19.380053
64.455 19.095993
64.460 18.989473
64.465 19.186577
64.470 18.928286
64.475 18.740204
64.480 18.190447
64.485 17.749235
64.490 18.7526
64.495 18.989613
64.500 19.84915
64.505 20.028219
64.510 19.96147
64.515 20.196436
64.520 20.204971
64.525 19.696476
64.530 19.26963
64.535 18.501175
64.540 18.699331
64.545 18.205219
64.550 18.421087
64.555 18.64217
64.560 18.989311
64.565 19.139648
64.570 18.755781
64.575 18.719326
64.580 19.211798
64.585 19.216846
64.590 19.106085
64.595 18.636095
64.600 18.490393
64.605 18.465136
64.610 18.402254
64.615 18.638977
64.620 18.446775
64.625 18.372114
64.630 18.713264
64.635 19.041096
64.640 19.981199
64.645 19.826307
64.650 20.030867
64.655 19.884333
64.660 20.009552
64.665 19.980707
64.670 19.592039
64.675 18.83923
64.680 18.989052
64.685 18.268064
64.690 17.896299
64.695 17.800621
64.700 17.820873
64.705 18.222576
64.710 18.776291
64.715 19.321482
64.720 20.100218
64.725 20.697783
64.730 21.058464
64.735 20.972826
64.740 20.778057
64.745 20.937067
64.750 20.763212
64.755 20.520031
64.760 20.531891
64.765 20.315832
64.770 20.221037
64.775 20.100384
64.780 19.360924
64.785 18.936451
64.790 18.936382
64.795 19.362228
64.800 19.330933
64.805 19.34771
64.810 20.077053
64.815 20.520542
64.820 20.689665
64.825 20.813761
64.830 20.147978
64.835 20.551672
64.840 21.307383
64.845 21.472383
64.850 21.283619
64.855 21.530918
64.860 21.112648
64.865 20.913685
64.870 20.515005
64.875 20.065559
64.880 19.310354
64.885 18.967726
64.890 18.89304
64.895 19.173256
64.900 19.4543
64.905 19.367216
64.910 19.018402
64.915 19.460556
64.920 19.510866
64.925 19.055317
64.930 18.772936
64.935 18.88798
64.940 19.145899
64.945 19.321346
64.950 19.239277
64.955 19.849731
64.960 20.036102
64.965 20.141195
64.970 20.21788
64.975 20.432758
64.980 21.073744
64.985 21.114771
64.990 21.233559
64.995 21.326199
65.000 21.48254
65.005 21.459085
65.010 21.162157
65.015 20.899536
65.020 21.51619
65.025 21.792015
65.030 21.630806
65.035 21.648895
65.040 21.615189
65.045 21.992218
65.050 22.279119
65.055 21.375498
65.060 20.635221
65.065 20.900471
65.070 21.031584
65.075 21.051004
65.080 21.074015
65.085 21.024004
65.090 22.28834
65.095 22.765224
65.100 22.52109
65.105 22.703114
65.110 23.02825
65.115 22.707857
65.120 21.726582
65.125 20.476706
65.130 20.284477
65.135 20.869781
65.140 20.668978
65.145 20.28681
65.150 20.493151
65.155 21.18461
65.160 21.92555
65.165 21.826471
65.170 21.647652
65.175 21.382267
65.180 21.489145
65.185 21.194048
65.190 21.347342
65.195 20.883207
65.200 21.021845
65.205 20.872698
65.210 20.994785
65.215 21.285515
65.220 21.558321
65.225 21.502384
65.230 21.907591
65.235 21.904112
65.240 21.556664
65.245 21.24852
65.250 20.331539
65.255 20.148344
65.260 19.691875
65.265 19.35957
65.270 19.273067
65.275 19.989756
65.280 20.740204
65.285 20.671856
65.290 20.502342
65.295 20.86524
65.300 21.206213
65.305 21.061035
65.310 20.607866
65.315 20.370134
65.320 21.153357
65.325 21.042267
65.330 20.414204
65.335 20.524788
65.340 20.885475
65.345 21.269865
65.350 20.984505
65.355 20.500507
65.360 21.032387
65.365 21.513258
65.370 21.478254
65.375 21.300915
65.380 21.288773
65.385 21.787405
65.390 21.803802
65.395 21.908768
65.400 22.113619
65.405 22.690807
65.410 22.947054
65.415 23.157297
65.420 23.622763
65.425 23.973141
65.430 24.352982
65.435 24.970009
65.440 25.056551
65.445 25.020037
65.450 24.869648
65.455 24.19346
65.460 24.563286
65.465 24.249998
65.470 23.513948
65.475 23.768137
65.480 23.941469
65.485 24.54574
65.490 25.383154
65.495 25.230404
65.500 25.17511
65.505 24.970543
65.510 24.712025
65.515 24.962557
65.520 24.758633
65.525 25.037838
65.530 25.667583
65.535 26.708664
65.540 27.274124
65.545 27.501493
65.550 27.354582
65.555 27.538128
65.560 27.735937
65.565 27.784159
65.570 27.551083
65.575 27.313894
65.580 27.507877
65.585 27.813141
65.590 28.290617
65.595 28.533123
65.600 28.037346
65.605 28.432795
65.610 29.290104
65.615 29.385555
65.620 29.509899
65.625 29.290462
65.630 29.524626
65.635 30.391127
65.640 30.492046
65.645 30.360836
65.650 30.777054
65.655 30.941883
65.660 30.562649
65.665 30.289318
65.670 29.906641
65.675 30.241455
65.680 30.54574
65.685 30.279539
65.690 30.833143
65.695 31.615982
65.700 31.98904
65.705 32.051601
65.710 31.549402
65.715 31.765884
65.720 31.843929
65.725 31.372002
65.730 31.641863
65.735 31.897818
65.740 32.551933
65.745 33.68634
65.750 33.963127
65.755 34.646507
65.760 35.051998
65.765 35.829281
65.770 36.117573
65.775 35.957405
65.780 35.426422
65.785 35.916939
65.790 35.934158
65.795 35.880291
65.800 35.592064
65.805 35.44059
65.810 35.676003
65.815 36.032036
65.820 35.708439
65.825 35.421059
65.830 36.261681
65.835 35.906216
65.840 36.372608
65.845 36.026276
65.850 35.899681
65.855 36.480431
65.860 35.883995
65.865 34.664665
65.870 33.711605
65.875 33.031174
65.880 33.365612
65.885 33.274025
65.890 33.692276
65.895 34.163029
65.900 34.561813
65.905 35.853798
65.910 36.162498
65.915 36.169601
65.920 35.729794
65.925 35.515213
65.930 35.926041
65.935 35.979969
65.940 35.68858
65.945 36.211178
65.950 36.438606
65.955 36.927631
65.960 37.288376
65.965 37.264469
65.970 37.523552
65.975 37.324631
65.980 36.598259
65.985 36.213741
65.990 36.051342
65.995 35.704735
66.000 35.703922
66.005 35.47599
66.010 35.202202
66.015 35.236061
66.020 35.399673
66.025 35.761425
66.030 35.719955
66.035 35.586372
66.040 35.386215
66.045 35.71423
66.050 35.940899
66.055 35.941475
66.060 34.890598
66.065 34.236252
66.070 34.300682
66.075 34.094086
66.080 33.571075
66.085 33.031551
66.090 32.868259
66.095 33.480576
66.100 34.199516
66.105 34.084503
66.110 34.366554
66.115 33.927032
66.120 34.225109
66.125 33.980503
66.130 33.427486
66.135 33.116684
66.140 32.594688
66.145 31.785339
66.150 31.535736
66.155 31.407925
66.160 31.840864
66.165 32.327515
66.170 32.237164
66.175 32.905785
66.180 34.955376
66.185 35.560238
66.190 35.072887
66.195 34.350971
66.200 34.129799
66.205 34.377876
66.210 33.558838
66.215 32.394341
66.220 32.559742
66.225 32.957638
66.230 33.032238
66.235 33.066154
66.240 32.659882
66.245 32.521687
66.250 31.930138
66.255 31.101332
66.260 30.823275
66.265 30.444666
66.270 30.397205
66.275 30.659859
66.280 30.598577
66.285 30.391775
66.290 30.731672
66.295 31.065161
66.300 31.643412
66.305 31.468313
66.310 31.149771
66.315 31.918272
66.320 32.475815
66.325 32.228874
66.330 32.542259
66.335 32.294205
66.340 31.408888
66.345 31.492331
66.350 30.349817
66.355 30.319696
66.360 29.746572
66.365 28.913931
66.370 29.059742
66.375 28.600983
66.380 28.364004
66.385 29.461464
66.390 28.990749
66.395 29.440521
66.400 29.328814
66.405 29.131407
66.410 30.106142
66.415 30.252989
66.420 30.448103
66.425 31.151369
66.430 31.048925
66.435 30.986216
66.440 30.947929
66.445 30.92103
66.450 30.477772
66.455 29.585169
66.460 28.649622
66.465 28.779087
66.470 29.235641
66.475 28.946415
66.480 28.907341
66.485 29.596397
66.490 29.351048
66.495 29.380156
66.500 28.28664
66.505 27.763571
66.510 27.522146
66.515 26.176949
66.520 25.325586
66.525 25.096483
66.530 24.789366
66.535 25.218891
66.540 24.924137
66.545 24.785044
66.550 25.272844
66.555 24.415758
66.560 24.672564
66.565 24.89887
66.570 25.275564
66.575 25.604628
66.580 25.047125
66.585 24.64493
66.590 24.894337
66.595 25.568325
66.600 25.644815
66.605 25.718792
66.610 25.509781
66.615 25.836048
66.620 26.063334
66.625 25.805012
66.630 25.212164
66.635 24.806828
66.640 24.596193
66.645 24.591347
66.650 24.50592
66.655 24.497194
66.660 24.461784
66.665 24.257172
66.670 24.183714
66.675 23.702642
66.680 23.837456
66.685 23.595119
66.690 23.603947
66.695 24.12377
66.700 24.346895
66.705 24.588818
66.710 24.932184
66.715 24.745173
66.720 25.003296
66.725 24.769327
66.730 24.681141
66.735 24.778975
66.740 24.73855
66.745 24.600483
66.750 24.911434
66.755 25.684629
66.760 26.503012
66.765 26.553789
66.770 26.298529
66.775 25.604265
66.780 25.145283
66.785 25.054939
66.790 23.891693
66.795 23.67878
66.800 22.926437
66.805 22.401047
66.810 22.294659
66.815 22.432674
66.820 22.121367
66.825 22.776598
66.830 22.48921
66.835 22.779278
66.840 22.793928
66.845 23.057058
66.850 23.172266
66.855 23.556396
66.860 23.03297
66.865 22.936129
66.870 23.178093
66.875 23.14893
66.880 23.38817
66.885 23.107487
66.890 23.138178
66.895 23.325546
66.900 22.760571
66.905 22.448931
66.910 22.628393
66.915 22.567396
66.920 22.615675
66.925 21.850964
66.930 21.77701
66.935 22.888662
66.940 22.835308
66.945 23.003014
66.950 23.164104
66.955 23.153261
66.960 23.42535
66.965 23.34643
66.970 22.965641
66.975 23.186855
66.980 22.886288
66.985 22.161489
66.990 21.680563
66.995 21.830338
67.000 22.381853
67.005 22.728237
67.010 22.635132
67.015 22.562578
67.020 22.893501
67.025 23.099405
67.030 22.886232
67.035 22.31229
67.040 21.887247
67.045 23.100119
67.050 23.296555
67.055 23.414804
67.060 23.44677
67.065 23.466448
67.070 23.086996
67.075 22.485535
67.080 21.665171
67.085 21.910091
67.090 21.781355
67.095 21.967844
67.100 22.041685
67.105 21.935593
67.110 21.880144
67.115 21.576361
67.120 21.645691
67.125 22.056017
67.130 22.589138
67.135 22.656654
67.140 23.133987
67.145 23.869566
67.150 23.953096
67.155 24.466431
67.160 23.968019
67.165 23.742527
67.170 23.333488
67.175 22.693937
67.180 22.700205
67.185 22.171013
67.190 21.674141
67.195 21.755604
67.200 21.563793
67.205 21.952209
67.210 21.887838
67.215 21.866451
67.220 22.110748
67.225 21.89299
67.230 22.243351
67.235 22.804077
67.240 22.966202
67.245 22.951788
67.250 22.913279
67.255 22.796446
67.260 23.139742
67.265 22.431295
67.270 22.007128
67.275 21.543665
67.280 21.306196
67.285 20.801008
67.290 20.809143
67.295 20.446939
67.300 20.361387
67.305 20.151289
67.310 20.067846
67.315 20.465334
67.320 21.035324
67.325 21.15803
67.330 21.099936
67.335 21.445728
67.340 21.255201
67.345 21.307978
67.350 21.393524
67.355 21.291035
67.360 20.867657
67.365 20.250978
67.370 19.303658
67.375 19.431019
67.380 19.685131
67.385 19.485996
67.390 19.676046
67.395 19.805454
67.400 19.903761
67.405 20.394764
67.410 20.11035
67.415 20.338161
67.420 20.948425
67.425 20.402374
67.430 21.139664
67.435 22.088018
67.440 22.1968
67.445 22.516191
67.450 22.170507
67.455 21.58943
67.460 21.846737
67.465 21.011038
67.470 20.356571
67.475 20.717836
67.480 20.958118
67.485 21.337019
67.490 21.912607
67.495 22.462267
67.500 23.56123
67.505 24.057377
67.510 24.363901
67.515 23.852943
67.520 23.67046
67.525 23.325983
67.530 22.607273
67.535 22.175943
67.540 22.017351
67.545 21.58832
67.550 21.216791
67.555 21.103743
67.560 20.995813
67.565 21.096863
67.570 20.349411
67.575 20.255161
67.580 20.83161
67.585 21.613415
67.590 21.868105
67.595 22.177202
67.600 22.316978
67.605 22.265802
67.610 22.339699
67.615 21.704134
67.620 21.069746
67.625 21.484188
67.630 21.403542
67.635 21.760855
67.640 21.753061
67.645 21.819109
67.650 22.352432
67.655 22.526346
67.660 22.082256
67.665 21.932159
67.670 21.989792
67.675 22.290092
67.680 21.828184
67.685 22.026278
67.690 22.025356
67.695 21.448034
67.700 20.891008
67.705 20.446074
67.710 20.164021
67.715 20.205242
67.720 19.847132
67.725 19.323822
67.730 19.743816
67.735 20.037832
67.740 20.418091
67.745 20.283733
67.750 20.425331
67.755 20.417097
67.760 20.724186
67.765 21.207483
67.770 21.340654
67.775 21.56579
67.780 21.54134
67.785 21.697124
67.790 22.065075
67.795 21.587633
67.800 20.887684
67.805 21.356373
67.810 21.751978
67.815 21.725027
67.820 21.412712
67.825 21.883823
67.830 21.987354
67.835 22.39765
67.840 21.506321
67.845 20.815643
67.850 20.968636
67.855 20.747286
67.860 19.878422
67.865 19.763474
67.870 19.935541
67.875 19.265268
67.880 19.460449
67.885 19.500214
67.890 19.575928
67.895 19.947813
67.900 20.349459
67.905 20.239483
67.910 21.090393
67.915 20.768593
67.920 20.743624
67.925 20.462221
67.930 20.442356
67.935 20.459774
67.940 20.391943
67.945 20.149218
67.950 20.198784
67.955 20.451191
67.960 20.461979
67.965 20.232475
67.970 20.295036
67.975 20.531157
67.980 20.875439
67.985 20.805651
67.990 20.923182
67.995 20.847921
68.000 20.70797
68.005 20.453272
68.010 20.004429
68.015 20.21394
68.020 20.221003
68.025 20.491055
68.030 21.129833
68.035 21.467432
68.040 21.823744
68.045 22.725039
68.050 22.79402
68.055 23.258121
68.060 22.826128
68.065 22.291035
68.070 21.890633
68.075 21.889685
68.080 21.20937
68.085 20.946215
68.090 20.546865
68.095 20.709719
68.100 20.861843
68.105 20.794214
68.110 20.635927
68.115 20.428274
68.120 20.41127
68.125 20.09573
68.130 20.04575
68.135 19.688707
68.140 19.532627
68.145 19.37117
68.150 19.610735
68.155 19.533234
68.160 19.659481
68.165 19.6998
68.170 20.129183
68.175 20.870655
68.180 20.917671
68.185 20.917582
68.190 21.103168
68.195 20.93832
68.200 20.909138
68.205 21.233608
68.210 20.820358
68.215 20.791832
68.220 20.450735
68.225 20.214499
68.230 20.3724
68.235 20.268471
68.240 20.37557
68.245 20.866556
68.250 20.851307
68.255 21.20867
68.260 21.722588
68.265 22.281004
68.270 22.166962
68.275 21.780724
68.280 21.138548
68.285 21.248674
68.290 20.906412
68.295 20.765364
68.300 20.818153
68.305 21.023155
68.310 20.903536
68.315 20.991537
68.320 21.000072
68.325 21.068882
68.330 20.754896
68.335 20.829082
68.340 20.810959
68.345 20.764315
68.350 21.026817
68.355 21.699514
68.360 21.680649
68.365 21.47744
68.370 21.087078
68.375 20.728287
68.380 20.082577
68.385 19.511889
68.390 18.868109
68.395 18.532911
68.400 18.218075
68.405 18.207672
68.410 18.556307
68.415 19.178024
68.420 18.877291
68.425 18.907507
68.430 19.293488
68.435 19.526009
68.440 19.303162
68.445 19.387789
68.450 19.483797
68.455 19.334261
68.460 19.683531
68.465 19.998064
68.470 20.460136
68.475 21.040953
68.480 20.825157
68.485 22.021875
68.490 23.246969
68.495 23.566139
68.500 23.353415
68.505 23.24596
68.510 23.06134
68.515 22.905458
68.520 22.269928
68.525 21.74243
68.530 21.168879
68.535 21.578117
68.540 21.583839
68.545 21.748129
68.550 22.236256
68.555 22.677103
68.560 23.047926
68.565 23.256845
68.570 22.403971
68.575 21.848759
68.580 22.165104
68.585 21.729445
68.590 21.783995
68.595 21.195929
68.600 21.168425
68.605 21.770094
68.610 22.305159
68.615 22.05266
68.620 21.798496
68.625 21.54557
68.630 21.608284
68.635 21.872295
68.640 21.684496
68.645 21.573034
68.650 21.286346
68.655 21.863949
68.660 22.191351
68.665 22.2192
68.670 21.795033
68.675 21.977629
68.680 22.103798
68.685 21.832642
68.690 20.900736
68.695 21.174816
68.700 21.542086
68.705 21.668921
68.710 21.628263
68.715 21.241127
68.720 21.663414
68.725 22.256247
68.730 22.165373
68.735 22.092356
68.740 22.190224
68.745 21.943205
68.750 22.353613
68.755 22.9153
68.760 22.801126
68.765 22.76222
68.770 22.72654
68.775 22.824614
68.780 22.796003
68.785 22.480587
68.790 22.250013
68.795 22.480169
68.800 22.304188
68.805 22.302706
68.810 22.012497
68.815 22.112373
68.820 21.966654
68.825 21.997387
68.830 22.079205
68.835 21.632681
68.840 22.125372
68.845 22.795694
68.850 23.249468
68.855 23.740919
68.860 23.41135
68.865 23.418772
68.870 23.591511
68.875 22.265022
68.880 21.684292
68.885 21.591129
68.890 21.972534
68.895 21.961727
68.900 22.076891
68.905 22.586542
68.910 23.448723
68.915 23.974609
68.920 23.677145
68.925 23.449247
68.930 23.819681
68.935 23.987541
68.940 23.888496
68.945 23.657434
68.950 23.114433
68.955 23.06262
68.960 22.081404
68.965 21.892618
68.970 21.355125
68.975 21.019808
68.980 21.171852
68.985 21.040695
68.990 21.550184
68.995 21.948027
69.000 22.098783
69.005 22.477247
69.010 22.98772
69.015 23.359165
69.020 23.894012
69.025 23.693705
69.030 23.218107
69.035 23.379539
69.040 23.539404
69.045 23.75334
69.050 23.852898
69.055 23.87195
69.060 24.359896
69.065 24.732168
69.070 24.328362
69.075 25.03363
69.080 25.270542
69.085 25.408821
69.090 25.370926
69.095 25.469589
69.100 26.143364
69.105 26.529799
69.110 25.7917
69.115 24.966141
69.120 24.646461
69.125 24.519842
69.130 24.204229
69.135 23.734533
69.140 23.311373
69.145 23.466215
69.150 24.639944
69.155 25.10503
69.160 25.440166
69.165 25.285789
69.170 25.129511
69.175 25.315895
69.180 25.331888
69.185 24.72678
69.190 24.413332
69.195 23.723921
69.200 23.795433
69.205 24.13693
69.210 24.236523
69.215 24.174255
69.220 24.090675
69.225 24.113556
69.230 24.298887
69.235 24.038807
69.240 24.012686
69.245 24.707335
69.250 25.340622
69.255 25.414513
69.260 26.222837
69.265 26.647902
69.270 27.024141
69.275 26.892899
69.280 26.347622
69.285 26.087379
69.290 25.555038
69.295 24.5201
69.300 24.705381
69.305 25.18318
69.310 25.459997
69.315 25.017548
69.320 25.055344
69.325 26.076172
69.330 26.948635
69.335 26.941063
69.340 26.958055
69.345 27.654499
69.350 28.585659
69.355 28.994541
69.360 29.2103
69.365 29.360029
69.370 29.046432
69.375 28.352861
69.380 27.558556
69.385 27.890909
69.390 28.052572
69.395 27.468658
69.400 27.221258
69.405 27.307028
69.410 28.468121
69.415 28.893927
69.420 28.247768
69.425 28.332865
69.430 29.398899
69.435 30.043089
69.440 30.29262
69.445 30.049673
69.450 29.952234
69.455 29.782679
69.460 29.258106
69.465 28.051094
69.470 27.81509
69.475 27.760437
69.480 27.480038
69.485 27.472151
69.490 27.193892
69.495 27.280392
69.500 27.533461
69.505 27.641157
69.510 27.904814
69.515 28.331709
69.520 28.283518
69.525 27.856016
69.530 27.592587
69.535 27.262615
69.540 26.701134
69.545 26.251192
69.550 25.655794
69.555 26.108858
69.560 27.444613
69.565 27.844383
69.570 28.797966
69.575 28.755836
69.580 28.477762
69.585 29.210587
69.590 28.837524
69.595 28.387127
69.600 28.180676
69.605 28.065382
69.610 28.247646
69.615 28.1633
69.620 28.45281
69.625 28.345543
69.630 27.65181
69.635 27.854689
69.640 27.561029
69.645 27.805286
69.650 27.874083
69.655 27.456573
69.660 28.316551
69.665 29.045467
69.670 28.750586
69.675 29.446939
69.680 28.875412
69.685 29.071226
69.690 28.872669
69.695 28.340248
69.700 28.240807
69.705 27.956663
69.710 27.325281
69.715 27.092093
69.720 26.673149
69.725 25.693253
69.730 25.601412
69.735 25.505877
69.740 25.28047
69.745 25.674711
69.750 25.60284
69.755 25.487625
69.760 25.972357
69.765 25.979988
69.770 25.929424
69.775 25.463037
69.780 24.751217
69.785 24.687988
69.790 24.082947
69.795 23.586006
69.800 23.59174
69.805 22.661482
69.810 23.179888
69.815 23.895533
69.820 24.12993
69.825 24.709539
69.830 24.613167
69.835 24.554075
69.840 25.137838
69.845 25.258371
69.850 25.332809
69.855 25.337345
69.860 25.193546
69.865 24.537359
69.870 24.234711
69.875 23.859018
69.880 23.411917
69.885 22.757956
69.890 22.720034
69.895 23.317717
69.900 23.369144
69.905 23.470224
69.910 23.51572
69.915 23.487925
69.920 23.81469
69.925 23.128851
69.930 22.749355
69.935 22.718603
69.940 22.550737
69.945 22.506477
69.950 22.175705
69.955 21.44721
69.960 21.493607
69.965 21.097456
69.970 21.270298
69.975 20.869404
69.980 20.781687
69.985 21.558767
69.990 21.737135
69.995 21.880659
70.000 22.114294
70.005 21.711914
70.010 21.639711
70.015 21.728542
70.020 21.236359
70.025 21.571829
70.030 21.451569
70.035 21.147856
70.040 21.179342
70.045 21.454332
70.050 20.701904
70.055 20.461918
70.060 20.252712
70.065 19.695164
70.070 20.037283
70.075 20.306271
70.080 20.159098
70.085 20.276005
70.090 20.46125
70.095 20.496986
70.100 21.028679
70.105 20.572954
70.110 20.413885
70.115 20.545309
70.120 20.787855
70.125 20.679136
70.130 20.576107
70.135 20.198734
70.140 20.271025
70.145 20.3899
70.150 20.74703
70.155 20.813314
70.160 21.325459
70.165 21.062181
70.170 20.998646
70.175 20.872393
70.180 20.401339
70.185 20.704067
70.190 20.146786
70.195 19.876993
70.200 19.928581
70.205 20.150829
70.210 20.291868
70.215 20.539791
70.220 20.092064
70.225 20.026958
70.230 19.916544
70.235 20.42967
70.240 20.090952
70.245 19.876541
70.250 20.05644
70.255 20.464251
70.260 21.043192
70.265 21.403091
70.270 21.471762
70.275 21.786787
70.280 21.304523
70.285 21.203888
70.290 20.631203
70.295 20.353754
70.300 19.716059
70.305 18.648251
70.310 18.878857
70.315 19.273684
70.320 18.952936
70.325 19.151146
70.330 18.639038
70.335 18.634094
70.340 19.478127
70.345 19.194557
70.350 18.929077
70.355 19.189709
70.360 19.423174
70.365 20.256071
70.370 20.613832
70.375 19.645594
70.380 19.136292
70.385 19.093258
70.390 19.071949
70.395 19.150541
70.400 18.67659
70.405 18.573208
70.410 18.974806
70.415 19.215668
70.420 19.122253
70.425 18.853441
70.430 18.889612
70.435 19.287458
70.440 19.815859
70.445 19.972988
70.450 20.346083
70.455 20.689569
70.460 20.483408
70.465 20.375153
70.470 20.579334
70.475 20.91634
70.480 21.432528
70.485 21.56761
70.490 20.805517
70.495 20.694324
70.500 20.792068
70.505 20.524057
70.510 19.908634
70.515 19.327681
70.520 19.600922
70.525 20.294992
70.530 20.653599
70.535 20.449121
70.540 20.206261
70.545 19.775803
70.550 19.619221
70.555 19.503105
70.560 19.335575
70.565 19.488207
70.570 19.936422
70.575 20.55184
70.580 21.372118
70.585 20.914228
70.590 20.607946
70.595 20.419399
70.600 19.801416
70.605 19.163284
70.610 18.748707
70.615 18.933468
70.620 18.920914
70.625 19.225189
70.630 19.285479
70.635 19.16864
70.640 19.188152
70.645 18.96418
70.650 18.830482
70.655 19.143488
70.660 19.002434
70.665 19.271791
70.670 19.960257
70.675 20.043612
70.680 19.798647
70.685 19.723156
70.690 20.511784
70.695 20.078335
70.700 19.570343
70.705 19.602854
70.710 20.088638
70.715 20.456402
70.720 19.873405
70.725 18.841476
70.730 19.368668
70.735 19.378372
70.740 19.090651
70.745 18.716934
70.750 18.720104
70.755 18.917364
70.760 18.715551
70.765 18.540806
70.770 19.047731
70.775 18.862553
70.780 19.215609
70.785 18.947626
70.790 19.288515
70.795 19.473351
70.800 19.120312
70.805 18.49431
70.810 18.257246
70.815 18.29347
70.820 18.997631
70.825 19.128496
70.830 19.626656
70.835 19.989151
70.840 19.950724
70.845 20.288448
70.850 20.215141
70.855 19.319393
70.860 19.350782
70.865 19.797413
70.870 19.617294
70.875 19.995712
70.880 19.811085
70.885 19.773954
70.890 20.47241
70.895 19.699617
70.900 19.027206
70.905 19.128323
70.910 19.12431
70.915 18.843344
70.920 17.83428
70.925 17.339798
70.930 17.357971
70.935 16.925629
70.940 16.583639
70.945 16.142532
70.950 16.176777
70.955 16.464066
70.960 16.032736
70.965 16.199532
70.970 16.771532
70.975 17.390776
70.980 17.617998
70.985 18.381241
70.990 19.02384
70.995 19.830057
71.000 20.081961
71.005 20.250757
71.010 19.998768
71.015 19.958298
71.020 19.635265
71.025 19.460028
71.030 19.190079
71.035 18.638784
71.040 18.442265
71.045 18.076883
71.050 18.15399
71.055 18.332767
71.060 19.097837
71.065 19.500916
71.070 19.706091
71.075 20.035679
71.080 20.048992
71.085 19.901674
71.090 19.669529
71.095 19.278399
71.100 19.267288
71.105 18.993095
71.110 18.987616
71.115 18.771059
71.120 18.701952
71.125 18.103479
71.130 17.817482
71.135 17.338551
71.140 17.712944
71.145 17.839056
71.150 18.047152
71.155 18.543184
71.160 19.336924
71.165 19.55554
71.170 19.828333
71.175 19.400187
71.180 18.968948
71.185 18.991179
71.190 18.943493
71.195 18.302048
71.200 17.989294
71.205 18.437231
71.210 19.110271
71.215 19.631073
71.220 19.533968
71.225 19.050243
71.230 19.022375
71.235 19.371006
71.240 18.628174
71.245 18.342926
71.250 18.185425
71.255 18.588043
71.260 19.059895
71.265 19.954929
71.270 19.929346
71.275 19.689871
71.280 19.728443
71.285 19.994419
71.290 19.833229
71.295 19.384073
71.300 18.814779
71.305 19.019224
71.310 19.360153
71.315 19.346138
71.320 18.861835
71.325 18.876354
71.330 18.821009
71.335 18.688274
71.340 18.524708
71.345 18.95048
71.350 19.163836
71.355 19.399895
71.360 19.511879
71.365 19.514582
71.370 19.337982
71.375 19.051483
71.380 18.638666
71.385 18.602528
71.390 18.294315
71.395 18.478838
71.400 19.283133
71.405 19.825684
71.410 20.524689
71.415 20.71377
71.420 20.801332
71.425 20.758669
71.430 20.3584
71.435 19.915306
71.440 19.513733
71.445 19.06583
71.450 19.235029
71.455 19.064472
71.460 19.752645
71.465 19.905323
71.470 20.048763
71.475 19.811024
71.480 19.479427
71.485 19.290159
71.490 19.2048
71.495 18.718563
71.500 18.500685
71.505 18.293026
71.510 18.977129
71.515 19.551142
71.520 19.98918
71.525 19.767666
71.530 19.876829
71.535 19.895306
71.540 19.800453
71.545 19.417755
71.550 18.536957
71.555 18.505684
71.560 18.608732
71.565 18.034294
71.570 17.901031
71.575 17.534136
71.580 17.672775
71.585 18.086308
71.590 17.804201
71.595 18.107403
71.600 18.305573
71.605 17.676477
71.610 17.695744
71.615 17.681261
71.620 17.861443
71.625 17.878963
71.630 18.027365
71.635 18.654861
71.640 19.275782
71.645 19.576761
71.650 19.761314
71.655 19.626806
71.660 19.53392
71.665 19.418934
71.670 18.843307
71.675 18.948082
71.680 18.311914
71.685 18.315887
71.690 18.456459
71.695 18.643059
71.700 18.375889
71.705 18.529011
71.710 18.836065
71.715 18.942862
71.720 18.814611
71.725 18.29108
71.730 17.811089
71.735 17.967808
71.740 18.288017
71.745 17.96912
71.750 17.524374
71.755 17.517952
71.760 17.924015
71.765 17.887999
71.770 17.509096
71.775 16.859463
71.780 17.380098
71.785 17.437525
71.790 17.352421
71.795 17.58386
71.800 18.203802
71.805 18.457569
71.810 18.630304
71.815 18.341644
71.820 18.5137
71.825 18.226965
71.830 17.920382
71.835 17.870193
71.840 18.685471
71.845 18.928535
71.850 19.030846
71.855 18.6028
71.860 18.704409
71.865 19.260246
71.870 18.474806
71.875 18.245584
71.880 18.014353
71.885 18.575975
71.890 19.141697
71.895 18.975243
71.900 18.825274
71.905 18.667656
71.910 18.729437
71.915 18.111326
71.920 17.271124
71.925 16.928398
71.930 16.711641
71.935 16.895565
71.940 17.205275
71.945 17.762856
71.950 18.229429
71.955 18.338249
71.960 18.508307
71.965 18.628315
71.970 18.815903
71.975 18.786806
71.980 18.543983
71.985 18.682137
71.990 18.632973
71.995 18.452541
72.000 18.0903
72.005 17.636812
72.010 17.38241
72.015 17.135708
72.020 16.987635
72.025 17.346882
72.030 17.832529
72.035 18.013792
72.040 18.078165
72.045 17.832388
72.050 17.080935
72.055 16.875126
72.060 17.000837
72.065 16.445721
72.070 16.552771
72.075 16.552879
72.080 17.150093
72.085 18.182949
72.090 18.463343
72.095 18.404863
72.100 18.791016
72.105 18.772463
72.110 18.98613
72.115 18.527884
72.120 17.936644
72.125 18.318304
72.130 18.617657
72.135 18.868425
72.140 18.779892
72.145 18.787786
72.150 19.523663
72.155 19.144419
72.160 18.549356
72.165 18.725679
72.170 19.028084
72.175 19.720831
72.180 19.670912
72.185 19.48823
72.190 20.006575
72.195 20.351664
72.200 20.349754
72.205 20.094765
72.210 19.782177
72.215 19.122379
72.220 19.299158
72.225 19.290089
72.230 19.099155
72.235 18.848419
72.240 19.000126
72.245 19.148407
72.250 19.482157
72.255 19.140146
72.260 18.846643
72.265 18.287283
72.270 18.088972
72.275 18.183697
72.280 18.548592
72.285 18.790047
72.290 18.473488
72.295 18.684328
72.300 18.730412
72.305 18.764542
72.310 18.576345
72.315 17.817663
72.320 17.94319
72.325 18.313648
72.330 18.165112
72.335 18.133472
72.340 17.99996
72.345 18.155195
72.350 19.007038
72.355 19.102026
72.360 18.928932
72.365 18.884661
72.370 18.623566
72.375 18.535925
72.380 18.476
72.385 18.359198
72.390 18.21875
72.395 19.16268
72.400 19.577017
72.405 19.804401
72.410 20.082226
72.415 19.910055
72.420 18.930902
72.425 18.563126
72.430 18.362646
72.435 18.357676
72.440 18.001947
72.445 17.788769
72.450 18.380156
72.455 19.02754
72.460 18.950012
72.465 18.786283
72.470 18.554304
72.475 18.943773
72.480 18.976292
72.485 18.787601
72.490 18.980415
72.495 18.733021
72.500 18.625883
72.505 18.86536
72.510 18.777784
72.515 18.467556
72.520 18.307301
72.525 17.683428
72.530 18.203085
72.535 18.445032
72.540 18.082123
72.545 18.023998
72.550 18.343832
72.555 18.614971
72.560 19.103607
72.565 18.937647
72.570 18.471603
72.575 18.637602
72.580 18.912069
72.585 19.281153
72.590 19.140003
72.595 18.626146
72.600 19.235569
72.605 19.695356
72.610 19.447411
72.615 18.589104
72.620 17.990808
72.625 18.24674
72.630 17.607899
72.635 16.758986
72.640 16.567902
72.645 16.528923
72.650 16.609785
72.655 16.722881
72.660 16.787413
72.665 17.399141
72.670 18.200825
72.675 18.349937
72.680 18.366194
72.685 18.167488
72.690 18.018377
72.695 17.95602
72.700 17.724604
72.705 17.014606
72.710 16.855927
72.715 17.327204
72.720 17.330252
72.725 17.019022
72.730 16.942595
72.735 17.127012
72.740 17.556124
72.745 17.608538
72.750 17.031607
72.755 17.617186
72.760 17.992092
72.765 18.000458
72.770 17.942446
72.775 17.804083
72.780 18.249647
72.785 18.490108
72.790 18.472149
72.795 17.887407
72.800 17.868044
72.805 17.535612
72.810 17.415911
72.815 17.264235
72.820 17.461254
72.825 17.397419
72.830 17.520628
72.835 17.587139
72.840 17.66433
72.845 18.109982
72.850 17.848341
72.855 17.389559
72.860 17.296768
72.865 16.892511
72.870 17.135988
72.875 16.866169
72.880 16.399939
72.885 16.767551
72.890 16.64768
72.895 16.338682
72.900 16.516031
72.905 15.863775
72.910 16.049387
72.915 15.745243
72.920 15.292965
72.925 15.897853
72.930 16.579353
72.935 16.470097
72.940 16.685869
72.945 17.118221
72.950 17.838005
72.955 17.912157
72.960 18.10763
72.965 17.917913
72.970 17.993513
72.975 17.794399
72.980 17.481428
72.985 17.551529
72.990 17.854788
72.995 17.544641
73.000 17.395006
