!@!!GADDS PLOTSO FILE: Chi integration type
!@!!Title/SampleName: map-133
!@!!Comment: ?
!@!!User: Bruker Instrument Administrator
!@!!Site: University of Illinois Chicago
!@!!Frame: map-133_01_000.gfrm
!@!!Wavelengths    1.54184   1.54056   1.54439
!@!!Frame angles: 2Theta: 63.000 Omega: 50.000 Phi: 0.000 Chi: 90.000
!@!!Integration range: 2Theta: 53.000 to 73.000  Gamma: -105.000 to -75.000
!@!!Integration method: bin normalized
!@!N
!@!SS
!@!M
!@!L 0.0 0.0 0.0 0.0
!@!XDegrees
!@!YCounts
53.000 3.263737
53.005 3.439581
53.010 3.863992
53.015 3.668098
53.020 3.636548
53.025 3.743328
53.030 4.000266
53.035 3.910661
53.040 3.582937
53.045 3.549262
53.050 3.770525
53.055 3.765322
53.060 3.707008
53.065 3.505996
53.070 3.82161
53.075 3.973877
53.080 3.748585
53.085 3.798063
53.090 3.865005
53.095 3.907173
53.100 3.850192
53.105 3.615272
53.110 3.722517
53.115 4.208619
53.120 4.232746
53.125 4.351152
53.130 4.469168
53.135 4.613553
53.140 4.619219
53.145 4.633894
53.150 4.169524
53.155 4.026377
53.160 3.989856
53.165 3.937579
53.170 3.885189
53.175 4.061541
53.180 4.032892
53.185 4.232005
53.190 4.53533
53.195 4.368198
53.200 4.286697
53.205 4.432149
53.210 4.358078
53.215 4.31693
53.220 4.257533
53.225 3.91681
53.230 4.21657
53.235 4.192531
53.240 3.844032
53.245 3.83364
53.250 4.008049
53.255 4.025169
53.260 4.043421
53.265 3.772552
53.270 3.766788
53.275 3.823879
53.280 3.802966
53.285 3.631973
53.290 3.783526
53.295 4.146358
53.300 4.44855
53.305 4.697576
53.310 4.878662
53.315 5.005051
53.320 4.865328
53.325 4.430647
53.330 3.965619
53.335 3.75897
53.340 3.760601
53.345 3.569928
53.350 3.512546
53.355 3.749055
53.360 3.886699
53.365 4.111777
53.370 4.03991
53.375 3.809239
53.380 3.999113
53.385 4.069579
53.390 3.953208
53.395 3.962039
53.400 4.038239
53.405 4.183706
53.410 4.276895
53.415 3.986246
53.420 4.195389
53.425 4.397532
53.430 4.790298
53.435 4.941457
53.440 4.935495
53.445 5.194211
53.450 5.030948
53.455 4.737878
53.460 4.576021
53.465 4.249665
53.470 4.403746
53.475 4.431233
53.480 4.546239
53.485 4.585506
53.490 5.047504
53.495 5.054413
53.500 5.240406
53.505 5.238762
53.510 5.214792
53.515 5.249845
53.520 5.346644
53.525 5.124475
53.530 5.284163
53.535 5.101066
53.540 5.135999
53.545 5.064952
53.550 5.144031
53.555 5.112407
53.560 5.432746
53.565 5.291722
53.570 5.189739
53.575 4.728372
53.580 4.610189
53.585 4.609605
53.590 4.31114
53.595 4.048214
53.600 4.195109
53.605 4.171143
53.610 4.507401
53.615 4.460742
53.620 4.443207
53.625 4.470379
53.630 4.419727
53.635 4.420369
53.640 4.29045
53.645 4.444955
53.650 4.6039
53.655 4.53904
53.660 4.346955
53.665 4.524958
53.670 4.596375
53.675 4.984908
53.680 4.628994
53.685 4.496558
53.690 4.731439
53.695 4.964764
53.700 4.970874
53.705 4.794696
53.710 4.429591
53.715 4.449489
53.720 4.508602
53.725 4.309845
53.730 4.201845
53.735 3.82448
53.740 3.907866
53.745 4.076346
53.750 4.048531
53.755 4.383269
53.760 4.83609
53.765 5.034329
53.770 5.04424
53.775 5.185023
53.780 5.156919
53.785 5.291835
53.790 4.647075
53.795 3.973395
53.800 3.694165
53.805 3.66669
53.810 3.393524
53.815 3.33358
53.820 3.077319
53.825 2.959828
53.830 3.465117
53.835 3.832636
53.840 4.117647
53.845 4.318031
53.850 4.390978
53.855 4.76014
53.860 5.082328
53.865 4.814373
53.870 4.491682
53.875 4.421185
53.880 4.398276
53.885 4.317266
53.890 4.100831
53.895 4.123287
53.900 4.264348
53.905 4.613217
53.910 4.649392
53.915 4.84313
53.920 4.917464
53.925 5.068091
53.930 4.805616
53.935 4.458621
53.940 4.181653
53.945 4.204179
53.950 4.068646
53.955 3.946264
53.960 3.832223
53.965 4.103191
53.970 4.552021
53.975 4.70545
53.980 4.650739
53.985 4.934973
53.990 5.131357
53.995 5.179387
54.000 5.091654
54.005 5.00136
54.010 5.144721
54.015 5.250968
54.020 5.429105
54.025 5.314859
54.030 5.475126
54.035 5.267589
54.040 5.365829
54.045 5.384265
54.050 4.903378
54.055 4.718338
54.060 4.753111
54.065 4.851705
54.070 5.404466
54.075 5.297657
54.080 5.383253
54.085 5.531135
54.090 5.898497
54.095 5.899763
54.100 5.929765
54.105 5.66192
54.110 5.423948
54.115 5.021918
54.120 4.702633
54.125 4.505405
54.130 4.293489
54.135 4.042185
54.140 3.703255
54.145 3.87845
54.150 4.286246
54.155 4.414906
54.160 4.476348
54.165 4.690058
54.170 4.818914
54.175 5.191674
54.180 5.347749
54.185 5.414325
54.190 5.461839
54.195 5.547396
54.200 5.444771
54.205 5.366517
54.210 5.088241
54.215 5.070934
54.220 4.871413
54.225 4.473161
54.230 4.302132
54.235 4.411071
54.240 4.420432
54.245 4.146512
54.250 3.932754
54.255 4.261024
54.260 4.550557
54.265 4.196639
54.270 4.334277
54.275 4.722799
54.280 5.024054
54.285 4.910482
54.290 4.755414
54.295 4.859153
54.300 5.048703
54.305 4.776062
54.310 4.796981
54.315 4.720614
54.320 5.024164
54.325 5.248382
54.330 5.199239
54.335 5.461101
54.340 5.27897
54.345 5.016996
54.350 5.106875
54.355 5.068293
54.360 5.126174
54.365 5.417153
54.370 5.221707
54.375 5.304823
54.380 5.667078
54.385 5.513695
54.390 5.210573
54.395 4.892936
54.400 4.68966
54.405 4.944749
54.410 4.64886
54.415 4.210636
54.420 4.598405
54.425 4.743385
54.430 4.934534
54.435 4.989835
54.440 4.981498
54.445 4.909709
54.450 4.796352
54.455 4.558598
54.460 4.46789
54.465 4.343852
54.470 4.604537
54.475 4.705911
54.480 4.989071
54.485 5.380192
54.490 5.365539
54.495 5.499895
54.500 5.383685
54.505 4.690219
54.510 4.773718
54.515 4.924985
54.520 4.824361
54.525 4.965149
54.530 4.757365
54.535 5.093477
54.540 5.605999
54.545 5.508069
54.550 5.41954
54.555 5.37064
54.560 5.353552
54.565 5.50308
54.570 5.289421
54.575 5.043604
54.580 5.126354
54.585 4.831797
54.590 4.775256
54.595 4.651787
54.600 4.546379
54.605 4.533716
54.610 4.420663
54.615 4.534731
54.620 4.880018
54.625 5.253768
54.630 5.368736
54.635 5.531665
54.640 5.50033
54.645 5.462634
54.650 4.956841
54.655 4.849422
54.660 4.77553
54.665 5.064124
54.670 4.994411
54.675 4.836778
54.680 4.993423
54.685 5.148989
54.690 5.152208
54.695 4.788328
54.700 4.602771
54.705 4.819158
54.710 5.31968
54.715 5.297139
54.720 5.346536
54.725 5.251689
54.730 5.504767
54.735 5.516228
54.740 5.571139
54.745 5.07835
54.750 5.18874
54.755 5.135849
54.760 5.0881
54.765 4.853025
54.770 4.62444
54.775 4.556856
54.780 4.603572
54.785 4.664343
54.790 4.965795
54.795 5.316765
54.800 5.573313
54.805 5.862118
54.810 5.951772
54.815 6.143524
54.820 5.924026
54.825 5.868342
54.830 5.66713
54.835 5.361821
54.840 5.090352
54.845 5.231252
54.850 5.153118
54.855 5.314305
54.860 5.356962
54.865 5.2465
54.870 5.303275
54.875 5.199898
54.880 4.847916
54.885 4.85509
54.890 4.653106
54.895 4.534572
54.900 4.629232
54.905 4.825493
54.910 5.138157
54.915 5.662023
54.920 5.568697
54.925 5.582233
54.930 5.363328
54.935 5.260459
54.940 5.296562
54.945 5.224669
54.950 4.967319
54.955 5.009366
54.960 5.151176
54.965 5.491735
54.970 5.828182
54.975 5.828979
54.980 5.724782
54.985 5.467103
54.990 5.833517
54.995 5.99137
55.000 6.038881
55.005 5.623283
55.010 5.503403
55.015 5.838879
55.020 6.098478
55.025 6.048585
55.030 5.961955
55.035 5.940153
55.040 5.840228
55.045 5.717477
55.050 5.670438
55.055 5.275545
55.060 5.12045
55.065 5.067526
55.070 5.212809
55.075 5.411417
55.080 5.695309
55.085 5.948768
55.090 6.037397
55.095 6.290223
55.100 6.276311
55.105 6.361452
55.110 6.376646
55.115 6.050249
55.120 6.124461
55.125 6.349047
55.130 6.040341
55.135 5.908447
55.140 6.045901
55.145 6.034171
55.150 6.290599
55.155 6.370365
55.160 6.221506
55.165 6.371255
55.170 6.322538
55.175 6.511065
55.180 6.586598
55.185 6.556701
55.190 6.783793
55.195 6.768045
55.200 6.470083
55.205 6.304632
55.210 6.312932
55.215 6.444829
55.220 5.888476
55.225 5.594567
55.230 5.658684
55.235 5.760276
55.240 6.086325
55.245 5.682298
55.250 5.519107
55.255 5.123075
55.260 5.224082
55.265 5.393509
55.270 5.639182
55.275 5.461535
55.280 5.488281
55.285 6.241701
55.290 6.956049
55.295 6.558869
55.300 6.495085
55.305 6.474546
55.310 6.518738
55.315 6.289347
55.320 5.529953
55.325 5.081875
55.330 5.048856
55.335 5.047366
55.340 5.019507
55.345 5.118527
55.350 5.340767
55.355 5.60608
55.360 5.696967
55.365 5.567094
55.370 5.142953
55.375 4.473396
55.380 4.630877
55.385 4.72417
55.390 4.652195
55.395 4.831634
55.400 5.150328
55.405 5.58812
55.410 5.756102
55.415 5.496356
55.420 5.739716
55.425 5.804724
55.430 5.720596
55.435 5.678857
55.440 5.582757
55.445 5.649559
55.450 5.562832
55.455 5.528838
55.460 5.697456
55.465 6.204822
55.470 6.369678
55.475 6.439435
55.480 6.609395
55.485 6.719523
55.490 6.757828
55.495 6.560972
55.500 6.188363
55.505 6.317621
55.510 6.425082
55.515 6.186903
55.520 5.927447
55.525 5.833942
55.530 5.945296
55.535 5.889813
55.540 5.900384
55.545 6.127171
55.550 6.667645
55.555 6.872753
55.560 7.168389
55.565 7.183059
55.570 7.294226
55.575 7.225173
55.580 7.079571
55.585 7.044674
55.590 6.881568
55.595 6.665776
55.600 6.430123
55.605 6.489262
55.610 6.40472
55.615 6.083715
55.620 5.885875
55.625 5.758911
55.630 5.507202
55.635 5.487255
55.640 5.451429
55.645 5.421793
55.650 5.485149
55.655 5.60075
55.660 5.729312
55.665 6.520615
55.670 6.766058
55.675 6.708071
55.680 6.791803
55.685 6.760005
55.690 6.761049
55.695 6.758366
55.700 6.539091
55.705 6.344288
55.710 6.179246
55.715 6.373407
55.720 6.535433
55.725 6.434815
55.730 6.376456
55.735 6.184867
55.740 6.249653
55.745 6.073087
55.750 6.024375
55.755 6.072073
55.760 6.301074
55.765 6.155744
55.770 6.156798
55.775 6.134876
55.780 6.026331
55.785 6.250245
55.790 6.194356
55.795 6.158972
55.800 6.459865
55.805 6.926116
55.810 7.246976
55.815 7.607421
55.820 7.316055
55.825 7.413942
55.830 7.399889
55.835 7.087355
55.840 6.891962
55.845 6.277174
55.850 5.989846
55.855 5.633409
55.860 5.085787
55.865 4.907732
55.870 4.761187
55.875 4.954767
55.880 5.830718
55.885 6.154216
55.890 6.293542
55.895 6.378454
55.900 6.657327
55.905 6.870722
55.910 6.706326
55.915 6.503122
55.920 6.700637
55.925 6.977016
55.930 7.38906
55.935 7.664058
55.940 7.304861
55.945 7.254012
55.950 7.007537
55.955 7.01232
55.960 7.317126
55.965 6.977914
55.970 6.551404
55.975 6.619913
55.980 7.06822
55.985 6.91475
55.990 6.348304
55.995 5.780328
56.000 5.969598
56.005 6.137603
56.010 6.572402
56.015 6.352659
56.020 6.597555
56.025 7.063837
56.030 7.261435
56.035 6.960722
56.040 6.921206
56.045 6.851818
56.050 6.830814
56.055 6.494184
56.060 6.327109
56.065 6.362423
56.070 6.37766
56.075 6.933449
56.080 6.935176
56.085 6.719668
56.090 6.838688
56.095 6.915587
56.100 6.808208
56.105 6.670788
56.110 6.113944
56.115 6.088985
56.120 6.378218
56.125 6.481952
56.130 6.450303
56.135 6.749376
56.140 6.783335
56.145 6.659742
56.150 6.32869
56.155 6.248517
56.160 6.747476
56.165 6.756044
56.170 7.012887
56.175 7.025794
56.180 7.197175
56.185 7.34692
56.190 7.130417
56.195 6.672781
56.200 6.750426
56.205 6.673245
56.210 7.055462
56.215 7.268776
56.220 7.682417
56.225 7.861402
56.230 7.755
56.235 7.783127
56.240 7.857761
56.245 7.687753
56.250 7.523317
56.255 7.480426
56.260 7.667083
56.265 8.07807
56.270 7.959386
56.275 7.99596
56.280 8.029489
56.285 8.264498
56.290 8.307252
56.295 7.965476
56.300 7.351606
56.305 7.486973
56.310 7.310884
56.315 7.000957
56.320 6.887419
56.325 6.8484
56.330 7.167743
56.335 7.56756
56.340 7.456169
56.345 7.621483
56.350 7.562413
56.355 7.475614
56.360 7.542462
56.365 7.665876
56.370 7.590276
56.375 7.557367
56.380 7.15972
56.385 6.880472
56.390 6.426946
56.395 6.089246
56.400 5.682598
56.405 5.705046
56.410 5.68037
56.415 5.696368
56.420 6.021994
56.425 6.128031
56.430 6.215643
56.435 5.949296
56.440 5.372085
56.445 5.237608
56.450 5.485138
56.455 5.503129
56.460 5.636952
56.465 6.165203
56.470 6.664244
56.475 6.920474
56.480 7.195902
56.485 7.423654
56.490 7.678541
56.495 7.881814
56.500 7.578838
56.505 7.48538
56.510 7.615756
56.515 7.414109
56.520 7.296233
56.525 6.900445
56.530 6.946627
56.535 6.946174
56.540 6.927971
56.545 6.848546
56.550 7.009048
56.555 7.143818
56.560 7.335083
56.565 7.119853
56.570 7.266739
56.575 7.759532
56.580 7.897813
56.585 7.770237
56.590 7.601354
56.595 7.350953
56.600 7.474111
56.605 7.343943
56.610 7.205886
56.615 7.310398
56.620 7.066113
56.625 7.099062
56.630 7.442357
56.635 7.563394
56.640 7.160557
56.645 6.851548
56.650 7.186825
56.655 7.551684
56.660 7.851163
56.665 7.921831
56.670 7.949997
56.675 8.235872
56.680 8.167396
56.685 7.907214
56.690 7.747604
56.695 7.540221
56.700 7.006909
56.705 6.909412
56.710 7.193294
56.715 7.207566
56.720 7.481081
56.725 7.763584
56.730 7.736474
56.735 7.711795
56.740 7.514277
56.745 7.296127
56.750 7.197728
56.755 6.93273
56.760 7.071304
56.765 7.437255
56.770 7.437332
56.775 7.523694
56.780 7.675983
56.785 7.866989
56.790 8.073466
56.795 8.15255
56.800 8.327853
56.805 8.940142
56.810 8.716418
56.815 8.237759
56.820 8.236689
56.825 8.31366
56.830 8.314431
56.835 8.224512
56.840 7.796628
56.845 7.795451
56.850 7.774731
56.855 7.590106
56.860 7.205301
56.865 7.125216
56.870 7.018667
56.875 7.351601
56.880 7.585756
56.885 7.868727
56.890 7.775944
56.895 7.737767
56.900 7.795945
56.905 7.767904
56.910 7.750104
56.915 8.160682
56.920 8.275894
56.925 8.390118
56.930 8.074418
56.935 7.775862
56.940 7.475493
56.945 7.668018
56.950 7.480792
56.955 7.275857
56.960 7.332254
56.965 7.418321
56.970 7.434443
56.975 7.568109
56.980 7.184673
56.985 6.920455
56.990 6.9521
56.995 7.233026
57.000 7.413915
57.005 7.423614
57.010 7.307621
57.015 7.51434
57.020 7.546047
57.025 7.461299
57.030 7.163517
57.035 7.294321
57.040 7.538977
57.045 7.393803
57.050 7.54346
57.055 7.852201
57.060 7.810062
57.065 8.064746
57.070 7.723199
57.075 8.168029
57.080 8.474076
57.085 7.86575
57.090 7.515063
57.095 7.713582
57.100 7.537939
57.105 7.535101
57.110 7.421227
57.115 7.544396
57.120 8.018242
57.125 8.061982
57.130 7.886858
57.135 8.448182
57.140 8.590024
57.145 8.545701
57.150 8.521944
57.155 8.436843
57.160 8.749487
57.165 8.865376
57.170 8.435541
57.175 7.9626
57.180 7.526459
57.185 7.325862
57.190 7.373703
57.195 7.084785
57.200 6.778435
57.205 6.623475
57.210 6.622007
57.215 6.633165
57.220 6.812053
57.225 6.597999
57.230 6.76784
57.235 6.880941
57.240 7.093351
57.245 7.441384
57.250 7.483067
57.255 7.641474
57.260 7.786501
57.265 8.090816
57.270 8.454379
57.275 8.483454
57.280 8.46926
57.285 8.513478
57.290 8.58403
57.295 8.679801
57.300 8.514741
57.305 8.598643
57.310 8.696708
57.315 8.346391
57.320 7.971328
57.325 7.930339
57.330 7.783352
57.335 7.630477
57.340 7.449058
57.345 7.214823
57.350 7.692103
57.355 8.252272
57.360 8.300914
57.365 8.582013
57.370 8.473102
57.375 8.538746
57.380 8.75963
57.385 8.827048
57.390 8.574824
57.395 8.37332
57.400 8.120323
57.405 8.383119
57.410 8.482363
57.415 8.319391
57.420 7.909634
57.425 8.141078
57.430 8.365135
57.435 8.346575
57.440 8.740397
57.445 8.7019
57.450 8.814688
57.455 8.545843
57.460 8.37958
57.465 8.36019
57.470 8.281352
57.475 7.707216
57.480 7.487667
57.485 7.657528
57.490 7.957604
57.495 7.932978
57.500 7.711254
57.505 7.911477
57.510 7.835299
57.515 7.799683
57.520 7.989448
57.525 7.652376
57.530 7.673661
57.535 7.627328
57.540 7.169353
57.545 7.247952
57.550 7.048261
57.555 7.046531
57.560 7.16346
57.565 7.202434
57.570 7.570434
57.575 7.74756
57.580 7.477345
57.585 7.532551
57.590 7.382583
57.595 7.354733
57.600 7.021384
57.605 6.861783
57.610 6.850665
57.615 7.002048
57.620 7.402638
57.625 7.975595
57.630 8.339323
57.635 8.435093
57.640 8.434036
57.645 8.434983
57.650 8.803091
57.655 8.778412
57.660 8.571546
57.665 8.407784
57.670 8.703064
57.675 8.866102
57.680 9.134041
57.685 8.939678
57.690 8.738984
57.695 8.729396
57.700 8.958527
57.705 8.894563
57.710 8.728879
57.715 8.60606
57.720 8.629056
57.725 8.727662
57.730 8.785997
57.735 8.731049
57.740 8.826972
57.745 8.726501
57.750 8.815492
57.755 8.860015
57.760 8.707199
57.765 8.645696
57.770 8.442591
57.775 8.358027
57.780 8.641497
57.785 8.568911
57.790 8.421949
57.795 8.730196
57.800 8.639561
57.805 8.87215
57.810 8.923032
57.815 8.950056
57.820 8.941307
57.825 9.00074
57.830 8.613082
57.835 8.473996
57.840 8.422616
57.845 8.319254
57.850 8.391482
57.855 8.514305
57.860 8.658388
57.865 9.288275
57.870 9.576257
57.875 9.614462
57.880 9.457747
57.885 9.276871
57.890 9.599749
57.895 9.666059
57.900 9.413309
57.905 9.093675
57.910 9.273926
57.915 9.589882
57.920 10.012496
57.925 9.860406
57.930 9.677421
57.935 9.385647
57.940 9.823258
57.945 9.702675
57.950 9.774648
57.955 8.964227
57.960 8.570796
57.965 8.279278
57.970 8.623564
57.975 8.51692
57.980 8.483054
57.985 8.489956
57.990 8.999624
57.995 9.638916
58.000 10.436997
58.005 10.583147
58.010 10.435952
58.015 10.500587
58.020 10.239041
58.025 10.127058
58.030 10.05374
58.035 9.810811
58.040 9.588043
58.045 10.013206
58.050 10.355354
58.055 10.581306
58.060 10.097674
58.065 9.600599
58.070 9.110594
58.075 8.993365
58.080 8.934165
58.085 8.921664
58.090 9.139826
58.095 9.17228
58.100 9.662677
58.105 9.99103
58.110 9.738288
58.115 9.422582
58.120 9.28811
58.125 9.253932
58.130 9.629556
58.135 9.629135
58.140 9.794528
58.145 9.979912
58.150 10.00909
58.155 9.833241
58.160 9.802576
58.165 9.411459
58.170 9.595069
58.175 9.817104
58.180 9.927348
58.185 10.095149
58.190 10.271671
58.195 10.44924
58.200 10.22355
58.205 10.259601
58.210 10.613662
58.215 10.65321
58.220 10.532852
58.225 10.38133
58.230 10.527139
58.235 10.954002
58.240 10.801588
58.245 10.362743
58.250 10.476542
58.255 10.841467
58.260 11.121212
58.265 10.903399
58.270 10.957532
58.275 10.903335
58.280 10.650802
58.285 10.604227
58.290 10.05792
58.295 9.927925
58.300 10.295586
58.305 10.160347
58.310 9.880332
58.315 9.629316
58.320 9.981977
58.325 10.567051
58.330 10.859126
58.335 10.649243
58.340 10.585523
58.345 11.252316
58.350 11.38722
58.355 10.897918
58.360 10.629678
58.365 10.415242
58.370 10.701973
58.375 10.91755
58.380 10.68423
58.385 11.521284
58.390 11.928463
58.395 12.250667
58.400 12.205762
58.405 12.031356
58.410 12.132327
58.415 12.780151
58.420 13.384829
58.425 13.525154
58.430 13.537249
58.435 14.022535
58.440 14.417796
58.445 14.279656
58.450 13.801687
58.455 13.530426
58.460 13.270383
58.465 13.609393
58.470 13.600648
58.475 13.201342
58.480 13.410881
58.485 13.382442
58.490 13.390646
58.495 13.195348
58.500 12.719236
58.505 12.146125
58.510 12.244126
58.515 12.248629
58.520 12.539411
58.525 12.742679
58.530 13.213815
58.535 13.748502
58.540 14.623076
58.545 15.371053
58.550 15.781632
58.555 15.965286
58.560 16.291946
58.565 16.30681
58.570 16.605881
58.575 16.645302
58.580 16.605669
58.585 17.163305
58.590 17.49254
58.595 18.1049
58.600 18.507238
58.605 18.67432
58.610 18.57692
58.615 18.555126
58.620 18.15888
58.625 18.209923
58.630 18.718815
58.635 19.284826
58.640 19.693062
58.645 20.154211
58.650 20.045666
58.655 20.374136
58.660 20.395315
58.665 19.739548
58.670 19.532194
58.675 19.437792
58.680 19.819208
58.685 20.905874
58.690 21.354906
58.695 21.895536
58.700 22.645155
58.705 22.767155
58.710 22.580126
58.715 22.446163
58.720 21.75436
58.725 21.556423
58.730 20.941517
58.735 20.451498
58.740 20.512274
58.745 20.848886
58.750 20.876436
58.755 20.421726
58.760 20.231075
58.765 20.336246
58.770 20.010918
58.775 19.3381
58.780 18.581848
58.785 18.450619
58.790 18.43363
58.795 18.396889
58.800 17.375725
58.805 17.556149
58.810 17.753529
58.815 17.703993
58.820 17.063869
58.825 16.476189
58.830 16.258738
58.835 16.802935
58.840 16.687344
58.845 16.579893
58.850 16.323263
58.855 16.930117
58.860 17.342901
58.865 16.849117
58.870 15.772425
58.875 15.495789
58.880 14.867085
58.885 14.914266
58.890 14.470255
58.895 14.334646
58.900 14.805888
58.905 15.514771
58.910 15.233682
58.915 14.665649
58.920 14.187076
58.925 14.215674
58.930 14.116779
58.935 13.495998
58.940 13.161389
58.945 13.656359
58.950 14.143636
58.955 14.367849
58.960 14.348956
58.965 14.077917
58.970 13.931188
58.975 13.202781
58.980 12.731911
58.985 12.488729
58.990 11.919864
58.995 11.737343
59.000 12.08613
59.005 12.398914
59.010 12.305202
59.015 11.966233
59.020 11.804505
59.025 11.619254
59.030 11.229052
59.035 10.801351
59.040 11.193892
59.045 11.473828
59.050 11.778964
59.055 11.814744
59.060 12.013019
59.065 12.241089
59.070 12.137643
59.075 11.813308
59.080 11.812954
59.085 11.781384
59.090 12.344602
59.095 12.220593
59.100 11.875239
59.105 11.950445
59.110 11.882815
59.115 11.801125
59.120 11.731309
59.125 11.176733
59.130 11.422252
59.135 11.31133
59.140 11.10032
59.145 10.812744
59.150 10.657043
59.155 10.798942
59.160 11.054016
59.165 10.895526
59.170 10.693784
59.175 10.568796
59.180 10.12393
59.185 10.25923
59.190 10.449569
59.195 10.143867
59.200 10.222015
59.205 10.565762
59.210 10.896505
59.215 11.170391
59.220 10.545734
59.225 10.358662
59.230 10.735569
59.235 10.804321
59.240 10.830345
59.245 10.409746
59.250 10.449609
59.255 10.523864
59.260 10.291786
59.265 10.011794
59.270 9.803535
59.275 9.724379
59.280 9.60423
59.285 9.735915
59.290 9.660706
59.295 9.814514
59.300 9.677349
59.305 9.500891
59.310 9.016438
59.315 9.337355
59.320 9.46621
59.325 9.487715
59.330 9.29408
59.335 9.674737
59.340 9.475008
59.345 9.814051
59.350 9.684719
59.355 9.491446
59.360 9.25254
59.365 9.336288
59.370 9.343805
59.375 9.586246
59.380 9.789113
59.385 9.876824
59.390 10.882183
59.395 11.085669
59.400 10.843623
59.405 10.856467
59.410 10.961031
59.415 10.849895
59.420 10.950494
59.425 10.62116
59.430 10.583543
59.435 10.76016
59.440 11.074004
59.445 11.146683
59.450 10.6937
59.455 10.511403
59.460 10.150135
59.465 10.159159
59.470 10.427192
59.475 10.229999
59.480 9.943453
59.485 10.080788
59.490 10.072703
59.495 10.010609
59.500 9.737902
59.505 9.389291
59.510 9.507974
59.515 9.595549
59.520 9.602841
59.525 9.252671
59.530 8.914238
59.535 8.660377
59.540 8.663961
59.545 8.720938
59.550 9.119174
59.555 9.297247
59.560 9.632744
59.565 10.147422
59.570 10.611095
59.575 10.44408
59.580 10.272422
59.585 10.448806
59.590 10.741265
59.595 11.332754
59.600 11.407938
59.605 11.360046
59.610 11.603261
59.615 12.203681
59.620 12.079063
59.625 11.691385
59.630 11.095281
59.635 10.863764
59.640 10.79072
59.645 10.74085
59.650 10.195522
59.655 10.55298
59.660 10.727377
59.665 11.039222
59.670 11.425107
59.675 11.793229
59.680 11.694505
59.685 11.565411
59.690 11.126443
59.695 10.863074
59.700 10.789597
59.705 10.525818
59.710 10.913945
59.715 11.197221
59.720 11.018579
59.725 10.78837
59.730 10.745115
59.735 10.542699
59.740 10.504235
59.745 9.956575
59.750 10.450867
59.755 10.970077
59.760 11.587999
59.765 11.385588
59.770 11.115396
59.775 10.786448
59.780 10.250642
59.785 9.429713
59.790 8.775077
59.795 8.075382
59.800 8.242493
59.805 8.496132
59.810 8.685907
59.815 9.117714
59.820 9.255524
59.825 9.784594
59.830 10.178454
59.835 10.589057
59.840 10.654634
59.845 10.986533
59.850 11.173717
59.855 11.27195
59.860 11.060465
59.865 10.915009
59.870 10.516186
59.875 10.35033
59.880 9.807442
59.885 9.164907
59.890 8.907599
59.895 9.266352
59.900 9.36554
59.905 9.821781
59.910 10.075585
59.915 10.435206
59.920 10.990144
59.925 10.833047
59.930 10.677942
59.935 10.57445
59.940 10.324052
59.945 10.58637
59.950 11.021618
59.955 10.530738
59.960 10.382067
59.965 10.210126
59.970 10.286926
59.975 10.109118
59.980 9.523392
59.985 9.088232
59.990 9.10052
59.995 9.392646
60.000 9.44429
60.005 9.659992
60.010 9.927783
60.015 9.813478
60.020 9.85757
60.025 10.335217
60.030 10.274545
60.035 10.340433
60.040 9.937419
60.045 9.982164
60.050 10.164454
60.055 10.363179
60.060 10.043806
60.065 9.910482
60.070 9.474565
60.075 9.593302
60.080 9.798256
60.085 10.102962
60.090 10.201549
60.095 10.666243
60.100 11.147969
60.105 11.736021
60.110 11.642502
60.115 11.638122
60.120 11.439399
60.125 11.394192
60.130 11.26319
60.135 11.423269
60.140 11.435032
60.145 11.360904
60.150 11.106505
60.155 11.06517
60.160 10.725223
60.165 10.675103
60.170 10.25185
60.175 10.142724
60.180 10.421473
60.185 10.010285
60.190 9.816262
60.195 9.831803
60.200 9.569525
60.205 9.691369
60.210 9.734269
60.215 10.030704
60.220 10.792686
60.225 11.147847
60.230 11.297615
60.235 11.152071
60.240 10.95114
60.245 10.6589
60.250 9.92429
60.255 9.839275
60.260 9.846749
60.265 9.708923
60.270 9.917363
60.275 9.828425
60.280 9.907394
60.285 9.889025
60.290 9.560181
60.295 9.181768
60.300 9.293848
60.305 9.77115
60.310 10.127368
60.315 10.084659
60.320 10.360848
60.325 10.400428
60.330 10.771874
60.335 10.652158
60.340 10.210148
60.345 10.0895
60.350 10.326607
60.355 10.382153
60.360 10.052206
60.365 9.916506
60.370 9.690476
60.375 9.826066
60.380 9.974794
60.385 9.926072
60.390 10.087166
60.395 10.495882
60.400 10.860364
60.405 11.294806
60.410 11.484939
60.415 11.584351
60.420 11.669725
60.425 11.834815
60.430 12.100536
60.435 11.665003
60.440 11.840942
60.445 11.859694
60.450 11.794181
60.455 11.674539
60.460 11.249997
60.465 11.025907
60.470 11.213527
60.475 10.927154
60.480 10.693686
60.485 10.56093
60.490 10.893392
60.495 10.885628
60.500 10.930212
60.505 10.934169
60.510 10.623047
60.515 10.349236
60.520 10.47549
60.525 10.589555
60.530 10.474143
60.535 10.04956
60.540 10.033634
60.545 10.394613
60.550 10.475388
60.555 10.095874
60.560 9.559617
60.565 9.420724
60.570 9.218434
60.575 8.666355
60.580 8.552721
60.585 8.949976
60.590 9.376851
60.595 9.383229
60.600 9.761464
60.605 9.791136
60.610 9.98884
60.615 9.508082
60.620 9.34862
60.625 8.945897
60.630 9.008173
60.635 8.754534
60.640 8.826138
60.645 9.570391
60.650 9.94675
60.655 10.087848
60.660 10.338768
60.665 10.311494
60.670 10.936978
60.675 11.181211
60.680 10.576195
60.685 10.311106
60.690 10.028267
60.695 10.018281
60.700 10.313486
60.705 10.043701
60.710 9.775804
60.715 10.151242
60.720 10.449223
60.725 10.481923
60.730 10.813282
60.735 11.365201
60.740 11.622083
60.745 12.063459
60.750 12.164934
60.755 12.234377
60.760 12.313849
60.765 12.226147
60.770 11.556905
60.775 11.424479
60.780 11.262284
60.785 10.973609
60.790 10.674654
60.795 10.367328
60.800 10.123342
60.805 10.287926
60.810 10.065343
60.815 10.017083
60.820 9.98803
60.825 9.955187
60.830 10.08787
60.835 10.043826
60.840 9.608114
60.845 9.385615
60.850 9.300373
60.855 9.469585
60.860 9.745513
60.865 9.971899
60.870 10.061656
60.875 10.025455
60.880 9.989484
60.885 9.771995
60.890 9.514055
60.895 9.496288
60.900 9.109139
60.905 9.176373
60.910 10.040004
60.915 10.381942
60.920 10.714085
60.925 10.972839
60.930 11.142177
60.935 11.525007
60.940 11.435393
60.945 11.345969
60.950 11.251761
60.955 11.207895
60.960 11.317908
60.965 11.331529
60.970 10.810753
60.975 10.81007
60.980 10.624475
60.985 11.145183
60.990 11.450962
60.995 11.318007
61.000 11.409067
61.005 11.530439
61.010 11.679837
61.015 11.217699
61.020 10.804042
61.025 10.38318
61.030 10.18932
61.035 10.096526
61.040 9.927764
61.045 9.471931
61.050 9.245453
61.055 8.725734
61.060 8.560736
61.065 8.884515
61.070 8.799581
61.075 8.987987
61.080 9.039067
61.085 9.516074
61.090 9.790071
61.095 10.139573
61.100 9.629984
61.105 9.632795
61.110 10.000935
61.115 10.440299
61.120 10.559687
61.125 10.940114
61.130 11.390627
61.135 11.931023
61.140 11.689306
61.145 11.304409
61.150 10.923282
61.155 11.435423
61.160 11.514575
61.165 11.228116
61.170 11.397338
61.175 11.511957
61.180 11.207276
61.185 10.953458
61.190 10.638012
61.195 10.437815
61.200 10.474296
61.205 10.448868
61.210 10.439554
61.215 10.517677
61.220 10.691824
61.225 11.018666
61.230 11.185512
61.235 10.352732
61.240 10.215292
61.245 10.324017
61.250 10.73745
61.255 11.01526
61.260 10.506641
61.265 10.279189
61.270 10.907932
61.275 10.78116
61.280 10.855849
61.285 11.132964
61.290 11.089555
61.295 11.111852
61.300 11.62751
61.305 11.820019
61.310 11.985456
61.315 11.77087
61.320 11.066558
61.325 11.065125
61.330 11.369427
61.335 11.368116
61.340 10.746088
61.345 10.774786
61.350 11.024166
61.355 11.300667
61.360 11.599613
61.365 11.233005
61.370 11.06551
61.375 11.203458
61.380 10.964093
61.385 10.731141
61.390 10.591133
61.395 10.237684
61.400 10.398704
61.405 10.352626
61.410 10.530222
61.415 10.638658
61.420 11.03215
61.425 11.230831
61.430 11.370509
61.435 11.436172
61.440 11.234626
61.445 10.86733
61.450 10.777088
61.455 10.635511
61.460 10.596437
61.465 10.342517
61.470 9.999936
61.475 10.316652
61.480 10.821739
61.485 10.940907
61.490 10.6293
61.495 10.542726
61.500 10.759823
61.505 11.183238
61.510 11.068253
61.515 11.053554
61.520 11.186794
61.525 11.228424
61.530 11.151421
61.535 10.99456
61.540 10.488322
61.545 10.298452
61.550 10.122891
61.555 10.373331
61.560 10.847574
61.565 11.183845
61.570 11.315853
61.575 11.774763
61.580 11.986369
61.585 12.448163
61.590 12.003048
61.595 11.59817
61.600 11.307327
61.605 11.587645
61.610 11.118218
61.615 11.364483
61.620 11.520603
61.625 11.825446
61.630 12.148296
61.635 12.107639
61.640 11.459414
61.645 12.020439
61.650 11.581036
61.655 10.966243
61.660 10.909677
61.665 10.662318
61.670 10.939273
61.675 11.750307
61.680 11.617101
61.685 11.616179
61.690 11.5674
61.695 11.271247
61.700 11.404103
61.705 11.035586
61.710 10.091033
61.715 9.587587
61.720 9.525922
61.725 9.800845
61.730 9.877907
61.735 9.300374
61.740 9.488788
61.745 9.850562
61.750 10.074352
61.755 9.905869
61.760 9.884871
61.765 9.666526
61.770 9.929794
61.775 10.056506
61.780 10.086816
61.785 10.384685
61.790 10.946003
61.795 11.310685
61.800 12.170129
61.805 12.821903
61.810 13.006268
61.815 13.264584
61.820 13.320465
61.825 13.183872
61.830 13.181568
61.835 12.690257
61.840 12.300565
61.845 12.070457
61.850 11.819897
61.855 11.917315
61.860 11.901204
61.865 11.179877
61.870 10.933153
61.875 10.678577
61.880 10.893947
61.885 10.825413
61.890 10.858984
61.895 10.964044
61.900 11.647788
61.905 12.228676
61.910 12.587647
61.915 12.410726
61.920 12.251974
61.925 11.731034
61.930 11.468165
61.935 10.897636
61.940 10.618546
61.945 10.688745
61.950 10.857058
61.955 10.53889
61.960 10.379888
61.965 10.61224
61.970 11.147867
61.975 11.234875
61.980 10.859144
61.985 10.999018
61.990 11.64144
61.995 11.774809
62.000 11.652437
62.005 11.439344
62.010 11.632811
62.015 11.831686
62.020 11.507342
62.025 11.440998
62.030 11.499491
62.035 11.53037
62.040 11.289803
62.045 11.068723
62.050 11.215827
62.055 11.094685
62.060 11.032337
62.065 10.899472
62.070 10.971792
62.075 11.025715
62.080 10.897466
62.085 10.494884
62.090 10.622671
62.095 10.866589
62.100 11.686477
62.105 11.397322
62.110 11.486942
62.115 11.719654
62.120 12.040268
62.125 12.08719
62.130 11.924698
62.135 11.264798
62.140 11.342393
62.145 11.539106
62.150 11.265414
62.155 11.238111
62.160 11.455508
62.165 11.563828
62.170 12.578625
62.175 13.267289
62.180 13.013455
62.185 13.352711
62.190 13.088552
62.195 12.989388
62.200 12.862839
62.205 12.110806
62.210 11.640145
62.215 11.923771
62.220 12.097117
62.225 12.75925
62.230 12.645872
62.235 12.233893
62.240 12.123185
62.245 12.423655
62.250 12.323781
62.255 11.810055
62.260 11.192702
62.265 10.973163
62.270 11.304752
62.275 10.840437
62.280 10.488676
62.285 10.182604
62.290 10.278821
62.295 10.60935
62.300 11.425101
62.305 11.636174
62.310 12.033506
62.315 12.165648
62.320 12.497574
62.325 12.508616
62.330 12.351168
62.335 11.558689
62.340 11.106934
62.345 11.397396
62.350 11.415991
62.355 11.698563
62.360 12.09109
62.365 12.716236
62.370 12.736187
62.375 12.812135
62.380 12.591192
62.385 12.285707
62.390 11.806217
62.395 12.090693
62.400 11.750637
62.405 12.174663
62.410 12.566839
62.415 12.737555
62.420 12.725187
62.425 12.488001
62.430 11.537562
62.435 11.69027
62.440 11.548444
62.445 11.294996
62.450 11.553896
62.455 11.954631
62.460 12.272894
62.465 12.832894
62.470 12.687117
62.475 13.326413
62.480 13.896879
62.485 13.60962
62.490 13.467457
62.495 13.286448
62.500 13.09123
62.505 13.104931
62.510 12.653384
62.515 12.29858
62.520 12.648735
62.525 12.880671
62.530 12.936029
62.535 12.843554
62.540 12.484495
62.545 12.550722
62.550 12.395444
62.555 12.129398
62.560 12.150638
62.565 12.395092
62.570 12.471134
62.575 12.620782
62.580 12.387581
62.585 12.027956
62.590 11.183654
62.595 10.629292
62.600 10.460999
62.605 10.697051
62.610 10.59597
62.615 10.375915
62.620 10.445106
62.625 10.522077
62.630 10.646338
62.635 10.509946
62.640 10.021758
62.645 10.364882
62.650 10.642143
62.655 11.17514
62.660 11.983363
62.665 12.095327
62.670 12.697456
62.675 12.757561
62.680 12.585748
62.685 12.703124
62.690 12.913959
62.695 13.130088
62.700 13.0272
62.705 12.859267
62.710 12.7683
62.715 12.696113
62.720 12.580974
62.725 11.893298
62.730 11.475505
62.735 11.476418
62.740 11.310221
62.745 11.710917
62.750 12.002545
62.755 12.532171
62.760 12.43148
62.765 12.453713
62.770 12.201635
62.775 11.846648
62.780 11.693049
62.785 11.429091
62.790 10.746686
62.795 10.905828
62.800 10.852109
62.805 11.367467
62.810 11.741678
62.815 11.88277
62.820 12.070834
62.825 12.205203
62.830 11.989864
62.835 12.005446
62.840 11.647341
62.845 11.550387
62.850 11.299126
62.855 11.298736
62.860 11.658992
62.865 11.885267
62.870 12.064809
62.875 12.749418
62.880 12.842551
62.885 13.12438
62.890 12.83324
62.895 12.057018
62.900 11.930325
62.905 11.827097
62.910 12.043428
62.915 12.359259
62.920 12.139506
62.925 12.441916
62.930 12.912506
62.935 13.213694
62.940 13.012001
62.945 12.440455
62.950 12.353853
62.955 12.154172
62.960 11.612164
62.965 11.691106
62.970 11.770165
62.975 12.39386
62.980 12.408238
62.985 12.720554
62.990 13.237576
62.995 13.467566
63.000 13.34585
63.005 12.954589
63.010 12.32785
63.015 12.349045
63.020 12.269391
63.025 11.96758
63.030 11.425337
63.035 11.489079
63.040 11.277058
63.045 11.129572
63.050 10.940677
63.055 10.740939
63.060 10.961284
63.065 11.685827
63.070 11.692623
63.075 11.616187
63.080 12.146751
63.085 11.901372
63.090 11.859851
63.095 11.510396
63.100 11.156796
63.105 11.108097
63.110 11.63467
63.115 11.490399
63.120 11.752494
63.125 12.242118
63.130 13.477028
63.135 13.944409
63.140 14.077294
63.145 13.877215
63.150 13.592926
63.155 13.688483
63.160 13.827598
63.165 13.031101
63.170 12.911972
63.175 12.87388
63.180 12.79138
63.185 12.955928
63.190 12.581652
63.195 12.160199
63.200 12.35852
63.205 12.631838
63.210 12.402955
63.215 12.122869
63.220 11.879087
63.225 11.88219
63.230 11.767761
63.235 11.506923
63.240 11.348777
63.245 11.330765
63.250 12.183681
63.255 12.664265
63.260 12.897517
63.265 12.810973
63.270 12.917851
63.275 12.656717
63.280 13.044458
63.285 13.02917
63.290 12.498055
63.295 12.430419
63.300 12.530967
63.305 12.542777
63.310 12.94609
63.315 12.391047
63.320 11.691695
63.325 11.905595
63.330 12.300061
63.335 12.458071
63.340 12.315653
63.345 12.072799
63.350 12.060743
63.355 12.678611
63.360 12.903605
63.365 12.674023
63.370 12.520645
63.375 12.829396
63.380 13.002114
63.385 13.422852
63.390 13.231367
63.395 13.146914
63.400 13.141427
63.405 13.08017
63.410 12.833823
63.415 12.693405
63.420 12.6165
63.425 12.980082
63.430 12.737719
63.435 12.491102
63.440 12.615623
63.445 12.671293
63.450 13.237895
63.455 13.315044
63.460 13.230623
63.465 13.347597
63.470 13.792832
63.475 13.670748
63.480 13.446427
63.485 12.968726
63.490 12.617971
63.495 12.122512
63.500 11.99293
63.505 11.106796
63.510 10.948233
63.515 11.270929
63.520 11.606394
63.525 12.277636
63.530 13.055552
63.535 13.550665
63.540 14.370299
63.545 14.95381
63.550 14.57117
63.555 14.134114
63.560 13.535763
63.565 12.841537
63.570 13.030867
63.575 12.735825
63.580 12.354738
63.585 12.831423
63.590 13.15783
63.595 13.514055
63.600 13.649022
63.605 13.389672
63.610 13.227849
63.615 13.635118
63.620 13.498737
63.625 13.662376
63.630 13.627213
63.635 13.603395
63.640 13.222326
63.645 13.286613
63.650 12.910513
63.655 12.726406
63.660 12.656901
63.665 12.478086
63.670 12.040522
63.675 12.316989
63.680 12.634004
63.685 12.739556
63.690 12.641382
63.695 12.53997
63.700 12.653659
63.705 12.924694
63.710 12.813879
63.715 12.598189
63.720 12.398455
63.725 12.230054
63.730 12.421169
63.735 13.155294
63.740 13.276643
63.745 13.385799
63.750 13.491221
63.755 13.553524
63.760 13.601192
63.765 13.485072
63.770 13.039003
63.775 13.160808
63.780 13.302871
63.785 13.140544
63.790 13.228405
63.795 13.363456
63.800 13.268497
63.805 13.133872
63.810 12.811634
63.815 12.674603
63.820 12.766266
63.825 12.839223
63.830 12.899159
63.835 12.721908
63.840 12.493235
63.845 12.904835
63.850 13.06475
63.855 12.887449
63.860 12.837343
63.865 13.374533
63.870 13.687054
63.875 14.094057
63.880 13.759135
63.885 13.295029
63.890 13.799413
63.895 13.971503
63.900 13.678095
63.905 13.539065
63.910 13.677826
63.915 14.06262
63.920 14.459998
63.925 14.459058
63.930 14.057489
63.935 14.013699
63.940 14.243373
63.945 14.255842
63.950 13.920168
63.955 13.953302
63.960 14.079076
63.965 14.234737
63.970 14.413084
63.975 14.083494
63.980 14.356919
63.985 14.782294
63.990 14.854272
63.995 14.867227
64.000 14.977443
64.005 15.062673
64.010 15.690604
64.015 15.713637
64.020 15.62184
64.025 15.790737
64.030 15.718169
64.035 15.932873
64.040 16.141766
64.045 15.947497
64.050 16.179569
64.055 16.161121
64.060 15.699189
64.065 16.262203
64.070 16.463799
64.075 16.419037
64.080 16.368635
64.085 16.170116
64.090 16.643127
64.095 17.649225
64.100 18.078779
64.105 18.261791
64.110 18.573992
64.115 18.502447
64.120 18.48028
64.125 18.697258
64.130 18.477318
64.135 17.845999
64.140 18.326559
64.145 18.650515
64.150 19.234388
64.155 19.589825
64.160 19.687239
64.165 19.353485
64.170 19.759859
64.175 19.421886
64.180 19.98151
64.185 20.821028
64.190 20.413996
64.195 20.435371
64.200 20.83971
64.205 20.693722
64.210 20.492296
64.215 20.654295
64.220 21.897337
64.225 23.846668
64.230 24.555859
64.235 24.924343
64.240 25.767715
64.245 26.425791
64.250 26.015015
64.255 26.367575
64.260 26.522049
64.265 26.161055
64.270 25.913225
64.275 25.650871
64.280 25.022892
64.285 24.704981
64.290 23.754616
64.295 23.83559
64.300 24.752785
64.305 25.159481
64.310 25.949299
64.315 27.108681
64.320 27.680649
64.325 28.099125
64.330 27.761578
64.335 28.611547
64.340 29.708012
64.345 29.798452
64.350 30.217796
64.355 30.426176
64.360 31.629536
64.365 32.978138
64.370 33.781715
64.375 34.14983
64.380 35.691746
64.385 35.81945
64.390 36.431061
64.395 36.073299
64.400 35.915001
64.405 35.563725
64.410 35.854519
64.415 35.004276
64.420 34.865288
64.425 34.775688
64.430 35.037167
64.435 35.227364
64.440 34.989048
64.445 35.267414
64.450 35.210125
64.455 35.833427
64.460 36.277416
64.465 36.620571
64.470 35.990791
64.475 35.775719
64.480 35.089916
64.485 35.070587
64.490 35.072575
64.495 35.180431
64.500 35.326683
64.505 35.519623
64.510 35.263134
64.515 35.135719
64.520 35.357777
64.525 34.353119
64.530 33.263496
64.535 31.985889
64.540 31.588705
64.545 31.499216
64.550 30.927044
64.555 30.158701
64.560 30.093977
64.565 29.703514
64.570 29.448795
64.575 29.236012
64.580 28.647659
64.585 28.639574
64.590 28.24486
64.595 27.646091
64.600 27.600027
64.605 26.918831
64.610 26.904617
64.615 26.353285
64.620 25.945148
64.625 26.12879
64.630 25.997326
64.635 25.228106
64.640 24.818205
64.645 24.431896
64.650 23.988443
64.655 23.565584
64.660 22.919518
64.665 22.601961
64.670 22.698753
64.675 22.205105
64.680 21.928562
64.685 22.453873
64.690 22.235023
64.695 22.597324
64.700 22.599646
64.705 22.545519
64.710 22.810143
64.715 22.11153
64.720 21.310677
64.725 20.979237
64.730 20.048841
64.735 20.19853
64.740 19.693254
64.745 19.636923
64.750 19.545971
64.755 19.407867
64.760 19.57198
64.765 19.572279
64.770 19.18741
64.775 19.407887
64.780 18.939884
64.785 18.982674
64.790 18.973711
64.795 18.730158
64.800 18.774887
64.805 18.457588
64.810 17.796892
64.815 16.961016
64.820 16.907721
64.825 16.457399
64.830 16.781172
64.835 17.087873
64.840 17.584593
64.845 17.375509
64.850 17.439856
64.855 17.573231
64.860 17.543734
64.865 16.976704
64.870 16.865681
64.875 16.539019
64.880 16.686649
64.885 16.831316
64.890 17.085869
64.895 17.056717
64.900 17.341694
64.905 17.632622
64.910 17.760788
64.915 18.016357
64.920 17.831884
64.925 17.555981
64.930 17.193796
64.935 16.754721
64.940 16.579214
64.945 16.525005
64.950 16.194351
64.955 16.196318
64.960 16.401165
64.965 16.807133
64.970 16.893026
64.975 16.835569
64.980 17.571724
64.985 18.270477
64.990 19.083691
64.995 19.490437
65.000 20.055252
65.005 20.26902
65.010 20.115191
65.015 19.570776
65.020 19.959873
65.025 20.111341
65.030 20.030497
65.035 19.770399
65.040 19.955698
65.045 20.272093
65.050 20.751942
65.055 20.82831
65.060 20.681499
65.065 21.235594
65.070 20.997868
65.075 21.076357
65.080 22.000319
65.085 22.050983
65.090 22.548298
65.095 22.467012
65.100 22.507978
65.105 23.428263
65.110 23.352112
65.115 22.754457
65.120 23.154287
65.125 23.587482
65.130 23.181141
65.135 22.860352
65.140 22.622387
65.145 22.976446
65.150 23.025419
65.155 22.619827
65.160 22.287872
65.165 23.42799
65.170 23.968494
65.175 23.958515
65.180 23.924482
65.185 24.381733
65.190 24.603832
65.195 24.655615
65.200 24.577499
65.205 25.041548
65.210 25.987627
65.215 25.777122
65.220 25.679497
65.225 25.564358
65.230 25.980478
65.235 26.363653
65.240 26.302341
65.245 26.381779
65.250 27.370487
65.255 27.328962
65.260 27.820173
65.265 28.088232
65.270 27.623915
65.275 27.467096
65.280 27.212786
65.285 26.811377
65.290 27.007872
65.295 26.894033
65.300 26.965605
65.305 27.362579
65.310 27.92613
65.315 28.015068
65.320 28.518375
65.325 28.677099
65.330 29.019705
65.335 28.789309
65.340 28.839596
65.345 28.763647
65.350 29.04137
65.355 28.546473
65.360 28.566202
65.365 29.067991
65.370 29.507759
65.375 29.290913
65.380 29.303101
65.385 29.098886
65.390 29.085447
65.395 29.600977
65.400 29.56115
65.405 29.631496
65.410 29.882605
65.415 30.339079
65.420 31.276152
65.425 32.175064
65.430 32.01659
65.435 31.924643
65.440 32.710926
65.445 32.746174
65.450 32.970398
65.455 32.944672
65.460 32.965576
65.465 33.51498
65.470 33.273762
65.475 32.906609
65.480 33.24102
65.485 32.949234
65.490 33.14381
65.495 33.55064
65.500 33.561329
65.505 33.646561
65.510 33.507637
65.515 32.938496
65.520 32.698505
65.525 32.026287
65.530 31.458008
65.535 31.070248
65.540 31.55909
65.545 32.414532
65.550 32.760658
65.555 32.895271
65.560 32.771526
65.565 32.449284
65.570 32.07618
65.575 31.618484
65.580 31.169603
65.585 31.085901
65.590 30.691053
65.595 30.525955
65.600 30.152252
65.605 29.967762
65.610 29.419893
65.615 28.507854
65.620 27.990627
65.625 27.588869
65.630 26.978388
65.635 26.972668
65.640 26.408012
65.645 25.981857
65.650 25.925117
65.655 25.479824
65.660 25.553717
65.665 25.800058
65.670 26.029354
65.675 26.114801
65.680 26.013414
65.685 25.520163
65.690 25.134346
65.695 24.607685
65.700 24.275843
65.705 24.401081
65.710 23.682594
65.715 23.677679
65.720 23.760578
65.725 24.121912
65.730 24.035807
65.735 23.888941
65.740 23.436956
65.745 23.948338
65.750 23.702251
65.755 23.731546
65.760 23.464539
65.765 22.867561
65.770 22.214827
65.775 21.91036
65.780 21.040306
65.785 20.058245
65.790 19.373474
65.795 19.149977
65.800 19.433741
65.805 19.697144
65.810 19.409134
65.815 19.625868
65.820 20.13114
65.825 19.894144
65.830 19.431892
65.835 18.974535
65.840 18.686012
65.845 18.43181
65.850 17.840969
65.855 17.570097
65.860 17.529333
65.865 17.594292
65.870 17.414082
65.875 16.936771
65.880 17.022915
65.885 17.37089
65.890 17.395817
65.895 17.364546
65.900 17.53001
65.905 17.756819
65.910 17.716183
65.915 17.118374
65.920 16.446684
65.925 16.214577
65.930 16.455399
65.935 16.283974
65.940 16.117596
65.945 16.29607
65.950 16.555771
65.955 16.721066
65.960 16.614515
65.965 16.255398
65.970 16.176104
65.975 16.243858
65.980 16.132376
65.985 16.327677
65.990 16.242535
65.995 16.217657
66.000 16.176336
66.005 15.857274
66.010 15.343794
66.015 15.144076
66.020 15.232858
66.025 15.078133
66.030 14.962581
66.035 15.521916
66.040 15.3692
66.045 15.612412
66.050 15.7972
66.055 15.793026
66.060 16.002686
66.065 15.778708
66.070 14.500631
66.075 13.798587
66.080 13.523912
66.085 13.589646
66.090 13.629836
66.095 13.936973
66.100 13.918778
66.105 14.172302
66.110 14.905916
66.115 14.954639
66.120 14.699634
66.125 14.437488
66.130 13.842223
66.135 13.980312
66.140 14.589238
66.145 15.039959
66.150 14.843149
66.155 15.049685
66.160 15.051626
66.165 15.312199
66.170 15.360588
66.175 15.350861
66.180 14.63872
66.185 14.520145
66.190 14.35455
66.195 14.109962
66.200 13.586064
66.205 13.592636
66.210 13.317864
66.215 13.723065
66.220 13.844025
66.225 13.580511
66.230 13.817041
66.235 14.128274
66.240 14.17909
66.245 14.321948
66.250 14.431844
66.255 14.765092
66.260 14.858443
66.265 14.530521
66.270 14.364735
66.275 13.758327
66.280 13.747874
66.285 13.809005
66.290 13.905519
66.295 13.930098
66.300 14.000136
66.305 14.594489
66.310 14.733892
66.315 14.586321
66.320 14.454109
66.325 14.230227
66.330 14.737303
66.335 14.889681
66.340 14.707223
66.345 14.833531
66.350 14.840118
66.355 14.747438
66.360 14.500099
66.365 14.252327
66.370 14.279636
66.375 13.763466
66.380 13.502873
66.385 13.009716
66.390 12.733302
66.395 12.555842
66.400 12.421917
66.405 12.516725
66.410 13.174763
66.415 13.341156
66.420 13.425094
66.425 13.553557
66.430 13.788251
66.435 13.726384
66.440 13.709408
66.445 13.547066
66.450 13.589571
66.455 13.498142
66.460 13.586208
66.465 13.276471
66.470 13.349264
66.475 13.063526
66.480 12.758825
66.485 12.480997
66.490 13.157178
66.495 13.421018
66.500 13.949615
66.505 14.055699
66.510 14.43944
66.515 15.163215
66.520 15.522566
66.525 14.874644
66.530 14.550858
66.535 14.534646
66.540 14.61305
66.545 14.511701
66.550 14.092
66.555 14.02674
66.560 14.483653
66.565 14.516793
66.570 14.209457
66.575 14.41984
66.580 14.317285
66.585 14.121063
66.590 13.963186
66.595 14.044308
66.600 13.93821
66.605 14.400146
66.610 14.255329
66.615 13.947008
66.620 13.960953
66.625 14.10324
66.630 14.089564
66.635 14.099548
66.640 13.920412
66.645 14.006623
66.650 14.292179
66.655 14.402477
66.660 14.121182
66.665 14.3087
66.670 14.191117
66.675 14.153675
66.680 13.963977
66.685 14.303574
66.690 14.252793
66.695 14.339525
66.700 14.09147
66.705 14.129787
66.710 13.821504
66.715 13.334281
66.720 13.372507
66.725 13.59053
66.730 13.716387
66.735 13.922389
66.740 14.085185
66.745 14.184995
66.750 14.134263
66.755 14.042866
66.760 14.50015
66.765 14.67771
66.770 14.309186
66.775 13.498511
66.780 13.422708
66.785 13.784842
66.790 13.598948
66.795 13.193589
66.800 13.244976
66.805 13.634159
66.810 13.9921
66.815 13.800471
66.820 13.691478
66.825 14.27275
66.830 14.288149
66.835 13.595727
66.840 12.982861
66.845 12.965384
66.850 13.391505
66.855 13.325109
66.860 12.23369
66.865 11.828555
66.870 12.87569
66.875 13.539899
66.880 13.524811
66.885 13.691674
66.890 13.825424
66.895 14.005198
66.900 14.48625
66.905 13.421316
66.910 13.499377
66.915 13.607912
66.920 12.97644
66.925 12.889832
66.930 13.510926
66.935 13.684888
66.940 14.289858
66.945 14.129819
66.950 13.901937
66.955 14.06904
66.960 13.976863
66.965 13.480031
66.970 12.952251
66.975 12.794998
66.980 13.076735
66.985 13.081138
66.990 13.499753
66.995 13.769713
67.000 13.991528
67.005 14.187518
67.010 13.87798
67.015 13.903882
67.020 13.966519
67.025 13.861401
67.030 14.010553
67.035 14.03256
67.040 13.815521
67.045 13.53833
67.050 13.395021
67.055 13.290943
67.060 13.24161
67.065 12.776181
67.070 12.715706
67.075 13.629601
67.080 14.189969
67.085 14.278585
67.090 14.299373
67.095 14.075161
67.100 14.058612
67.105 13.567556
67.110 12.620206
67.115 12.4669
67.120 12.518299
67.125 12.795775
67.130 12.890909
67.135 12.823462
67.140 13.278861
67.145 14.034415
67.150 14.277073
67.155 14.571219
67.160 14.829597
67.165 15.164893
67.170 15.482662
67.175 15.475857
67.180 15.343675
67.185 15.275408
67.190 14.902584
67.195 15.022988
67.200 14.746116
67.205 14.420055
67.210 14.563072
67.215 14.919518
67.220 15.50176
67.225 15.660507
67.230 15.632845
67.235 15.664728
67.240 15.967521
67.245 16.14196
67.250 15.692572
67.255 15.016529
67.260 15.024319
67.265 15.112959
67.270 15.607389
67.275 15.09761
67.280 14.557307
67.285 14.095065
67.290 13.598296
67.295 13.224452
67.300 12.866495
67.305 12.649136
67.310 12.057538
67.315 12.065157
67.320 12.465437
67.325 12.642783
67.330 12.484896
67.335 12.36666
67.340 12.466599
67.345 13.13265
67.350 12.980579
67.355 12.842319
67.360 13.196713
67.365 13.411045
67.370 13.711633
67.375 13.842443
67.380 14.139981
67.385 14.388157
67.390 14.33955
67.395 14.601481
67.400 14.105187
67.405 13.743658
67.410 13.877649
67.415 13.515726
67.420 13.484898
67.425 13.914142
67.430 13.777534
67.435 14.490903
67.440 14.61375
67.445 14.494442
67.450 14.740881
67.455 14.634728
67.460 13.973217
67.465 13.59452
67.470 13.394732
67.475 13.740399
67.480 14.009919
67.485 14.488945
67.490 14.374578
67.495 14.487901
67.500 14.727113
67.505 14.783839
67.510 14.502485
67.515 14.161552
67.520 13.977937
67.525 14.079523
67.530 14.210742
67.535 14.06694
67.540 13.60358
67.545 13.605367
67.550 13.237355
67.555 13.457406
67.560 13.70077
67.565 14.095108
67.570 14.211679
67.575 14.296353
67.580 14.257164
67.585 14.930102
67.590 14.729527
67.595 15.15375
67.600 15.433067
67.605 15.882728
67.610 16.029196
67.615 16.327799
67.620 16.065666
67.625 15.435439
67.630 14.806271
67.635 14.240273
67.640 14.143719
67.645 14.47022
67.650 14.413383
67.655 14.901323
67.660 15.496798
67.665 15.549643
67.670 15.20716
67.675 15.148635
67.680 15.482642
67.685 15.382353
67.690 14.982936
67.695 15.353889
67.700 15.31073
67.705 15.880679
67.710 15.257003
67.715 14.676972
67.720 14.58998
67.725 14.714761
67.730 14.208801
67.735 14.108086
67.740 13.794099
67.745 13.810328
67.750 14.02873
67.755 13.611223
67.760 13.448909
67.765 13.487907
67.770 13.681416
67.775 14.059595
67.780 13.777013
67.785 13.971273
67.790 14.263985
67.795 14.056993
67.800 14.430075
67.805 14.33735
67.810 14.355422
67.815 15.050096
67.820 15.685339
67.825 15.70673
67.830 15.172046
67.835 14.634964
67.840 14.295655
67.845 13.889515
67.850 13.309448
67.855 12.472889
67.860 12.275162
67.865 12.693687
67.870 12.952009
67.875 13.535258
67.880 14.248363
67.885 14.145836
67.890 14.628839
67.895 14.969325
67.900 15.442279
67.905 15.173403
67.910 15.160353
67.915 14.641732
67.920 14.668543
67.925 14.800097
67.930 14.797688
67.935 14.839543
67.940 14.826761
67.945 14.399881
67.950 14.383327
67.955 14.222863
67.960 13.699029
67.965 13.328101
67.970 13.260777
67.975 12.909711
67.980 13.301242
67.985 13.35873
67.990 13.477251
67.995 13.666079
68.000 13.871232
68.005 13.713594
68.010 14.463927
68.015 14.270703
68.020 14.684875
68.025 14.785887
68.030 14.73527
68.035 14.459112
68.040 14.492838
68.045 14.283481
68.050 14.498392
68.055 14.380953
68.060 14.615213
68.065 14.520495
68.070 14.197781
68.075 14.257539
68.080 14.219871
68.085 13.975445
68.090 14.288771
68.095 14.230371
68.100 14.490949
68.105 15.57196
68.110 15.808311
68.115 16.267437
68.120 16.650412
68.125 16.353916
68.130 16.06975
68.135 15.995872
68.140 15.483671
68.145 15.185546
68.150 14.845684
68.155 14.754063
68.160 14.618532
68.165 14.247821
68.170 14.075112
68.175 14.73502
68.180 15.103413
68.185 15.207117
68.190 15.487657
68.195 15.856328
68.200 16.349689
68.205 16.529228
68.210 16.070242
68.215 16.320789
68.220 16.435656
68.225 16.018383
68.230 16.101576
68.235 16.387341
68.240 16.57947
68.245 16.420143
68.250 16.334639
68.255 16.14492
68.260 16.991827
68.265 17.417971
68.270 17.491215
68.275 17.36866
68.280 17.811258
68.285 17.992647
68.290 17.962532
68.295 17.595461
68.300 17.007555
68.305 16.694599
68.310 16.978632
68.315 16.883217
68.320 16.836725
68.325 17.124611
68.330 17.571997
68.335 18.403509
68.340 18.656891
68.345 19.206976
68.350 19.37995
68.355 19.14039
68.360 19.419312
68.365 19.389162
68.370 19.13896
68.375 18.779272
68.380 18.7306
68.385 19.115646
68.390 19.992603
68.395 20.122877
68.400 19.655849
68.405 19.990664
68.410 20.015244
68.415 20.564003
68.420 21.030954
68.425 20.770247
68.430 20.601244
68.435 20.903954
68.440 21.587704
68.445 21.829813
68.450 21.158777
68.455 20.330456
68.460 20.385839
68.465 20.894232
68.470 21.33877
68.475 20.855545
68.480 21.581888
68.485 21.82304
68.490 22.339689
68.495 22.560593
68.500 22.030594
68.505 21.684507
68.510 21.712698
68.515 21.793102
68.520 22.462433
68.525 22.498274
68.530 22.828672
68.535 23.037066
68.540 23.193642
68.545 23.689968
68.550 24.021795
68.555 23.854471
68.560 24.516073
68.565 24.870424
68.570 25.524961
68.575 25.771555
68.580 25.158966
68.585 24.857374
68.590 25.352734
68.595 25.110624
68.600 25.143433
68.605 25.148985
68.610 25.241779
68.615 26.175137
68.620 26.604198
68.625 26.984798
68.630 27.423616
68.635 27.242746
68.640 27.527767
68.645 28.02667
68.650 27.926933
68.655 27.999081
68.660 27.23143
68.665 27.474543
68.670 27.579105
68.675 28.030369
68.680 27.490147
68.685 27.23893
68.690 27.830544
68.695 29.151903
68.700 29.821642
68.705 29.508541
68.710 29.213501
68.715 29.559425
68.720 29.243059
68.725 28.753511
68.730 28.453379
68.735 28.234114
68.740 28.310072
68.745 28.6581
68.750 28.094011
68.755 29.120884
68.760 29.502951
68.765 29.627802
68.770 29.699324
68.775 29.72686
68.780 29.954985
68.785 29.798319
68.790 28.900091
68.795 28.585312
68.800 28.047037
68.805 27.699654
68.810 27.510845
68.815 26.975523
68.820 26.830641
68.825 26.803997
68.830 27.352291
68.835 28.38773
68.840 29.186378
68.845 29.549641
68.850 30.07177
68.855 30.684483
68.860 30.192949
68.865 29.143373
68.870 27.472765
68.875 26.409414
68.880 26.150379
68.885 25.811081
68.890 25.217728
68.895 24.769117
68.900 23.995953
68.905 23.936935
68.910 23.908705
68.915 23.860905
68.920 23.429417
68.925 23.053806
68.930 23.083292
68.935 23.693668
68.940 24.431904
68.945 23.813768
68.950 23.359982
68.955 23.939356
68.960 24.271595
68.965 24.361534
68.970 23.555151
68.975 22.745966
68.980 22.846415
68.985 22.794319
68.990 22.837416
68.995 22.964682
69.000 22.890188
69.005 22.510021
69.010 22.29273
69.015 22.676243
69.020 22.351885
69.025 21.731592
69.030 21.233244
69.035 20.858002
69.040 21.086056
69.045 21.229223
69.050 20.725967
69.055 20.636301
69.060 20.264282
69.065 19.923836
69.070 19.610558
69.075 19.219723
69.080 18.8701
69.085 18.72777
69.090 18.881348
69.095 18.906267
69.100 18.998798
69.105 19.397429
69.110 19.419624
69.115 19.505032
69.120 19.924704
69.125 20.253042
69.130 20.268282
69.135 19.6175
69.140 18.905569
69.145 18.272564
69.150 18.265352
69.155 17.514484
69.160 16.752737
69.165 16.555485
69.170 17.249424
69.175 17.4599
69.180 17.810781
69.185 18.136637
69.190 18.137291
69.195 18.147833
69.200 17.949179
69.205 17.509048
69.210 17.402346
69.215 16.556318
69.220 15.873871
69.225 15.663404
69.230 15.821137
69.235 16.262596
69.240 16.282616
69.245 16.152325
69.250 16.745401
69.255 16.418324
69.260 16.534782
69.265 16.540989
69.270 16.398781
69.275 16.625999
69.280 16.728224
69.285 16.854563
69.290 17.111206
69.295 16.845045
69.300 17.166821
69.305 17.054924
69.310 16.616409
69.315 16.494255
69.320 16.576468
69.325 16.438795
69.330 16.043947
69.335 15.633985
69.340 15.725471
69.345 15.961193
69.350 15.957356
69.355 15.73922
69.360 16.28787
69.365 16.773878
69.370 16.466917
69.375 16.267782
69.380 16.284203
69.385 16.185801
69.390 16.200062
69.395 15.63691
69.400 15.418555
69.405 15.452641
69.410 15.361501
69.415 14.74038
69.420 14.470474
69.425 14.499774
69.430 14.893334
69.435 15.08577
69.440 15.055996
69.445 15.141027
69.450 15.836863
69.455 15.700543
69.460 14.82993
69.465 14.038836
69.470 13.862178
69.475 14.144203
69.480 14.336974
69.485 14.09541
69.490 14.519874
69.495 14.698312
69.500 15.011808
69.505 15.06321
69.510 14.930714
69.515 15.119142
69.520 14.80923
69.525 15.093315
69.530 15.265241
69.535 14.995654
69.540 14.887117
69.545 14.398109
69.550 13.933793
69.555 13.826328
69.560 13.616138
69.565 14.009109
69.570 13.939393
69.575 13.653496
69.580 13.402089
69.585 13.152905
69.590 12.668753
69.595 12.183452
69.600 12.305525
69.605 12.796794
69.610 13.301969
69.615 13.63416
69.620 14.298364
69.625 14.879012
69.630 15.268532
69.635 15.168839
69.640 15.118442
69.645 15.234658
69.650 15.583256
69.655 15.502073
69.660 15.669202
69.665 15.821419
69.670 15.951384
69.675 16.050323
69.680 15.750531
69.685 15.618195
69.690 16.077217
69.695 16.030567
69.700 15.784964
69.705 15.713859
69.710 15.444539
69.715 15.790584
69.720 15.743358
69.725 15.890374
69.730 15.720785
69.735 15.491642
69.740 15.659542
69.745 15.35949
69.750 15.065936
69.755 14.699101
69.760 14.421006
69.765 14.524164
69.770 14.124331
69.775 13.954377
69.780 14.480537
69.785 14.621904
69.790 14.979661
69.795 14.995052
69.800 14.712305
69.805 15.103683
69.810 15.294363
69.815 15.421157
69.820 14.916018
69.825 14.6101
69.830 14.777589
69.835 15.33439
69.840 15.111032
69.845 14.923694
69.850 14.685345
69.855 15.236726
69.860 14.811969
69.865 14.333769
69.870 14.132372
69.875 14.409089
69.880 14.401993
69.885 14.214315
69.890 14.238294
69.895 14.915441
69.900 14.745615
69.905 14.61984
69.910 14.017314
69.915 13.828354
69.920 14.081698
69.925 14.10994
69.930 14.208321
69.935 14.448637
69.940 14.495177
69.945 14.906341
69.950 14.919526
69.955 14.587527
69.960 14.078673
69.965 13.892416
69.970 13.905917
69.975 13.7769
69.980 14.249134
69.985 14.385266
69.990 14.505769
69.995 14.78262
70.000 14.998186
70.005 15.076487
70.010 15.102787
70.015 14.844575
70.020 14.780991
70.025 14.558878
70.030 14.444376
70.035 14.567183
70.040 14.67083
70.045 14.40023
70.050 13.779755
70.055 14.00483
70.060 14.291264
70.065 14.093036
70.070 14.612537
70.075 14.545383
70.080 15.02903
70.085 15.42292
70.090 15.60443
70.095 15.05467
70.100 15.119667
70.105 14.724344
70.110 15.105944
70.115 14.843376
70.120 14.560074
70.125 14.400004
70.130 14.726103
70.135 14.547408
70.140 14.100251
70.145 13.710578
70.150 13.751591
70.155 13.953285
70.160 14.014525
70.165 13.813264
70.170 13.223058
70.175 13.095751
70.180 13.066459
70.185 13.112534
70.190 12.973578
70.195 13.774269
70.200 14.629526
70.205 15.126056
70.210 15.715133
70.215 15.531799
70.220 15.678447
70.225 15.310124
70.230 14.293912
70.235 14.222998
70.240 14.243905
70.245 14.689432
70.250 14.592112
70.255 14.472339
70.260 15.019367
70.265 14.882771
70.270 14.712867
70.275 14.536157
70.280 14.627754
70.285 14.783263
70.290 14.628764
70.295 14.717306
70.300 15.360693
70.305 15.542706
70.310 15.384731
70.315 15.518372
70.320 15.438607
70.325 15.553277
70.330 15.204217
70.335 14.864882
70.340 14.698157
70.345 15.124146
70.350 15.222347
70.355 15.384311
70.360 15.437094
70.365 15.524789
70.370 15.96204
70.375 15.620318
70.380 14.359026
70.385 14.234169
70.390 14.295962
70.395 14.05421
70.400 13.608907
70.405 13.466115
70.410 13.844877
70.415 14.03182
70.420 13.520071
70.425 13.362802
70.430 13.208059
70.435 13.140278
70.440 13.261826
70.445 12.883972
70.450 13.092691
70.455 13.334665
70.460 13.466555
70.465 13.936708
70.470 13.794275
70.475 13.206785
70.480 13.136186
70.485 12.531329
70.490 12.474871
70.495 13.038709
70.500 13.464355
70.505 13.64431
70.510 14.452043
70.515 15.210699
70.520 15.791091
70.525 15.907617
70.530 15.360662
70.535 15.414054
70.540 15.702481
70.545 15.214226
70.550 14.700333
70.555 14.001335
70.560 14.193252
70.565 14.290399
70.570 13.62353
70.575 13.202294
70.580 13.295914
70.585 13.674262
70.590 14.048048
70.595 13.759597
70.600 13.765265
70.605 14.320187
70.610 14.595801
70.615 14.825535
70.620 14.94833
70.625 15.293124
70.630 15.303314
70.635 15.373775
70.640 15.355618
70.645 14.930681
70.650 14.465522
70.655 14.456019
70.660 14.158057
70.665 13.928468
70.670 13.472952
70.675 13.424075
70.680 13.897813
70.685 13.688517
70.690 13.275409
70.695 13.621926
70.700 13.865094
70.705 13.692693
70.710 13.515143
70.715 13.408239
70.720 13.542932
70.725 13.18011
70.730 12.432903
70.735 12.387438
70.740 12.686483
70.745 12.431598
70.750 12.764836
70.755 13.568771
70.760 14.322783
70.765 14.256759
70.770 14.039899
70.775 14.473672
70.780 15.266784
70.785 15.106037
70.790 14.569047
70.795 14.238702
70.800 14.481936
70.805 14.770148
70.810 14.226836
70.815 13.277032
70.820 13.170809
70.825 13.476176
70.830 13.728854
70.835 13.814082
70.840 13.347983
70.845 13.566479
70.850 14.201528
70.855 14.641115
70.860 14.738033
70.865 14.800541
70.870 14.865509
70.875 15.065804
70.880 14.785957
70.885 14.296246
70.890 13.772161
70.895 13.357406
70.900 13.507459
70.905 13.684933
70.910 13.873316
70.915 13.95305
70.920 14.419492
70.925 14.92141
70.930 15.28173
70.935 15.047074
70.940 15.015916
70.945 14.593233
70.950 14.669877
70.955 14.343281
70.960 14.36002
70.965 14.053695
70.970 13.970843
70.975 14.222919
70.980 14.275661
70.985 14.318193
70.990 14.137342
70.995 14.133578
71.000 14.165562
71.005 14.21131
71.010 13.856811
71.015 13.837697
71.020 13.941789
71.025 13.759838
71.030 13.968415
71.035 14.022811
71.040 14.006348
71.045 13.910287
71.050 13.773311
71.055 13.666501
71.060 13.246859
71.065 13.078624
71.070 12.750906
71.075 13.100544
71.080 13.432137
71.085 13.612689
71.090 13.959749
71.095 14.192811
71.100 14.096771
71.105 14.269403
71.110 14.406115
71.115 14.170714
71.120 13.652152
71.125 13.448491
71.130 13.209987
71.135 14.030922
71.140 13.876007
71.145 13.237283
71.150 13.463559
71.155 14.196276
71.160 14.281418
71.165 14.588922
71.170 14.101145
71.175 14.002649
71.180 14.259212
71.185 14.23086
71.190 14.076603
71.195 14.188457
71.200 14.684092
71.205 15.122597
71.210 15.686456
71.215 16.043539
71.220 15.741828
71.225 15.458957
71.230 15.362185
71.235 14.775229
71.240 14.05389
71.245 13.869385
71.250 13.973538
71.255 14.033744
71.260 14.352108
71.265 14.829215
71.270 15.292674
71.275 15.195636
71.280 14.238151
71.285 13.975514
71.290 14.06928
71.295 13.626126
71.300 13.027138
71.305 12.697604
71.310 13.255397
71.315 13.768806
71.320 13.889018
71.325 13.927181
71.330 13.99538
71.335 14.201288
71.340 14.518874
71.345 14.265928
71.350 14.001209
71.355 14.189687
71.360 13.975267
71.365 14.066337
71.370 13.786557
71.375 13.891946
71.380 14.294844
71.385 14.361994
71.390 14.083527
71.395 14.432754
71.400 14.7373
71.405 14.825347
71.410 15.301794
71.415 15.047896
71.420 15.479359
71.425 15.360765
71.430 14.811269
71.435 14.295401
71.440 13.819679
71.445 13.596834
71.450 14.019551
71.455 14.223744
71.460 14.30411
71.465 14.337193
71.470 14.470399
71.475 14.798327
71.480 14.368689
71.485 14.155086
71.490 13.917453
71.495 13.838476
71.500 14.009434
71.505 13.892384
71.510 13.551991
71.515 13.396426
71.520 13.119032
71.525 13.299047
71.530 13.74539
71.535 13.727195
71.540 13.806442
71.545 14.13361
71.550 14.502838
71.555 15.148194
71.560 15.33252
71.565 15.282464
71.570 14.688403
71.575 14.587968
71.580 13.978415
71.585 13.549551
71.590 13.130384
71.595 12.661766
71.600 12.990543
71.605 13.536174
71.610 13.459158
71.615 13.827432
71.620 13.436682
71.625 13.61234
71.630 13.861446
71.635 13.540963
71.640 13.882797
71.645 14.093485
71.650 14.306057
71.655 14.460261
71.660 13.930765
71.665 13.713323
71.670 13.905347
71.675 13.889075
71.680 14.503607
71.685 15.289429
71.690 15.444431
71.695 15.710366
71.700 15.753113
71.705 16.109371
71.710 15.666738
71.715 15.780524
71.720 15.532641
71.725 15.35804
71.730 15.470707
71.735 15.390478
71.740 15.257725
71.745 14.973399
71.750 14.447085
71.755 14.414445
71.760 14.350945
71.765 14.256083
71.770 14.238742
71.775 14.277699
71.780 14.296968
71.785 14.287107
71.790 13.92583
71.795 13.412509
71.800 13.286423
71.805 13.291583
71.810 13.236863
71.815 13.211259
71.820 13.071092
71.825 13.339744
71.830 14.033151
71.835 14.602694
71.840 14.485085
71.845 14.860546
71.850 14.806938
71.855 14.865382
71.860 14.587953
71.865 14.345646
71.870 14.515816
71.875 14.787775
71.880 14.791958
71.885 15.160021
71.890 15.87117
71.895 16.336519
71.900 16.243357
71.905 15.937353
71.910 15.871105
71.915 15.134528
71.920 15.249324
71.925 15.003448
71.930 14.724187
71.935 14.501234
71.940 14.547346
71.945 14.498029
71.950 14.711883
71.955 14.173459
71.960 13.777467
71.965 13.562042
71.970 13.462626
71.975 12.94368
71.980 12.990712
71.985 12.976761
71.990 13.534725
71.995 14.230155
72.000 14.3741
72.005 14.676224
72.010 14.349331
72.015 13.257513
72.020 13.300344
72.025 13.544088
72.030 13.43037
72.035 13.340513
72.040 13.002272
72.045 13.383515
72.050 13.804048
72.055 13.503912
72.060 13.08886
72.065 12.972902
72.070 13.384571
72.075 13.883885
72.080 14.442039
72.085 14.532133
72.090 14.678205
72.095 14.636281
72.100 14.726369
72.105 14.044533
72.110 13.621592
72.115 13.423476
72.120 13.125929
72.125 12.956683
72.130 13.238572
72.135 13.186283
72.140 13.276991
72.145 12.951743
72.150 13.012227
72.155 12.90596
72.160 13.252542
72.165 12.810348
72.170 12.880833
72.175 13.265648
72.180 13.852981
72.185 14.321788
72.190 14.440236
72.195 14.389465
72.200 14.720963
72.205 14.49231
72.210 14.073866
72.215 14.052814
72.220 13.813394
72.225 13.446125
72.230 12.977237
72.235 13.229569
72.240 13.500299
72.245 13.535744
72.250 13.18152
72.255 13.397729
72.260 13.714874
72.265 13.891195
72.270 13.703891
72.275 13.646051
72.280 13.566975
72.285 13.474355
72.290 13.30162
72.295 13.151059
72.300 13.020494
72.305 13.312743
72.310 13.67028
72.315 14.363352
72.320 14.862561
72.325 15.226792
72.330 15.531463
72.335 15.759138
72.340 16.022161
72.345 15.796439
72.350 14.746951
72.355 14.620079
72.360 14.156412
72.365 14.112455
72.370 13.322413
72.375 13.197992
72.380 13.375157
72.385 14.287035
72.390 14.726432
72.395 14.999676
72.400 15.024371
72.405 15.407648
72.410 15.251021
72.415 15.166531
72.420 15.186436
72.425 14.85935
72.430 14.805984
72.435 14.48662
72.440 14.47502
72.445 14.531981
72.450 14.025287
72.455 13.635355
72.460 13.148293
72.465 13.146181
72.470 13.151202
72.475 12.833692
72.480 12.903635
72.485 13.155175
72.490 13.494093
72.495 13.649436
72.500 13.736719
72.505 13.948267
72.510 13.453984
72.515 13.700666
72.520 13.377143
72.525 13.164811
72.530 13.464064
72.535 13.399632
72.540 13.574886
72.545 13.620049
72.550 13.466876
72.555 13.795709
72.560 13.635592
72.565 13.529305
72.570 13.137939
72.575 13.317203
72.580 13.752417
72.585 13.993729
72.590 13.476929
72.595 13.72228
72.600 13.650396
72.605 13.708261
72.610 13.68548
72.615 13.75944
72.620 13.722478
72.625 14.099356
72.630 14.361118
72.635 14.944232
72.640 14.600221
72.645 14.102468
72.650 13.395496
72.655 13.844596
72.660 13.631856
72.665 12.957402
72.670 12.88121
72.675 13.761039
72.680 13.775326
72.685 13.586915
72.690 13.485005
72.695 13.42531
72.700 12.978591
72.705 12.169921
72.710 12.053929
72.715 12.382561
72.720 12.098992
72.725 12.14367
72.730 12.654349
72.735 13.164176
72.740 13.387014
72.745 13.059389
72.750 13.327153
72.755 13.415263
72.760 13.507264
72.765 13.71615
72.770 13.838033
72.775 14.148052
72.780 14.135905
72.785 14.010107
72.790 13.324507
72.795 12.91923
72.800 12.977706
72.805 12.676206
72.810 12.610914
72.815 12.918007
72.820 13.458459
72.825 14.340557
72.830 14.437301
72.835 15.110786
72.840 14.932837
72.845 14.895534
72.850 15.095208
72.855 15.191558
72.860 14.984981
72.865 14.417138
72.870 13.7395
72.875 14.054592
72.880 13.920964
72.885 13.642556
72.890 13.524025
72.895 13.951547
72.900 13.86563
72.905 13.932591
72.910 13.815688
72.915 13.795025
72.920 13.607223
72.925 13.021871
72.930 12.521795
72.935 12.620942
72.940 12.902449
72.945 12.754151
72.950 12.518004
72.955 12.84417
72.960 12.802393
72.965 13.138017
72.970 13.318399
72.975 13.411593
72.980 13.802068
72.985 14.062526
72.990 14.079884
72.995 14.135994
73.000 14.154873
