!@!!GADDS PLOTSO FILE: Chi integration type
!@!!Title/SampleName: map-60
!@!!Comment: ?
!@!!User: Bruker Instrument Administrator
!@!!Site: University of Illinois Chicago
!@!!Frame: map-60_01_000.gfrm
!@!!Wavelengths    1.54184   1.54056   1.54439
!@!!Frame angles: 2Theta: 63.000 Omega: 50.000 Phi: 0.000 Chi: 90.000
!@!!Integration range: 2Theta: 53.000 to 73.000  Gamma: -105.000 to -75.000
!@!!Integration method: bin normalized
!@!N
!@!SS
!@!M
!@!L 0.0 0.0 0.0 0.0
!@!XDegrees
!@!YCounts
53.000 7.360884
53.005 7.209972
53.010 7.241112
53.015 7.788058
53.020 8.16446
53.025 7.795682
53.030 7.967967
53.035 7.906536
53.040 7.927965
53.045 7.730515
53.050 7.066483
53.055 6.972036
53.060 7.145724
53.065 7.291891
53.070 7.550282
53.075 7.654034
53.080 7.844761
53.085 7.883103
53.090 7.620073
53.095 7.433374
53.100 7.080902
53.105 6.846478
53.110 7.009063
53.115 7.401654
53.120 7.735279
53.125 8.015164
53.130 8.271284
53.135 8.357636
53.140 8.711974
53.145 8.47562
53.150 8.522518
53.155 8.898793
53.160 9.298424
53.165 9.136578
53.170 8.933469
53.175 8.570851
53.180 8.663011
53.185 8.375399
53.190 8.081744
53.195 7.84839
53.200 8.09217
53.205 8.370321
53.210 8.441791
53.215 8.539052
53.220 8.862011
53.225 9.304054
53.230 9.090056
53.235 8.940607
53.240 8.384466
53.245 8.102331
53.250 8.157189
53.255 7.553401
53.260 7.739674
53.265 8.013617
53.270 8.440845
53.275 8.777894
53.280 8.727982
53.285 8.434632
53.290 8.345334
53.295 7.709422
53.300 7.758544
53.305 7.474146
53.310 7.729947
53.315 7.6629
53.320 7.756283
53.325 7.659932
53.330 8.101974
53.335 8.291742
53.340 8.17023
53.345 7.91789
53.350 8.388162
53.355 8.753742
53.360 8.671724
53.365 8.254387
53.370 8.069566
53.375 8.446407
53.380 8.678507
53.385 8.416048
53.390 8.538654
53.395 8.90474
53.400 9.041368
53.405 8.851299
53.410 8.408708
53.415 7.864054
53.420 7.43579
53.425 6.936499
53.430 6.64176
53.435 6.552221
53.440 6.434706
53.445 6.666726
53.450 6.861217
53.455 7.051146
53.460 7.157777
53.465 7.228804
53.470 7.631448
53.475 8.060231
53.480 8.129469
53.485 8.317245
53.490 8.427155
53.495 8.477736
53.500 8.208728
53.505 7.674844
53.510 7.755761
53.515 7.83548
53.520 7.851148
53.525 8.342783
53.530 8.527579
53.535 8.675905
53.540 8.872829
53.545 8.674242
53.550 8.74489
53.555 8.671415
53.560 8.039583
53.565 8.149531
53.570 8.311657
53.575 8.458022
53.580 8.927328
53.585 9.214132
53.590 9.840203
53.595 10.031727
53.600 10.03262
53.605 9.673334
53.610 9.329568
53.615 9.203368
53.620 9.189081
53.625 8.60062
53.630 8.366483
53.635 9.256392
53.640 9.796053
53.645 9.751492
53.650 9.654704
53.655 9.657161
53.660 9.607667
53.665 9.397733
53.670 8.387639
53.675 8.519921
53.680 8.743997
53.685 8.385627
53.690 8.279543
53.695 8.369877
53.700 8.47126
53.705 8.626462
53.710 8.653735
53.715 8.089087
53.720 8.523027
53.725 8.063297
53.730 7.949291
53.735 8.237669
53.740 8.268426
53.745 8.289886
53.750 8.595058
53.755 8.495808
53.760 8.997181
53.765 8.873806
53.770 8.45266
53.775 8.257812
53.780 8.189115
53.785 8.021374
53.790 8.340975
53.795 8.066728
53.800 8.370435
53.805 8.671056
53.810 8.68392
53.815 8.685489
53.820 8.513023
53.825 8.743927
53.830 8.760685
53.835 8.756042
53.840 8.491394
53.845 8.436144
53.850 8.828044
53.855 8.645847
53.860 8.440209
53.865 8.496353
53.870 8.355855
53.875 8.616805
53.880 8.571977
53.885 8.471303
53.890 8.69503
53.895 8.605828
53.900 8.730542
53.905 8.748081
53.910 8.684489
53.915 8.543703
53.920 8.620883
53.925 8.357725
53.930 9.063712
53.935 9.036526
53.940 8.68214
53.945 8.308232
53.950 8.380198
53.955 8.775105
53.960 8.994311
53.965 8.369246
53.970 8.627161
53.975 8.948143
53.980 9.427208
53.985 9.381441
53.990 8.807866
53.995 9.028435
54.000 9.146566
54.005 8.734622
54.010 8.795071
54.015 8.717788
54.020 8.82735
54.025 9.378072
54.030 9.392974
54.035 9.583948
54.040 9.331196
54.045 9.41155
54.050 9.305676
54.055 8.912814
54.060 8.404175
54.065 7.518114
54.070 7.5642
54.075 7.973918
54.080 8.372933
54.085 8.759192
54.090 9.099525
54.095 9.301317
54.100 9.689511
54.105 10.129226
54.110 10.13715
54.115 9.642491
54.120 9.698536
54.125 9.738566
54.130 10.174557
54.135 10.401309
54.140 10.260265
54.145 10.062581
54.150 10.273136
54.155 10.078096
54.160 10.053269
54.165 10.021123
54.170 10.250723
54.175 9.908122
54.180 9.862644
54.185 9.519304
54.190 9.35122
54.195 9.287691
54.200 9.646545
54.205 9.307583
54.210 9.626587
54.215 9.452236
54.220 9.570313
54.225 9.65681
54.230 9.017294
54.235 8.282342
54.240 8.199627
54.245 8.558552
54.250 8.956266
54.255 9.212279
54.260 9.498775
54.265 9.709962
54.270 9.852943
54.275 10.117916
54.280 9.17728
54.285 9.004359
54.290 8.894755
54.295 8.842749
54.300 8.704141
54.305 8.434525
54.310 8.559082
54.315 8.904174
54.320 9.222085
54.325 9.22749
54.330 9.33349
54.335 9.783475
54.340 10.00448
54.345 10.297305
54.350 10.298154
54.355 9.99189
54.360 9.933025
54.365 10.196652
54.370 10.067753
54.375 9.686462
54.380 9.485082
54.385 9.625966
54.390 9.625932
54.395 9.33872
54.400 9.243634
54.405 9.537074
54.410 9.502847
54.415 9.250487
54.420 9.086345
54.425 9.208414
54.430 9.607944
54.435 9.53089
54.440 9.822301
54.445 10.109728
54.450 9.913326
54.455 9.540769
54.460 9.249824
54.465 9.128094
54.470 8.603989
54.475 8.137661
54.480 8.481622
54.485 8.949911
54.490 9.619352
54.495 10.103289
54.500 10.098739
54.505 10.243351
54.510 10.153324
54.515 10.021468
54.520 10.312427
54.525 10.015062
54.530 9.656389
54.535 9.873685
54.540 10.101087
54.545 10.329804
54.550 10.619072
54.555 10.413257
54.560 9.841872
54.565 9.779567
54.570 9.860809
54.575 9.87693
54.580 9.325483
54.585 8.679439
54.590 8.453303
54.595 9.000604
54.600 9.157139
54.605 9.137851
54.610 8.890695
54.615 8.846472
54.620 8.96585
54.625 9.087152
54.630 8.806494
54.635 8.622144
54.640 8.592016
54.645 9.211973
54.650 9.552859
54.655 9.868279
54.660 9.979043
54.665 10.080272
54.670 10.252759
54.675 10.105658
54.680 9.632731
54.685 9.547548
54.690 9.684102
54.695 9.623129
54.700 9.399076
54.705 9.471959
54.710 10.132995
54.715 10.39114
54.720 10.183206
54.725 10.321573
54.730 10.498622
54.735 10.55144
54.740 9.966954
54.745 9.630254
54.750 9.595044
54.755 9.736432
54.760 9.323328
54.765 9.42551
54.770 9.612215
54.775 9.822083
54.780 9.857939
54.785 9.751568
54.790 9.753796
54.795 10.274399
54.800 10.727803
54.805 10.771883
54.810 11.020868
54.815 11.405917
54.820 11.506505
54.825 11.310667
54.830 10.671119
54.835 10.086304
54.840 9.910802
54.845 9.283225
54.850 8.898764
54.855 9.00112
54.860 8.773466
54.865 8.50614
54.870 8.59166
54.875 9.04186
54.880 9.359868
54.885 9.215627
54.890 9.526355
54.895 10.042962
54.900 10.525249
54.905 10.682453
54.910 10.338918
54.915 10.442163
54.920 10.780073
54.925 10.854134
54.930 10.95594
54.935 10.41447
54.940 10.095643
54.945 10.138751
54.950 10.393351
54.955 10.225826
54.960 9.847878
54.965 9.706653
54.970 10.076018
54.975 10.691658
54.980 10.606683
54.985 10.547002
54.990 10.237277
54.995 10.225625
55.000 9.962513
55.005 9.621266
55.010 9.354665
55.015 9.421091
55.020 9.379288
55.025 9.574564
55.030 9.778588
55.035 10.324546
55.040 10.452131
55.045 10.628745
55.050 10.62729
55.055 10.405502
55.060 10.126296
55.065 9.977408
55.070 9.89398
55.075 9.82611
55.080 10.052547
55.085 10.647705
55.090 10.885272
55.095 10.996891
55.100 11.041842
55.105 10.787276
55.110 10.522794
55.115 10.079651
55.120 9.968377
55.125 10.039544
55.130 9.806604
55.135 9.81251
55.140 10.338806
55.145 10.132806
55.150 9.817008
55.155 9.232536
55.160 9.501897
55.165 9.544535
55.170 9.264933
55.175 8.863267
55.180 8.822779
55.185 8.927938
55.190 9.091832
55.195 8.738012
55.200 8.991874
55.205 8.944732
55.210 9.357951
55.215 9.699844
55.220 9.462041
55.225 9.240818
55.230 9.395792
55.235 9.272786
55.240 9.490367
55.245 9.500899
55.250 9.278484
55.255 9.584194
55.260 9.398746
55.265 9.594225
55.270 9.668374
55.275 9.415711
55.280 9.351462
55.285 9.719694
55.290 10.114453
55.295 10.35057
55.300 9.856734
55.305 10.184046
55.310 10.663086
55.315 10.381456
55.320 10.184259
55.325 10.387718
55.330 10.522588
55.335 10.817406
55.340 10.624799
55.345 10.439306
55.350 10.487547
55.355 10.616341
55.360 10.320574
55.365 10.860228
55.370 10.845416
55.375 10.712692
55.380 10.50601
55.385 10.368341
55.390 10.16624
55.395 10.071503
55.400 9.677959
55.405 9.649642
55.410 10.325196
55.415 10.904974
55.420 11.345593
55.425 11.435941
55.430 11.374157
55.435 11.587231
55.440 11.295378
55.445 10.636989
55.450 10.544294
55.455 10.454586
55.460 10.239389
55.465 10.574144
55.470 10.402599
55.475 10.708214
55.480 11.097645
55.485 10.772107
55.490 10.801105
55.495 11.032068
55.500 10.788157
55.505 10.665322
55.510 10.351088
55.515 9.876226
55.520 9.571652
55.525 9.38099
55.530 9.475945
55.535 9.841149
55.540 10.061283
55.545 9.9524
55.550 10.07783
55.555 10.362741
55.560 10.241456
55.565 10.14594
55.570 10.320191
55.575 10.635078
55.580 10.90629
55.585 11.137789
55.590 11.2529
55.595 11.280014
55.600 11.100195
55.605 11.21979
55.610 11.368948
55.615 11.00658
55.620 10.788646
55.625 10.981114
55.630 11.620618
55.635 11.252699
55.640 10.784483
55.645 11.040237
55.650 11.482001
55.655 11.712565
55.660 11.310441
55.665 11.045998
55.670 11.414934
55.675 11.326573
55.680 11.041336
55.685 10.566916
55.690 10.400928
55.695 10.567624
55.700 10.593159
55.705 10.9126
55.710 11.392924
55.715 11.816248
55.720 12.454408
55.725 12.600924
55.730 12.402342
55.735 12.392086
55.740 11.918607
55.745 11.508476
55.750 11.377614
55.755 10.969919
55.760 11.006003
55.765 10.611132
55.770 10.692913
55.775 10.616716
55.780 10.454045
55.785 10.602052
55.790 10.354296
55.795 10.607848
55.800 11.121428
55.805 10.980312
55.810 11.207682
55.815 11.048191
55.820 11.400321
55.825 11.847431
55.830 11.933037
55.835 11.864491
55.840 11.751837
55.845 11.448011
55.850 11.725157
55.855 11.612578
55.860 11.334031
55.865 11.072673
55.870 10.747548
55.875 10.730522
55.880 10.676882
55.885 10.447639
55.890 10.106142
55.895 9.900277
55.900 9.834339
55.905 10.105278
55.910 10.26755
55.915 10.469827
55.920 10.357079
55.925 10.394541
55.930 10.672338
55.935 11.149964
55.940 11.223559
55.945 11.165742
55.950 11.381028
55.955 12.134541
55.960 12.277884
55.965 12.083902
55.970 11.520261
55.975 11.466739
55.980 11.935964
55.985 11.725628
55.990 11.064926
55.995 11.413537
56.000 12.140709
56.005 12.169132
56.010 12.627545
56.015 12.558306
56.020 12.635694
56.025 12.92126
56.030 12.332718
56.035 11.976792
56.040 11.850277
56.045 11.710519
56.050 11.419679
56.055 11.053057
56.060 10.715698
56.065 10.984677
56.070 10.656114
56.075 10.66335
56.080 10.591775
56.085 10.963177
56.090 11.56395
56.095 12.169064
56.100 11.988184
56.105 12.036569
56.110 12.08934
56.115 11.760041
56.120 11.744135
56.125 11.669959
56.130 11.316898
56.135 11.407428
56.140 12.162524
56.145 12.451537
56.150 12.632754
56.155 12.325865
56.160 12.501425
56.165 12.806295
56.170 12.743332
56.175 12.013412
56.180 11.685076
56.185 11.216634
56.190 11.044674
56.195 10.819751
56.200 10.637769
56.205 10.438276
56.210 10.107469
56.215 10.20144
56.220 10.557938
56.225 10.356743
56.230 10.099867
56.235 10.395144
56.240 11.19798
56.245 11.579932
56.250 11.916043
56.255 11.815077
56.260 12.224229
56.265 12.716569
56.270 12.604721
56.275 12.748523
56.280 12.847686
56.285 13.237494
56.290 13.626841
56.295 13.237832
56.300 12.780823
56.305 12.853434
56.310 12.487608
56.315 12.165891
56.320 11.722104
56.325 11.583868
56.330 11.546893
56.335 11.492126
56.340 10.903907
56.345 10.491392
56.350 10.350107
56.355 10.356848
56.360 10.110294
56.365 10.357578
56.370 10.578307
56.375 10.815445
56.380 11.323853
56.385 11.083319
56.390 11.124346
56.395 11.065679
56.400 10.883717
56.405 10.921533
56.410 10.915687
56.415 10.814567
56.420 11.405426
56.425 11.383888
56.430 11.895736
56.435 11.86378
56.440 11.612432
56.445 11.733697
56.450 11.737966
56.455 11.387614
56.460 11.682968
56.465 11.710398
56.470 12.009158
56.475 12.527886
56.480 12.852191
56.485 12.963638
56.490 13.061712
56.495 12.707198
56.500 12.433399
56.505 11.726747
56.510 10.97066
56.515 10.728348
56.520 10.692321
56.525 10.505157
56.530 10.34756
56.535 10.311752
56.540 10.754447
56.545 11.198675
56.550 11.143497
56.555 11.505306
56.560 11.760497
56.565 11.686354
56.570 11.929009
56.575 12.171996
56.580 12.033443
56.585 11.614827
56.590 11.277937
56.595 11.162044
56.600 11.471329
56.605 11.289735
56.610 11.038887
56.615 11.340951
56.620 11.653697
56.625 12.058372
56.630 12.697709
56.635 12.646355
56.640 12.642294
56.645 12.542379
56.650 12.56611
56.655 12.393124
56.660 11.698742
56.665 11.88281
56.670 12.445788
56.675 12.572002
56.680 12.20818
56.685 11.759223
56.690 12.265632
56.695 12.792931
56.700 12.114915
56.705 11.780775
56.710 12.320755
56.715 12.736179
56.720 12.80401
56.725 12.888212
56.730 12.989465
56.735 13.044145
56.740 13.08642
56.745 12.886379
56.750 13.340682
56.755 14.145811
56.760 13.812407
56.765 13.643357
56.770 13.453499
56.775 13.267264
56.780 13.326273
56.785 13.128061
56.790 12.440351
56.795 12.542247
56.800 12.688787
56.805 13.060839
56.810 12.975826
56.815 12.972786
56.820 13.144963
56.825 12.964414
56.830 12.43376
56.835 12.110353
56.840 12.15954
56.845 12.268814
56.850 11.971463
56.855 11.987348
56.860 12.114834
56.865 12.275605
56.870 12.603603
56.875 12.854071
56.880 12.919474
56.885 12.75833
56.890 12.62398
56.895 13.129997
56.900 13.441298
56.905 12.940053
56.910 12.591432
56.915 12.756718
56.920 13.292771
56.925 13.130997
56.930 12.654169
56.935 12.559822
56.940 13.374459
56.945 13.446165
56.950 13.378739
56.955 13.196526
56.960 13.208496
56.965 13.565063
56.970 13.03018
56.975 12.778692
56.980 12.584867
56.985 12.396665
56.990 12.233047
56.995 12.176069
57.000 11.944088
57.005 12.083699
57.010 11.871099
57.015 12.143166
57.020 12.508828
57.025 12.61426
57.030 12.310642
57.035 12.463818
57.040 12.935317
57.045 12.658805
57.050 12.197841
57.055 11.511696
57.060 11.515235
57.065 11.258905
57.070 11.154387
57.075 11.11097
57.080 11.200665
57.085 11.413102
57.090 11.667481
57.095 11.881832
57.100 12.13437
57.105 11.718586
57.110 11.829508
57.115 11.868546
57.120 12.335974
57.125 12.531188
57.130 12.39959
57.135 12.883772
57.140 13.197311
57.145 13.602693
57.150 13.801918
57.155 13.398755
57.160 12.91252
57.165 13.028887
57.170 12.904293
57.175 12.65505
57.180 12.024009
57.185 12.293593
57.190 12.801785
57.195 12.74967
57.200 12.4551
57.205 12.513621
57.210 12.50526
57.215 12.427342
57.220 11.930582
57.225 11.663422
57.230 12.131243
57.235 12.522766
57.240 12.465089
57.245 12.402337
57.250 12.332047
57.255 12.258434
57.260 11.996833
57.265 11.530086
57.270 11.234884
57.275 11.130709
57.280 11.816975
57.285 12.253824
57.290 12.081534
57.295 12.506782
57.300 12.965357
57.305 13.134222
57.310 13.186393
57.315 12.921609
57.320 13.168215
57.325 13.678791
57.330 13.857391
57.335 13.913896
57.340 13.878721
57.345 13.643023
57.350 13.652942
57.355 13.197933
57.360 12.941891
57.365 12.527176
57.370 12.601187
57.375 13.056558
57.380 13.327204
57.385 13.56843
57.390 13.779738
57.395 13.742702
57.400 13.647651
57.405 13.189236
57.410 12.988055
57.415 12.941864
57.420 12.396818
57.425 12.134046
57.430 11.81703
57.435 12.134005
57.440 12.434735
57.445 11.895095
57.450 12.109434
57.455 12.293023
57.460 12.41178
57.465 12.573065
57.470 12.584001
57.475 12.822769
57.480 13.210466
57.485 13.006351
57.490 13.291723
57.495 13.264233
57.500 13.334692
57.505 13.376449
57.510 13.357043
57.515 13.251574
57.520 13.02454
57.525 12.475337
57.530 12.746498
57.535 12.78892
57.540 12.541897
57.545 12.703751
57.550 12.724798
57.555 13.324809
57.560 13.370629
57.565 13.544806
57.570 13.329808
57.575 13.566966
57.580 13.650897
57.585 13.183445
57.590 12.977863
57.595 12.953098
57.600 13.137927
57.605 13.62923
57.610 13.105601
57.615 13.084569
57.620 13.778011
57.625 13.911777
57.630 13.618935
57.635 12.954739
57.640 12.74957
57.645 12.641537
57.650 12.676367
57.655 12.341267
57.660 11.961102
57.665 11.994504
57.670 12.377157
57.675 12.40935
57.680 12.331776
57.685 12.367648
57.690 12.736471
57.695 12.977212
57.700 13.120604
57.705 13.026078
57.710 13.312051
57.715 13.602156
57.720 13.423197
57.725 13.394408
57.730 14.188724
57.735 14.424698
57.740 14.188804
57.745 13.728178
57.750 13.30104
57.755 13.135306
57.760 12.877399
57.765 12.297163
57.770 12.372379
57.775 12.754915
57.780 12.944571
57.785 13.464006
57.790 13.05687
57.795 12.961283
57.800 12.841498
57.805 12.822172
57.810 12.842668
57.815 13.1043
57.820 12.830008
57.825 13.583227
57.830 13.899345
57.835 14.070577
57.840 13.948616
57.845 13.316832
57.850 12.734213
57.855 12.709987
57.860 12.217319
57.865 11.97811
57.870 12.318327
57.875 12.245276
57.880 12.599113
57.885 12.925342
57.890 13.370789
57.895 13.346944
57.900 13.417573
57.905 13.234972
57.910 13.003664
57.915 13.776707
57.920 14.090172
57.925 13.902402
57.930 14.371352
57.935 14.507741
57.940 14.417747
57.945 14.259922
57.950 13.627612
57.955 13.549593
57.960 13.556107
57.965 13.209583
57.970 13.024055
57.975 13.563037
57.980 13.878913
57.985 13.689823
57.990 13.747874
57.995 13.47483
58.000 13.395989
58.005 13.222023
58.010 13.391186
58.015 13.605373
58.020 13.297548
58.025 13.566807
58.030 13.829341
58.035 14.006151
58.040 14.255252
58.045 13.353043
58.050 13.36275
58.055 13.835783
58.060 13.750142
58.065 13.594744
58.070 13.920438
58.075 14.329849
58.080 14.887743
58.085 15.410459
58.090 15.065145
58.095 15.391594
58.100 15.455443
58.105 14.902894
58.110 14.459221
58.115 14.216173
58.120 13.868319
58.125 14.074301
58.130 13.975494
58.135 14.071079
58.140 13.951381
58.145 13.949027
58.150 13.909801
58.155 13.696074
58.160 13.3254
58.165 13.139608
58.170 13.38547
58.175 13.355972
58.180 13.110879
58.185 13.083036
58.190 13.189709
58.195 13.004186
58.200 13.040935
58.205 12.776672
58.210 12.688509
58.215 12.843275
58.220 12.700289
58.225 12.625597
58.230 13.000358
58.235 13.207563
58.240 13.112455
58.245 13.101755
58.250 12.924005
58.255 13.409053
58.260 13.587265
58.265 13.813743
58.270 13.57586
58.275 13.893054
58.280 14.613184
58.285 14.906338
58.290 14.616786
58.295 14.518027
58.300 14.49353
58.305 14.932256
58.310 14.947116
58.315 14.460788
58.320 14.419209
58.325 14.854911
58.330 14.830421
58.335 14.293672
58.340 14.095101
58.345 14.110149
58.350 14.347217
58.355 13.978456
58.360 13.404408
58.365 13.662841
58.370 13.974875
58.375 13.669042
58.380 13.713465
58.385 13.902793
58.390 14.28278
58.395 14.692378
58.400 14.627426
58.405 14.624227
58.410 14.820617
58.415 14.459211
58.420 14.692117
58.425 14.663691
58.430 14.644696
58.435 14.677293
58.440 15.018778
58.445 14.885156
58.450 15.018348
58.455 14.676176
58.460 14.701621
58.465 14.483891
58.470 14.564617
58.475 14.482085
58.480 14.501061
58.485 14.65149
58.490 14.660336
58.495 14.663998
58.500 14.875001
58.505 14.547722
58.510 14.584044
58.515 14.513561
58.520 14.188087
58.525 14.167185
58.530 14.358176
58.535 14.395125
58.540 14.515152
58.545 14.772291
58.550 15.015969
58.555 15.362618
58.560 15.743463
58.565 15.377864
58.570 15.261441
58.575 15.442572
58.580 15.580925
58.585 15.312955
58.590 15.236167
58.595 15.285171
58.600 15.290634
58.605 15.776278
58.610 16.000694
58.615 15.916594
58.620 16.232899
58.625 16.409853
58.630 16.072998
58.635 16.14628
58.640 15.640388
58.645 15.460163
58.650 15.436322
58.655 15.266408
58.660 15.387514
58.665 15.879072
58.670 16.41683
58.675 16.854616
58.680 16.951185
58.685 16.804342
58.690 16.747902
58.695 17.089497
58.700 16.654495
58.705 16.564104
58.710 16.221481
58.715 15.794786
58.720 15.933847
58.725 15.918811
58.730 15.721602
58.735 15.977376
58.740 15.944982
58.745 16.146145
58.750 16.787794
58.755 17.276417
58.760 17.180206
58.765 17.56958
58.770 17.556961
58.775 17.163456
58.780 16.678493
58.785 15.841226
58.790 15.086435
58.795 14.82884
58.800 13.993676
58.805 13.535661
58.810 13.708978
58.815 14.526449
58.820 14.807961
58.825 15.137456
58.830 15.547752
58.835 15.924996
58.840 15.917723
58.845 15.857638
58.850 15.543381
58.855 16.109045
58.860 16.298203
58.865 16.124504
58.870 16.244307
58.875 17.099463
58.880 17.548285
58.885 18.028194
58.890 18.014385
58.895 18.264725
58.900 18.330288
58.905 17.837273
58.910 17.604326
58.915 16.942856
58.920 16.431158
58.925 16.264595
58.930 16.327452
58.935 16.574257
58.940 17.022984
58.945 17.176113
58.950 17.958023
58.955 18.243587
58.960 18.037571
58.965 18.024519
58.970 18.103676
58.975 18.19643
58.980 17.699465
58.985 16.788666
58.990 16.267252
58.995 16.734873
59.000 16.888887
59.005 17.369736
59.010 18.143467
59.015 18.644896
59.020 19.040243
59.025 19.038048
59.030 18.704967
59.035 18.245287
59.040 18.350489
59.045 18.224081
59.050 18.150932
59.055 18.503241
59.060 18.829567
59.065 19.256744
59.070 20.193119
59.075 19.708302
59.080 20.075968
59.085 20.470684
59.090 20.849386
59.095 21.100237
59.100 21.000093
59.105 19.883455
59.110 19.314501
59.115 18.838497
59.120 18.473873
59.125 18.293215
59.130 18.282831
59.135 18.008335
59.140 18.376915
59.145 18.425884
59.150 17.831675
59.155 17.197515
59.160 17.017191
59.165 17.627831
59.170 18.178041
59.175 18.209667
59.180 18.40477
59.185 18.754368
59.190 19.423166
59.195 19.194956
59.200 18.835871
59.205 18.682787
59.210 18.667484
59.215 18.528034
59.220 18.837452
59.225 19.176537
59.230 19.137403
59.235 18.409828
59.240 18.038574
59.245 18.446161
59.250 18.096432
59.255 17.895199
59.260 17.826019
59.265 17.677839
59.270 18.470652
59.275 18.532537
59.280 18.25071
59.285 18.437593
59.290 18.399059
59.295 17.700281
59.300 18.001953
59.305 18.104393
59.310 18.08584
59.315 18.277884
59.320 18.681274
59.325 18.740414
59.330 19.413982
59.335 19.119404
59.340 18.422865
59.345 18.108444
59.350 17.518618
59.355 17.447556
59.360 18.251215
59.365 18.030813
59.370 17.919806
59.375 18.909967
59.380 19.657452
59.385 20.385124
59.390 20.675598
59.395 19.732132
59.400 20.137083
59.405 20.561831
59.410 19.659721
59.415 19.816349
59.420 19.835268
59.425 19.435118
59.430 19.221767
59.435 18.824387
59.440 19.007532
59.445 19.384691
59.450 18.65633
59.455 18.190332
59.460 18.410517
59.465 18.818874
59.470 18.57692
59.475 18.241184
59.480 18.387758
59.485 18.860929
59.490 19.352642
59.495 19.883825
59.500 20.049248
59.505 19.770506
59.510 19.626143
59.515 19.719904
59.520 19.373226
59.525 18.527103
59.530 17.873514
59.535 18.070248
59.540 18.44272
59.545 18.652752
59.550 18.593441
59.555 19.195631
59.560 20.016359
59.565 20.139915
59.570 20.297554
59.575 19.99439
59.580 19.093052
59.585 18.51371
59.590 17.809219
59.595 17.514952
59.600 16.988911
59.605 16.855539
59.610 17.233023
59.615 17.713879
59.620 17.949713
59.625 17.779243
59.630 18.104414
59.635 18.493692
59.640 18.639271
59.645 18.61171
59.650 18.817865
59.655 18.976818
59.660 18.882359
59.665 18.951033
59.670 18.722424
59.675 17.980902
59.680 18.118204
59.685 18.368294
59.690 18.772482
59.695 19.00317
59.700 19.374361
59.705 19.549976
59.710 19.868364
59.715 19.253529
59.720 18.24564
59.725 18.336336
59.730 18.570635
59.735 18.054035
59.740 18.346077
59.745 18.534639
59.750 19.161757
59.755 19.693832
59.760 19.610069
59.765 19.996103
59.770 20.09889
59.775 20.069916
59.780 19.891918
59.785 19.544981
59.790 20.024603
59.795 19.933245
59.800 19.38553
59.805 19.504457
59.810 19.881723
59.815 20.41452
59.820 20.532619
59.825 20.722717
59.830 20.248062
59.835 19.629801
59.840 18.954742
59.845 18.556484
59.850 18.366192
59.855 18.130747
59.860 17.475677
59.865 18.075556
59.870 18.855465
59.875 18.940403
59.880 19.1891
59.885 19.018267
59.890 19.681345
59.895 20.02536
59.900 20.290159
59.905 20.450281
59.910 20.596668
59.915 20.328089
59.920 20.235367
59.925 20.147589
59.930 20.013313
59.935 19.578796
59.940 19.305208
59.945 18.942581
59.950 18.473713
59.955 18.417669
59.960 18.418554
59.965 18.252127
59.970 17.936373
59.975 17.759142
59.980 18.134207
59.985 18.923964
59.990 19.133287
59.995 18.869703
60.000 18.990208
60.005 18.923685
60.010 19.437624
60.015 19.756933
60.020 19.414385
60.025 19.12303
60.030 19.026274
60.035 19.175783
60.040 19.762646
60.045 20.215225
60.050 20.063339
60.055 19.873442
60.060 20.064234
60.065 20.273754
60.070 20.631384
60.075 20.207474
60.080 19.188475
60.085 19.169333
60.090 19.566793
60.095 19.238523
60.100 18.597404
60.105 18.290945
60.110 18.657846
60.115 18.735283
60.120 18.912552
60.125 18.432987
60.130 18.096079
60.135 18.418697
60.140 18.088428
60.145 17.689915
60.150 17.486242
60.155 17.463476
60.160 18.003197
60.165 18.326401
60.170 17.999968
60.175 17.911488
60.180 17.975552
60.185 18.435474
60.190 18.540682
60.195 18.201862
60.200 18.657621
60.205 18.757641
60.210 19.213787
60.215 19.180433
60.220 18.867378
60.225 18.728439
60.230 18.210459
60.235 17.941175
60.240 17.931009
60.245 17.91258
60.250 18.096535
60.255 17.888554
60.260 17.300791
60.265 17.873262
60.270 17.888855
60.275 17.877161
60.280 17.929983
60.285 17.825598
60.290 18.229378
60.295 18.700819
60.300 18.437943
60.305 18.528961
60.310 18.364342
60.315 18.277037
60.320 18.594187
60.325 18.427401
60.330 18.132868
60.335 18.475414
60.340 18.818676
60.345 18.747812
60.350 18.268587
60.355 17.692595
60.360 17.185625
60.365 17.049152
60.370 16.483452
60.375 16.26255
60.380 16.495684
60.385 16.568172
60.390 16.80751
60.395 16.838982
60.400 16.753199
60.405 16.778675
60.410 16.231342
60.415 16.097509
60.420 15.922539
60.425 15.872382
60.430 16.514688
60.435 16.752148
60.440 16.979731
60.445 17.386318
60.450 17.13693
60.455 17.216997
60.460 17.461128
60.465 17.038666
60.470 17.260168
60.475 17.449558
60.480 17.567932
60.485 17.797997
60.490 17.362284
60.495 16.757799
60.500 16.916443
60.505 16.958788
60.510 16.951122
60.515 16.698605
60.520 16.628445
60.525 16.872658
60.530 16.259285
60.535 15.792722
60.540 15.613834
60.545 15.24981
60.550 15.07443
60.555 14.940391
60.560 15.465784
60.565 16.141611
60.570 16.550322
60.575 16.556242
60.580 16.76107
60.585 17.17589
60.590 17.56461
60.595 17.741678
60.600 17.912617
60.605 17.775312
60.610 17.957352
60.615 17.648258
60.620 17.798494
60.625 17.956743
60.630 17.63542
60.635 17.199877
60.640 16.348806
60.645 16.215149
60.650 16.460733
60.655 15.868193
60.660 14.900333
60.665 14.899541
60.670 15.26426
60.675 15.880495
60.680 15.207456
60.685 15.041899
60.690 15.16966
60.695 15.696326
60.700 16.033497
60.705 16.294739
60.710 16.240906
60.715 16.539402
60.720 16.854855
60.725 17.066717
60.730 17.473152
60.735 17.721422
60.740 17.619286
60.745 17.631432
60.750 17.403099
60.755 17.132698
60.760 17.365351
60.765 17.401609
60.770 17.090614
60.775 16.379522
60.780 15.916286
60.785 15.90311
60.790 16.115181
60.795 16.409443
60.800 16.02503
60.805 15.671297
60.810 15.944398
60.815 16.598885
60.820 16.668699
60.825 16.023586
60.830 14.951052
60.835 14.756451
60.840 14.6299
60.845 14.734237
60.850 14.875461
60.855 15.446927
60.860 16.090149
60.865 16.618265
60.870 16.500689
60.875 16.568569
60.880 16.546293
60.885 16.671515
60.890 15.864513
60.895 15.575977
60.900 15.088377
60.905 14.82582
60.910 14.675807
60.915 14.330846
60.920 13.799412
60.925 14.407149
60.930 13.848362
60.935 14.391758
60.940 14.687722
60.945 14.84311
60.950 14.808337
60.955 15.126668
60.960 15.662538
60.965 15.881427
60.970 15.292596
60.975 15.218858
60.980 15.848581
60.985 16.171535
60.990 16.372488
60.995 15.721549
61.000 15.770833
61.005 16.006838
61.010 16.093039
61.015 15.645885
61.020 15.620309
61.025 15.190685
61.030 15.087166
61.035 15.030498
61.040 14.912046
61.045 14.481466
61.050 14.661393
61.055 15.058122
61.060 15.085746
61.065 15.89398
61.070 16.831306
61.075 16.670929
61.080 16.651257
61.085 16.578789
61.090 16.388994
61.095 16.806635
61.100 16.083986
61.105 15.488282
61.110 16.548
61.115 17.142319
61.120 17.17687
61.125 17.153742
61.130 17.531881
61.135 17.521
61.140 17.448586
61.145 17.035004
61.150 16.746801
61.155 16.580996
61.160 16.397924
61.165 15.786922
61.170 15.343497
61.175 15.173228
61.180 14.939973
61.185 14.826592
61.190 14.536678
61.195 14.104727
61.200 14.642977
61.205 15.118853
61.210 14.846053
61.215 14.848744
61.220 15.053506
61.225 15.558896
61.230 15.869387
61.235 15.746052
61.240 15.956475
61.245 16.555138
61.250 16.810125
61.255 17.338299
61.260 17.285065
61.265 17.271383
61.270 17.207819
61.275 17.455387
61.280 17.684031
61.285 17.701681
61.290 17.432278
61.295 17.295704
61.300 17.373619
61.305 17.002527
61.310 16.902294
61.315 16.190136
61.320 16.184601
61.325 15.983174
61.330 15.883588
61.335 15.275842
61.340 15.285654
61.345 15.047817
61.350 15.366826
61.355 15.094628
61.360 15.165513
61.365 15.579226
61.370 15.553399
61.375 15.441607
61.380 15.287362
61.385 15.15282
61.390 15.067225
61.395 14.720764
61.400 14.985651
61.405 15.556374
61.410 16.213835
61.415 16.540758
61.420 16.339817
61.425 16.287975
61.430 15.709167
61.435 14.892719
61.440 15.148459
61.445 14.666218
61.450 14.43323
61.455 14.879199
61.460 14.984331
61.465 15.769015
61.470 16.200035
61.475 15.781076
61.480 15.803285
61.485 15.667821
61.490 15.6923
61.495 15.40066
61.500 15.452104
61.505 15.270947
61.510 15.613059
61.515 15.900903
61.520 16.431484
61.525 16.587645
61.530 17.376844
61.535 16.794336
61.540 17.577209
61.545 17.948298
61.550 17.928307
61.555 17.617392
61.560 16.99193
61.565 16.370314
61.570 17.042206
61.575 16.396292
61.580 16.100906
61.585 16.305445
61.590 16.506432
61.595 16.772236
61.600 16.982607
61.605 16.702045
61.610 16.654087
61.615 15.834123
61.620 15.867815
61.625 15.799481
61.630 15.944039
61.635 15.487415
61.640 15.097085
61.645 14.849628
61.650 15.255432
61.655 14.938584
61.660 14.389419
61.665 14.069468
61.670 14.982605
61.675 15.521348
61.680 16.128864
61.685 15.952583
61.690 16.109171
61.695 16.731243
61.700 17.242569
61.705 17.2356
61.710 17.412216
61.715 17.624203
61.720 18.112095
61.725 17.633459
61.730 17.218479
61.735 16.534746
61.740 15.743222
61.745 14.874432
61.750 13.436098
61.755 12.885859
61.760 13.272998
61.765 13.362827
61.770 13.583541
61.775 14.177507
61.780 14.520863
61.785 14.917437
61.790 15.192857
61.795 14.982182
61.800 15.24884
61.805 15.061594
61.810 15.142294
61.815 15.456551
61.820 16.184845
61.825 16.474697
61.830 16.549089
61.835 16.072197
61.840 16.27389
61.845 15.901669
61.850 15.611119
61.855 14.877481
61.860 14.607725
61.865 15.103064
61.870 16.048281
61.875 16.10745
61.880 16.671432
61.885 17.311502
61.890 18.336618
61.895 18.606323
61.900 18.611813
61.905 18.450956
61.910 18.342775
61.915 18.485058
61.920 18.123503
61.925 17.695257
61.930 17.490618
61.935 17.294865
61.940 16.712599
61.945 16.43577
61.950 15.953672
61.955 16.007624
61.960 15.661335
61.965 15.240386
61.970 14.994196
61.975 15.806147
61.980 16.3647
61.985 16.365002
61.990 16.157394
61.995 15.987074
62.000 16.089279
62.005 16.161823
62.010 15.399618
62.015 14.911252
62.020 15.103712
62.025 15.243435
62.030 15.959167
62.035 16.123241
62.040 16.021347
62.045 16.366451
62.050 16.24231
62.055 16.041821
62.060 15.99186
62.065 15.333782
62.070 14.777695
62.075 14.978242
62.080 14.755134
62.085 14.582171
62.090 14.611832
62.095 14.76064
62.100 15.147229
62.105 15.649049
62.110 15.695354
62.115 16.201674
62.120 16.521685
62.125 16.52837
62.130 16.43767
62.135 16.421566
62.140 16.290596
62.145 15.911137
62.150 15.858803
62.155 15.871513
62.160 15.750695
62.165 15.809249
62.170 16.157955
62.175 16.282011
62.180 16.56642
62.185 16.542065
62.190 16.005495
62.195 15.732979
62.200 15.816615
62.205 15.147989
62.210 14.774447
62.215 14.822803
62.220 14.910251
62.225 15.885045
62.230 15.92873
62.235 15.875268
62.240 15.978616
62.245 16.269543
62.250 15.915359
62.255 15.694125
62.260 15.353909
62.265 15.771672
62.270 15.762003
62.275 16.134449
62.280 16.283937
62.285 16.084902
62.290 15.784482
62.295 15.56115
62.300 15.354317
62.305 14.892578
62.310 14.497614
62.315 14.498844
62.320 15.360637
62.325 16.072241
62.330 16.500902
62.335 16.905817
62.340 17.174046
62.345 17.432215
62.350 17.057562
62.355 16.963249
62.360 16.782145
62.365 16.015175
62.370 15.312142
62.375 14.980306
62.380 14.370861
62.385 14.493597
62.390 13.878561
62.395 14.330949
62.400 15.15936
62.405 15.765984
62.410 16.616995
62.415 17.194443
62.420 17.185852
62.425 17.180634
62.430 16.509184
62.435 15.872805
62.440 15.710359
62.445 15.414666
62.450 15.734988
62.455 15.819565
62.460 15.803604
62.465 15.685
62.470 15.892265
62.475 16.244385
62.480 16.005512
62.485 15.325482
62.490 15.010457
62.495 14.935346
62.500 15.162587
62.505 15.07508
62.510 14.914006
62.515 15.159363
62.520 15.133183
62.525 14.621347
62.530 14.332546
62.535 14.166675
62.540 14.42836
62.545 14.358829
62.550 14.219996
62.555 14.953525
62.560 15.538129
62.565 15.413338
62.570 15.883877
62.575 15.825302
62.580 15.830386
62.585 16.297466
62.590 15.756129
62.595 16.079382
62.600 16.885441
62.605 16.36557
62.610 15.979673
62.615 15.983657
62.620 15.875402
62.625 16.360125
62.630 16.899101
62.635 16.964636
62.640 16.963949
62.645 16.826899
62.650 16.523716
62.655 16.448042
62.660 16.257008
62.665 15.432234
62.670 15.20752
62.675 15.60372
62.680 16.165863
62.685 16.046976
62.690 16.181309
62.695 16.462021
62.700 16.836788
62.705 17.465267
62.710 17.241489
62.715 17.04356
62.720 17.241539
62.725 17.489635
62.730 17.238861
62.735 17.146132
62.740 16.946707
62.745 17.058834
62.750 17.28348
62.755 17.637604
62.760 17.237446
62.765 17.29133
62.770 16.845818
62.775 16.301123
62.780 16.01466
62.785 15.527427
62.790 14.549007
62.795 14.266311
62.800 14.808678
62.805 15.417693
62.810 15.694604
62.815 15.944374
62.820 16.076334
62.825 16.494776
62.830 16.641865
62.835 16.127028
62.840 15.443972
62.845 15.563015
62.850 15.742435
62.855 15.754398
62.860 15.316017
62.865 14.412348
62.870 14.503258
62.875 14.949191
62.880 14.876727
62.885 14.749596
62.890 15.179028
62.895 15.867262
62.900 17.081909
62.905 16.7118
62.910 16.722042
62.915 16.624853
62.920 16.484577
62.925 15.996533
62.930 15.906821
62.935 15.701649
62.940 15.621327
62.945 15.31791
62.950 15.138762
62.955 15.27032
62.960 15.539355
62.965 15.645336
62.970 15.514271
62.975 15.926526
62.980 16.178194
62.985 16.637926
62.990 16.87491
62.995 16.907003
63.000 17.01404
63.005 16.551611
63.010 16.027977
63.015 15.558972
63.020 15.28079
63.025 15.499631
63.030 15.384951
63.035 15.974586
63.040 16.995552
63.045 17.492943
63.050 17.894878
63.055 17.997751
63.060 17.980877
63.065 18.205654
63.070 17.419411
63.075 16.918587
63.080 16.516735
63.085 16.123638
63.090 15.749663
63.095 15.319824
63.100 14.822169
63.105 15.026375
63.110 15.482665
63.115 15.241191
63.120 15.540674
63.125 16.108662
63.130 16.356419
63.135 16.589443
63.140 16.268021
63.145 16.020971
63.150 16.305616
63.155 16.52737
63.160 16.392378
63.165 16.635105
63.170 16.589376
63.175 16.935093
63.180 17.113203
63.185 16.965883
63.190 16.189959
63.195 15.770283
63.200 15.525904
63.205 15.667009
63.210 15.48177
63.215 15.103703
63.220 15.284864
63.225 15.591627
63.230 15.779756
63.235 15.764259
63.240 16.191105
63.245 16.307163
63.250 16.362953
63.255 16.676006
63.260 16.676746
63.265 16.581556
63.270 16.446177
63.275 16.394699
63.280 16.86622
63.285 17.322412
63.290 17.574591
63.295 17.686316
63.300 17.619076
63.305 17.587421
63.310 17.459553
63.315 16.956762
63.320 16.566481
63.325 16.165836
63.330 16.723001
63.335 16.752596
63.340 16.87587
63.345 16.208326
63.350 16.039223
63.355 16.214952
63.360 15.763708
63.365 15.189083
63.370 15.673532
63.375 15.859255
63.380 16.866264
63.385 17.428024
63.390 17.449383
63.395 17.756897
63.400 17.887785
63.405 17.246832
63.410 16.810326
63.415 16.145391
63.420 16.027611
63.425 16.24073
63.430 16.362705
63.435 16.37989
63.440 16.582081
63.445 16.634899
63.450 16.601049
63.455 16.028193
63.460 15.865083
63.465 16.107277
63.470 16.563652
63.475 17.008253
63.480 17.550161
63.485 17.87142
63.490 18.349689
63.495 18.58791
63.500 18.081573
63.505 17.561363
63.510 17.164076
63.515 16.756737
63.520 16.576019
63.525 16.016453
63.530 15.672009
63.535 16.176632
63.540 16.384415
63.545 16.209101
63.550 15.581234
63.555 15.638247
63.560 16.355295
63.565 16.978378
63.570 17.17808
63.575 16.977718
63.580 16.746223
63.585 16.592768
63.590 16.134077
63.595 16.507349
63.600 16.084892
63.605 15.356757
63.610 15.654089
63.615 16.147118
63.620 17.102634
63.625 17.283295
63.630 16.952841
63.635 16.553308
63.640 17.216545
63.645 17.220284
63.650 17.150215
63.655 17.179392
63.660 17.375425
63.665 17.624582
63.670 17.695328
63.675 17.13105
63.680 17.408293
63.685 17.265305
63.690 16.732401
63.695 16.379297
63.700 15.722378
63.705 15.930758
63.710 16.025637
63.715 15.529759
63.720 15.755193
63.725 16.458616
63.730 16.289413
63.735 16.404873
63.740 16.651239
63.745 17.391985
63.750 17.57814
63.755 17.492737
63.760 17.331532
63.765 17.263863
63.770 17.208204
63.775 16.970282
63.780 17.06638
63.785 17.009743
63.790 16.830599
63.795 17.288301
63.800 17.200794
63.805 16.494881
63.810 15.922756
63.815 15.318523
63.820 15.533533
63.825 16.056929
63.830 16.091274
63.835 16.562035
63.840 17.59416
63.845 17.638226
63.850 17.432955
63.855 17.265875
63.860 17.056976
63.865 17.16194
63.870 17.301821
63.875 17.666702
63.880 18.345829
63.885 18.770191
63.890 19.07242
63.895 18.895857
63.900 18.398924
63.905 17.959738
63.910 17.544727
63.915 16.841825
63.920 16.438999
63.925 15.834851
63.930 15.446664
63.935 15.814713
63.940 16.31002
63.945 16.900251
63.950 17.238075
63.955 17.316227
63.960 17.80048
63.965 18.631662
63.970 18.227404
63.975 18.195768
63.980 17.86808
63.985 17.870068
63.990 18.359457
63.995 18.392279
64.000 18.149786
64.005 18.904263
64.010 19.353134
64.015 20.471441
64.020 20.916227
64.025 20.980539
64.030 21.297636
64.035 21.128616
64.040 20.301832
64.045 19.368271
64.050 17.922667
64.055 17.691376
64.060 17.222815
64.065 16.37343
64.070 16.042257
64.075 16.537292
64.080 17.153484
64.085 17.455984
64.090 17.488056
64.095 17.749897
64.100 18.06921
64.105 18.082989
64.110 17.598644
64.115 17.085543
64.120 16.937597
64.125 16.909649
64.130 16.862892
64.135 17.223549
64.140 17.303915
64.145 17.314035
64.150 17.63151
64.155 17.646162
64.160 17.584885
64.165 17.019192
64.170 16.873596
64.175 17.422892
64.180 18.117495
64.185 18.401423
64.190 18.077808
64.195 18.059492
64.200 18.410275
64.205 18.265757
64.210 17.903502
64.215 17.525564
64.220 17.47797
64.225 17.443914
64.230 17.557608
64.235 17.309473
64.240 17.05759
64.245 17.061506
64.250 17.138136
64.255 17.003611
64.260 17.761791
64.265 18.822773
64.270 19.946476
64.275 20.461077
64.280 20.579834
64.285 21.015503
64.290 21.209055
64.295 20.87166
64.300 19.985266
64.305 19.154999
64.310 19.453575
64.315 19.791815
64.320 19.465061
64.325 19.382259
64.330 19.172634
64.335 18.668734
64.340 18.910479
64.345 18.766022
64.350 18.449585
64.355 18.515072
64.360 18.852646
64.365 19.214279
64.370 19.463917
64.375 19.304989
64.380 19.053749
64.385 18.770004
64.390 18.003172
64.395 17.802616
64.400 17.672609
64.405 17.882696
64.410 17.884077
64.415 18.09054
64.420 19.002155
64.425 20.172449
64.430 20.733007
64.435 20.718735
64.440 20.802349
64.445 20.713863
64.450 20.097509
64.455 19.729
64.460 19.613157
64.465 19.735315
64.470 19.644714
64.475 19.211359
64.480 19.687147
64.485 20.483656
64.490 20.949493
64.495 21.293888
64.500 20.993233
64.505 21.173006
64.510 21.613411
64.515 20.851933
64.520 20.260408
64.525 19.948675
64.530 19.812967
64.535 20.024357
64.540 20.082619
64.545 20.560452
64.550 21.043638
64.555 21.05648
64.560 20.767445
64.565 20.652145
64.570 20.732801
64.575 20.700974
64.580 20.37714
64.585 20.394623
64.590 20.88413
64.595 21.011948
64.600 20.737345
64.605 21.22304
64.610 21.576424
64.615 22.247465
64.620 22.70834
64.625 22.037481
64.630 21.928415
64.635 22.224398
64.640 22.298111
64.645 22.352749
64.650 21.961441
64.655 21.612396
64.660 22.271114
64.665 22.120167
64.670 21.637156
64.675 21.257799
64.680 20.788584
64.685 20.444899
64.690 20.09296
64.695 20.324936
64.700 20.610857
64.705 20.651575
64.710 21.547247
64.715 22.153889
64.720 22.613758
64.725 23.068838
64.730 22.718214
64.735 22.787287
64.740 23.040186
64.745 22.519178
64.750 22.052319
64.755 21.831339
64.760 21.902237
64.765 22.334007
64.770 22.38209
64.775 22.389238
64.780 22.237625
64.785 22.745766
64.790 22.781942
64.795 23.065561
64.800 22.87599
64.805 22.728779
64.810 22.499916
64.815 23.032749
64.820 22.647497
64.825 22.882051
64.830 22.197227
64.835 21.892962
64.840 21.919893
64.845 21.741974
64.850 20.874729
64.855 21.202621
64.860 20.78203
64.865 21.17013
64.870 21.316057
64.875 21.175777
64.880 21.0194
64.885 21.36134
64.890 20.90683
64.895 21.240364
64.900 20.770952
64.905 21.339268
64.910 22.004082
64.915 22.454998
64.920 22.374357
64.925 22.562014
64.930 22.686861
64.935 22.626329
64.940 22.249853
64.945 21.756969
64.950 21.529226
64.955 21.941486
64.960 22.371155
64.965 22.523439
64.970 22.961828
64.975 23.381142
64.980 23.45344
64.985 23.491806
64.990 23.262985
64.995 22.961983
65.000 22.834143
65.005 22.924084
65.010 22.691942
65.015 22.807039
65.020 23.471621
65.025 23.682352
65.030 23.411596
65.035 23.13615
65.040 22.90222
65.045 22.968061
65.050 22.506689
65.055 22.534327
65.060 22.541727
65.065 22.174175
65.070 22.094997
65.075 21.604172
65.080 21.066536
65.085 21.710999
65.090 21.455309
65.095 21.53038
65.100 22.067608
65.105 22.302362
65.110 22.743198
65.115 22.836912
65.120 22.65452
65.125 22.810553
65.130 22.606323
65.135 22.658403
65.140 22.780117
65.145 23.204134
65.150 24.061752
65.155 24.608536
65.160 24.025793
65.165 24.022005
65.170 24.137693
65.175 24.226082
65.180 24.142393
65.185 23.888004
65.190 23.156507
65.195 23.31612
65.200 22.987442
65.205 22.791779
65.210 22.424152
65.215 22.125536
65.220 21.120384
65.225 20.969456
65.230 21.295916
65.235 21.441391
65.240 21.525887
65.245 21.591644
65.250 21.32295
65.255 21.620878
65.260 21.779982
65.265 21.459032
65.270 22.101706
65.275 22.966618
65.280 23.412088
65.285 23.68618
65.290 24.086624
65.295 23.904827
65.300 23.767073
65.305 23.398506
65.310 23.072268
65.315 22.89039
65.320 23.719376
65.325 23.734476
65.330 24.119707
65.335 24.666183
65.340 24.368368
65.345 24.129271
65.350 24.511042
65.355 24.573961
65.360 24.876217
65.365 24.831572
65.370 24.372955
65.375 24.354223
65.380 24.325336
65.385 24.05582
65.390 23.944242
65.395 23.785065
65.400 24.195015
65.405 25.173182
65.410 26.187603
65.415 26.090845
65.420 25.723883
65.425 25.832335
65.430 25.675072
65.435 25.945824
65.440 25.971579
65.445 25.358793
65.450 25.481617
65.455 25.769445
65.460 25.738199
65.465 26.091232
65.470 26.207117
65.475 25.894402
65.480 26.170811
65.485 25.831453
65.490 25.277205
65.495 25.368542
65.500 25.75601
65.505 25.116348
65.510 25.491896
65.515 26.105413
65.520 26.846535
65.525 27.393471
65.530 27.017574
65.535 27.510401
65.540 27.822998
65.545 27.785841
65.550 27.620136
65.555 27.829971
65.560 28.039431
65.565 27.683405
65.570 26.494944
65.575 26.479958
65.580 26.688606
65.585 26.393326
65.590 26.127529
65.595 26.306959
65.600 27.315104
65.605 27.880148
65.610 28.184839
65.615 28.056362
65.620 28.092548
65.625 28.108856
65.630 27.832016
65.635 26.990889
65.640 27.02096
65.645 26.977419
65.650 26.491182
65.655 26.721598
65.660 26.860466
65.665 27.2514
65.670 28.145527
65.675 27.926004
65.680 28.236662
65.685 29.194609
65.690 29.668879
65.695 30.010275
65.700 29.551313
65.705 29.545034
65.710 29.712555
65.715 28.942701
65.720 28.998119
65.725 29.078266
65.730 29.321735
65.735 29.625
65.740 29.582232
65.745 30.196604
65.750 31.461338
65.755 31.0662
65.760 30.738811
65.765 30.924345
65.770 31.393295
65.775 32.254341
65.780 32.295414
65.785 32.296562
65.790 32.830967
65.795 32.167053
65.800 32.055885
65.805 31.833019
65.810 31.090866
65.815 31.121616
65.820 31.157595
65.825 30.586637
65.830 31.643761
65.835 31.966787
65.840 32.32473
65.845 33.035202
65.850 33.46516
65.855 33.550003
65.860 34.006123
65.865 33.800709
65.870 33.365974
65.875 33.670555
65.880 33.217014
65.885 33.021252
65.890 33.560974
65.895 33.758041
65.900 34.512379
65.905 34.706955
65.910 34.260181
65.915 34.586182
65.920 34.588951
65.925 34.574837
65.930 34.676716
65.935 34.750271
65.940 34.533302
65.945 34.830582
65.950 34.881275
65.955 35.33247
65.960 35.753895
65.965 35.823906
65.970 35.453037
65.975 35.8148
65.980 35.6758
65.985 36.185974
65.990 35.56601
65.995 36.034927
66.000 37.231853
66.005 37.296764
66.010 38.354546
66.015 39.18523
66.020 39.787491
66.025 40.444138
66.030 39.725639
66.035 38.997227
66.040 39.360195
66.045 38.61879
66.050 38.032887
66.055 36.902885
66.060 36.848587
66.065 36.886395
66.070 36.923763
66.075 36.368565
66.080 36.176826
66.085 36.253864
66.090 36.525814
66.095 36.746841
66.100 37.317291
66.105 36.833717
66.110 37.374187
66.115 38.209351
66.120 38.43359
66.125 38.278889
66.130 38.220421
66.135 38.002762
66.140 39.026524
66.145 38.960377
66.150 37.941936
66.155 37.638439
66.160 37.543468
66.165 36.79969
66.170 37.190811
66.175 36.903511
66.180 37.323586
66.185 38.229774
66.190 38.262806
66.195 38.724411
66.200 39.161175
66.205 39.194134
66.210 38.833065
66.215 38.112873
66.220 37.79483
66.225 37.578365
66.230 38.101604
66.235 38.468357
66.240 37.92625
66.245 38.123695
66.250 38.441055
66.255 38.89592
66.260 38.83857
66.265 37.905132
66.270 37.160213
66.275 36.227375
66.280 36.060947
66.285 35.904449
66.290 35.959206
66.295 35.835804
66.300 36.038685
66.305 37.029114
66.310 37.922321
66.315 37.561802
66.320 37.298267
66.325 37.13501
66.330 36.798206
66.335 36.591064
66.340 36.1726
66.345 36.367477
66.350 36.49271
66.355 36.547474
66.360 35.976662
66.365 35.792553
66.370 35.526249
66.375 34.771641
66.380 34.068195
66.385 32.873363
66.390 32.228138
66.395 31.955423
66.400 32.000511
66.405 32.371181
66.410 32.877434
66.415 33.467735
66.420 34.034348
66.425 34.094082
66.430 34.096352
66.435 33.717743
66.440 32.923077
66.445 31.810305
66.450 30.972301
66.455 30.306744
66.460 30.491861
66.465 30.38019
66.470 30.955101
66.475 30.675373
66.480 31.287636
66.485 32.073605
66.490 32.531029
66.495 32.286533
66.500 32.149731
66.505 31.165606
66.510 30.719145
66.515 30.334877
66.520 30.329697
66.525 30.160397
66.530 29.511414
66.535 29.114111
66.540 29.054743
66.545 29.0888
66.550 28.784124
66.555 27.709684
66.560 27.574205
66.565 27.408201
66.570 28.191216
66.575 28.268963
66.580 27.582527
66.585 27.216597
66.590 26.745951
66.595 25.937212
66.600 26.158506
66.605 25.641291
66.610 25.084028
66.615 24.640779
66.620 23.891796
66.625 23.368832
66.630 23.677452
66.635 23.423267
66.640 22.992735
66.645 23.43553
66.650 24.257603
66.655 24.704771
66.660 24.491179
66.665 24.255016
66.670 24.160503
66.675 24.27783
66.680 24.316177
66.685 23.651678
66.690 22.490543
66.695 22.012739
66.700 21.542572
66.705 21.164797
66.710 21.105425
66.715 21.099119
66.720 21.342598
66.725 22.33016
66.730 22.939962
66.735 23.377558
66.740 23.172428
66.745 23.092459
66.750 22.579199
66.755 22.4524
66.760 22.375916
66.765 22.090347
66.770 22.079079
66.775 22.534298
66.780 22.332829
66.785 22.578098
66.790 22.056059
66.795 21.842199
66.800 21.778217
66.805 21.563271
66.810 20.881208
66.815 20.769732
66.820 20.57918
66.825 20.754087
66.830 20.470371
66.835 20.343319
66.840 20.394411
66.845 21.097256
66.850 21.330023
66.855 21.46438
66.860 21.458845
66.865 21.796722
66.870 22.223001
66.875 22.382448
66.880 21.924156
66.885 21.995625
66.890 22.122467
66.895 22.059668
66.900 21.739937
66.905 21.013407
66.910 20.510172
66.915 20.493214
66.920 20.25045
66.925 20.253456
66.930 20.892944
66.935 21.18037
66.940 21.348225
66.945 21.305326
66.950 21.021288
66.955 20.742048
66.960 20.739992
66.965 20.362246
66.970 19.986351
66.975 20.447927
66.980 20.885546
66.985 21.197161
66.990 21.016676
66.995 20.383083
67.000 20.324347
67.005 20.615442
67.010 20.919353
67.015 20.693949
67.020 20.946667
67.025 21.419579
67.030 21.459866
67.035 21.339794
67.040 20.387501
67.045 20.166752
67.050 20.692053
67.055 20.236361
67.060 19.917334
67.065 20.110188
67.070 20.369097
67.075 21.124737
67.080 20.73785
67.085 20.293024
67.090 20.398643
67.095 20.819447
67.100 21.456007
67.105 21.137152
67.110 20.937561
67.115 20.653358
67.120 19.91186
67.125 19.913567
67.130 19.990257
67.135 19.526842
67.140 18.956961
67.145 18.327467
67.150 18.439386
67.155 19.145206
67.160 19.003593
67.165 19.07736
67.170 19.195995
67.175 18.410515
67.180 18.940615
67.185 19.449886
67.190 19.135136
67.195 18.897142
67.200 18.596846
67.205 18.556356
67.210 19.395321
67.215 19.082108
67.220 18.84586
67.225 19.208067
67.230 19.629047
67.235 19.634724
67.240 19.607592
67.245 19.429239
67.250 19.223572
67.255 19.217878
67.260 19.417526
67.265 19.303429
67.270 19.161676
67.275 19.076765
67.280 19.427895
67.285 20.114044
67.290 21.032021
67.295 20.70631
67.300 20.793186
67.305 20.619799
67.310 20.031515
67.315 19.920326
67.320 19.680447
67.325 18.850119
67.330 18.355806
67.335 18.58086
67.340 18.768761
67.345 19.274014
67.350 19.310154
67.355 18.986521
67.360 18.8771
67.365 19.259048
67.370 19.061897
67.375 19.734503
67.380 20.009722
67.385 20.227619
67.390 20.209494
67.395 19.802935
67.400 19.608538
67.405 19.618797
67.410 19.840933
67.415 19.963768
67.420 19.427582
67.425 19.660559
67.430 20.711708
67.435 20.8496
67.440 20.994947
67.445 20.106836
67.450 19.669924
67.455 19.834911
67.460 18.96875
67.465 18.556345
67.470 18.493301
67.475 18.520393
67.480 19.222389
67.485 19.587414
67.490 20.153437
67.495 20.639256
67.500 20.430897
67.505 19.945547
67.510 19.806255
67.515 19.737478
67.520 19.930281
67.525 19.448061
67.530 19.513668
67.535 19.801807
67.540 20.146397
67.545 19.917274
67.550 20.354706
67.555 20.364538
67.560 20.90316
67.565 20.87838
67.570 20.45446
67.575 20.808252
67.580 21.072481
67.585 20.790493
67.590 20.512119
67.595 20.593979
67.600 20.671749
67.605 20.952993
67.610 20.710943
67.615 20.351984
67.620 19.829512
67.625 19.77664
67.630 19.171288
67.635 19.11931
67.640 18.6292
67.645 18.520874
67.650 18.946804
67.655 19.13496
67.660 18.927132
67.665 19.514578
67.670 19.854122
67.675 19.876913
67.680 19.460182
67.685 19.118347
67.690 18.917723
67.695 18.63133
67.700 18.332779
67.705 18.449957
67.710 18.756947
67.715 18.813683
67.720 19.150181
67.725 20.109356
67.730 20.719002
67.735 20.999193
67.740 21.062822
67.745 21.047548
67.750 20.989607
67.755 20.662687
67.760 20.187773
67.765 19.512156
67.770 19.009745
67.775 18.904974
67.780 19.18931
67.785 19.702595
67.790 19.499653
67.795 19.084297
67.800 19.328682
67.805 19.575125
67.810 19.43396
67.815 19.33358
67.820 19.249918
67.825 19.522358
67.830 19.465477
67.835 19.683327
67.840 19.931179
67.845 20.336529
67.850 20.402273
67.855 20.306965
67.860 20.203531
67.865 20.639496
67.870 20.821693
67.875 20.476889
67.880 20.346321
67.885 20.02042
67.890 19.704306
67.895 19.897058
67.900 19.525358
67.905 19.258204
67.910 18.829659
67.915 18.274376
67.920 18.146614
67.925 18.144617
67.930 18.205532
67.935 18.059593
67.940 18.248863
67.945 18.206358
67.950 18.606951
67.955 18.736355
67.960 18.700336
67.965 18.853947
67.970 19.278038
67.975 19.629843
67.980 20.150103
67.985 20.32266
67.990 20.642801
67.995 20.357506
68.000 20.258121
68.005 21.03459
68.010 20.579006
68.015 20.824163
68.020 20.824377
68.025 20.743673
68.030 21.00049
68.035 20.970856
68.040 20.330484
68.045 20.297773
68.050 19.950903
68.055 19.829779
68.060 19.401161
68.065 19.37476
68.070 19.652075
68.075 19.549028
68.080 19.358231
68.085 19.337475
68.090 19.655933
68.095 20.317139
68.100 20.389236
68.105 20.661863
68.110 20.707222
68.115 21.094122
68.120 21.704908
68.125 21.815294
68.130 21.348074
68.135 20.881828
68.140 20.764921
68.145 20.909798
68.150 21.361958
68.155 20.754221
68.160 20.612959
68.165 21.048578
68.170 21.115681
68.175 21.087244
68.180 20.871458
68.185 20.327993
68.190 19.896461
68.195 19.498516
68.200 19.399071
68.205 19.445883
68.210 20.083557
68.215 20.329496
68.220 19.827745
68.225 20.720552
68.230 20.989864
68.235 21.581856
68.240 21.31028
68.245 20.856419
68.250 20.513721
68.255 20.28286
68.260 20.245903
68.265 20.439455
68.270 20.40453
68.275 20.549812
68.280 20.425421
68.285 20.753323
68.290 21.017487
68.295 20.490934
68.300 20.082729
68.305 19.829494
68.310 20.464972
68.315 20.682966
68.320 20.643032
68.325 20.920433
68.330 20.922922
68.335 21.151541
68.340 20.735378
68.345 20.000364
68.350 19.454014
68.355 19.127558
68.360 19.011368
68.365 19.319849
68.370 19.614285
68.375 19.898081
68.380 19.860565
68.385 20.436413
68.390 20.217827
68.395 20.359964
68.400 20.643295
68.405 20.583088
68.410 20.347359
68.415 20.186687
68.420 20.514015
68.425 21.216589
68.430 21.516233
68.435 21.258467
68.440 21.428089
68.445 21.732117
68.450 21.853128
68.455 21.02092
68.460 20.200743
68.465 19.496803
68.470 19.114731
68.475 18.726286
68.480 18.421274
68.485 17.778955
68.490 17.92321
68.495 18.449211
68.500 18.694458
68.505 19.026699
68.510 19.325481
68.515 19.690817
68.520 20.125217
68.525 20.047827
68.530 20.21389
68.535 20.266262
68.540 20.185005
68.545 20.425653
68.550 20.970007
68.555 21.137102
68.560 21.521841
68.565 21.215343
68.570 20.863445
68.575 20.604134
68.580 20.389324
68.585 20.528759
68.590 20.905485
68.595 20.111588
68.600 19.871176
68.605 20.099007
68.610 20.682268
68.615 21.184591
68.620 21.384079
68.625 21.180017
68.630 21.259806
68.635 21.590525
68.640 21.46014
68.645 20.528511
68.650 19.911215
68.655 19.45425
68.660 19.559664
68.665 20.100754
68.670 19.937445
68.675 19.493557
68.680 19.381794
68.685 19.635433
68.690 20.124805
68.695 20.554741
68.700 20.159613
68.705 20.011509
68.710 20.296503
68.715 20.330687
68.720 20.436052
68.725 20.214348
68.730 19.961708
68.735 20.14764
68.740 20.653728
68.745 20.898211
68.750 20.486914
68.755 19.768045
68.760 19.167168
68.765 19.048676
68.770 18.74803
68.775 18.678141
68.780 18.784683
68.785 19.448294
68.790 19.638496
68.795 19.731783
68.800 19.849731
68.805 19.938271
68.810 20.317123
68.815 20.080076
68.820 20.269234
68.825 20.097269
68.830 21.033123
68.835 21.688295
68.840 21.963196
68.845 21.724949
68.850 21.589394
68.855 21.168438
68.860 21.577284
68.865 20.822695
68.870 20.478292
68.875 19.828732
68.880 20.233347
68.885 20.352468
68.890 20.675428
68.895 20.69437
68.900 20.403978
68.905 20.196239
68.910 20.179092
68.915 20.017992
68.920 19.579523
68.925 19.343304
68.930 19.304178
68.935 19.939579
68.940 20.192427
68.945 20.658724
68.950 19.840178
68.955 19.912104
68.960 19.735167
68.965 19.957083
68.970 19.764944
68.975 19.751087
68.980 20.27331
68.985 21.461121
68.990 22.275522
68.995 22.73575
69.000 22.92383
69.005 23.141548
69.010 24.359632
69.015 24.99226
69.020 24.61083
69.025 24.662674
69.030 24.138433
69.035 22.897844
69.040 22.818624
69.045 22.256525
69.050 21.847902
69.055 22.243923
69.060 21.918524
69.065 22.553871
69.070 23.572824
69.075 23.474649
69.080 23.390442
69.085 23.867767
69.090 24.277628
69.095 24.8158
69.100 25.097212
69.105 25.346579
69.110 25.742731
69.115 25.970398
69.120 25.885767
69.125 25.504318
69.130 25.011812
69.135 24.280106
69.140 24.515297
69.145 24.668993
69.150 24.427137
69.155 24.062466
69.160 24.145464
69.165 24.912813
69.170 25.858208
69.175 25.7997
69.180 25.561989
69.185 25.514921
69.190 25.764635
69.195 25.854481
69.200 25.392561
69.205 25.469044
69.210 24.758011
69.215 25.384533
69.220 25.884054
69.225 25.766754
69.230 26.402853
69.235 26.601892
69.240 26.364319
69.245 27.241804
69.250 27.357933
69.255 27.985464
69.260 28.055347
69.265 27.815756
69.270 27.799627
69.275 28.058334
69.280 27.364908
69.285 27.432993
69.290 27.481102
69.295 27.432056
69.300 26.980963
69.305 26.995085
69.310 27.64212
69.315 28.148087
69.320 27.957979
69.325 27.475449
69.330 28.22102
69.335 29.304798
69.340 29.552462
69.345 28.785378
69.350 29.100639
69.355 29.391726
69.360 29.429077
69.365 29.484409
69.370 29.145901
69.375 29.543987
69.380 30.524895
69.385 30.202915
69.390 29.982731
69.395 30.222069
69.400 30.021708
69.405 29.785509
69.410 29.525009
69.415 29.588011
69.420 29.464212
69.425 29.985418
69.430 30.348528
69.435 30.85977
69.440 32.181892
69.445 32.780312
69.450 32.986958
69.455 33.523361
69.460 33.472538
69.465 33.678604
69.470 33.028851
69.475 32.235291
69.480 31.892691
69.485 32.259724
69.490 32.169895
69.495 32.612244
69.500 32.276325
69.505 32.225689
69.510 31.90345
69.515 31.674187
69.520 31.51848
69.525 31.480326
69.530 30.652493
69.535 30.505383
69.540 30.601625
69.545 30.98107
69.550 30.985983
69.555 30.698605
69.560 31.450525
69.565 31.907063
69.570 32.703236
69.575 33.197723
69.580 33.153446
69.585 33.152321
69.590 32.971954
69.595 32.992432
69.600 32.850319
69.605 32.103844
69.610 31.466881
69.615 31.117348
69.620 31.057705
69.625 30.887486
69.630 30.873074
69.635 30.984385
69.640 31.918856
69.645 32.582523
69.650 32.831799
69.655 33.560425
69.660 34.580196
69.665 34.107384
69.670 33.819138
69.675 33.21801
69.680 33.246922
69.685 33.70792
69.690 33.054821
69.695 32.637142
69.700 32.221436
69.705 31.755728
69.710 31.196823
69.715 30.373709
69.720 29.393616
69.725 28.835821
69.730 28.406502
69.735 28.490458
69.740 28.405685
69.745 28.679626
69.750 29.002077
69.755 29.428967
69.760 29.845015
69.765 29.694445
69.770 29.409283
69.775 29.660183
69.780 29.432276
69.785 29.596594
69.790 30.051119
69.795 30.024281
69.800 29.7446
69.805 29.511454
69.810 29.518013
69.815 30.305256
69.820 30.776663
69.825 30.183016
69.830 30.093729
69.835 30.721783
69.840 30.411654
69.845 29.845146
69.850 29.075319
69.855 29.046923
69.860 28.27112
69.865 27.336311
69.870 27.144073
69.875 27.762897
69.880 27.416651
69.885 26.714607
69.890 26.13862
69.895 25.997078
69.900 25.98786
69.905 25.858614
69.910 25.30619
69.915 25.058807
69.920 24.796038
69.925 24.276693
69.930 24.058731
69.935 23.656691
69.940 23.684134
69.945 23.759911
69.950 23.785215
69.955 23.678902
69.960 23.456072
69.965 23.142094
69.970 22.485483
69.975 21.350466
69.980 21.050802
69.985 21.128557
69.990 20.749998
69.995 20.558731
70.000 20.837667
70.005 21.090599
70.010 21.422218
70.015 20.701599
70.020 20.056744
70.025 20.410034
70.030 20.258574
70.035 20.631319
70.040 20.47496
70.045 20.953905
70.050 21.081451
70.055 21.176132
70.060 21.556969
70.065 21.65625
70.070 21.676668
70.075 21.886463
70.080 21.655811
70.085 22.099133
70.090 21.867455
70.095 21.685163
70.100 21.627352
70.105 21.102354
70.110 21.155756
70.115 21.545822
70.120 21.525204
70.125 21.555143
70.130 21.725666
70.135 22.135912
70.140 21.697676
70.145 21.514034
70.150 21.167145
70.155 20.976761
70.160 20.529675
70.165 19.952894
70.170 19.389606
70.175 19.814083
70.180 19.563183
70.185 19.32918
70.190 19.133722
70.195 19.375231
70.200 19.906706
70.205 20.231329
70.210 20.376516
70.215 20.78866
70.220 21.064846
70.225 21.723925
70.230 21.654476
70.235 21.437664
70.240 20.726965
70.245 20.699108
70.250 20.437101
70.255 20.650578
70.260 20.345236
70.265 20.290102
70.270 20.81683
70.275 20.968241
70.280 20.647741
70.285 20.866489
70.290 20.359903
70.295 20.326721
70.300 19.968136
70.305 19.125813
70.310 18.310974
70.315 18.039223
70.320 18.19101
70.325 18.644348
70.330 18.990553
70.335 19.198036
70.340 19.520668
70.345 20.044683
70.350 20.319164
70.355 20.299326
70.360 19.921032
70.365 20.207644
70.370 20.614122
70.375 20.468342
70.380 20.692474
70.385 19.972115
70.390 19.000265
70.395 18.740517
70.400 18.437204
70.405 17.838758
70.410 17.424751
70.415 17.09234
70.420 17.690037
70.425 18.501513
70.430 18.407217
70.435 18.575514
70.440 19.538132
70.445 20.564564
70.450 20.248066
70.455 20.076488
70.460 19.842115
70.465 19.410772
70.470 19.101629
70.475 18.46032
70.480 18.582661
70.485 18.926905
70.490 18.989651
70.495 19.071287
70.500 19.498549
70.505 19.558037
70.510 19.198389
70.515 19.336693
70.520 19.744919
70.525 19.891739
70.530 20.090969
70.535 20.183472
70.540 20.025066
70.545 20.734098
70.550 20.5093
70.555 20.344011
70.560 19.985794
70.565 19.955727
70.570 19.90114
70.575 20.445021
70.580 19.611074
70.585 19.637125
70.590 19.780643
70.595 20.43165
70.600 20.512766
70.605 20.193249
70.610 19.711805
70.615 19.818001
70.620 19.64871
70.625 19.538542
70.630 19.162874
70.635 18.599022
70.640 18.78793
70.645 18.888401
70.650 18.445147
70.655 18.333061
70.660 18.131502
70.665 18.44713
70.670 18.854818
70.675 18.814856
70.680 18.991005
70.685 19.399206
70.690 19.753685
70.695 20.123325
70.700 20.303991
70.705 20.324522
70.710 20.092722
70.715 20.528749
70.720 20.37002
70.725 19.990784
70.730 19.724709
70.735 19.388214
70.740 19.423317
70.745 19.827236
70.750 18.90715
70.755 19.228828
70.760 18.75857
70.765 18.039761
70.770 17.961212
70.775 17.584761
70.780 16.865597
70.785 16.292267
70.790 16.303095
70.795 16.695213
70.800 17.511976
70.805 17.297581
70.810 17.426498
70.815 18.117569
70.820 18.590862
70.825 18.422062
70.830 18.322638
70.835 18.188583
70.840 19.053215
70.845 18.635139
70.850 18.731388
70.855 19.33939
70.860 19.363329
70.865 19.847946
70.870 19.975119
70.875 20.394548
70.880 20.95804
70.885 20.995516
70.890 21.517487
70.895 21.602428
70.900 21.404799
70.905 21.219999
70.910 21.283785
70.915 20.900345
70.920 20.200623
70.925 19.580051
70.930 19.622599
70.935 19.554878
70.940 19.449577
70.945 19.445984
70.950 19.344553
70.955 19.910036
70.960 19.942343
70.965 19.116768
70.970 18.627296
70.975 17.707754
70.980 17.916788
70.985 17.925896
70.990 17.514624
70.995 17.295376
71.000 17.630537
71.005 18.554186
71.010 19.112383
71.015 19.581968
71.020 19.806484
71.025 20.104292
71.030 20.368982
71.035 20.686829
71.040 20.825178
71.045 20.380127
71.050 19.720909
71.055 19.424273
71.060 19.185719
71.065 19.396942
71.070 18.740088
71.075 18.427826
71.080 18.225067
71.085 18.702244
71.090 19.569223
71.095 19.855621
71.100 19.697533
71.105 19.970224
71.110 19.88938
71.115 19.971992
71.120 19.522022
71.125 18.930216
71.130 18.222126
71.135 18.109541
71.140 17.426138
71.145 17.320856
71.150 17.073139
71.155 16.917849
71.160 17.080114
71.165 18.013512
71.170 18.543882
71.175 19.541241
71.180 19.841835
71.185 19.696463
71.190 19.920094
71.195 19.69195
71.200 18.897196
71.205 18.632828
71.210 18.702124
71.215 18.993336
71.220 18.955357
71.225 18.018192
71.230 17.429153
71.235 17.138025
71.240 16.55937
71.245 15.798942
71.250 15.834921
71.255 16.184189
71.260 16.902742
71.265 18.024593
71.270 18.570524
71.275 18.950058
71.280 18.631556
71.285 18.499296
71.290 18.986082
71.295 19.285698
71.300 18.608835
71.305 19.069294
71.310 19.039202
71.315 19.46991
71.320 19.947908
71.325 19.947071
71.330 20.47998
71.335 20.389997
71.340 19.643433
71.345 19.540686
71.350 19.218197
71.355 18.84479
71.360 18.853638
71.365 18.450426
71.370 18.611835
71.375 18.9797
71.380 19.288155
71.385 19.36799
71.390 18.915104
71.395 18.114395
71.400 18.127008
71.405 18.157736
71.410 17.888021
71.415 17.228792
71.420 17.010803
71.425 16.504768
71.430 16.337456
71.435 16.180441
71.440 16.248627
71.445 16.876287
71.450 17.233086
71.455 17.666637
71.460 18.388536
71.465 19.274637
71.470 19.733379
71.475 19.731167
71.480 19.477373
71.485 20.047159
71.490 20.072239
71.495 20.050339
71.500 19.714407
71.505 18.886999
71.510 18.455343
71.515 18.432291
71.520 17.652086
71.525 17.474072
71.530 17.426577
71.535 17.385063
71.540 17.733049
71.545 17.931339
71.550 17.856491
71.555 17.839655
71.560 18.118792
71.565 17.773211
71.570 18.024874
71.575 18.123362
71.580 17.994236
71.585 18.595947
71.590 18.969
71.595 18.363049
71.600 17.913807
71.605 17.564421
71.610 17.431145
71.615 17.647806
71.620 17.195189
71.625 17.189939
71.630 17.560759
71.635 18.006042
71.640 18.416574
71.645 18.946749
71.650 18.682859
71.655 18.279972
71.660 18.30315
71.665 18.621843
71.670 19.179588
71.675 19.457253
71.680 19.381184
71.685 19.549372
71.690 19.975929
71.695 19.722895
71.700 19.420269
71.705 18.339745
71.710 17.671757
71.715 17.763901
71.720 17.989357
71.725 17.648594
71.730 17.50374
71.735 17.4053
71.740 17.632906
71.745 17.556993
71.750 16.854589
71.755 16.808222
71.760 16.847116
71.765 17.02096
71.770 17.594221
71.775 17.776335
71.780 18.009253
71.785 18.152622
71.790 17.84766
71.795 18.473608
71.800 18.583412
71.805 18.060772
71.810 17.858122
71.815 18.027737
71.820 18.066027
71.825 17.910206
71.830 17.606939
71.835 17.777554
71.840 18.447449
71.845 18.630884
71.850 18.201902
71.855 18.741138
71.860 18.954115
71.865 19.071253
71.870 19.041971
71.875 19.176535
71.880 19.483768
71.885 19.108948
71.890 18.459158
71.895 17.984055
71.900 17.219088
71.905 17.129608
71.910 16.719692
71.915 16.599556
71.920 17.110769
71.925 17.107718
71.930 17.25424
71.935 17.930744
71.940 17.994173
71.945 17.584099
71.950 17.975365
71.955 18.097143
71.960 18.662447
71.965 18.933435
71.970 18.258894
71.975 18.122265
71.980 18.380575
71.985 18.237223
71.990 17.852478
71.995 17.99485
72.000 17.846355
72.005 17.826401
72.010 18.106901
72.015 18.095449
72.020 17.879681
72.025 17.622429
72.030 17.411959
72.035 17.556345
72.040 17.67922
72.045 17.138489
72.050 17.275549
72.055 17.73411
72.060 17.620567
72.065 17.525501
72.070 17.742987
72.075 17.638136
72.080 17.813158
72.085 17.372942
72.090 17.798502
72.095 18.029152
72.100 18.126858
72.105 18.424946
72.110 18.436325
72.115 18.578083
72.120 18.197653
72.125 17.689516
72.130 17.767195
72.135 17.850716
72.140 17.516254
72.145 17.78352
72.150 17.83913
72.155 17.884989
72.160 17.681641
72.165 17.961519
72.170 18.147156
72.175 18.538467
72.180 18.32987
72.185 18.669413
72.190 19.435204
72.195 19.702387
72.200 19.339125
72.205 18.629648
72.210 18.109148
72.215 17.955082
72.220 17.328709
72.225 17.027338
72.230 17.399782
72.235 17.311687
72.240 17.266766
72.245 17.830925
72.250 18.412819
72.255 18.522652
72.260 17.78541
72.265 18.089273
72.270 18.303185
72.275 18.809448
72.280 18.7833
72.285 18.79953
72.290 18.874355
72.295 18.891466
72.300 18.410761
72.305 18.221548
72.310 17.521963
72.315 17.535259
72.320 17.623108
72.325 17.925446
72.330 18.156414
72.335 18.524864
72.340 18.474125
72.345 18.617092
72.350 18.649673
72.355 18.473188
72.360 18.096514
72.365 17.827736
72.370 17.902981
72.375 17.826021
72.380 17.793629
72.385 17.514931
72.390 17.598572
72.395 18.260677
72.400 17.907509
72.405 17.893211
72.410 17.808067
72.415 17.463444
72.420 16.946846
72.425 16.213612
72.430 15.706729
72.435 15.708045
72.440 15.768211
72.445 16.246309
72.450 16.995689
72.455 16.998579
72.460 16.656813
72.465 16.509388
72.470 16.217815
72.475 16.007771
72.480 15.472776
72.485 15.679999
72.490 16.747942
72.495 16.916553
72.500 16.80468
72.505 16.956734
72.510 17.193336
72.515 16.963022
72.520 15.811933
72.525 15.847018
72.530 15.883577
72.535 16.036228
72.540 16.226994
72.545 16.017113
72.550 16.392344
72.555 17.380081
72.560 17.480785
72.565 17.959167
72.570 18.288263
72.575 18.558901
72.580 18.652735
72.585 19.000414
72.590 18.837587
72.595 19.217392
72.600 19.068743
72.605 18.928587
72.610 18.815853
72.615 18.572186
72.620 17.711468
72.625 17.179396
72.630 17.195902
72.635 17.167103
72.640 17.06378
72.645 16.565916
72.650 16.960119
72.655 17.307896
72.660 17.431103
72.665 17.593365
72.670 17.602179
72.675 17.360012
72.680 17.494223
72.685 17.367382
72.690 17.355265
72.695 17.249611
72.700 16.569147
72.705 16.334309
72.710 16.981251
72.715 16.875803
72.720 16.391533
72.725 16.632034
72.730 16.614296
72.735 16.912798
72.740 17.389572
72.745 17.212393
72.750 17.473364
72.755 18.166952
72.760 18.215212
72.765 18.194942
72.770 18.497622
72.775 17.747652
72.780 17.828686
72.785 17.458296
72.790 16.86237
72.795 16.395569
72.800 16.02203
72.805 15.557171
72.810 15.886339
72.815 16.396866
72.820 16.661945
72.825 17.177906
72.830 17.632811
72.835 17.785704
72.840 17.898577
72.845 17.401205
72.850 17.242132
72.855 16.909473
72.860 16.614168
72.865 16.716442
72.870 16.982941
72.875 16.779165
72.880 17.237261
72.885 16.96315
72.890 17.376825
72.895 17.621658
72.900 17.440813
72.905 17.43881
72.910 17.535631
72.915 17.108698
72.920 17.279045
72.925 16.803692
72.930 16.253181
72.935 16.184355
72.940 16.338629
72.945 16.315151
72.950 16.164715
72.955 16.20719
72.960 16.44622
72.965 16.358879
72.970 16.115271
72.975 16.221584
72.980 16.923019
72.985 16.593172
72.990 17.25415
72.995 17.390318
73.000 17.531315
