!@!!GADDS PLOTSO FILE: Chi integration type
!@!!Title/SampleName: map-c7
!@!!Comment: ?
!@!!User: Bruker Instrument Administrator
!@!!Site: University of Illinois Chicago
!@!!Frame: map-c7_01_000.gfrm
!@!!Wavelengths    1.54184   1.54056   1.54439
!@!!Frame angles: 2Theta: 63.000 Omega: 50.000 Phi: 0.000 Chi: 90.000
!@!!Integration range: 2Theta: 53.000 to 73.000  Gamma: -105.000 to -75.000
!@!!Integration method: bin normalized
!@!N
!@!SS
!@!M
!@!L 0.0 0.0 0.0 0.0
!@!XDegrees
!@!YCounts
53.000 6.587574
53.005 6.463053
53.010 6.57078
53.015 6.352978
53.020 6.266792
53.025 6.756524
53.030 6.847883
53.035 6.778952
53.040 6.684479
53.045 6.351404
53.050 6.28551
53.055 6.59026
53.060 6.533308
53.065 6.806701
53.070 6.809439
53.075 7.21341
53.080 7.261734
53.085 7.033383
53.090 6.909619
53.095 6.862381
53.100 7.220672
53.105 7.527045
53.110 7.633627
53.115 7.953859
53.120 7.803691
53.125 7.562396
53.130 7.407053
53.135 6.786691
53.140 6.469346
53.145 5.751373
53.150 5.528034
53.155 5.777822
53.160 6.165808
53.165 6.283686
53.170 6.31254
53.175 6.639529
53.180 7.03217
53.185 7.441906
53.190 8.025778
53.195 8.119135
53.200 8.278578
53.205 8.091284
53.210 8.160889
53.215 7.845904
53.220 7.40032
53.225 6.868644
53.230 6.803795
53.235 6.631559
53.240 6.818261
53.245 6.823449
53.250 7.159906
53.255 7.401882
53.260 7.357363
53.265 7.504939
53.270 7.794914
53.275 8.200569
53.280 8.513329
53.285 8.032745
53.290 7.689442
53.295 7.593071
53.300 7.227091
53.305 6.87569
53.310 6.474741
53.315 6.309831
53.320 6.42579
53.325 6.319385
53.330 6.325949
53.335 6.186624
53.340 6.168591
53.345 6.343337
53.350 6.755294
53.355 6.86906
53.360 6.921561
53.365 6.839545
53.370 6.881794
53.375 7.070642
53.380 6.762537
53.385 6.565127
53.390 6.632304
53.395 6.954803
53.400 7.548525
53.405 7.810997
53.410 7.495894
53.415 7.53652
53.420 7.145945
53.425 6.873396
53.430 6.492091
53.435 6.287307
53.440 6.363584
53.445 6.674053
53.450 6.887462
53.455 7.005568
53.460 7.112087
53.465 7.23339
53.470 7.208889
53.475 7.145528
53.480 7.104459
53.485 7.339677
53.490 7.590883
53.495 7.534752
53.500 7.339047
53.505 7.254129
53.510 7.19045
53.515 7.528811
53.520 7.474779
53.525 7.554107
53.530 7.679015
53.535 7.435822
53.540 7.354624
53.545 7.157089
53.550 6.879065
53.555 6.844096
53.560 6.619654
53.565 6.88378
53.570 7.362236
53.575 7.534376
53.580 7.804126
53.585 7.965658
53.590 7.926746
53.595 8.157468
53.600 7.799053
53.605 7.782931
53.610 7.742117
53.615 7.375682
53.620 7.193662
53.625 7.378807
53.630 7.384923
53.635 7.669822
53.640 7.672735
53.645 7.374434
53.650 7.427174
53.655 7.596655
53.660 7.787621
53.665 8.096561
53.670 7.748356
53.675 7.300852
53.680 7.527592
53.685 7.681186
53.690 7.362002
53.695 7.176092
53.700 6.976748
53.705 7.218582
53.710 7.45155
53.715 6.965889
53.720 7.036454
53.725 7.460378
53.730 7.319748
53.735 6.986157
53.740 7.301639
53.745 7.602079
53.750 7.893682
53.755 8.085848
53.760 7.715613
53.765 7.89476
53.770 8.025314
53.775 7.542847
53.780 7.271066
53.785 7.206276
53.790 6.934093
53.795 7.077387
53.800 7.575983
53.805 7.668089
53.810 7.885698
53.815 7.677662
53.820 7.581308
53.825 7.442997
53.830 7.093013
53.835 6.788478
53.840 6.586616
53.845 6.726377
53.850 6.579252
53.855 6.400439
53.860 6.562381
53.865 6.405507
53.870 6.280332
53.875 6.376947
53.880 6.336242
53.885 6.797275
53.890 7.131133
53.895 7.34854
53.900 7.51068
53.905 7.442633
53.910 7.89805
53.915 8.02331
53.920 7.941591
53.925 7.904754
53.930 7.855938
53.935 7.891978
53.940 8.136797
53.945 7.936307
53.950 7.821851
53.955 7.704468
53.960 7.708671
53.965 8.090979
53.970 8.083694
53.975 8.00868
53.980 8.083752
53.985 8.129366
53.990 8.076447
53.995 7.659658
54.000 7.243822
54.005 7.348154
54.010 7.407785
54.015 7.736403
54.020 8.003351
54.025 8.166911
54.030 8.995243
54.035 9.738974
54.040 10.181854
54.045 9.788985
54.050 9.533188
54.055 9.286347
54.060 8.915417
54.065 7.978683
54.070 7.186868
54.075 6.862754
54.080 7.020621
54.085 7.264189
54.090 7.364395
54.095 7.490819
54.100 7.867228
54.105 7.784247
54.110 7.952408
54.115 8.081599
54.120 7.990564
54.125 8.018939
54.130 8.063564
54.135 8.457438
54.140 8.493545
54.145 8.133492
54.150 7.743273
54.155 7.649388
54.160 7.896501
54.165 7.949452
54.170 7.763273
54.175 8.109329
54.180 8.51547
54.185 8.599171
54.190 8.369212
54.195 8.327261
54.200 8.492818
54.205 8.341796
54.210 7.882961
54.215 7.521543
54.220 7.530933
54.225 7.855487
54.230 7.842413
54.235 7.988326
54.240 8.388475
54.245 8.875844
54.250 8.888227
54.255 8.989611
54.260 8.725047
54.265 8.37824
54.270 8.34373
54.275 7.815483
54.280 7.510499
54.285 7.4243
54.290 7.42804
54.295 7.768509
54.300 8.034749
54.305 7.888658
54.310 8.126654
54.315 8.463079
54.320 8.846771
54.325 9.053855
54.330 9.084905
54.335 9.029056
54.340 9.132353
54.345 9.176017
54.350 9.143277
54.355 8.973108
54.360 8.621571
54.365 8.525971
54.370 8.161388
54.375 8.065041
54.380 8.149729
54.385 8.249483
54.390 8.115153
54.395 8.001247
54.400 7.980959
54.405 8.040651
54.410 8.056137
54.415 7.862388
54.420 7.45127
54.425 7.792917
54.430 8.009035
54.435 8.279955
54.440 8.530076
54.445 8.37532
54.450 8.124821
54.455 8.332563
54.460 8.159912
54.465 7.822846
54.470 7.807321
54.475 7.714582
54.480 8.453573
54.485 8.709981
54.490 8.57421
54.495 8.455942
54.500 8.339134
54.505 7.689143
54.510 7.238939
54.515 6.873121
54.520 7.042806
54.525 6.865842
54.530 6.882975
54.535 7.224336
54.540 7.791207
54.545 8.061337
54.550 7.989195
54.555 7.738934
54.560 8.062519
54.565 8.339751
54.570 8.165718
54.575 8.13314
54.580 8.524417
54.585 8.933988
54.590 9.356406
54.595 9.098285
54.600 8.715908
54.605 8.852963
54.610 8.621394
54.615 8.02615
54.620 7.547968
54.625 7.221946
54.630 7.411695
54.635 7.531609
54.640 7.701336
54.645 7.998907
54.650 8.359324
54.655 8.517826
54.660 8.810531
54.665 8.898729
54.670 8.995997
54.675 8.800856
54.680 8.765422
54.685 8.641153
54.690 8.691986
54.695 8.613485
54.700 8.644782
54.705 8.699242
54.710 8.464945
54.715 8.294718
54.720 8.108818
54.725 7.874438
54.730 7.763793
54.735 7.29582
54.740 7.61349
54.745 7.381933
54.750 7.49352
54.755 7.676601
54.760 8.202516
54.765 8.740877
54.770 8.737086
54.775 8.359383
54.780 8.573103
54.785 8.615767
54.790 8.751369
54.795 8.845364
54.800 8.95419
54.805 9.303974
54.810 9.40134
54.815 9.532654
54.820 9.338163
54.825 9.265677
54.830 8.698997
54.835 8.523135
54.840 8.500649
54.845 8.535048
54.850 8.414201
54.855 8.598424
54.860 8.443024
54.865 8.482131
54.870 8.361913
54.875 8.440096
54.880 9.259521
54.885 9.24405
54.890 9.188878
54.895 9.010193
54.900 9.039194
54.905 9.028523
54.910 8.817722
54.915 8.153419
54.920 8.27389
54.925 8.173865
54.930 8.288738
54.935 8.480806
54.940 8.92514
54.945 9.687738
54.950 9.981977
54.955 10.03293
54.960 10.212052
54.965 10.245406
54.970 10.193671
54.975 10.094359
54.980 9.502028
54.985 9.219154
54.990 9.399057
54.995 9.383913
55.000 9.141038
55.005 9.405803
55.010 9.0107
55.015 8.952413
55.020 8.86478
55.025 8.885882
55.030 8.944431
55.035 8.77459
55.040 8.111281
55.045 8.026255
55.050 8.483467
55.055 9.204178
55.060 9.105408
55.065 8.993449
55.070 8.988962
55.075 9.323848
55.080 9.473594
55.085 9.413085
55.090 8.883061
55.095 8.630174
55.100 8.785434
55.105 8.787283
55.110 8.76591
55.115 8.766866
55.120 8.306326
55.125 8.746191
55.130 8.854975
55.135 9.258451
55.140 9.445385
55.145 9.656879
55.150 9.660007
55.155 9.343398
55.160 8.727522
55.165 8.81002
55.170 8.823112
55.175 8.693427
55.180 8.894309
55.185 8.613251
55.190 8.923843
55.195 9.729296
55.200 9.820278
55.205 9.745406
55.210 10.066695
55.215 10.056933
55.220 10.247769
55.225 10.398507
55.230 9.754441
55.235 9.491671
55.240 9.468863
55.245 9.562726
55.250 9.228626
55.255 8.910515
55.260 8.724185
55.265 8.775661
55.270 8.802706
55.275 8.204969
55.280 7.529838
55.285 7.389819
55.290 7.639764
55.295 7.873951
55.300 8.072782
55.305 8.264999
55.310 8.480707
55.315 8.760696
55.320 9.287143
55.325 9.173217
55.330 8.955224
55.335 8.637817
55.340 8.675039
55.345 9.077215
55.350 9.317799
55.355 9.359298
55.360 9.529641
55.365 9.697248
55.370 9.702836
55.375 9.984203
55.380 10.485876
55.385 10.494946
55.390 11.003997
55.395 11.183771
55.400 11.278028
55.405 11.206369
55.410 10.718387
55.415 10.385056
55.420 10.077122
55.425 9.459214
55.430 9.468138
55.435 9.723869
55.440 9.576468
55.445 9.604409
55.450 9.579252
55.455 9.885098
55.460 9.994676
55.465 9.798069
55.470 10.255624
55.475 10.431828
55.480 10.230931
55.485 10.329834
55.490 10.413249
55.495 10.346892
55.500 9.829081
55.505 9.533305
55.510 9.770329
55.515 9.975958
55.520 9.909863
55.525 9.571406
55.530 9.67866
55.535 10.076714
55.540 9.943618
55.545 9.875938
55.550 10.068964
55.555 9.838326
55.560 9.994823
55.565 10.240073
55.570 9.935376
55.575 10.078293
55.580 9.831389
55.585 9.696548
55.590 10.016198
55.595 9.945234
55.600 9.975914
55.605 9.777616
55.610 9.341892
55.615 9.064963
55.620 8.790372
55.625 8.790067
55.630 8.576491
55.635 8.250262
55.640 8.582513
55.645 8.885945
55.650 8.877323
55.655 9.046932
55.660 9.003721
55.665 9.041807
55.670 8.912821
55.675 8.605337
55.680 8.883767
55.685 8.864336
55.690 8.893315
55.695 8.823484
55.700 9.029395
55.705 9.368197
55.710 9.57473
55.715 9.964951
55.720 10.110249
55.725 10.308022
55.730 10.192967
55.735 10.024446
55.740 9.940568
55.745 9.885061
55.750 9.595648
55.755 9.780453
55.760 9.553024
55.765 10.237377
55.770 10.487098
55.775 10.502213
55.780 10.745003
55.785 10.819558
55.790 10.353191
55.795 10.222223
55.800 9.78336
55.805 9.413805
55.810 9.310548
55.815 9.068349
55.820 9.346039
55.825 9.83505
55.830 9.646698
55.835 9.975179
55.840 10.302211
55.845 10.587549
55.850 9.926545
55.855 9.140788
55.860 8.874748
55.865 8.928825
55.870 8.52317
55.875 8.65999
55.880 8.591059
55.885 9.280636
55.890 9.837749
55.895 9.963014
55.900 10.083241
55.905 10.045941
55.910 10.218803
55.915 10.165723
55.920 10.499443
55.925 10.302839
55.930 10.123286
55.935 10.314252
55.940 10.773135
55.945 10.817765
55.950 10.964646
55.955 10.664571
55.960 10.56819
55.965 10.583195
55.970 10.210716
55.975 10.189215
55.980 9.904522
55.985 9.665997
55.990 9.580997
55.995 9.993496
56.000 10.206895
56.005 10.312458
56.010 9.943165
56.015 10.012634
56.020 10.17518
56.025 10.231814
56.030 10.204282
56.035 10.358792
56.040 10.528661
56.045 10.730145
56.050 10.500669
56.055 10.362699
56.060 10.220116
56.065 10.488368
56.070 10.283675
56.075 10.415718
56.080 10.400134
56.085 11.090154
56.090 11.167233
56.095 10.614458
56.100 10.422709
56.105 10.684161
56.110 10.629858
56.115 10.313228
56.120 9.910346
56.125 9.813864
56.130 10.287328
56.135 10.358623
56.140 10.154929
56.145 10.06326
56.150 9.874375
56.155 9.825587
56.160 10.248163
56.165 9.799464
56.170 10.115012
56.175 10.234048
56.180 10.598949
56.185 11.114186
56.190 11.398018
56.195 11.780997
56.200 11.740185
56.205 10.953142
56.210 10.550767
56.215 10.176232
56.220 10.016246
56.225 9.874661
56.230 9.867584
56.235 10.097462
56.240 10.490582
56.245 11.072905
56.250 10.948528
56.255 10.983487
56.260 10.625433
56.265 10.324192
56.270 10.216079
56.275 10.178946
56.280 9.890661
56.285 10.335838
56.290 10.502504
56.295 10.556153
56.300 10.400436
56.305 10.624104
56.310 10.719513
56.315 10.651964
56.320 10.299182
56.325 10.132875
56.330 10.243346
56.335 10.775575
56.340 10.669619
56.345 10.791262
56.350 10.778216
56.355 11.068998
56.360 11.035727
56.365 10.811438
56.370 10.806534
56.375 10.970454
56.380 10.886992
56.385 11.028237
56.390 10.770745
56.395 11.334857
56.400 11.569218
56.405 11.742683
56.410 11.614638
56.415 11.314679
56.420 11.22033
56.425 10.87699
56.430 10.58312
56.435 11.03325
56.440 11.249885
56.445 11.374307
56.450 11.457862
56.455 11.077664
56.460 11.243983
56.465 10.998139
56.470 10.008781
56.475 9.360875
56.480 9.445043
56.485 9.99943
56.490 11.047705
56.495 11.201694
56.500 10.904612
56.505 11.201521
56.510 11.083412
56.515 11.186052
56.520 11.044932
56.525 10.189754
56.530 10.019521
56.535 10.57386
56.540 10.55418
56.545 10.699273
56.550 10.319351
56.555 10.303143
56.560 10.225887
56.565 10.116889
56.570 10.152224
56.575 10.117264
56.580 10.258695
56.585 10.118996
56.590 9.719681
56.595 10.07382
56.600 9.985856
56.605 9.988864
56.610 9.845492
56.615 9.981411
56.620 10.511878
56.625 10.880041
56.630 10.694916
56.635 10.507545
56.640 10.260868
56.645 10.403804
56.650 10.139891
56.655 9.757404
56.660 9.589137
56.665 9.792539
56.670 9.888971
56.675 9.678457
56.680 9.753513
56.685 10.011456
56.690 10.341144
56.695 10.917507
56.700 11.084088
56.705 11.79529
56.710 12.387771
56.715 12.126914
56.720 12.117313
56.725 12.153944
56.730 12.034701
56.735 12.021465
56.740 12.100389
56.745 12.365395
56.750 12.420169
56.755 12.42675
56.760 12.351091
56.765 11.702665
56.770 11.479815
56.775 11.233257
56.780 11.408762
56.785 11.676721
56.790 11.49824
56.795 11.370966
56.800 11.818623
56.805 11.698833
56.810 11.264684
56.815 10.513851
56.820 10.386721
56.825 10.29385
56.830 10.421759
56.835 10.629
56.840 11.218962
56.845 11.282027
56.850 11.01515
56.855 10.667759
56.860 10.595592
56.865 10.398088
56.870 9.74472
56.875 9.294674
56.880 9.926976
56.885 10.690176
56.890 10.411698
56.895 10.716107
56.900 11.114397
56.905 11.566339
56.910 11.337235
56.915 10.955857
56.920 10.943694
56.925 10.931319
56.930 10.653116
56.935 10.117547
56.940 9.71913
56.945 9.609951
56.950 9.666167
56.955 10.106509
56.960 10.740849
56.965 10.49859
56.970 10.339461
56.975 10.957786
56.980 11.22564
56.985 11.2668
56.990 11.125963
56.995 11.128901
57.000 11.834171
57.005 11.966273
57.010 11.993009
57.015 11.828458
57.020 11.796418
57.025 11.684084
57.030 11.35378
57.035 11.346972
57.040 11.746435
57.045 11.827273
57.050 11.845301
57.055 11.734694
57.060 11.717457
57.065 11.812865
57.070 12.106493
57.075 12.129976
57.080 11.645839
57.085 11.470757
57.090 11.960702
57.095 12.313994
57.100 11.957351
57.105 11.240857
57.110 11.422692
57.115 11.526673
57.120 11.388036
57.125 10.695787
57.130 10.948125
57.135 11.104184
57.140 10.799287
57.145 10.620687
57.150 10.911128
57.155 11.415732
57.160 11.672688
57.165 11.24693
57.170 11.152954
57.175 11.907932
57.180 12.190497
57.185 11.668746
57.190 11.042145
57.195 11.197355
57.200 11.207884
57.205 11.567348
57.210 11.618568
57.215 11.43893
57.220 11.733775
57.225 12.15946
57.230 11.87423
57.235 12.004982
57.240 11.968211
57.245 11.216566
57.250 10.722485
57.255 10.367577
57.260 10.050838
57.265 10.306354
57.270 10.783067
57.275 10.638505
57.280 11.308111
57.285 11.769367
57.290 11.745721
57.295 11.639141
57.300 11.193356
57.305 10.91926
57.310 11.121551
57.315 11.061813
57.320 11.358834
57.325 11.642393
57.330 11.811923
57.335 11.880721
57.340 11.884237
57.345 12.060869
57.350 12.12735
57.355 12.138313
57.360 12.198683
57.365 12.192089
57.370 12.506801
57.375 12.29565
57.380 12.202955
57.385 12.189527
57.390 11.969234
57.395 11.846387
57.400 12.046224
57.405 11.97366
57.410 12.046515
57.415 12.26631
57.420 12.489563
57.425 12.166101
57.430 12.483956
57.435 12.636074
57.440 12.929466
57.445 13.043775
57.450 13.158875
57.455 13.268967
57.460 13.629557
57.465 13.264948
57.470 13.118769
57.475 13.068267
57.480 12.702692
57.485 12.37687
57.490 11.94726
57.495 12.486225
57.500 12.185027
57.505 11.988119
57.510 12.331869
57.515 12.878704
57.520 12.973077
57.525 12.795132
57.530 12.77786
57.535 13.402411
57.540 13.584332
57.545 13.148668
57.550 12.780096
57.555 13.414685
57.560 13.75567
57.565 13.495185
57.570 13.08325
57.575 12.935777
57.580 13.09446
57.585 13.253963
57.590 12.64029
57.595 12.785958
57.600 13.199099
57.605 13.339653
57.610 13.286265
57.615 13.126213
57.620 13.211278
57.625 13.658929
57.630 13.868327
57.635 13.599627
57.640 13.579939
57.645 13.36721
57.650 13.264649
57.655 12.899744
57.660 12.653884
57.665 12.301281
57.670 12.067288
57.675 12.009241
57.680 12.314452
57.685 12.145241
57.690 12.413626
57.695 11.983145
57.700 11.236385
57.705 10.857188
57.710 10.885372
57.715 11.085311
57.720 11.138033
57.725 11.77479
57.730 12.536654
57.735 13.458623
57.740 13.771433
57.745 13.885515
57.750 14.174231
57.755 14.433115
57.760 13.971833
57.765 13.733904
57.770 13.703517
57.775 13.705508
57.780 13.420407
57.785 13.009826
57.790 13.313112
57.795 12.934839
57.800 12.620532
57.805 12.541244
57.810 12.81922
57.815 13.423271
57.820 13.667255
57.825 13.627504
57.830 13.887362
57.835 14.34979
57.840 14.523534
57.845 14.120675
57.850 14.050714
57.855 13.562053
57.860 13.192813
57.865 13.128723
57.870 13.110351
57.875 13.329818
57.880 13.924443
57.885 14.061502
57.890 13.980773
57.895 14.365139
57.900 14.560163
57.905 14.47518
57.910 14.74558
57.915 14.351543
57.920 14.241554
57.925 14.666025
57.930 14.617455
57.935 14.351268
57.940 13.961194
57.945 13.76695
57.950 13.935859
57.955 14.144834
57.960 13.980955
57.965 14.159632
57.970 14.811244
57.975 15.395782
57.980 15.213428
57.985 15.188899
57.990 15.203806
57.995 15.507074
58.000 15.407508
58.005 15.358569
58.010 15.582379
58.015 15.721117
58.020 16.069599
58.025 15.84924
58.030 15.870925
58.035 16.359669
58.040 16.112204
58.045 15.768174
58.050 15.858267
58.055 15.774139
58.060 15.79502
58.065 15.242387
58.070 14.762431
58.075 14.927377
58.080 15.498261
58.085 15.487169
58.090 15.273953
58.095 15.55283
58.100 16.14233
58.105 16.191027
58.110 15.710674
58.115 15.263144
58.120 15.244211
58.125 15.155931
58.130 14.348492
58.135 13.828018
58.140 14.485531
58.145 14.790928
58.150 14.829378
58.155 14.924747
58.160 14.925545
58.165 15.383267
58.170 15.293067
58.175 14.565763
58.180 14.24112
58.185 14.008067
58.190 13.68816
58.195 13.576934
58.200 13.385669
58.205 13.51033
58.210 13.491152
58.215 13.617258
58.220 13.729239
58.225 14.461181
58.230 15.130887
58.235 15.204688
58.240 15.208812
58.245 14.86398
58.250 15.143477
58.255 15.162712
58.260 14.446446
58.265 14.50472
58.270 14.887321
58.275 15.520031
58.280 16.225826
58.285 16.165571
58.290 15.942406
58.295 15.828748
58.300 15.75808
58.305 15.711624
58.310 15.197992
58.315 15.580635
58.320 15.910379
58.325 15.927287
58.330 15.715519
58.335 15.775768
58.340 15.896322
58.345 16.15188
58.350 15.592803
58.355 15.620742
58.360 16.157049
58.365 16.782352
58.370 16.842714
58.375 16.964592
58.380 17.080343
58.385 18.04756
58.390 18.537136
58.395 19.080296
58.400 19.318968
58.405 19.488232
58.410 19.799875
58.415 20.060371
58.420 19.361958
58.425 19.379549
58.430 19.479387
58.435 19.555063
58.440 19.929638
58.445 20.031168
58.450 20.20846
58.455 21.278358
58.460 21.681736
58.465 21.619724
58.470 22.091187
58.475 22.213343
58.480 22.702456
58.485 22.873972
58.490 23.049068
58.495 23.723267
58.500 23.88504
58.505 23.871111
58.510 23.583237
58.515 23.229202
58.520 23.875423
58.525 24.010927
58.530 23.797834
58.535 23.883348
58.540 24.401489
58.545 25.220924
58.550 25.888939
58.555 25.924015
58.560 26.200453
58.565 26.709433
58.570 27.341791
58.575 27.120243
58.580 27.035278
58.585 27.10376
58.590 27.540485
58.595 27.266199
58.600 27.170727
58.605 27.268242
58.610 27.688599
58.615 28.412773
58.620 28.474537
58.625 28.767025
58.630 29.352512
58.635 30.097216
58.640 30.560717
58.645 30.647491
58.650 30.112705
58.655 30.320454
58.660 30.887972
58.665 31.022751
58.670 30.326597
58.675 30.198416
58.680 30.514935
58.685 30.590942
58.690 30.341278
58.695 30.002661
58.700 30.170801
58.705 30.082464
58.710 29.734972
58.715 29.047615
58.720 28.843332
58.725 28.360888
58.730 28.630405
58.735 28.9669
58.740 28.952009
58.745 29.114414
58.750 29.90349
58.755 30.374216
58.760 30.232073
58.765 29.317474
58.770 28.769726
58.775 28.727541
58.780 27.982428
58.785 27.156006
58.790 26.683584
58.795 26.571604
58.800 26.333399
58.805 25.965836
58.810 25.999729
58.815 26.449636
58.820 27.283184
58.825 26.887438
58.830 26.188704
58.835 25.76823
58.840 25.755293
58.845 25.410032
58.850 24.922247
58.855 23.771667
58.860 23.780466
58.865 24.078358
58.870 24.562149
58.875 24.419542
58.880 24.419641
58.885 24.142057
58.890 24.362938
58.895 24.071484
58.900 23.866402
58.905 22.919456
58.910 22.146236
58.915 21.575937
58.920 20.844574
58.925 20.548016
58.930 20.636093
58.935 20.049482
58.940 19.663036
58.945 19.865467
58.950 19.797405
58.955 19.343916
58.960 18.665194
58.965 18.453331
58.970 18.455107
58.975 18.231894
58.980 17.624319
58.985 17.684124
58.990 17.980562
58.995 18.002415
59.000 17.710928
59.005 17.085186
59.010 16.670212
59.015 16.726885
59.020 16.834719
59.025 16.789314
59.030 16.665241
59.035 16.750595
59.040 17.493328
59.045 17.927929
59.050 17.767601
59.055 16.872528
59.060 15.990171
59.065 15.931968
59.070 15.662332
59.075 15.234051
59.080 14.982607
59.085 14.494023
59.090 14.453253
59.095 15.005313
59.100 15.068134
59.105 14.879725
59.110 14.432644
59.115 13.486609
59.120 13.633268
59.125 13.739209
59.130 13.738663
59.135 13.378561
59.140 13.732553
59.145 13.853415
59.150 14.110423
59.155 14.028323
59.160 14.004591
59.165 13.711029
59.170 13.938274
59.175 13.849752
59.180 14.02834
59.185 14.990195
59.190 14.960711
59.195 14.740862
59.200 15.068357
59.205 14.8361
59.210 14.61831
59.215 14.288146
59.220 13.851267
59.225 13.858811
59.230 13.749007
59.235 13.402462
59.240 13.351655
59.245 13.342646
59.250 12.851664
59.255 12.475698
59.260 12.790772
59.265 13.162619
59.270 13.514465
59.275 14.00429
59.280 14.009269
59.285 14.214814
59.290 14.568173
59.295 14.279635
59.300 13.912457
59.305 13.31391
59.310 13.008509
59.315 13.540452
59.320 13.379856
59.325 12.780904
59.330 12.968993
59.335 13.112372
59.340 13.430831
59.345 13.129699
59.350 12.447173
59.355 12.499433
59.360 12.999207
59.365 13.280207
59.370 13.283664
59.375 13.095642
59.380 13.042429
59.385 13.056086
59.390 13.281183
59.395 12.967205
59.400 12.703979
59.405 12.857722
59.410 12.963448
59.415 13.000839
59.420 12.999663
59.425 12.958805
59.430 12.912784
59.435 12.829244
59.440 13.102142
59.445 13.348848
59.450 13.730013
59.455 14.299651
59.460 14.753762
59.465 14.622068
59.470 14.76815
59.475 14.814165
59.480 14.459752
59.485 14.605556
59.490 14.70995
59.495 14.532742
59.500 14.35951
59.505 14.246541
59.510 14.235336
59.515 14.185435
59.520 13.691122
59.525 13.140062
59.530 13.343868
59.535 13.862364
59.540 13.676373
59.545 13.273195
59.550 13.588083
59.555 13.482589
59.560 13.453556
59.565 13.087516
59.570 13.241273
59.575 13.518593
59.580 13.774649
59.585 13.940768
59.590 14.301569
59.595 14.543472
59.600 14.309895
59.605 13.839133
59.610 13.421451
59.615 13.299778
59.620 13.272619
59.625 12.847465
59.630 12.794304
59.635 12.781451
59.640 12.741997
59.645 13.067968
59.650 12.757995
59.655 12.384455
59.660 12.58802
59.665 13.092797
59.670 13.226608
59.675 13.112515
59.680 13.168941
59.685 13.559832
59.690 13.761466
59.695 13.779398
59.700 13.481015
59.705 13.55088
59.710 13.353762
59.715 13.293212
59.720 13.421756
59.725 13.662101
59.730 14.029304
59.735 14.484898
59.740 15.100215
59.745 15.626369
59.750 15.808075
59.755 15.690835
59.760 15.345842
59.765 14.828841
59.770 14.683626
59.775 14.090458
59.780 13.881716
59.785 13.754137
59.790 13.375978
59.795 12.965526
59.800 12.645186
59.805 12.513225
59.810 12.549243
59.815 12.35034
59.820 12.466929
59.825 12.892001
59.830 13.10349
59.835 13.439822
59.840 13.327036
59.845 13.650513
59.850 13.611444
59.855 13.712208
59.860 13.724951
59.865 13.96996
59.870 13.69691
59.875 13.246553
59.880 13.224436
59.885 13.168306
59.890 12.899245
59.895 12.513767
59.900 12.414673
59.905 12.791624
59.910 12.957245
59.915 12.557129
59.920 13.155633
59.925 13.447619
59.930 13.373383
59.935 13.181048
59.940 12.984175
59.945 13.039426
59.950 12.700312
59.955 12.675439
59.960 13.313593
59.965 13.943019
59.970 14.149822
59.975 14.304021
59.980 14.638026
59.985 14.882971
59.990 14.815781
59.995 14.506933
60.000 14.39588
60.005 14.634111
60.010 14.601056
60.015 14.549973
60.020 14.240735
60.025 13.749461
60.030 13.692007
60.035 13.871828
60.040 13.886478
60.045 13.734628
60.050 14.448999
60.055 14.678724
60.060 14.87442
60.065 14.61116
60.070 14.4596
60.075 14.764378
60.080 14.759198
60.085 14.209649
60.090 14.294479
60.095 14.618923
60.100 14.901687
60.105 15.147549
60.110 14.790915
60.115 14.706987
60.120 14.754608
60.125 14.817166
60.130 14.150345
60.135 13.717325
60.140 13.396624
60.145 14.042521
60.150 14.559518
60.155 15.18953
60.160 15.122671
60.165 15.316993
60.170 15.444339
60.175 15.412624
60.180 14.819763
60.185 14.313905
60.190 13.792478
60.195 13.794692
60.200 13.804341
60.205 14.02859
60.210 13.934836
60.215 13.983732
60.220 14.197005
60.225 14.046317
60.230 14.518314
60.235 14.602079
60.240 14.381727
60.245 14.507543
60.250 14.473543
60.255 14.323725
60.260 14.110222
60.265 13.316668
60.270 13.47358
60.275 13.437919
60.280 12.44683
60.285 12.133017
60.290 12.460995
60.295 12.555669
60.300 12.479842
60.305 12.442986
60.310 12.361053
60.315 12.628228
60.320 12.806967
60.325 12.49288
60.330 12.629065
60.335 13.186073
60.340 13.054265
60.345 13.293513
60.350 13.360116
60.355 13.806009
60.360 14.317246
60.365 14.819105
60.370 14.606504
60.375 14.353255
60.380 14.4059
60.385 14.789901
60.390 14.277339
60.395 14.369476
60.400 13.904174
60.405 14.142546
60.410 14.092216
60.415 14.453965
60.420 14.473732
60.425 14.425267
60.430 13.933438
60.435 14.279762
60.440 14.112974
60.445 14.293277
60.450 13.642243
60.455 13.33086
60.460 13.036998
60.465 12.817447
60.470 12.585995
60.475 12.354465
60.480 12.160643
60.485 12.394729
60.490 12.715236
60.495 13.320038
60.500 13.579706
60.505 13.31389
60.510 13.477344
60.515 13.635238
60.520 13.417713
60.525 13.626414
60.530 13.40685
60.535 13.639736
60.540 13.677928
60.545 13.86073
60.550 13.775074
60.555 14.008827
60.560 13.601616
60.565 13.304918
60.570 13.5997
60.575 13.987212
60.580 13.944772
60.585 14.027134
60.590 14.084346
60.595 14.773102
60.600 15.047688
60.605 14.543968
60.610 14.401139
60.615 14.672839
60.620 14.525754
60.625 14.502031
60.630 13.804337
60.635 13.498372
60.640 13.912631
60.645 14.606908
60.650 14.407542
60.655 14.860206
60.660 14.864736
60.665 15.165409
60.670 15.332191
60.675 14.999817
60.680 14.779412
60.685 14.94691
60.690 14.418172
60.695 13.898412
60.700 13.928512
60.705 14.261838
60.710 14.491182
60.715 13.674829
60.720 13.458907
60.725 13.480325
60.730 13.567153
60.735 13.339219
60.740 12.956546
60.745 12.823442
60.750 13.313314
60.755 13.858611
60.760 13.90093
60.765 14.248289
60.770 14.672471
60.775 15.006081
60.780 15.145967
60.785 14.980839
60.790 14.606415
60.795 14.805007
60.800 14.913672
60.805 14.609141
60.810 14.33664
60.815 14.822824
60.820 14.974057
60.825 15.046491
60.830 15.133324
60.835 15.226215
60.840 14.905026
60.845 14.218076
60.850 13.788997
60.855 14.185118
60.860 14.127926
60.865 14.152147
60.870 13.806082
60.875 14.070777
60.880 14.547013
60.885 14.133458
60.890 14.034631
60.895 13.49868
60.900 12.886972
60.905 12.881013
60.910 12.931677
60.915 13.058889
60.920 12.962574
60.925 12.892922
60.930 13.713067
60.935 13.824539
60.940 13.555907
60.945 13.569827
60.950 13.816395
60.955 14.105354
60.960 13.553494
60.965 12.793858
60.970 12.827818
60.975 13.19975
60.980 12.895981
60.985 12.34023
60.990 12.635749
60.995 13.465008
61.000 14.16752
61.005 14.16095
61.010 14.275061
61.015 14.740724
61.020 14.998061
61.025 14.472238
61.030 14.167006
61.035 14.062731
61.040 14.041547
61.045 13.589221
61.050 13.344372
61.055 13.137403
61.060 13.044287
61.065 13.172605
61.070 13.919603
61.075 14.122195
61.080 13.994325
61.085 13.975689
61.090 13.945703
61.095 14.146233
61.100 13.911378
61.105 13.473322
61.110 13.097775
61.115 13.161854
61.120 13.707664
61.125 13.867374
61.130 13.492005
61.135 13.316392
61.140 13.807135
61.145 14.50871
61.150 14.305353
61.155 13.97878
61.160 14.30792
61.165 14.997336
61.170 15.467989
61.175 15.1144
61.180 14.540132
61.185 14.665154
61.190 14.377527
61.195 14.23908
61.200 13.924927
61.205 13.576813
61.210 13.637893
61.215 14.023412
61.220 14.515297
61.225 15.045245
61.230 15.530497
61.235 15.622352
61.240 15.505896
61.245 15.673261
61.250 15.833699
61.255 15.628024
61.260 15.431957
61.265 15.050694
61.270 15.076005
61.275 15.493771
61.280 15.374345
61.285 15.248099
61.290 15.171158
61.295 14.930038
61.300 14.698089
61.305 14.2188
61.310 13.863977
61.315 13.863293
61.320 13.716722
61.325 13.664826
61.330 13.798988
61.335 14.268668
61.340 14.599072
61.345 14.477057
61.350 14.467542
61.355 14.493809
61.360 14.661362
61.365 14.736379
61.370 14.321017
61.375 14.413151
61.380 13.811454
61.385 13.848212
61.390 14.267907
61.395 14.257619
61.400 14.268013
61.405 14.229472
61.410 14.443162
61.415 14.959266
61.420 14.826136
61.425 14.347248
61.430 14.218931
61.435 14.265701
61.440 14.297211
61.445 13.817199
61.450 13.781146
61.455 14.104937
61.460 14.210402
61.465 14.61776
61.470 15.128866
61.475 15.774071
61.480 16.387482
61.485 16.472412
61.490 16.307755
61.495 16.214691
61.500 15.961589
61.505 15.369646
61.510 14.820927
61.515 14.49174
61.520 14.28653
61.525 14.319358
61.530 13.982886
61.535 13.606003
61.540 14.158091
61.545 14.864193
61.550 15.499533
61.555 15.571462
61.560 16.358133
61.565 17.198309
61.570 17.458374
61.575 17.092348
61.580 17.319468
61.585 16.831137
61.590 16.492947
61.595 15.372029
61.600 14.653162
61.605 14.364948
61.610 14.40217
61.615 13.13437
61.620 12.87318
61.625 12.831375
61.630 12.848565
61.635 13.179871
61.640 12.869014
61.645 12.700104
61.650 13.182257
61.655 13.108578
61.660 13.449011
61.665 13.59001
61.670 13.347546
61.675 13.861424
61.680 13.57601
61.685 14.227321
61.690 14.635384
61.695 15.116691
61.700 14.946817
61.705 15.327195
61.710 15.244324
61.715 15.218184
61.720 14.070158
61.725 13.774562
61.730 13.503944
61.735 13.677626
61.740 13.956844
61.745 14.265423
61.750 15.399837
61.755 16.339045
61.760 16.446198
61.765 16.411245
61.770 17.008875
61.775 16.745508
61.780 16.732172
61.785 15.854898
61.790 16.000763
61.795 16.14403
61.800 16.069506
61.805 15.695985
61.810 15.556527
61.815 15.413761
61.820 15.227327
61.825 15.444454
61.830 15.305802
61.835 15.612179
61.840 15.790565
61.845 15.645922
61.850 15.493217
61.855 15.125681
61.860 14.756966
61.865 14.764879
61.870 14.372231
61.875 14.456754
61.880 14.6098
61.885 14.892019
61.890 15.188033
61.895 15.210532
61.900 15.524798
61.905 15.553706
61.910 15.063661
61.915 15.064837
61.920 15.053561
61.925 14.969501
61.930 14.571546
61.935 14.233739
61.940 14.304718
61.945 14.950618
61.950 15.340207
61.955 15.687196
61.960 15.828058
61.965 15.728271
61.970 15.597116
61.975 15.933953
61.980 15.154956
61.985 14.325841
61.990 13.937746
61.995 13.741497
62.000 13.908633
62.005 13.853613
62.010 13.635879
62.015 14.074787
62.020 14.318587
62.025 14.469627
62.030 15.173304
62.035 15.642386
62.040 15.757337
62.045 15.542165
62.050 15.263028
62.055 15.173468
62.060 15.020416
62.065 14.296516
62.070 14.348684
62.075 14.329321
62.080 14.234597
62.085 14.307921
62.090 14.29154
62.095 14.390915
62.100 14.328493
62.105 13.732088
62.110 13.776601
62.115 14.006915
62.120 14.290933
62.125 14.490968
62.130 14.593169
62.135 15.047978
62.140 15.443629
62.145 15.221722
62.150 14.799583
62.155 14.615667
62.160 14.334384
62.165 13.970323
62.170 13.592066
62.175 13.221043
62.180 12.934418
62.185 13.04564
62.190 12.924723
62.195 12.972241
62.200 13.228118
62.205 13.309277
62.210 13.44398
62.215 13.821088
62.220 13.763801
62.225 13.759885
62.230 13.500463
62.235 13.476474
62.240 14.066969
62.245 14.583377
62.250 14.701371
62.255 14.57846
62.260 14.960567
62.265 14.963181
62.270 14.510607
62.275 14.08958
62.280 13.827188
62.285 13.918435
62.290 13.966949
62.295 13.841765
62.300 14.102431
62.305 14.095523
62.310 14.186027
62.315 13.971308
62.320 14.358161
62.325 14.038182
62.330 14.042656
62.335 14.558126
62.340 14.587845
62.345 14.710632
62.350 14.679853
62.355 14.744006
62.360 15.428335
62.365 15.80639
62.370 15.415092
62.375 15.632066
62.380 15.736941
62.385 16.020969
62.390 16.108307
62.395 16.53981
62.400 16.791042
62.405 17.016848
62.410 17.153708
62.415 16.933815
62.420 16.61441
62.425 16.413582
62.430 15.767392
62.435 15.150772
62.440 14.797642
62.445 14.432978
62.450 14.677925
62.455 14.950586
62.460 15.011804
62.465 15.147186
62.470 15.246356
62.475 15.856718
62.480 16.289869
62.485 16.05114
62.490 16.015791
62.495 15.970185
62.500 15.718396
62.505 15.681878
62.510 15.409432
62.515 15.532043
62.520 15.767953
62.525 15.41256
62.530 15.347184
62.535 15.925378
62.540 15.989999
62.545 16.227486
62.550 15.941558
62.555 15.934691
62.560 15.849267
62.565 15.64541
62.570 15.569304
62.575 15.246733
62.580 15.357767
62.585 15.86816
62.590 15.977665
62.595 16.097462
62.600 16.768332
62.605 16.972008
62.610 17.312906
62.615 16.483206
62.620 15.920189
62.625 16.197817
62.630 16.408636
62.635 16.099525
62.640 15.717375
62.645 15.644259
62.650 16.233145
62.655 17.108288
62.660 16.443262
62.665 16.154278
62.670 16.482965
62.675 16.4729
62.680 16.528399
62.685 16.01585
62.690 15.665101
62.695 15.930222
62.700 15.689047
62.705 15.27863
62.710 15.261106
62.715 15.19742
62.720 15.558722
62.725 16.256819
62.730 16.921555
62.735 17.369457
62.740 17.243893
62.745 16.999334
62.750 16.613501
62.755 16.448872
62.760 14.820651
62.765 14.061908
62.770 13.996168
62.775 13.992655
62.780 14.433132
62.785 14.153258
62.790 13.568254
62.795 13.413511
62.800 13.646722
62.805 14.199356
62.810 14.000518
62.815 13.901559
62.820 14.262984
62.825 15.05078
62.830 15.813531
62.835 15.542022
62.840 14.923854
62.845 15.122557
62.850 15.247329
62.855 15.417827
62.860 15.093901
62.865 15.042912
62.870 15.3473
62.875 15.789456
62.880 16.031107
62.885 16.078838
62.890 15.922723
62.895 15.792377
62.900 16.045382
62.905 16.572758
62.910 16.445835
62.915 16.226313
62.920 16.229757
62.925 16.600372
62.930 16.689375
62.935 16.425684
62.940 15.974604
62.945 15.536161
62.950 15.313457
62.955 15.332089
62.960 15.556553
62.965 15.746469
62.970 15.860288
62.975 15.672032
62.980 15.871004
62.985 16.116013
62.990 16.262434
62.995 15.591784
63.000 15.392972
63.005 14.719207
63.010 14.495111
63.015 14.500355
63.020 14.129879
63.025 13.870497
63.030 13.94728
63.035 14.187182
63.040 14.574097
63.045 14.913578
63.050 15.573
63.055 16.046953
63.060 16.529476
63.065 16.968704
63.070 16.893044
63.075 16.891571
63.080 16.542793
63.085 15.877658
63.090 15.552895
63.095 15.130306
63.100 14.737002
63.105 14.983697
63.110 15.143841
63.115 15.288815
63.120 15.351377
63.125 15.21038
63.130 14.866415
63.135 14.797919
63.140 14.322248
63.145 14.373852
63.150 14.609203
63.155 14.598087
63.160 14.950502
63.165 15.19125
63.170 15.143463
63.175 15.148968
63.180 15.470335
63.185 15.533183
63.190 15.824084
63.195 15.417681
63.200 15.496183
63.205 15.917723
63.210 16.242821
63.215 15.987084
63.220 16.182602
63.225 16.229847
63.230 16.534815
63.235 16.998167
63.240 16.746788
63.245 16.198626
63.250 15.980799
63.255 15.968292
63.260 16.041569
63.265 15.960452
63.270 15.643774
63.275 15.747023
63.280 16.255512
63.285 16.89315
63.290 16.814907
63.295 16.812845
63.300 16.996159
63.305 17.503445
63.310 17.924444
63.315 18.312088
63.320 17.872967
63.325 17.730808
63.330 18.421877
63.335 18.088747
63.340 17.492121
63.345 16.679436
63.350 16.31838
63.355 16.433096
63.360 17.147999
63.365 16.527596
63.370 17.102079
63.375 17.565029
63.380 18.033543
63.385 18.14312
63.390 18.094198
63.395 17.546255
63.400 16.879618
63.405 16.377371
63.410 16.167057
63.415 16.060871
63.420 16.048843
63.425 16.132257
63.430 16.273924
63.435 16.976343
63.440 16.951229
63.445 17.096403
63.450 16.954254
63.455 16.71681
63.460 16.837389
63.465 16.494747
63.470 16.407879
63.475 16.520899
63.480 15.81504
63.485 15.844958
63.490 15.847191
63.495 15.910624
63.500 16.44875
63.505 16.581364
63.510 16.93148
63.515 17.113068
63.520 17.049953
63.525 16.71578
63.530 16.163303
63.535 16.522751
63.540 16.089787
63.545 15.791385
63.550 15.824081
63.555 16.049908
63.560 16.349833
63.565 16.541691
63.570 15.663304
63.575 15.719257
63.580 15.691757
63.585 16.046957
63.590 15.989139
63.595 16.610466
63.600 16.367056
63.605 16.675074
63.610 16.682562
63.615 16.736923
63.620 16.753128
63.625 16.793097
63.630 16.463831
63.635 16.693296
63.640 17.172184
63.645 17.787621
63.650 17.856392
63.655 17.781309
63.660 17.953693
63.665 18.219553
63.670 18.246778
63.675 17.76593
63.680 17.022387
63.685 16.804241
63.690 16.725174
63.695 16.824226
63.700 16.847324
63.705 17.083405
63.710 17.298527
63.715 17.736387
63.720 18.002029
63.725 17.625477
63.730 17.372549
63.735 17.152081
63.740 16.562231
63.745 15.756356
63.750 15.347497
63.755 15.596876
63.760 15.721779
63.765 15.626516
63.770 15.273677
63.775 15.830893
63.780 16.638683
63.785 16.73628
63.790 16.7759
63.795 17.084312
63.800 16.983702
63.805 17.501654
63.810 17.45607
63.815 16.909533
63.820 16.62804
63.825 16.590736
63.830 16.249996
63.835 16.583151
63.840 17.368626
63.845 17.480658
63.850 18.114082
63.855 18.462
63.860 18.583185
63.865 18.679585
63.870 18.631727
63.875 17.318459
63.880 16.564667
63.885 16.635323
63.890 17.070036
63.895 17.587446
63.900 17.924072
63.905 17.505402
63.910 17.95397
63.915 18.40012
63.920 18.311932
63.925 18.202385
63.930 18.313444
63.935 18.428707
63.940 18.702847
63.945 18.818882
63.950 18.746367
63.955 18.524736
63.960 18.521381
63.965 18.425358
63.970 18.506338
63.975 18.729935
63.980 18.942774
63.985 18.724075
63.990 18.346445
63.995 18.219872
64.000 18.094402
64.005 17.778252
64.010 18.189537
64.015 19.01845
64.020 19.786779
64.025 20.527487
64.030 20.370611
64.035 20.179495
64.040 19.70895
64.045 19.217083
64.050 19.01457
64.055 19.084532
64.060 19.501371
64.065 20.139439
64.070 20.879419
64.075 22.101063
64.080 22.536356
64.085 23.117132
64.090 24.026134
64.095 23.934875
64.100 23.850557
64.105 23.08584
64.110 23.34024
64.115 23.82671
64.120 23.790535
64.125 23.216667
64.130 23.192417
64.135 23.275873
64.140 23.7339
64.145 23.405167
64.150 23.284086
64.155 23.783751
64.160 24.575125
64.165 25.594561
64.170 26.504179
64.175 27.059021
64.180 27.161293
64.185 27.749216
64.190 27.051424
64.195 26.983784
64.200 27.143791
64.205 27.955933
64.210 28.851337
64.215 29.516256
64.220 30.481432
64.225 31.72282
64.230 32.612698
64.235 32.923641
64.240 32.513638
64.245 32.503719
64.250 32.701191
64.255 34.208046
64.260 35.008915
64.265 35.026833
64.270 35.537872
64.275 36.831139
64.280 37.167301
64.285 37.452736
64.290 37.643349
64.295 38.3353
64.300 39.278744
64.305 39.376377
64.310 39.001759
64.315 39.342831
64.320 39.500088
64.325 38.720459
64.330 38.108204
64.335 37.823395
64.340 38.08268
64.345 38.615276
64.350 39.270927
64.355 40.25526
64.360 41.635277
64.365 42.677227
64.370 43.193775
64.375 44.273449
64.380 44.785542
64.385 45.04985
64.390 45.060543
64.395 46.039997
64.400 46.363106
64.405 45.72501
64.410 45.123848
64.415 45.206619
64.420 45.076797
64.425 44.614681
64.430 43.260315
64.435 43.435707
64.440 45.193951
64.445 45.829506
64.450 45.572926
64.455 45.809265
64.460 46.352867
64.465 47.233307
64.470 47.130939
64.475 46.487213
64.480 45.932362
64.485 45.837749
64.490 45.100407
64.495 44.321266
64.500 43.355507
64.505 42.203476
64.510 40.893578
64.515 40.756264
64.520 41.160454
64.525 40.866142
64.530 41.141232
64.535 41.183697
64.540 40.791271
64.545 40.275509
64.550 40.059063
64.555 39.253063
64.560 38.740002
64.565 38.12212
64.570 37.446266
64.575 36.919693
64.580 36.309933
64.585 35.561893
64.590 35.563744
64.595 35.11018
64.600 34.542618
64.605 34.053501
64.610 34.646904
64.615 34.232426
64.620 32.994659
64.625 32.434669
64.630 31.749466
64.635 30.748909
64.640 30.068516
64.645 29.879482
64.650 30.080032
64.655 29.762098
64.660 29.239885
64.665 29.517324
64.670 29.369249
64.675 28.839382
64.680 28.143297
64.685 27.967882
64.690 28.177641
64.695 27.206741
64.700 26.719984
64.705 26.416916
64.710 26.232458
64.715 26.521997
64.720 25.970642
64.725 25.525898
64.730 25.81395
64.735 25.274288
64.740 25.082832
64.745 24.522394
64.750 23.727888
64.755 23.119967
64.760 23.30122
64.765 23.471886
64.770 23.506119
64.775 23.297705
64.780 23.835526
64.785 23.70089
64.790 23.471914
64.795 23.221451
64.800 22.997648
64.805 22.825872
64.810 22.953793
64.815 22.912249
64.820 22.829233
64.825 22.388029
64.830 22.620459
64.835 22.861122
64.840 23.28903
64.845 23.650026
64.850 23.076578
64.855 23.174452
64.860 23.882345
64.865 23.653467
64.870 23.35083
64.875 22.760935
64.880 22.09009
64.885 22.296555
64.890 22.390305
64.895 21.613621
64.900 21.227434
64.905 21.475258
64.910 21.699705
64.915 21.949087
64.920 21.761942
64.925 21.579111
64.930 21.970381
64.935 22.210934
64.940 21.782656
64.945 21.635098
64.950 21.474981
64.955 22.047075
64.960 22.643732
64.965 22.776157
64.970 22.736702
64.975 22.642866
64.980 22.398554
64.985 22.865349
64.990 22.56204
64.995 22.66276
65.000 23.127254
65.005 24.318739
65.010 24.908459
65.015 25.411684
65.020 26.26679
65.025 26.690613
65.030 26.900639
65.035 26.933212
65.040 26.540152
65.045 26.68989
65.050 26.527576
65.055 25.765537
65.060 26.193148
65.065 26.283388
65.070 25.69729
65.075 25.535315
65.080 25.993086
65.085 26.275303
65.090 27.188343
65.095 27.384953
65.100 28.236807
65.105 28.8794
65.110 29.401293
65.115 29.629549
65.120 29.729292
65.125 29.264582
65.130 29.093922
65.135 28.418816
65.140 28.782774
65.145 28.680365
65.150 28.547092
65.155 28.154621
65.160 28.520359
65.165 28.495438
65.170 28.755741
65.175 28.747774
65.180 29.387974
65.185 29.848799
65.190 30.623484
65.195 30.936787
65.200 31.866596
65.205 32.4249
65.210 32.878662
65.215 32.484665
65.220 31.76619
65.225 31.476236
65.230 30.700083
65.235 30.189411
65.240 30.43149
65.245 30.95677
65.250 31.178288
65.255 31.40329
65.260 31.538157
65.265 31.833059
65.270 32.620045
65.275 32.594173
65.280 32.453499
65.285 32.549915
65.290 33.240913
65.295 34.165272
65.300 34.936443
65.305 34.44767
65.310 34.67321
65.315 34.814884
65.320 34.919048
65.325 34.646805
65.330 34.662235
65.335 34.286545
65.340 34.459896
65.345 34.582352
65.350 35.507973
65.355 36.252949
65.360 36.51302
65.365 36.731571
65.370 37.401054
65.375 37.493286
65.380 36.403889
65.385 35.540569
65.390 35.858643
65.395 36.031769
65.400 35.169121
65.405 34.789482
65.410 35.107231
65.415 36.195961
65.420 36.091404
65.425 36.242714
65.430 36.333427
65.435 37.069088
65.440 37.739708
65.445 37.784016
65.450 38.298195
65.455 38.207375
65.460 37.819088
65.465 37.972603
65.470 37.843307
65.475 37.946602
65.480 37.973869
65.485 38.105297
65.490 37.981647
65.495 38.350452
65.500 39.029278
65.505 38.631908
65.510 38.589828
65.515 38.034348
65.520 37.507137
65.525 37.438736
65.530 37.34354
65.535 36.726234
65.540 37.277504
65.545 37.344509
65.550 37.07972
65.555 37.095947
65.560 37.889786
65.565 37.558815
65.570 37.666355
65.575 37.58329
65.580 38.706894
65.585 39.764599
65.590 40.34716
65.595 40.205227
65.600 40.757027
65.605 41.347855
65.610 40.545258
65.615 39.052746
65.620 38.496162
65.625 38.443283
65.630 38.180737
65.635 37.696484
65.640 37.850182
65.645 38.637844
65.650 39.423889
65.655 39.251526
65.660 38.274761
65.665 37.486542
65.670 37.038635
65.675 35.993225
65.680 34.924667
65.685 34.435631
65.690 34.08604
65.695 33.844101
65.700 34.160549
65.705 34.234024
65.710 34.242073
65.715 34.172386
65.720 33.554073
65.725 34.199886
65.730 34.833893
65.735 35.527302
65.740 35.715336
65.745 35.865971
65.750 35.846542
65.755 35.73291
65.760 35.03183
65.765 35.107868
65.770 34.058407
65.775 33.206749
65.780 33.324745
65.785 32.46302
65.790 31.745888
65.795 31.261713
65.800 30.23562
65.805 29.977034
65.810 29.728563
65.815 28.948694
65.820 28.398275
65.825 28.337669
65.830 28.144962
65.835 27.439857
65.840 27.231041
65.845 27.632933
65.850 28.628828
65.855 29.238102
65.860 28.781027
65.865 28.522413
65.870 28.936193
65.875 28.872898
65.880 28.634228
65.885 27.498264
65.890 26.543091
65.895 25.768463
65.900 25.978725
65.905 25.380978
65.910 24.120344
65.915 23.785452
65.920 23.916853
65.925 23.809927
65.930 23.21916
65.935 23.299614
65.940 23.462473
65.945 23.72002
65.950 23.115957
65.955 22.52387
65.960 21.822588
65.965 22.325123
65.970 21.902674
65.975 21.432737
65.980 20.672386
65.985 20.172565
65.990 20.058838
65.995 20.027031
66.000 19.936054
66.005 20.138824
66.010 20.465456
66.015 20.602493
66.020 20.954023
66.025 20.785084
66.030 20.824755
66.035 20.221231
66.040 19.480696
66.045 19.381102
66.050 19.790447
66.055 20.170042
66.060 20.164396
66.065 20.315132
66.070 20.650095
66.075 21.246204
66.080 21.095575
66.085 20.894421
66.090 20.501034
66.095 20.720253
66.100 20.709448
66.105 20.101685
66.110 18.959682
66.115 18.75017
66.120 18.987284
66.125 18.525122
66.130 18.321407
66.135 18.382013
66.140 18.512163
66.145 18.39197
66.150 18.431787
66.155 17.911831
66.160 18.072008
66.165 18.786072
66.170 18.642981
66.175 18.519403
66.180 18.68256
66.185 18.452732
66.190 18.313519
66.195 17.797585
66.200 17.195007
66.205 16.703199
66.210 16.997431
66.215 17.161345
66.220 17.27302
66.225 17.335037
66.230 17.616077
66.235 17.568621
66.240 17.762402
66.245 17.685936
66.250 17.549721
66.255 17.348837
66.260 17.56707
66.265 17.595465
66.270 17.496317
66.275 17.453539
66.280 17.694363
66.285 17.527536
66.290 17.680361
66.295 17.288691
66.300 17.102573
66.305 17.837742
66.310 18.122164
66.315 17.785654
66.320 17.798521
66.325 17.588861
66.330 17.637745
66.335 17.565607
66.340 16.414354
66.345 15.938505
66.350 16.224138
66.355 16.550943
66.360 17.05991
66.365 17.337595
66.370 17.111385
66.375 16.790522
66.380 17.271126
66.385 16.924215
66.390 17.034157
66.395 16.860243
66.400 16.640886
66.405 17.731146
66.410 18.35232
66.415 18.227821
66.420 18.532019
66.425 18.085648
66.430 17.758129
66.435 17.878944
66.440 17.879269
66.445 17.530088
66.450 16.980066
66.455 16.45302
66.460 16.924145
66.465 17.539909
66.470 17.659189
66.475 17.51058
66.480 18.767218
66.485 19.163261
66.490 19.327162
66.495 18.952812
66.500 18.484892
66.505 18.451641
66.510 18.03381
66.515 16.944422
66.520 16.59193
66.525 16.316414
66.530 16.329603
66.535 16.710529
66.540 16.47954
66.545 16.897606
66.550 17.567612
66.555 18.47658
66.560 18.657831
66.565 18.924118
66.570 19.132257
66.575 18.703928
66.580 17.950684
66.585 17.683506
66.590 16.823492
66.595 17.08902
66.600 17.374968
66.605 17.311752
66.610 17.442331
66.615 17.783636
66.620 17.984411
66.625 18.27956
66.630 17.907753
66.635 16.995287
66.640 16.940077
66.645 17.064529
66.650 16.922056
66.655 16.547014
66.660 16.327641
66.665 16.616875
66.670 16.74136
66.675 16.923588
66.680 17.035692
66.685 17.650852
66.690 17.90077
66.695 17.970942
66.700 17.683361
66.705 17.837988
66.710 17.936647
66.715 17.891905
66.720 17.893307
66.725 18.403305
66.730 18.566792
66.735 19.050537
66.740 19.221989
66.745 19.094667
66.750 18.855799
66.755 17.88419
66.760 17.809225
66.765 17.83062
66.770 17.668631
66.775 17.255562
66.780 17.207254
66.785 17.425098
66.790 17.232199
66.795 16.651182
66.800 16.206022
66.805 16.163586
66.810 15.85714
66.815 15.736239
66.820 15.871593
66.825 16.52289
66.830 16.40431
66.835 16.593561
66.840 16.00951
66.845 16.871359
66.850 16.637329
66.855 15.798434
66.860 15.808587
66.865 16.803301
66.870 17.158054
66.875 17.65378
66.880 17.178883
66.885 17.333654
66.890 17.872499
66.895 18.116198
66.900 17.131876
66.905 16.462917
66.910 16.362713
66.915 16.680733
66.920 16.849049
66.925 16.612339
66.930 16.493679
66.935 16.768967
66.940 16.746605
66.945 16.506514
66.950 16.234419
66.955 16.107061
66.960 16.30617
66.965 16.202736
66.970 16.500977
66.975 17.071617
66.980 17.092749
66.985 16.985081
66.990 16.944185
66.995 17.395063
67.000 17.55266
67.005 17.433466
67.010 17.373672
67.015 17.665537
67.020 17.50659
67.025 17.908072
67.030 17.359644
67.035 17.689919
67.040 17.768476
67.045 17.92725
67.050 18.293131
67.055 18.886267
67.060 18.504827
67.065 18.068394
67.070 17.39893
67.075 17.260693
67.080 17.023544
67.085 16.539101
67.090 16.349573
67.095 16.578287
67.100 16.909393
67.105 16.503311
67.110 16.318594
67.115 16.21921
67.120 16.707237
67.125 16.637703
67.130 16.026022
67.135 15.75755
67.140 16.035278
67.145 16.186935
67.150 15.708815
67.155 15.63644
67.160 15.585041
67.165 16.411625
67.170 16.781507
67.175 16.802202
67.180 17.342175
67.185 17.108173
67.190 16.971813
67.195 17.272766
67.200 17.486837
67.205 17.597372
67.210 18.053976
67.215 17.736336
67.220 18.329088
67.225 18.720617
67.230 18.539312
67.235 18.469358
67.240 18.646589
67.245 18.042583
67.250 17.432781
67.255 16.944349
67.260 16.462236
67.265 16.590254
67.270 16.258024
67.275 15.871172
67.280 16.057596
67.285 16.806799
67.290 18.002554
67.295 18.441166
67.300 18.362337
67.305 18.654184
67.310 18.49667
67.315 18.598284
67.320 18.51895
67.325 17.14584
67.330 16.377577
67.335 15.824876
67.340 15.39028
67.345 15.80437
67.350 15.964331
67.355 15.876543
67.360 16.734442
67.365 17.586269
67.370 18.235392
67.375 18.263561
67.380 18.331688
67.385 18.452105
67.390 18.488379
67.395 18.014126
67.400 17.237082
67.405 16.462729
67.410 16.547474
67.415 16.31077
67.420 15.82673
67.425 15.575858
67.430 15.525462
67.435 15.595093
67.440 15.972548
67.445 16.147285
67.450 16.350594
67.455 16.606531
67.460 17.047195
67.465 17.131107
67.470 17.273558
67.475 17.074074
67.480 16.418772
67.485 16.169262
67.490 16.062254
67.495 16.017672
67.500 16.125248
67.505 16.531067
67.510 17.422695
67.515 17.871405
67.520 17.987791
67.525 17.644073
67.530 17.784689
67.535 18.50033
67.540 18.153816
67.545 17.526426
67.550 17.615776
67.555 18.047316
67.560 18.566746
67.565 18.500067
67.570 17.556843
67.575 17.879482
67.580 18.011902
67.585 17.658899
67.590 17.916067
67.595 17.885508
67.600 17.656729
67.605 17.694874
67.610 17.416014
67.615 17.193949
67.620 17.13312
67.625 16.461565
67.630 16.158487
67.635 16.135477
67.640 15.577991
67.645 15.267857
67.650 15.640022
67.655 15.767715
67.660 16.347984
67.665 16.140089
67.670 15.915886
67.675 16.712603
67.680 16.825985
67.685 17.119972
67.690 16.728292
67.695 15.894015
67.700 16.266369
67.705 16.880848
67.710 17.084442
67.715 17.622446
67.720 17.440302
67.725 17.925516
67.730 19.059986
67.735 18.887272
67.740 18.802464
67.745 19.058697
67.750 18.555525
67.755 18.699162
67.760 18.454388
67.765 17.920599
67.770 17.656551
67.775 17.583939
67.780 17.33499
67.785 17.161694
67.790 17.176525
67.795 17.065464
67.800 17.254696
67.805 17.638939
67.810 17.395252
67.815 17.225838
67.820 17.205362
67.825 17.099546
67.830 16.695087
67.835 16.197277
67.840 15.82559
67.845 15.987791
67.850 16.012117
67.855 16.527077
67.860 16.802036
67.865 17.933519
67.870 18.255543
67.875 18.525106
67.880 18.520933
67.885 18.629629
67.890 18.377653
67.895 18.110531
67.900 17.971567
67.905 18.168116
67.910 18.322002
67.915 18.681204
67.920 18.871353
67.925 18.323614
67.930 18.737261
67.935 19.176537
67.940 19.36496
67.945 18.978424
67.950 18.56909
67.955 18.3605
67.960 18.70636
67.965 17.960423
67.970 16.952099
67.975 16.826298
67.980 17.401487
67.985 17.346779
67.990 17.453363
67.995 17.313721
68.000 17.377388
68.005 18.005766
68.010 18.469597
68.015 18.416748
68.020 18.497437
68.025 18.854029
68.030 19.418947
68.035 19.651169
68.040 19.038956
68.045 18.670799
68.050 18.471512
68.055 18.241289
68.060 17.838352
68.065 17.681368
68.070 17.456369
68.075 17.543943
68.080 17.327219
68.085 17.398323
68.090 17.951916
68.095 18.19342
68.100 18.395119
68.105 19.131742
68.110 19.10858
68.115 18.928492
68.120 18.818245
68.125 18.86492
68.130 18.564913
68.135 18.352053
68.140 17.84996
68.145 18.293346
68.150 18.584135
68.155 18.534628
68.160 18.512764
68.165 19.160229
68.170 19.679256
68.175 19.957249
68.180 19.650665
68.185 19.890697
68.190 20.022856
68.195 20.033859
68.200 19.537939
68.205 18.835121
68.210 19.164389
68.215 19.281479
68.220 19.319616
68.225 19.80731
68.230 20.098518
68.235 20.37574
68.240 20.393862
68.245 20.680395
68.250 21.703503
68.255 22.206402
68.260 22.015448
68.265 21.876959
68.270 21.848282
68.275 22.212055
68.280 21.842581
68.285 21.197397
68.290 20.799448
68.295 20.511658
68.300 20.663513
68.305 21.54174
68.310 21.320364
68.315 21.354389
68.320 21.12322
68.325 21.552832
68.330 21.859783
68.335 22.224577
68.340 21.910358
68.345 22.143341
68.350 22.399319
68.355 22.591383
68.360 22.62081
68.365 22.820961
68.370 22.467836
68.375 22.395218
68.380 22.921803
68.385 23.361338
68.390 23.57386
68.395 24.01206
68.400 23.948729
68.405 23.97407
68.410 24.167511
68.415 24.151995
68.420 25.098347
68.425 25.799597
68.430 25.898008
68.435 26.126268
68.440 26.423906
68.445 26.845743
68.450 26.891317
68.455 26.659464
68.460 26.972069
68.465 27.848591
68.470 28.769262
68.475 29.507504
68.480 29.324221
68.485 29.333475
68.490 29.666136
68.495 29.679941
68.500 29.375315
68.505 29.426275
68.510 29.429419
68.515 29.826994
68.520 30.66853
68.525 30.320263
68.530 30.662767
68.535 30.266363
68.540 30.153843
68.545 30.301847
68.550 30.552425
68.555 30.96542
68.560 31.359737
68.565 31.453182
68.570 32.270485
68.575 32.415009
68.580 31.656378
68.585 31.108267
68.590 30.550993
68.595 30.385378
68.600 29.880972
68.605 29.83473
68.610 30.194305
68.615 31.295502
68.620 32.25069
68.625 32.523235
68.630 33.062176
68.635 33.753048
68.640 33.668648
68.645 33.367405
68.650 33.181671
68.655 33.514221
68.660 35.15699
68.665 35.448547
68.670 35.259113
68.675 35.977745
68.680 36.486111
68.685 36.67025
68.690 36.465832
68.695 35.61412
68.700 35.407009
68.705 35.266972
68.710 34.720646
68.715 34.419857
68.720 34.49371
68.725 34.689606
68.730 34.70134
68.735 34.342999
68.740 34.006504
68.745 33.569038
68.750 33.853825
68.755 33.803417
68.760 33.611465
68.765 33.69508
68.770 34.303406
68.775 34.458118
68.780 35.005333
68.785 35.224487
68.790 34.647205
68.795 33.385471
68.800 32.574757
68.805 32.618427
68.810 32.820023
68.815 32.397594
68.820 32.154785
68.825 32.865444
68.830 33.389004
68.835 33.22588
68.840 32.719482
68.845 32.654911
68.850 32.523808
68.855 32.446335
68.860 32.605618
68.865 32.960075
68.870 33.844883
68.875 33.561058
68.880 33.796772
68.885 34.352955
68.890 34.441486
68.895 34.327538
68.900 33.922436
68.905 33.62632
68.910 33.80579
68.915 33.241573
68.920 32.700603
68.925 32.523163
68.930 31.607809
68.935 31.326178
68.940 30.754688
68.945 29.827259
68.950 29.687284
68.955 29.372725
68.960 28.916546
68.965 29.214811
68.970 29.266596
68.975 29.251766
68.980 29.526752
68.985 29.321938
68.990 29.356386
68.995 29.731602
69.000 28.984484
69.005 28.871222
69.010 28.638653
69.015 29.153297
69.020 29.597105
69.025 29.214394
69.030 28.780012
69.035 29.122408
69.040 29.600348
69.045 30.012985
69.050 29.261385
69.055 28.991325
69.060 29.134974
69.065 29.477968
69.070 28.842148
69.075 27.813343
69.080 27.863731
69.085 27.977757
69.090 28.736294
69.095 28.709358
69.100 29.147779
69.105 28.5263
69.110 27.994474
69.115 27.541012
69.120 26.870865
69.125 25.748041
69.130 25.533594
69.135 25.156199
69.140 25.318022
69.145 25.016472
69.150 24.878416
69.155 24.537695
69.160 24.291927
69.165 23.74369
69.170 23.999069
69.175 24.638823
69.180 24.259531
69.185 23.448982
69.190 22.729246
69.195 22.97744
69.200 22.443834
69.205 21.793072
69.210 21.697296
69.215 21.883009
69.220 21.718735
69.225 21.671997
69.230 21.547081
69.235 21.729361
69.240 21.271511
69.245 21.182684
69.250 21.019176
69.255 21.604618
69.260 21.512861
69.265 21.621811
69.270 21.989038
69.275 22.324766
69.280 21.393713
69.285 20.852234
69.290 20.543549
69.295 20.018921
69.300 19.38382
69.305 18.655222
69.310 17.695621
69.315 18.194487
69.320 18.74202
69.325 18.891113
69.330 18.920803
69.335 18.938427
69.340 18.981432
69.345 19.049128
69.350 18.652861
69.355 18.632729
69.360 18.545292
69.365 18.590477
69.370 18.006552
69.375 17.928186
69.380 18.564745
69.385 18.869213
69.390 18.837269
69.395 18.999252
69.400 19.750692
69.405 20.263554
69.410 20.693821
69.415 20.478176
69.420 20.373493
69.425 20.511839
69.430 20.458273
69.435 19.983028
69.440 20.116194
69.445 20.060205
69.450 20.229374
69.455 20.02132
69.460 19.715197
69.465 19.484066
69.470 19.584709
69.475 19.689869
69.480 19.177456
69.485 18.418884
69.490 18.227184
69.495 18.152729
69.500 18.016541
69.505 17.327173
69.510 16.891363
69.515 17.342649
69.520 17.71616
69.525 17.97702
69.530 18.523436
69.535 18.949553
69.540 19.476107
69.545 19.096603
69.550 18.905643
69.555 18.597979
69.560 18.836508
69.565 18.925812
69.570 18.873512
69.575 18.946684
69.580 19.232027
69.585 19.395067
69.590 19.162609
69.595 17.758667
69.600 16.843285
69.605 16.208481
69.610 15.954791
69.615 15.220198
69.620 14.90627
69.625 15.150789
69.630 15.911573
69.635 16.079893
69.640 16.197918
69.645 16.197155
69.650 16.399952
69.655 16.246559
69.660 15.924198
69.665 15.956667
69.670 16.256741
69.675 16.801407
69.680 17.380159
69.685 17.677979
69.690 17.766733
69.695 17.967009
69.700 18.045267
69.705 17.784235
69.710 17.47814
69.715 17.313122
69.720 17.210678
69.725 17.941748
69.730 18.225231
69.735 18.46619
69.740 18.80139
69.745 18.296108
69.750 18.031374
69.755 17.957899
69.760 18.035908
69.765 17.72896
69.770 17.456131
69.775 17.115648
69.780 17.119396
69.785 17.52672
69.790 17.078001
69.795 16.736803
69.800 16.325508
69.805 16.287912
69.810 16.8829
69.815 16.947247
69.820 16.976696
69.825 16.839464
69.830 16.696671
69.835 17.34115
69.840 17.432962
69.845 17.079607
69.850 16.842958
69.855 16.896147
69.860 17.164997
69.865 17.188631
69.870 16.693861
69.875 16.752195
69.880 17.072123
69.885 17.317762
69.890 17.263073
69.895 17.153025
69.900 17.060162
69.905 17.2045
69.910 17.362837
69.915 17.21224
69.920 17.225119
69.925 17.252529
69.930 18.00865
69.935 17.96961
69.940 18.349676
69.945 18.43025
69.950 18.209162
69.955 18.187963
69.960 18.173878
69.965 18.334705
69.970 17.978863
69.975 17.091459
69.980 17.069731
69.985 17.131237
69.990 16.720909
69.995 16.555241
70.000 16.604162
70.005 16.334875
70.010 16.421267
70.015 15.924756
70.020 15.562377
70.025 16.117428
70.030 16.543703
70.035 16.699074
70.040 17.1437
70.045 16.926304
70.050 16.945559
70.055 17.173752
70.060 16.524107
70.065 16.437588
70.070 16.235056
70.075 16.415215
70.080 16.192358
70.085 16.703699
70.090 17.292013
70.095 17.30522
70.100 16.881691
70.105 17.628498
70.110 17.667608
70.115 18.375332
70.120 18.159224
70.125 17.993103
70.130 18.017433
70.135 17.885885
70.140 18.219837
70.145 18.830227
70.150 18.743057
70.155 18.404879
70.160 18.311485
70.165 18.586037
70.170 18.056927
70.175 17.152094
70.180 16.192085
70.185 15.888563
70.190 16.008205
70.195 15.914302
70.200 15.750812
70.205 15.536905
70.210 15.123457
70.215 15.736514
70.220 16.289886
70.225 16.187883
70.230 15.729169
70.235 15.922388
70.240 16.814297
70.245 17.525007
70.250 17.336884
70.255 17.285383
70.260 17.482248
70.265 18.176571
70.270 18.083935
70.275 17.289722
70.280 17.034258
70.285 16.686661
70.290 16.493036
70.295 16.609371
70.300 16.258957
70.305 16.364107
70.310 16.622185
70.315 16.56881
70.320 16.611208
70.325 17.057726
70.330 17.165024
70.335 17.33596
70.340 18.255964
70.345 18.552151
70.350 18.859419
70.355 18.787886
70.360 18.275326
70.365 17.740278
70.370 17.37781
70.375 17.062862
70.380 17.010712
70.385 16.125895
70.390 16.129004
70.395 16.080576
70.400 16.366472
70.405 16.585238
70.410 15.939309
70.415 15.628406
70.420 16.388876
70.425 16.637186
70.430 16.729614
70.435 16.836952
70.440 17.117132
70.445 17.551266
70.450 17.790525
70.455 17.387102
70.460 17.334013
70.465 17.331003
70.470 17.145391
70.475 17.012709
70.480 16.756931
70.485 16.30205
70.490 16.381401
70.495 16.69496
70.500 16.978428
70.505 16.96443
70.510 16.713001
70.515 16.579794
70.520 16.796822
70.525 16.559978
70.530 16.305714
70.535 16.306843
70.540 16.334063
70.545 16.30545
70.550 16.459103
70.555 16.868452
70.560 17.231962
70.565 17.744772
70.570 17.760908
70.575 17.467936
70.580 18.238977
70.585 18.187704
70.590 17.795542
70.595 17.39312
70.600 16.516985
70.605 16.043249
70.610 16.319536
70.615 16.619703
70.620 17.172318
70.625 18.33877
70.630 18.511213
70.635 19.023407
70.640 19.204941
70.645 19.429815
70.650 18.95549
70.655 18.711092
70.660 17.59964
70.665 18.180162
70.670 18.36334
70.675 18.150244
70.680 17.679934
70.685 17.727255
70.690 18.562967
70.695 18.891764
70.700 18.043259
70.705 17.717901
70.710 17.869839
70.715 17.523355
70.720 17.414648
70.725 16.585821
70.730 15.880085
70.735 15.89706
70.740 15.935418
70.745 15.966356
70.750 16.060743
70.755 16.214088
70.760 16.546055
70.765 17.043337
70.770 16.841736
70.775 16.311419
70.780 16.844303
70.785 16.424578
70.790 16.504154
70.795 17.076094
70.800 17.514393
70.805 17.995707
70.810 17.919245
70.815 18.050436
70.820 18.434237
70.825 18.239513
70.830 17.548658
70.835 17.578117
70.840 17.635292
70.845 17.575619
70.850 17.906849
70.855 17.894951
70.860 17.147049
70.865 17.094391
70.870 16.894751
70.875 16.974737
70.880 16.534485
70.885 15.851146
70.890 15.835564
70.895 16.283787
70.900 16.624441
70.905 16.684744
70.910 16.737303
70.915 16.762857
70.920 16.938929
70.925 16.883486
70.930 16.786993
70.935 16.832869
70.940 16.854618
70.945 17.39257
70.950 17.414782
70.955 18.174671
70.960 18.193129
70.965 18.372299
70.970 18.154264
70.975 17.86393
70.980 17.560284
70.985 17.471144
70.990 16.868063
70.995 17.093269
71.000 17.330593
71.005 17.446014
71.010 17.128334
71.015 17.221231
71.020 17.361605
71.025 17.095875
71.030 16.923138
71.035 16.822674
71.040 17.10939
71.045 17.529894
71.050 17.490757
71.055 17.247843
71.060 17.430639
71.065 17.610977
71.070 17.364685
71.075 17.512253
71.080 17.535002
71.085 17.32519
71.090 17.420994
71.095 17.993895
71.100 17.568869
71.105 16.780884
71.110 16.665527
71.115 16.29915
71.120 16.575649
71.125 16.138769
71.130 15.700004
71.135 16.141228
71.140 16.658499
71.145 16.652334
71.150 17.179058
71.155 17.516537
71.160 17.187307
71.165 17.250589
71.170 17.184151
71.175 17.005938
71.180 17.228899
71.185 16.887764
71.190 17.07604
71.195 17.846664
71.200 17.421211
71.205 17.776043
71.210 17.880705
71.215 18.42503
71.220 18.422756
71.225 17.70903
71.230 17.414185
71.235 17.749117
71.240 17.373861
71.245 16.846119
71.250 16.467562
71.255 16.431131
71.260 16.828981
71.265 17.01053
71.270 16.783957
71.275 16.881428
71.280 17.092907
71.285 16.517393
71.290 16.331894
71.295 16.002546
71.300 15.560662
71.305 15.721453
71.310 15.928869
71.315 15.715214
71.320 15.859543
71.325 16.048332
71.330 15.95611
71.335 16.015739
71.340 15.773664
71.345 15.731291
71.350 16.207821
71.355 16.442596
71.360 17.157587
71.365 17.614697
71.370 17.434992
71.375 17.397985
71.380 17.111296
71.385 17.074869
71.390 17.066771
71.395 17.081259
71.400 17.137989
71.405 17.353003
71.410 17.459986
71.415 17.643473
71.420 17.433903
71.425 17.342791
71.430 17.036959
71.435 17.458862
71.440 17.300991
71.445 17.069475
71.450 17.215157
71.455 16.953547
71.460 16.617559
71.465 16.672062
71.470 16.187447
71.475 16.30588
71.480 16.367914
71.485 16.123957
71.490 15.979363
71.495 16.030909
71.500 16.209866
71.505 16.438759
71.510 16.790943
71.515 16.978815
71.520 17.581133
71.525 17.315762
71.530 16.885342
71.535 17.041229
71.540 16.84218
71.545 16.445673
71.550 16.366768
71.555 16.295639
71.560 17.246897
71.565 17.245243
71.570 17.053024
71.575 17.851068
71.580 18.137239
71.585 18.069324
71.590 17.928419
71.595 17.760628
71.600 17.723454
71.605 16.927338
71.610 16.133368
71.615 15.583279
71.620 15.506437
71.625 15.258593
71.630 15.038534
71.635 15.153988
71.640 15.575103
71.645 16.409851
71.650 17.115995
71.655 17.268759
71.660 17.38467
71.665 17.629156
71.670 17.699852
71.675 17.736427
71.680 17.28348
71.685 17.185869
71.690 16.991985
71.695 16.789593
71.700 17.078302
71.705 16.978094
71.710 16.86347
71.715 16.694805
71.720 16.54187
71.725 16.131405
71.730 15.891685
71.735 15.646247
71.740 15.557518
71.745 15.673932
71.750 16.008736
71.755 16.15255
71.760 16.640766
71.765 16.953541
71.770 16.761692
71.775 16.850744
71.780 16.918692
71.785 16.836388
71.790 16.851871
71.795 16.3384
71.800 16.200525
71.805 16.570354
71.810 16.646814
71.815 16.898457
71.820 16.57172
71.825 16.484104
71.830 17.036987
71.835 16.754578
71.840 16.681973
71.845 16.943977
71.850 17.807213
71.855 19.106838
71.860 19.020691
71.865 19.130049
71.870 19.198328
71.875 19.438335
71.880 19.269842
71.885 18.314571
71.890 18.008204
71.895 18.066473
71.900 18.407602
71.905 18.635468
71.910 18.614769
71.915 17.960171
71.920 17.638315
71.925 17.45587
71.930 17.015484
71.935 16.649017
71.940 16.264116
71.945 15.559452
71.950 15.885578
71.955 16.485628
71.960 17.152817
71.965 17.546061
71.970 18.065441
71.975 18.115711
71.980 18.505077
71.985 18.68454
71.990 18.293058
71.995 18.328337
72.000 18.073362
72.005 17.834072
72.010 18.10516
72.015 18.375521
72.020 18.379353
72.025 18.568703
72.030 18.534023
72.035 18.604259
72.040 18.482372
72.045 18.592245
72.050 17.921465
72.055 17.849295
72.060 17.201141
72.065 16.901478
72.070 16.854153
72.075 16.908648
72.080 17.087433
72.085 17.105749
72.090 16.951151
72.095 16.925974
72.100 16.501904
72.105 16.594351
72.110 16.391804
72.115 15.957911
72.120 15.96603
72.125 16.029423
72.130 17.165632
72.135 17.637764
72.140 17.628016
72.145 18.004559
72.150 18.210274
72.155 18.211399
72.160 18.354027
72.165 18.01824
72.170 18.030073
72.175 17.652031
72.180 17.108116
72.185 16.956953
72.190 17.175589
72.195 17.342812
72.200 17.265032
72.205 17.191475
72.210 17.636841
72.215 17.234646
72.220 17.413996
72.225 17.094948
72.230 16.750862
72.235 16.816151
72.240 16.26429
72.245 15.878267
72.250 16.366777
72.255 16.015667
72.260 16.085447
72.265 16.102688
72.270 16.276628
72.275 16.25387
72.280 16.050514
72.285 15.420636
72.290 15.578711
72.295 15.308108
72.300 15.030934
72.305 15.165383
72.310 15.569773
72.315 16.093956
72.320 16.809685
72.325 16.692505
72.330 16.225988
72.335 16.08461
72.340 16.143917
72.345 16.092012
72.350 16.143576
72.355 16.03993
72.360 16.460688
72.365 16.849659
72.370 16.619434
72.375 16.445225
72.380 16.408413
72.385 16.352903
72.390 16.114986
72.395 16.220072
72.400 16.393162
72.405 16.940521
72.410 17.435825
72.415 17.549114
72.420 16.858061
72.425 16.314466
72.430 16.090992
72.435 16.004879
72.440 15.974138
72.445 15.577621
72.450 15.745151
72.455 16.274456
72.460 16.968693
72.465 17.400095
72.470 17.016104
72.475 17.181396
72.480 17.202545
72.485 16.936499
72.490 16.903053
72.495 16.736145
72.500 16.51347
72.505 16.463293
72.510 16.339867
72.515 16.253082
72.520 17.080057
72.525 16.97279
72.530 16.443007
72.535 16.361841
72.540 16.048532
72.545 16.69166
72.550 16.761589
72.555 16.600727
72.560 16.878281
72.565 17.191534
72.570 17.588266
72.575 17.541489
72.580 17.128458
72.585 17.052757
72.590 16.384764
72.595 16.276762
72.600 16.47747
72.605 16.773544
72.610 16.716152
72.615 16.411852
72.620 16.698711
72.625 17.383541
72.630 17.420662
72.635 16.950335
72.640 16.656477
72.645 16.379959
72.650 16.616262
72.655 15.778349
72.660 15.461821
72.665 14.968011
72.670 14.934526
72.675 15.370552
72.680 15.352921
72.685 15.022062
72.690 15.660085
72.695 16.004974
72.700 16.747309
72.705 17.036074
72.710 16.705935
72.715 16.598604
72.720 16.224014
72.725 16.028328
72.730 15.181292
72.735 14.584084
72.740 14.327104
72.745 14.737796
72.750 15.63211
72.755 15.610421
72.760 15.466135
72.765 15.693958
72.770 15.754578
72.775 16.030752
72.780 16.074537
72.785 15.883214
72.790 16.476109
72.795 16.648951
72.800 17.129251
72.805 17.181631
72.810 16.894567
72.815 16.852539
72.820 16.486666
72.825 16.702085
72.830 16.950016
72.835 16.538622
72.840 16.545759
72.845 17.017286
72.850 16.956896
72.855 17.446081
72.860 17.860777
72.865 17.601213
72.870 17.843685
72.875 17.293301
72.880 16.340685
72.885 16.166275
72.890 15.718555
72.895 15.094559
72.900 14.887053
72.905 15.179036
72.910 15.918863
72.915 16.402916
72.920 16.840593
72.925 16.840483
72.930 17.264496
72.935 17.002161
72.940 16.504419
72.945 15.992704
72.950 15.714552
72.955 15.290955
72.960 15.273672
72.965 14.771561
72.970 15.031973
72.975 15.442551
72.980 15.720788
72.985 15.9748
72.990 16.302341
72.995 16.384323
73.000 16.891094
