!@!!GADDS PLOTSO FILE: Chi integration type
!@!!Title/SampleName: map-106
!@!!Comment: ?
!@!!User: Bruker Instrument Administrator
!@!!Site: University of Illinois Chicago
!@!!Frame: map-106_01_000.gfrm
!@!!Wavelengths    1.54184   1.54056   1.54439
!@!!Frame angles: 2Theta: 63.000 Omega: 50.000 Phi: 0.000 Chi: 90.000
!@!!Integration range: 2Theta: 53.000 to 73.000  Gamma: -105.000 to -75.000
!@!!Integration method: bin normalized
!@!N
!@!SS
!@!M
!@!L 0.0 0.0 0.0 0.0
!@!XDegrees
!@!YCounts
53.000 9.541324
53.005 9.099599
53.010 9.247087
53.015 9.268436
53.020 9.137419
53.025 9.590856
53.030 10.074179
53.035 10.716097
53.040 10.973926
53.045 11.354641
53.050 11.655751
53.055 11.72055
53.060 11.575157
53.065 11.178069
53.070 11.103224
53.075 11.552459
53.080 11.168269
53.085 11.094962
53.090 10.589008
53.095 10.417525
53.100 10.528615
53.105 10.221354
53.110 10.109434
53.115 10.632249
53.120 11.579242
53.125 12.487973
53.130 12.44636
53.135 12.378141
53.140 12.125804
53.145 11.696259
53.150 11.498995
53.155 10.603779
53.160 9.891027
53.165 9.555016
53.170 9.731391
53.175 9.793433
53.180 10.490747
53.185 10.356606
53.190 10.908387
53.195 11.027467
53.200 10.836675
53.205 10.96549
53.210 10.999153
53.215 10.012289
53.220 10.065008
53.225 9.760792
53.230 10.257408
53.235 10.698976
53.240 11.046926
53.245 11.218743
53.250 11.532018
53.255 11.986277
53.260 11.992203
53.265 11.548902
53.270 11.213739
53.275 10.849472
53.280 10.770961
53.285 10.469552
53.290 9.713442
53.295 9.48842
53.300 9.846616
53.305 9.711427
53.310 10.071491
53.315 10.135194
53.320 10.196797
53.325 10.658326
53.330 10.665654
53.335 10.593356
53.340 10.718535
53.345 10.846624
53.350 10.918836
53.355 11.191018
53.360 10.482576
53.365 10.418459
53.370 10.736819
53.375 10.959275
53.380 10.841485
53.385 10.637768
53.390 10.773538
53.395 11.271647
53.400 10.765487
53.405 10.602314
53.410 10.084455
53.415 10.043914
53.420 9.840777
53.425 10.101575
53.430 9.850653
53.435 9.568295
53.440 9.732436
53.445 10.11042
53.450 10.238808
53.455 10.666788
53.460 11.240043
53.465 12.229453
53.470 12.839754
53.475 12.731185
53.480 12.812131
53.485 12.929393
53.490 12.696728
53.495 12.029677
53.500 11.645795
53.505 11.851043
53.510 11.699733
53.515 11.892036
53.520 11.689604
53.525 11.541636
53.530 11.665001
53.535 11.357954
53.540 10.849711
53.545 10.485448
53.550 9.684642
53.555 9.753149
53.560 10.045885
53.565 10.200233
53.570 10.247741
53.575 10.408508
53.580 10.945374
53.585 11.462093
53.590 11.353561
53.595 11.189933
53.600 10.956003
53.605 11.236853
53.610 11.350355
53.615 11.006808
53.620 10.920228
53.625 11.037386
53.630 11.286078
53.635 11.95729
53.640 12.079742
53.645 11.912469
53.650 12.428048
53.655 12.531334
53.660 12.403813
53.665 12.367651
53.670 11.823344
53.675 11.695257
53.680 11.318414
53.685 11.149406
53.690 10.992208
53.695 11.142714
53.700 11.265285
53.705 11.347152
53.710 11.677542
53.715 12.287017
53.720 12.290651
53.725 12.834971
53.730 13.013303
53.735 12.900136
53.740 13.495269
53.745 13.037547
53.750 12.65518
53.755 12.240347
53.760 11.369836
53.765 11.153753
53.770 10.979628
53.775 10.461623
53.780 10.861338
53.785 10.854087
53.790 10.573351
53.795 10.58806
53.800 10.221601
53.805 10.305594
53.810 10.53515
53.815 10.558584
53.820 10.958221
53.825 11.544431
53.830 11.619588
53.835 11.873903
53.840 11.704517
53.845 11.584986
53.850 11.264778
53.855 11.279016
53.860 11.653924
53.865 11.246925
53.870 10.855577
53.875 10.991695
53.880 11.247097
53.885 11.049252
53.890 11.156136
53.895 11.343359
53.900 11.657885
53.905 11.507964
53.910 11.398344
53.915 11.581254
53.920 11.993921
53.925 11.722303
53.930 11.80828
53.935 11.881687
53.940 11.843754
53.945 11.909229
53.950 11.53834
53.955 10.891297
53.960 10.532346
53.965 10.454251
53.970 10.715271
53.975 10.530704
53.980 10.637197
53.985 11.247
53.990 11.938622
53.995 12.209881
54.000 12.477356
54.005 12.597787
54.010 12.305798
54.015 12.03603
54.020 11.733639
54.025 11.646545
54.030 12.067047
54.035 12.23095
54.040 12.455787
54.045 12.781191
54.050 12.505447
54.055 11.957672
54.060 11.176403
54.065 10.580944
54.070 10.109472
54.075 10.462746
54.080 10.513452
54.085 10.554366
54.090 10.932832
54.095 11.318267
54.100 11.539454
54.105 11.665992
54.110 11.622451
54.115 11.754707
54.120 11.962984
54.125 11.943914
54.130 11.757973
54.135 11.19109
54.140 11.089512
54.145 10.618328
54.150 10.235431
54.155 10.362053
54.160 10.762942
54.165 10.960601
54.170 11.00815
54.175 10.731797
54.180 11.028141
54.185 11.362066
54.190 11.581084
54.195 11.453295
54.200 11.66289
54.205 11.867655
54.210 11.755962
54.215 11.803775
54.220 11.943118
54.225 11.588043
54.230 11.69276
54.235 11.787519
54.240 12.247828
54.245 12.653461
54.250 12.481565
54.255 12.547673
54.260 12.526937
54.265 12.230854
54.270 12.323646
54.275 11.8585
54.280 11.704495
54.285 11.565138
54.290 11.267159
54.295 11.02603
54.300 11.131132
54.305 11.083419
54.310 11.237303
54.315 11.361746
54.320 11.916143
54.325 12.433911
54.330 12.70303
54.335 13.009833
54.340 13.074555
54.345 13.268794
54.350 13.067801
54.355 13.08085
54.360 13.244964
54.365 13.406626
54.370 13.119956
54.375 13.192795
54.380 12.889751
54.385 13.08801
54.390 12.794627
54.395 12.703263
54.400 12.922256
54.405 13.005966
54.410 12.971334
54.415 13.287365
54.420 12.967505
54.425 12.836191
54.430 12.767186
54.435 12.152147
54.440 12.032675
54.445 11.879663
54.450 11.52607
54.455 11.68667
54.460 11.820814
54.465 11.908314
54.470 12.027611
54.475 11.717484
54.480 11.95927
54.485 12.14617
54.490 12.241653
54.495 12.297812
54.500 12.338048
54.505 12.579986
54.510 13.070239
54.515 13.134263
54.520 12.876609
54.525 12.266342
54.530 11.929713
54.535 11.396007
54.540 11.117307
54.545 10.761725
54.550 10.953593
54.555 10.738845
54.560 10.764385
54.565 10.921891
54.570 11.162047
54.575 11.490869
54.580 11.54159
54.585 11.600403
54.590 11.803063
54.595 12.222743
54.600 12.404247
54.605 12.633367
54.610 12.174484
54.615 12.03952
54.620 12.157476
54.625 12.420598
54.630 12.30932
54.635 12.360687
54.640 12.277093
54.645 12.725173
54.650 13.194953
54.655 12.521583
54.660 12.691137
54.665 12.046812
54.670 11.945861
54.675 11.940206
54.680 11.658034
54.685 11.427688
54.690 11.713867
54.695 11.426723
54.700 11.788727
54.705 11.722079
54.710 12.661154
54.715 12.612003
54.720 12.642768
54.725 13.291188
54.730 14.309281
54.735 14.314958
54.740 14.029953
54.745 13.37273
54.750 13.68833
54.755 13.538309
54.760 13.092434
54.765 12.39523
54.770 12.873348
54.775 12.657898
54.780 12.642418
54.785 12.423749
54.790 12.552605
54.795 12.377546
54.800 12.068925
54.805 11.876925
54.810 12.074974
54.815 11.895295
54.820 11.845565
54.825 11.907973
54.830 11.970336
54.835 12.141136
54.840 12.086602
54.845 11.988801
54.850 11.935701
54.855 11.442755
54.860 11.237
54.865 11.11932
54.870 11.063399
54.875 10.850024
54.880 11.577052
54.885 11.846836
54.890 12.366274
54.895 12.479724
54.900 12.274772
54.905 12.673505
54.910 12.270897
54.915 11.746247
54.920 11.800691
54.925 11.424479
54.930 11.211227
54.935 11.235305
54.940 11.260036
54.945 11.30672
54.950 11.450836
54.955 12.15167
54.960 12.79538
54.965 13.106329
54.970 13.061857
54.975 12.964808
54.980 12.794485
54.985 12.547172
54.990 12.083896
54.995 11.682481
55.000 11.714233
55.005 11.478142
55.010 11.243513
55.015 11.135551
55.020 11.447575
55.025 11.250413
55.030 11.500076
55.035 11.787572
55.040 12.101887
55.045 12.74696
55.050 12.980651
55.055 12.882347
55.060 12.92537
55.065 12.200606
55.070 11.982145
55.075 12.007494
55.080 11.745705
55.085 11.200007
55.090 11.114471
55.095 11.62498
55.100 11.888865
55.105 11.944592
55.110 11.684486
55.115 11.924068
55.120 12.950638
55.125 12.517695
55.130 12.10402
55.135 12.301079
55.140 12.386863
55.145 12.522055
55.150 12.262476
55.155 12.060294
55.160 12.593783
55.165 12.802972
55.170 12.978833
55.175 13.40611
55.180 13.837428
55.185 13.967673
55.190 13.830518
55.195 13.533792
55.200 13.549106
55.205 13.219917
55.210 12.828119
55.215 12.546323
55.220 12.451716
55.225 12.467461
55.230 12.083529
55.235 11.91386
55.240 12.016168
55.245 12.098581
55.250 12.263471
55.255 12.336045
55.260 12.796548
55.265 13.306615
55.270 13.698643
55.275 13.789613
55.280 13.740595
55.285 13.44141
55.290 13.298028
55.295 13.567472
55.300 13.398592
55.305 12.938116
55.310 12.614498
55.315 12.695196
55.320 13.075825
55.325 13.039291
55.330 12.630118
55.335 12.732975
55.340 12.386662
55.345 12.457565
55.350 12.109553
55.355 11.993322
55.360 12.018921
55.365 11.807686
55.370 11.952177
55.375 13.068486
55.380 13.185099
55.385 12.988026
55.390 12.748341
55.395 13.10775
55.400 13.116835
55.405 12.912783
55.410 12.473374
55.415 12.941627
55.420 13.332663
55.425 13.257661
55.430 13.45261
55.435 13.571202
55.440 13.340612
55.445 13.589304
55.450 13.633865
55.455 13.648435
55.460 13.822285
55.465 13.742606
55.470 13.816007
55.475 13.750902
55.480 13.535519
55.485 13.177003
55.490 13.339809
55.495 13.531965
55.500 13.668902
55.505 13.753907
55.510 13.163205
55.515 13.026156
55.520 13.259684
55.525 13.22923
55.530 12.770698
55.535 12.716208
55.540 12.729902
55.545 12.889119
55.550 13.236184
55.555 13.530475
55.560 13.6155
55.565 13.33077
55.570 13.176255
55.575 13.46265
55.580 13.777506
55.585 13.758392
55.590 13.79873
55.595 13.767389
55.600 13.976904
55.605 14.2766
55.610 14.309808
55.615 13.920712
55.620 13.298528
55.625 12.816804
55.630 12.214621
55.635 12.234124
55.640 12.170993
55.645 11.822485
55.650 11.564759
55.655 11.555338
55.660 12.141641
55.665 12.773975
55.670 12.805568
55.675 13.158706
55.680 13.197926
55.685 14.247868
55.690 14.760202
55.695 14.509745
55.700 14.531416
55.705 14.187757
55.710 14.062205
55.715 14.459162
55.720 13.7424
55.725 13.387144
55.730 13.245035
55.735 13.060276
55.740 13.587532
55.745 13.598919
55.750 13.53976
55.755 13.939734
55.760 14.045193
55.765 14.042304
55.770 14.329123
55.775 14.224184
55.780 14.089195
55.785 14.209949
55.790 13.880666
55.795 13.778362
55.800 13.809066
55.805 13.816407
55.810 13.367768
55.815 12.680059
55.820 12.466971
55.825 12.452406
55.830 12.411797
55.835 12.686848
55.840 12.726308
55.845 13.190006
55.850 13.815948
55.855 13.822673
55.860 13.752385
55.865 13.808444
55.870 13.114129
55.875 13.209441
55.880 13.668538
55.885 14.109018
55.890 14.25372
55.895 14.06446
55.900 14.529662
55.905 14.678895
55.910 14.504679
55.915 13.725334
55.920 12.964392
55.925 12.819356
55.930 13.079172
55.935 12.817441
55.940 13.244596
55.945 13.754658
55.950 13.903228
55.955 14.051176
55.960 13.635202
55.965 13.258292
55.970 12.417205
55.975 12.09541
55.980 12.105276
55.985 12.252395
55.990 12.942116
55.995 13.758207
56.000 14.35206
56.005 14.643822
56.010 14.14111
56.015 14.381974
56.020 14.206102
56.025 13.481307
56.030 13.370355
56.035 13.30221
56.040 13.628565
56.045 13.738371
56.050 12.851217
56.055 12.993628
56.060 13.446254
56.065 13.53742
56.070 13.204027
56.075 12.742833
56.080 12.621298
56.085 12.521413
56.090 12.196708
56.095 12.081398
56.100 12.151938
56.105 12.78263
56.110 13.043114
56.115 13.114137
56.120 13.198062
56.125 13.650255
56.130 13.72005
56.135 13.654175
56.140 13.567782
56.145 14.112902
56.150 14.24482
56.155 14.946926
56.160 14.966973
56.165 15.161528
56.170 15.48556
56.175 15.22043
56.180 14.704604
56.185 14.755516
56.190 14.454204
56.195 14.173712
56.200 14.156248
56.205 14.307551
56.210 14.690354
56.215 14.654704
56.220 14.42293
56.225 14.409184
56.230 14.639682
56.235 14.484746
56.240 14.066488
56.245 14.119989
56.250 14.173984
56.255 14.741144
56.260 15.164821
56.265 15.330141
56.270 14.815449
56.275 14.583516
56.280 14.330332
56.285 14.592115
56.290 14.625444
56.295 14.393104
56.300 14.294127
56.305 14.746313
56.310 15.219184
56.315 15.101794
56.320 14.364622
56.325 13.980753
56.330 13.806261
56.335 13.817562
56.340 13.654899
56.345 13.930425
56.350 14.433939
56.355 14.427308
56.360 13.966195
56.365 13.534678
56.370 13.590688
56.375 13.801434
56.380 13.307347
56.385 13.635949
56.390 14.352818
56.395 14.806738
56.400 15.165097
56.405 14.756466
56.410 14.623225
56.415 14.648792
56.420 14.212916
56.425 13.649786
56.430 13.936919
56.435 14.04185
56.440 14.298333
56.445 14.039453
56.450 14.295018
56.455 14.574421
56.460 14.733643
56.465 14.067505
56.470 14.20781
56.475 14.312666
56.480 14.074958
56.485 13.866233
56.490 14.784532
56.495 14.93384
56.500 15.150453
56.505 15.304539
56.510 15.169634
56.515 15.402278
56.520 15.006719
56.525 14.622094
56.530 15.038896
56.535 15.003779
56.540 14.825307
56.545 14.763092
56.550 14.441076
56.555 13.891898
56.560 13.584901
56.565 12.88962
56.570 12.100666
56.575 11.849073
56.580 12.491322
56.585 13.127287
56.590 13.176257
56.595 13.417677
56.600 14.603584
56.605 15.134081
56.610 14.989769
56.615 14.413671
56.620 14.213832
56.625 14.892647
56.630 14.228747
56.635 13.923023
56.640 13.965625
56.645 14.043381
56.650 14.157829
56.655 14.221896
56.660 14.396681
56.665 14.447297
56.670 13.906303
56.675 13.932992
56.680 13.952665
56.685 13.974939
56.690 14.087034
56.695 13.768687
56.700 14.383574
56.705 14.898816
56.710 15.214033
56.715 15.431131
56.720 15.332551
56.725 14.702438
56.730 14.247284
56.735 14.304399
56.740 14.14588
56.745 13.917298
56.750 14.289593
56.755 14.635968
56.760 15.302094
56.765 15.741663
56.770 15.543344
56.775 16.225107
56.780 16.449898
56.785 16.198307
56.790 16.104528
56.795 16.226303
56.800 15.795612
56.805 15.666479
56.810 14.945712
56.815 14.588302
56.820 14.676363
56.825 14.643073
56.830 14.873693
56.835 15.337716
56.840 15.424479
56.845 15.554544
56.850 15.685683
56.855 15.081269
56.860 14.831506
56.865 14.498159
56.870 13.913454
56.875 13.170793
56.880 13.002142
56.885 13.233339
56.890 13.590816
56.895 13.803847
56.900 14.109294
56.905 14.87057
56.910 15.577149
56.915 16.000011
56.920 16.155111
56.925 16.005573
56.930 15.827415
56.935 15.211497
56.940 14.704874
56.945 14.732977
56.950 14.311257
56.955 14.289762
56.960 14.273575
56.965 14.5005
56.970 14.972733
56.975 15.074944
56.980 14.860273
56.985 14.717367
56.990 15.132666
56.995 16.16552
57.000 15.945128
57.005 15.882542
57.010 16.171494
57.015 16.664696
57.020 16.697771
57.025 15.922071
57.030 15.183615
57.035 15.455528
57.040 15.341298
57.045 14.976503
57.050 14.862409
57.055 15.002919
57.060 14.956043
57.065 15.028386
57.070 15.074172
57.075 15.449861
57.080 15.388889
57.085 15.916908
57.090 16.342354
57.095 16.89889
57.100 16.572735
57.105 16.281017
57.110 16.076426
57.115 16.548458
57.120 15.749198
57.125 15.341366
57.130 15.098348
57.135 15.182772
57.140 15.635365
57.145 15.555732
57.150 15.073713
57.155 14.921124
57.160 15.08848
57.165 14.677391
57.170 14.601506
57.175 14.476665
57.180 14.546357
57.185 14.85596
57.190 14.922704
57.195 14.510568
57.200 15.188939
57.205 15.855828
57.210 15.821301
57.215 15.607047
57.220 15.341445
57.225 15.685415
57.230 15.482316
57.235 15.094627
57.240 14.72665
57.245 15.157936
57.250 15.366266
57.255 15.336061
57.260 15.226972
57.265 15.895943
57.270 15.768384
57.275 15.597781
57.280 14.886218
57.285 14.932762
57.290 15.481874
57.295 15.878071
57.300 16.12685
57.305 16.326418
57.310 16.171028
57.315 16.704702
57.320 16.907995
57.325 16.205584
57.330 16.04891
57.335 16.027443
57.340 15.595757
57.345 15.43346
57.350 15.30827
57.355 15.065168
57.360 14.849589
57.365 14.553704
57.370 14.01124
57.375 14.122646
57.380 14.157112
57.385 14.366961
57.390 15.397965
57.395 16.05942
57.400 16.21773
57.405 16.512272
57.410 16.166943
57.415 16.002073
57.420 15.069363
57.425 14.489899
57.430 14.067526
57.435 14.398277
57.440 15.022635
57.445 15.841122
57.450 15.832606
57.455 16.075439
57.460 15.966499
57.465 16.444918
57.470 16.570042
57.475 16.319654
57.480 16.036398
57.485 16.092566
57.490 15.946179
57.495 16.057951
57.500 15.064336
57.505 14.546551
57.510 14.368987
57.515 14.902856
57.520 15.395996
57.525 15.48442
57.530 15.509653
57.535 15.730238
57.540 15.35869
57.545 15.267358
57.550 14.774647
57.555 14.076087
57.560 14.530379
57.565 14.871145
57.570 15.482915
57.575 16.084898
57.580 15.906873
57.585 15.907609
57.590 16.115015
57.595 15.392902
57.600 15.124044
57.605 14.873215
57.610 14.755527
57.615 14.953499
57.620 15.04779
57.625 15.269308
57.630 15.701029
57.635 15.738818
57.640 16.212719
57.645 16.280758
57.650 16.365768
57.655 16.682791
57.660 16.321995
57.665 15.986449
57.670 15.360521
57.675 14.802149
57.680 14.873561
57.685 15.13553
57.690 14.858587
57.695 14.448236
57.700 14.767209
57.705 14.915238
57.710 14.635622
57.715 14.396485
57.720 13.766746
57.725 13.78065
57.730 14.031201
57.735 13.781283
57.740 13.714615
57.745 13.948486
57.750 14.40169
57.755 15.018346
57.760 14.739767
57.765 14.865147
57.770 14.273071
57.775 14.776526
57.780 15.011024
57.785 14.464951
57.790 14.517779
57.795 14.799155
57.800 14.846299
57.805 15.481075
57.810 14.82161
57.815 14.517929
57.820 14.720869
57.825 14.503563
57.830 14.855159
57.835 15.194274
57.840 15.101648
57.845 15.39375
57.850 15.620985
57.855 15.667753
57.860 15.660808
57.865 15.778977
57.870 15.940514
57.875 16.39769
57.880 16.623558
57.885 16.503328
57.890 16.37882
57.895 16.12604
57.900 15.56041
57.905 15.18943
57.910 14.842943
57.915 14.604489
57.920 14.332178
57.925 14.562875
57.930 14.623174
57.935 15.087461
57.940 15.578448
57.945 15.787058
57.950 15.86154
57.955 16.376886
57.960 16.139423
57.965 16.038395
57.970 16.036074
57.975 15.291506
57.980 14.845266
57.985 14.81608
57.990 14.338749
57.995 14.720112
58.000 15.448607
58.005 15.265287
58.010 15.642033
58.015 16.037994
58.020 16.474918
58.025 17.023098
58.030 17.174437
58.035 16.45628
58.040 16.112759
58.045 15.944668
58.050 15.871531
58.055 15.96032
58.060 15.394792
58.065 15.68081
58.070 15.971323
58.075 15.981743
58.080 16.477501
58.085 16.119467
58.090 15.900082
58.095 15.897101
58.100 15.443157
58.105 15.776799
58.110 16.189974
58.115 16.241022
58.120 16.754383
58.125 17.300131
58.130 17.32893
58.135 17.529383
58.140 17.112545
58.145 16.824574
58.150 16.382469
58.155 16.0016
58.160 15.857158
58.165 16.294968
58.170 16.346981
58.175 16.84655
58.180 16.870108
58.185 16.713442
58.190 16.321619
58.195 15.530844
58.200 14.977958
58.205 14.788981
58.210 14.598233
58.215 14.731784
58.220 15.067119
58.225 15.744645
58.230 15.529464
58.235 15.541565
58.240 15.543414
58.245 15.364078
58.250 15.28991
58.255 14.847069
58.260 14.165242
58.265 14.159293
58.270 14.340251
58.275 14.537362
58.280 15.06194
58.285 15.199655
58.290 15.632549
58.295 16.353355
58.300 16.678078
58.305 16.781221
58.310 17.118069
58.315 17.130869
58.320 17.16654
58.325 16.919998
58.330 17.270086
58.335 17.516233
58.340 17.512369
58.345 17.184242
58.350 16.68173
58.355 16.527298
58.360 16.805445
58.365 16.668058
58.370 16.488943
58.375 16.182022
58.380 16.055962
58.385 15.91988
58.390 15.613004
58.395 15.317389
58.400 15.026518
58.405 15.052052
58.410 14.842312
58.415 15.016841
58.420 15.616435
58.425 16.206694
58.430 16.838022
58.435 17.240267
58.440 17.243261
58.445 17.554338
58.450 17.327389
58.455 17.097078
58.460 16.694967
58.465 16.19595
58.470 16.224258
58.475 15.986794
58.480 15.696562
58.485 15.458442
58.490 15.357203
58.495 15.512269
58.500 15.422194
58.505 15.555384
58.510 16.14859
58.515 16.512386
58.520 17.200825
58.525 17.612856
58.530 17.566387
58.535 18.004234
58.540 18.19948
58.545 18.079138
58.550 18.028353
58.555 18.063679
58.560 18.084261
58.565 17.978014
58.570 17.636833
58.575 17.207117
58.580 17.546143
58.585 17.819389
58.590 17.420313
58.595 17.690903
58.600 18.113297
58.605 18.318314
58.610 17.988277
58.615 17.778254
58.620 18.116045
58.625 18.374777
58.630 18.271812
58.635 17.609406
58.640 17.243633
58.645 17.625317
58.650 17.36688
58.655 17.20013
58.660 17.09866
58.665 16.44039
58.670 16.747349
58.675 17.189598
58.680 16.859085
58.685 16.506281
58.690 15.822936
58.695 15.598936
58.700 16.604265
58.705 16.486948
58.710 16.326645
58.715 16.411421
58.720 16.741756
58.725 17.22801
58.730 17.35149
58.735 16.612204
58.740 16.814814
58.745 16.8323
58.750 17.175613
58.755 17.070353
58.760 16.707335
58.765 16.877625
58.770 17.494331
58.775 17.748415
58.780 17.630423
58.785 16.939856
58.790 16.693695
58.795 17.056629
58.800 16.688381
58.805 16.148699
58.810 15.661572
58.815 15.769243
58.820 16.108511
58.825 16.38582
58.830 15.910538
58.835 15.794877
58.840 15.536553
58.845 15.691875
58.850 15.54595
58.855 15.585726
58.860 15.399651
58.865 15.575313
58.870 15.890028
58.875 16.007071
58.880 16.091124
58.885 16.229122
58.890 16.303633
58.895 16.775467
58.900 16.774044
58.905 17.02026
58.910 17.343531
58.915 16.926416
58.920 16.839689
58.925 16.435564
58.930 16.233316
58.935 16.159029
58.940 15.430902
58.945 15.245996
58.950 15.411584
58.955 15.850675
58.960 16.097086
58.965 16.111059
58.970 15.725169
58.975 16.119789
58.980 17.040985
58.985 17.283421
58.990 16.765562
58.995 16.654963
59.000 16.979256
59.005 18.131786
59.010 18.197424
59.015 17.655046
59.020 17.255093
59.025 17.384949
59.030 17.819498
59.035 17.49193
59.040 17.348652
59.045 17.575445
59.050 17.73488
59.055 18.255695
59.060 18.497984
59.065 18.72654
59.070 18.894447
59.075 18.604197
59.080 18.440821
59.085 17.956322
59.090 17.876572
59.095 17.974743
59.100 17.412695
59.105 18.1231
59.110 18.103336
59.115 17.652576
59.120 17.847006
59.125 17.456858
59.130 17.366856
59.135 17.636005
59.140 17.3608
59.145 17.872892
59.150 17.97578
59.155 18.091053
59.160 18.081625
59.165 18.182482
59.170 17.670101
59.175 16.760912
59.180 16.53322
59.185 17.261061
59.190 17.181879
59.195 17.548243
59.200 17.8542
59.205 18.185629
59.210 18.352947
59.215 18.231831
59.220 18.371103
59.225 18.120607
59.230 17.91083
59.235 17.338947
59.240 17.213505
59.245 17.729523
59.250 17.740309
59.255 17.42313
59.260 17.830671
59.265 18.300945
59.270 18.75259
59.275 18.787539
59.280 18.258072
59.285 17.715605
59.290 17.767479
59.295 18.081264
59.300 17.909777
59.305 18.078133
59.310 18.456223
59.315 18.851685
59.320 19.077835
59.325 18.80065
59.330 18.319258
59.335 18.231848
59.340 17.946112
59.345 17.914461
59.350 17.674986
59.355 17.670536
59.360 17.512028
59.365 18.044678
59.370 18.317831
59.375 18.238031
59.380 18.640326
59.385 18.62599
59.390 18.842039
59.395 19.475571
59.400 19.992554
59.405 19.990322
59.410 20.381062
59.415 20.547762
59.420 20.975241
59.425 21.150461
59.430 20.63381
59.435 19.605183
59.440 19.341076
59.445 18.623299
59.450 18.178755
59.455 17.533575
59.460 17.089701
59.465 17.209522
59.470 16.908451
59.475 16.713175
59.480 16.410465
59.485 16.086975
59.490 16.732845
59.495 17.058693
59.500 16.724339
59.505 17.213673
59.510 17.435818
59.515 17.778376
59.520 18.2955
59.525 18.381832
59.530 18.40765
59.535 18.531513
59.540 18.543228
59.545 18.927238
59.550 19.274433
59.555 18.996578
59.560 18.81418
59.565 19.121534
59.570 18.851011
59.575 18.634499
59.580 18.217508
59.585 18.875406
59.590 19.387577
59.595 19.369127
59.600 19.583485
59.605 20.132778
59.610 20.428631
59.615 20.464691
59.620 19.961002
59.625 19.929646
59.630 20.227894
59.635 20.388803
59.640 20.28949
59.645 20.318903
59.650 20.682096
59.655 21.266909
59.660 21.245398
59.665 21.165245
59.670 21.228729
59.675 22.045786
59.680 22.088881
59.685 21.87381
59.690 21.499426
59.695 22.065067
59.700 22.934168
59.705 23.061428
59.710 22.400244
59.715 22.54274
59.720 22.532003
59.725 22.388514
59.730 21.983074
59.735 21.778685
59.740 21.886837
59.745 22.119356
59.750 22.167908
59.755 22.453115
59.760 22.954453
59.765 23.384727
59.770 22.900095
59.775 22.902914
59.780 22.986385
59.785 23.061575
59.790 23.147554
59.795 22.993935
59.800 22.495798
59.805 22.202354
59.810 21.801151
59.815 21.853851
59.820 22.260695
59.825 22.845493
59.830 23.022738
59.835 22.885098
59.840 23.063848
59.845 23.410006
59.850 23.407242
59.855 22.966799
59.860 22.415983
59.865 22.124435
59.870 22.128607
59.875 22.481901
59.880 22.570583
59.885 22.448227
59.890 21.896629
59.895 21.518219
59.900 22.066065
59.905 22.744032
59.910 22.416862
59.915 21.975634
59.920 22.058226
59.925 22.345259
59.930 22.152313
59.935 21.788996
59.940 21.20722
59.945 21.436602
59.950 21.063667
59.955 20.962978
59.960 21.645864
59.965 22.507526
59.970 22.641579
59.975 22.530521
59.980 22.335602
59.985 23.304518
59.990 23.612026
59.995 23.397196
60.000 23.430943
60.005 23.82729
60.010 24.533466
60.015 24.520773
60.020 23.898613
60.025 24.083166
60.030 23.823139
60.035 23.439522
60.040 23.013338
60.045 23.414272
60.050 24.813194
60.055 25.229229
60.060 24.871658
60.065 24.610912
60.070 24.357811
60.075 24.28813
60.080 23.469465
60.085 23.06222
60.090 22.30702
60.095 21.759577
60.100 22.13171
60.105 22.667959
60.110 23.381426
60.115 23.542248
60.120 22.764217
60.125 23.473396
60.130 23.894258
60.135 23.401321
60.140 23.073799
60.145 22.715839
60.150 22.104128
60.155 22.498291
60.160 22.454395
60.165 21.799276
60.170 22.535837
60.175 22.652149
60.180 23.0098
60.185 23.619118
60.190 24.11747
60.195 24.834526
60.200 25.490507
60.205 25.159426
60.210 24.718025
60.215 24.209024
60.220 23.797255
60.225 23.494497
60.230 22.748184
60.235 22.449869
60.240 21.553303
60.245 21.358332
60.250 21.43516
60.255 21.417652
60.260 20.995874
60.265 21.161322
60.270 21.829679
60.275 22.495783
60.280 23.000576
60.285 23.368639
60.290 24.271301
60.295 24.717146
60.300 24.335024
60.305 23.942343
60.310 23.607107
60.315 22.933018
60.320 22.516994
60.325 21.524298
60.330 21.174536
60.335 21.529789
60.340 21.412888
60.345 21.937521
60.350 22.021271
60.355 21.823641
60.360 21.301315
60.365 21.930603
60.370 21.995918
60.375 21.99579
60.380 21.777668
60.385 22.295536
60.390 22.644953
60.395 23.8859
60.400 23.198933
60.405 23.551197
60.410 23.428482
60.415 23.397343
60.420 22.635397
60.425 22.493761
60.430 22.21311
60.435 22.406975
60.440 21.854071
60.445 21.98444
60.450 21.673199
60.455 21.854057
60.460 21.757729
60.465 21.074759
60.470 20.775127
60.475 20.930351
60.480 20.576612
60.485 20.549887
60.490 20.733465
60.495 20.497377
60.500 20.694818
60.505 21.02071
60.510 20.505503
60.515 20.696871
60.520 20.45327
60.525 20.230766
60.530 20.401489
60.535 19.639763
60.540 19.110071
60.545 18.976433
60.550 19.306765
60.555 19.15831
60.560 19.053164
60.565 19.312202
60.570 19.833937
60.575 20.260296
60.580 20.535234
60.585 20.604446
60.590 20.850395
60.595 20.844692
60.600 21.308979
60.605 21.029678
60.610 20.821745
60.615 21.25923
60.620 21.330578
60.625 21.371214
60.630 21.087654
60.635 20.533281
60.640 21.139721
60.645 21.172802
60.650 20.451258
60.655 20.010542
60.660 20.120029
60.665 20.29661
60.670 19.949327
60.675 19.801207
60.680 19.644981
60.685 19.315216
60.690 19.050653
60.695 19.100458
60.700 19.108463
60.705 19.665182
60.710 19.177288
60.715 19.204346
60.720 19.677296
60.725 19.531534
60.730 19.44504
60.735 19.292349
60.740 18.63937
60.745 18.694271
60.750 18.838715
60.755 18.926252
60.760 19.067749
60.765 19.123062
60.770 19.654263
60.775 19.838449
60.780 19.330923
60.785 19.582523
60.790 19.93243
60.795 20.296766
60.800 20.215338
60.805 19.854548
60.810 20.488754
60.815 21.323856
60.820 21.088198
60.825 21.015146
60.830 21.319885
60.835 21.362696
60.840 20.876003
60.845 19.948929
60.850 19.697399
60.855 19.519466
60.860 19.067659
60.865 18.324202
60.870 18.207205
60.875 18.53731
60.880 18.850622
60.885 18.901047
60.890 19.171892
60.895 19.711292
60.900 20.095129
60.905 20.009203
60.910 20.439112
60.915 20.478645
60.920 20.630997
60.925 20.683874
60.930 20.761072
60.935 20.713314
60.940 20.809399
60.945 20.58593
60.950 20.311781
60.955 20.151793
60.960 19.464029
60.965 19.181236
60.970 19.044298
60.975 18.683504
60.980 18.817375
60.985 18.672268
60.990 18.77479
60.995 18.515787
61.000 18.507267
61.005 18.499163
61.010 18.493855
61.015 17.967272
61.020 17.944994
61.025 18.131113
61.030 18.178513
61.035 17.584995
61.040 17.053223
61.045 17.099115
61.050 17.419628
61.055 16.920919
61.060 16.433416
61.065 16.819336
61.070 17.294294
61.075 17.759689
61.080 18.035383
61.085 18.155008
61.090 18.344206
61.095 18.905409
61.100 18.904135
61.105 19.035986
61.110 19.127081
61.115 19.110477
61.120 19.002554
61.125 19.396402
61.130 18.717142
61.135 18.059059
61.140 17.982891
61.145 17.903172
61.150 17.654451
61.155 17.371786
61.160 16.922081
61.165 16.931059
61.170 17.396254
61.175 17.455284
61.180 17.5466
61.185 17.828424
61.190 18.567513
61.195 18.852535
61.200 19.785797
61.205 20.065691
61.210 20.02803
61.215 20.128521
61.220 20.474415
61.225 20.039551
61.230 20.203974
61.235 19.305958
61.240 18.305622
61.245 18.039909
61.250 17.717054
61.255 17.242172
61.260 17.632534
61.265 17.435066
61.270 18.321398
61.275 19.099537
61.280 19.546103
61.285 19.227854
61.290 18.665977
61.295 18.062143
61.300 17.511435
61.305 17.351086
61.310 16.799549
61.315 16.618309
61.320 16.900402
61.325 17.145515
61.330 17.367418
61.335 17.270599
61.340 16.734821
61.345 17.466488
61.350 17.650171
61.355 17.769232
61.360 17.624584
61.365 17.616106
61.370 18.254282
61.375 18.424063
61.380 17.885323
61.385 17.596966
61.390 17.80514
61.395 17.99276
61.400 17.894735
61.405 17.267607
61.410 16.96035
61.415 17.218897
61.420 17.083019
61.425 17.338873
61.430 17.714907
61.435 17.869106
61.440 17.897655
61.445 17.946642
61.450 18.055683
61.455 18.549686
61.460 17.885628
61.465 17.292957
61.470 16.830856
61.475 16.968359
61.480 17.246103
61.485 17.185158
61.490 16.794401
61.495 17.313963
61.500 16.954292
61.505 17.514416
61.510 17.561867
61.515 17.829088
61.520 17.895918
61.525 17.884216
61.530 18.187653
61.535 19.035582
61.540 18.96505
61.545 19.346769
61.550 18.701799
61.555 18.697788
61.560 18.906576
61.565 18.497307
61.570 18.651426
61.575 18.734461
61.580 18.703123
61.585 19.046103
61.590 18.725975
61.595 18.467575
61.600 18.520979
61.605 18.310711
61.610 17.922709
61.615 17.62851
61.620 16.960396
61.625 17.26236
61.630 17.438295
61.635 17.648924
61.640 17.893524
61.645 17.580095
61.650 17.955759
61.655 18.667704
61.660 18.868437
61.665 19.138388
61.670 18.811981
61.675 18.387594
61.680 18.669268
61.685 18.435301
61.690 18.124308
61.695 17.626541
61.700 17.617479
61.705 17.695704
61.710 17.589167
61.715 17.559658
61.720 16.931473
61.725 17.057777
61.730 17.722698
61.735 17.753515
61.740 17.763794
61.745 17.878784
61.750 17.788105
61.755 18.013224
61.760 17.679716
61.765 16.851124
61.770 16.272507
61.775 16.283085
61.780 16.096237
61.785 16.201712
61.790 16.430994
61.795 16.974949
61.800 17.267136
61.805 17.562668
61.810 17.757055
61.815 17.941933
61.820 17.99338
61.825 17.845236
61.830 17.810932
61.835 17.943714
61.840 18.13949
61.845 18.101658
61.850 18.228971
61.855 18.602463
61.860 19.194571
61.865 19.63685
61.870 19.712652
61.875 19.669056
61.880 20.041594
61.885 20.142445
61.890 19.857155
61.895 19.777763
61.900 19.807579
61.905 19.846344
61.910 19.87855
61.915 19.477005
61.920 19.151442
61.925 19.010836
61.930 18.674992
61.935 18.138918
61.940 18.375103
61.945 18.635441
61.950 19.246759
61.955 19.815216
61.960 20.199955
61.965 20.345192
61.970 20.462408
61.975 19.851028
61.980 19.010855
61.985 18.662477
61.990 18.61688
61.995 18.017557
62.000 17.693256
62.005 17.470709
62.010 17.706469
62.015 17.658836
62.020 17.417595
62.025 17.051359
62.030 16.602753
62.035 16.286505
62.040 15.930569
62.045 15.863257
62.050 16.059317
62.055 16.338165
62.060 16.647163
62.065 17.22196
62.070 17.74292
62.075 17.73233
62.080 17.592827
62.085 17.507851
62.090 17.386755
62.095 17.182425
62.100 16.974571
62.105 17.078182
62.110 17.596357
62.115 18.367706
62.120 18.483105
62.125 18.705544
62.130 19.433544
62.135 20.029112
62.140 19.848267
62.145 19.539063
62.150 19.787498
62.155 19.970871
62.160 20.095598
62.165 20.097031
62.170 20.00857
62.175 20.478746
62.180 20.367785
62.185 19.552765
62.190 19.130281
62.195 18.48078
62.200 18.262381
62.205 17.82126
62.210 17.828127
62.215 18.29669
62.220 18.264782
62.225 18.20759
62.230 18.21166
62.235 18.072453
62.240 18.414057
62.245 18.291439
62.250 17.84185
62.255 17.890533
62.260 17.968037
62.265 17.893848
62.270 17.417887
62.275 16.552248
62.280 15.946527
62.285 15.999619
62.290 15.793323
62.295 15.963859
62.300 16.785475
62.305 17.061047
62.310 17.412527
62.315 17.639116
62.320 17.944893
62.325 17.876856
62.330 17.619415
62.335 16.636648
62.340 16.384579
62.345 16.130848
62.350 15.933732
62.355 16.138653
62.360 16.717718
62.365 16.795368
62.370 17.154444
62.375 17.775818
62.380 17.619877
62.385 17.486107
62.390 17.33847
62.395 17.723389
62.400 18.196352
62.405 18.429085
62.410 18.692183
62.415 19.024332
62.420 18.936352
62.425 18.454185
62.430 18.295485
62.435 18.18552
62.440 18.257174
62.445 17.953609
62.450 18.513988
62.455 19.400694
62.460 19.896395
62.465 19.710119
62.470 19.625599
62.475 19.058786
62.480 19.0702
62.485 18.481256
62.490 18.342638
62.495 18.1798
62.500 17.998758
62.505 17.58625
62.510 17.774567
62.515 17.113115
62.520 16.853268
62.525 16.203585
62.530 15.795904
62.535 15.578265
62.540 15.587136
62.545 15.748741
62.550 16.351469
62.555 16.175341
62.560 16.185263
62.565 16.405493
62.570 16.71406
62.575 16.562487
62.580 16.488092
62.585 16.649191
62.590 17.571245
62.595 17.842255
62.600 18.254379
62.605 18.221966
62.610 17.903416
62.615 17.767708
62.620 18.263437
62.625 17.867245
62.630 17.744881
62.635 17.619869
62.640 17.473846
62.645 18.259531
62.650 18.215099
62.655 17.17798
62.660 17.318304
62.665 17.476904
62.670 17.949211
62.675 18.005783
62.680 18.220491
62.685 18.845798
62.690 19.337494
62.695 18.875698
62.700 18.172712
62.705 17.489506
62.710 17.182985
62.715 16.924379
62.720 16.563442
62.725 16.104416
62.730 16.285137
62.735 16.628189
62.740 17.195021
62.745 17.636738
62.750 18.085382
62.755 18.47995
62.760 18.910931
62.765 18.482666
62.770 18.641144
62.775 18.517279
62.780 18.233568
62.785 17.706293
62.790 17.595659
62.795 17.715569
62.800 18.342461
62.805 18.172974
62.810 17.846874
62.815 18.052639
62.820 18.189264
62.825 18.271877
62.830 18.422529
62.835 18.499842
62.840 18.843153
62.845 18.864765
62.850 18.658976
62.855 18.6234
62.860 18.638926
62.865 18.022739
62.870 17.409384
62.875 17.014673
62.880 16.864342
62.885 16.639835
62.890 16.15797
62.895 16.109348
62.900 16.742693
62.905 17.008532
62.910 17.078491
62.915 17.098703
62.920 16.81823
62.925 16.954788
62.930 16.371529
62.935 15.524399
62.940 15.25747
62.945 15.788994
62.950 15.922503
62.955 16.179571
62.960 16.22427
62.965 16.877316
62.970 17.394224
62.975 17.391996
62.980 17.298874
62.985 17.5144
62.990 17.704201
62.995 18.473061
63.000 18.802998
63.005 18.441484
63.010 18.518127
63.015 18.528131
63.020 18.804592
63.025 18.831146
63.030 18.264231
63.035 17.945778
63.040 17.912193
63.045 17.81109
63.050 18.134144
63.055 17.989429
63.060 17.981867
63.065 18.229218
63.070 18.809856
63.075 19.244211
63.080 19.623127
63.085 19.010611
63.090 18.999678
63.095 18.804741
63.100 18.510265
63.105 18.311119
63.110 18.229744
63.115 18.112928
63.120 18.863066
63.125 18.680058
63.130 18.674995
63.135 18.849134
63.140 18.577101
63.145 18.480175
63.150 18.323626
63.155 17.605051
63.160 17.804697
63.165 17.569994
63.170 17.464705
63.175 18.000305
63.180 18.489117
63.185 18.487196
63.190 18.426767
63.195 18.59811
63.200 19.308277
63.205 19.279711
63.210 19.175613
63.215 18.886761
63.220 19.04641
63.225 19.281326
63.230 19.329401
63.235 19.15593
63.240 19.25392
63.245 18.737635
63.250 19.075413
63.255 19.251297
63.260 19.257097
63.265 19.276155
63.270 18.943041
63.275 18.974529
63.280 19.294235
63.285 18.967405
63.290 18.690681
63.295 18.899439
63.300 18.927216
63.305 18.902786
63.310 18.893709
63.315 18.710531
63.320 18.742994
63.325 18.649097
63.330 19.008547
63.335 18.772415
63.340 18.591587
63.345 18.608828
63.350 18.942543
63.355 19.654974
63.360 19.858625
63.365 19.284639
63.370 19.589516
63.375 20.220936
63.380 20.140566
63.385 19.442497
63.390 18.627275
63.395 18.624853
63.400 18.687103
63.405 18.024506
63.410 17.068657
63.415 17.31875
63.420 17.57769
63.425 17.176109
63.430 16.840122
63.435 16.952227
63.440 17.002607
63.445 17.676615
63.450 17.586403
63.455 17.973873
63.460 18.7621
63.465 18.763216
63.470 18.931461
63.475 19.001892
63.480 18.826559
63.485 18.807671
63.490 19.066204
63.495 18.991629
63.500 18.920853
63.505 18.5861
63.510 18.728529
63.515 18.982351
63.520 18.617908
63.525 17.803333
63.530 17.577948
63.535 18.010651
63.540 17.654949
63.545 17.32675
63.550 17.022995
63.555 16.986914
63.560 17.629175
63.565 17.784952
63.570 17.158701
63.575 17.906677
63.580 18.010935
63.585 17.882746
63.590 18.103016
63.595 18.096979
63.600 18.106236
63.605 17.934402
63.610 17.447575
63.615 17.771286
63.620 18.314724
63.625 18.663076
63.630 18.476833
63.635 17.929474
63.640 18.618259
63.645 19.301544
63.650 19.095259
63.655 18.7577
63.660 18.717026
63.665 19.258627
63.670 20.184011
63.675 20.175339
63.680 19.905804
63.685 20.161188
63.690 20.077539
63.695 20.040007
63.700 20.183018
63.705 20.194241
63.710 20.06847
63.715 19.815166
63.720 19.561209
63.725 19.677193
63.730 18.737951
63.735 17.782223
63.740 17.58782
63.745 17.399088
63.750 17.13549
63.755 16.951292
63.760 16.570904
63.765 16.734415
63.770 16.529091
63.775 15.999758
63.780 16.220022
63.785 16.661295
63.790 16.65317
63.795 17.042585
63.800 17.536304
63.805 17.629053
63.810 17.606771
63.815 17.787035
63.820 18.318533
63.825 18.772432
63.830 18.994637
63.835 19.29981
63.840 19.957367
63.845 20.359272
63.850 19.98226
63.855 19.212748
63.860 19.026396
63.865 18.99188
63.870 18.586149
63.875 18.353313
63.880 18.236202
63.885 17.930544
63.890 18.188093
63.895 18.048725
63.900 18.188595
63.905 18.129026
63.910 17.601526
63.915 17.499353
63.920 17.902042
63.925 18.157444
63.930 18.408606
63.935 18.345018
63.940 18.693245
63.945 18.816523
63.950 18.497786
63.955 18.133204
63.960 18.186201
63.965 18.184406
63.970 18.093483
63.975 18.103136
63.980 18.236429
63.985 18.352953
63.990 18.511671
63.995 18.586475
64.000 18.503519
64.005 18.818186
64.010 19.209471
64.015 19.711317
64.020 20.911806
64.025 21.285305
64.030 20.820789
64.035 20.773317
64.040 20.786802
64.045 20.747538
64.050 21.158171
64.055 20.877203
64.060 20.57267
64.065 20.285255
64.070 20.042168
64.075 20.349915
64.080 20.287291
64.085 19.503677
64.090 18.512737
64.095 18.426523
64.100 18.291933
64.105 17.973469
64.110 17.534473
64.115 17.53779
64.120 18.189514
64.125 18.668066
64.130 19.477118
64.135 19.60936
64.140 20.116331
64.145 20.197508
64.150 19.731958
64.155 19.118759
64.160 18.557207
64.165 17.85523
64.170 17.826586
64.175 17.797726
64.180 17.488087
64.185 17.910992
64.190 18.376884
64.195 19.193378
64.200 19.209326
64.205 19.377604
64.210 19.984386
64.215 20.266737
64.220 20.913237
64.225 20.806339
64.230 20.866423
64.235 21.048098
64.240 21.276312
64.245 20.853834
64.250 20.739569
64.255 19.973795
64.260 19.577118
64.265 19.363665
64.270 19.648525
64.275 19.609697
64.280 19.435579
64.285 18.814243
64.290 19.208645
64.295 19.565819
64.300 19.073761
64.305 19.092571
64.310 18.936586
64.315 19.23974
64.320 20.14777
64.325 20.421442
64.330 20.158428
64.335 20.79137
64.340 20.987587
64.345 21.162079
64.350 20.9739
64.355 20.216549
64.360 19.845991
64.365 20.076569
64.370 19.566008
64.375 18.968748
64.380 19.174482
64.385 19.196129
64.390 19.473021
64.395 20.0784
64.400 20.049984
64.405 20.04936
64.410 20.685427
64.415 21.021521
64.420 21.572273
64.425 21.746593
64.430 21.496941
64.435 21.305651
64.440 21.704805
64.445 21.596247
64.450 21.354717
64.455 20.546095
64.460 20.42033
64.465 20.276289
64.470 20.528036
64.475 20.055052
64.480 19.263325
64.485 19.138962
64.490 19.767902
64.495 19.995485
64.500 19.784561
64.505 20.323389
64.510 21.058964
64.515 21.25095
64.520 21.065969
64.525 20.729713
64.530 20.21101
64.535 20.384888
64.540 20.114822
64.545 20.314369
64.550 20.678391
64.555 20.390812
64.560 20.540354
64.565 20.774927
64.570 21.150316
64.575 21.147655
64.580 21.0418
64.585 20.897949
64.590 20.964167
64.595 21.319706
64.600 21.523504
64.605 20.65929
64.610 20.409195
64.615 20.255884
64.620 20.505402
64.625 20.887413
64.630 20.204773
64.635 20.365675
64.640 20.645256
64.645 20.779629
64.650 21.093323
64.655 20.682175
64.660 20.612417
64.665 21.018812
64.670 20.895447
64.675 21.019936
64.680 20.892546
64.685 21.205465
64.690 21.319168
64.695 21.259884
64.700 21.121872
64.705 21.066689
64.710 21.145365
64.715 20.721552
64.720 20.021389
64.725 20.061682
64.730 20.347862
64.735 20.600998
64.740 20.576754
64.745 20.435469
64.750 20.859825
64.755 20.886269
64.760 20.976566
64.765 21.26663
64.770 21.149166
64.775 21.486315
64.780 21.932652
64.785 21.953384
64.790 22.029095
64.795 21.95858
64.800 21.492306
64.805 21.384752
64.810 21.132202
64.815 21.442965
64.820 21.769741
64.825 21.950659
64.830 21.688725
64.835 22.036489
64.840 22.26465
64.845 22.47727
64.850 22.12611
64.855 22.05431
64.860 21.95326
64.865 21.538183
64.870 21.17193
64.875 21.353783
64.880 21.044004
64.885 20.410994
64.890 20.420639
64.895 20.338615
64.900 21.014223
64.905 21.245884
64.910 20.92716
64.915 20.700739
64.920 21.014816
64.925 20.494623
64.930 20.978523
64.935 21.012913
64.940 21.440426
64.945 22.137913
64.950 23.00312
64.955 23.471251
64.960 23.493628
64.965 22.941196
64.970 22.446373
64.975 22.241028
64.980 22.387678
64.985 22.36441
64.990 22.383013
64.995 22.767624
65.000 22.732843
65.005 22.930441
65.010 22.843706
65.015 22.363892
65.020 22.60289
65.025 23.02351
65.030 23.078886
65.035 23.603485
65.040 23.564932
65.045 23.384796
65.050 23.937719
65.055 23.478155
65.060 23.397585
65.065 23.794033
65.070 23.626385
65.075 23.517487
65.080 23.143078
65.085 22.509722
65.090 22.872505
65.095 23.125128
65.100 22.808989
65.105 22.779631
65.110 23.357605
65.115 24.288097
65.120 24.287712
65.125 24.058527
65.130 24.437744
65.135 24.885616
65.140 25.097393
65.145 24.408972
65.150 23.844707
65.155 24.176352
65.160 23.979187
65.165 23.481009
65.170 23.582542
65.175 23.288338
65.180 24.038088
65.185 24.245546
65.190 24.083906
65.195 24.915956
65.200 25.418203
65.205 25.39835
65.210 25.818022
65.215 25.64406
65.220 25.749113
65.225 25.943598
65.230 25.165295
65.235 25.07408
65.240 25.028723
65.245 24.223282
65.250 24.141989
65.255 24.011799
65.260 24.49065
65.265 25.129887
65.270 24.934059
65.275 25.290688
65.280 26.247053
65.285 26.756594
65.290 27.175604
65.295 26.712521
65.300 26.017792
65.305 25.788214
65.310 25.634073
65.315 24.982161
65.320 24.032957
65.325 23.390982
65.330 23.837904
65.335 24.38846
65.340 24.993351
65.345 25.809916
65.350 26.447752
65.355 26.707563
65.360 26.933012
65.365 26.383078
65.370 26.310707
65.375 26.449335
65.380 26.360744
65.385 26.079405
65.390 26.192362
65.395 26.32617
65.400 26.64982
65.405 26.528534
65.410 26.098375
65.415 25.817471
65.420 25.592745
65.425 25.337069
65.430 25.010996
65.435 24.654377
65.440 24.741192
65.445 24.253029
65.450 24.452999
65.455 25.178371
65.460 26.164755
65.465 27.249977
65.470 27.207241
65.475 27.092804
65.480 27.109299
65.485 26.713741
65.490 26.619135
65.495 25.955332
65.500 25.021757
65.505 24.978966
65.510 25.231318
65.515 25.558455
65.520 25.444197
65.525 25.327021
65.530 25.51536
65.535 25.815104
65.540 26.565458
65.545 27.450686
65.550 27.847584
65.555 28.390823
65.560 28.478916
65.565 28.527134
65.570 28.464294
65.575 28.338219
65.580 28.279591
65.585 28.3463
65.590 28.772018
65.595 30.056429
65.600 30.821699
65.605 31.357693
65.610 31.407528
65.615 30.606928
65.620 30.701344
65.625 30.574724
65.630 29.822369
65.635 29.191551
65.640 28.891357
65.645 29.27331
65.650 29.927261
65.655 29.88476
65.660 30.022697
65.665 30.759682
65.670 31.389425
65.675 31.757673
65.680 32.799801
65.685 34.140182
65.690 34.982647
65.695 35.122784
65.700 35.231815
65.705 35.704163
65.710 36.560894
65.715 35.838001
65.720 35.690723
65.725 35.168339
65.730 35.006363
65.735 35.606537
65.740 35.897827
65.745 36.165066
65.750 36.548172
65.755 35.901611
65.760 36.457153
65.765 36.324619
65.770 35.482197
65.775 35.000248
65.780 35.087955
65.785 35.32304
65.790 35.731804
65.795 35.846836
65.800 36.35421
65.805 36.779217
65.810 36.855946
65.815 36.661057
65.820 37.020996
65.825 37.544304
65.830 37.600201
65.835 36.79311
65.840 36.18047
65.845 35.838409
65.850 34.966583
65.855 34.679638
65.860 34.307613
65.865 34.732746
65.870 35.605431
65.875 37.371784
65.880 37.70047
65.885 38.466
65.890 38.939095
65.895 38.530876
65.900 38.686878
65.905 38.842213
65.910 38.889065
65.915 40.254929
65.920 41.014069
65.925 41.750839
65.930 43.175304
65.935 43.988522
65.940 43.485783
65.945 42.590347
65.950 41.357155
65.955 40.424881
65.960 40.445728
65.965 41.01712
65.970 40.754642
65.975 40.904366
65.980 41.181938
65.985 41.352352
65.990 41.582458
65.995 40.611824
66.000 39.316208
66.005 39.457504
66.010 39.655003
66.015 39.751633
66.020 39.812393
66.025 39.646648
66.030 38.946964
66.035 38.604729
66.040 38.868668
66.045 39.015629
66.050 39.109367
66.055 39.461391
66.060 39.509102
66.065 39.230221
66.070 38.987854
66.075 37.922409
66.080 38.034645
66.085 37.591454
66.090 37.315376
66.095 38.561237
66.100 39.261284
66.105 40.009911
66.110 40.793171
66.115 40.642429
66.120 40.915257
66.125 41.480568
66.130 41.128384
66.135 41.984337
66.140 42.024662
66.145 41.752018
66.150 41.520756
66.155 40.696259
66.160 39.942654
66.165 40.133404
66.170 40.559052
66.175 40.424278
66.180 40.282238
66.185 40.370708
66.190 40.820793
66.195 40.425991
66.200 39.245483
66.205 38.480465
66.210 38.418499
66.215 37.572895
66.220 36.924122
66.225 36.897472
66.230 37.27578
66.235 37.170635
66.240 36.920372
66.245 36.354847
66.250 36.807159
66.255 37.415882
66.260 37.363281
66.265 37.830509
66.270 37.477928
66.275 36.267986
66.280 35.560455
66.285 34.832127
66.290 34.131413
66.295 34.478153
66.300 34.409569
66.305 35.09668
66.310 34.497337
66.315 35.337242
66.320 35.915642
66.325 35.289413
66.330 33.98608
66.335 33.389931
66.340 33.3899
66.345 33.8461
66.350 33.347095
66.355 33.3965
66.360 33.305473
66.365 33.880569
66.370 33.767654
66.375 32.525185
66.380 31.761276
66.385 31.469145
66.390 31.2635
66.395 31.244795
66.400 30.544582
66.405 30.531359
66.410 31.080681
66.415 31.159468
66.420 31.288452
66.425 31.097597
66.430 30.397541
66.435 30.568398
66.440 30.365662
66.445 30.031034
66.450 29.599319
66.455 28.780481
66.460 28.518953
66.465 28.899776
66.470 29.459064
66.475 29.243557
66.480 30.26222
66.485 30.991213
66.490 31.187548
66.495 31.329298
66.500 31.890741
66.505 31.088486
66.510 30.543211
66.515 29.680265
66.520 29.667755
66.525 29.428904
66.530 29.087915
66.535 28.344618
66.540 28.219419
66.545 27.576101
66.550 27.320932
66.555 27.041986
66.560 27.149015
66.565 27.301443
66.570 27.167084
66.575 27.207838
66.580 27.604462
66.585 27.851744
66.590 27.771421
66.595 27.536251
66.600 26.992815
66.605 27.257936
66.610 27.368282
66.615 27.574274
66.620 28.138559
66.625 27.831347
66.630 27.363379
66.635 27.451694
66.640 26.659317
66.645 26.169121
66.650 25.943899
66.655 25.648426
66.660 24.943575
66.665 25.33338
66.670 25.569944
66.675 25.430147
66.680 25.415726
66.685 24.620308
66.690 23.845469
66.695 24.133696
66.700 24.084835
66.705 24.260523
66.710 24.994995
66.715 24.962502
66.720 25.422541
66.725 25.558439
66.730 25.461266
66.735 25.095341
66.740 24.999462
66.745 25.271708
66.750 25.40337
66.755 25.366318
66.760 25.627699
66.765 26.519701
66.770 26.973072
66.775 26.704763
66.780 25.953932
66.785 25.622463
66.790 25.379515
66.795 24.911928
66.800 24.041119
66.805 23.697876
66.810 24.277308
66.815 24.700333
66.820 25.022881
66.825 25.516268
66.830 25.463984
66.835 25.499563
66.840 24.994051
66.845 24.471462
66.850 24.437525
66.855 24.32995
66.860 23.788849
66.865 23.63418
66.870 23.836679
66.875 24.290804
66.880 23.833647
66.885 23.660486
66.890 22.968542
66.895 22.961811
66.900 23.16608
66.905 23.173292
66.910 23.222046
66.915 23.747791
66.920 23.665638
66.925 23.919245
66.930 24.328407
66.935 25.127129
66.940 24.800369
66.945 24.078671
66.950 23.871563
66.955 24.030245
66.960 23.931908
66.965 22.960688
66.970 22.000154
66.975 22.169613
66.980 22.541616
66.985 22.441931
66.990 22.115688
66.995 22.471617
67.000 22.797623
67.005 23.236147
67.010 23.003517
67.015 22.985521
67.020 22.523893
67.025 22.551723
67.030 22.537441
67.035 22.642666
67.040 23.15992
67.045 23.327681
67.050 23.216774
67.055 23.738617
67.060 23.981293
67.065 23.510086
67.070 23.258486
67.075 23.096491
67.080 23.157206
67.085 22.809879
67.090 22.854944
67.095 22.416292
67.100 22.024332
67.105 21.92787
67.110 22.119453
67.115 22.437479
67.120 22.75091
67.125 22.493191
67.130 22.922371
67.135 23.430229
67.140 23.679585
67.145 23.812752
67.150 23.994368
67.155 24.20179
67.160 24.338974
67.165 24.547215
67.170 24.730877
67.175 24.294872
67.180 23.792006
67.185 23.576727
67.190 23.189808
67.195 23.009241
67.200 22.559568
67.205 22.673552
67.210 22.687252
67.215 22.054466
67.220 22.028664
67.225 22.104805
67.230 21.839411
67.235 21.989622
67.240 20.99194
67.245 20.451361
67.250 21.175303
67.255 21.152819
67.260 21.076597
67.265 21.391897
67.270 21.59269
67.275 22.336002
67.280 22.538418
67.285 21.900974
67.290 21.066841
67.295 20.850832
67.300 21.050703
67.305 20.682194
67.310 20.619761
67.315 20.310097
67.320 20.120749
67.325 19.816397
67.330 19.822882
67.335 19.720615
67.340 19.453659
67.345 19.688019
67.350 19.907843
67.355 19.864264
67.360 20.507614
67.365 20.276602
67.370 20.080914
67.375 20.556511
67.380 20.23773
67.385 20.229385
67.390 20.233946
67.395 20.533251
67.400 20.760958
67.405 20.574406
67.410 20.103571
67.415 20.524527
67.420 20.744549
67.425 21.059933
67.430 20.002352
67.435 19.915743
67.440 20.39002
67.445 20.613882
67.450 20.59833
67.455 20.653135
67.460 20.458878
67.465 21.709578
67.470 22.356701
67.475 22.141264
67.480 22.699444
67.485 22.750959
67.490 22.978201
67.495 23.281305
67.500 22.599548
67.505 22.091221
67.510 22.675825
67.515 22.196987
67.520 21.80442
67.525 21.466269
67.530 21.176157
67.535 21.144373
67.540 20.924686
67.545 20.423567
67.550 20.802406
67.555 21.359837
67.560 21.751459
67.565 22.588339
67.570 22.882719
67.575 23.069775
67.580 22.380487
67.585 21.700193
67.590 21.552523
67.595 21.793558
67.600 21.662296
67.605 21.935614
67.610 22.236958
67.615 22.767387
67.620 23.304731
67.625 22.938919
67.630 22.845049
67.635 22.457487
67.640 22.292879
67.645 22.158701
67.650 22.037148
67.655 21.802317
67.660 21.877617
67.665 21.475935
67.670 21.663244
67.675 21.418131
67.680 21.874535
67.685 22.000336
67.690 22.231962
67.695 22.289618
67.700 22.051506
67.705 21.336155
67.710 21.402958
67.715 20.995056
67.720 20.551199
67.725 19.941565
67.730 19.838694
67.735 20.186388
67.740 20.656765
67.745 21.028477
67.750 21.278917
67.755 21.459839
67.760 21.543404
67.765 21.143646
67.770 20.896376
67.775 20.488398
67.780 20.072304
67.785 20.033094
67.790 20.30698
67.795 20.236496
67.800 20.904726
67.805 21.077848
67.810 21.018579
67.815 21.394003
67.820 21.728157
67.825 21.699911
67.830 22.357752
67.835 22.603271
67.840 22.630081
67.845 22.899021
67.850 22.467344
67.855 22.371723
67.860 22.555603
67.865 22.413857
67.870 21.935797
67.875 21.671621
67.880 21.610329
67.885 21.909294
67.890 21.772877
67.895 21.248243
67.900 21.063492
67.905 21.935976
67.910 22.153158
67.915 22.378452
67.920 22.51693
67.925 22.611948
67.930 23.373388
67.935 23.391138
67.940 23.818554
67.945 23.939812
67.950 23.632868
67.955 23.281017
67.960 22.933769
67.965 22.296474
67.970 21.836521
67.975 21.51865
67.980 21.486597
67.985 21.578827
67.990 21.475582
67.995 21.260347
68.000 21.904146
68.005 21.628119
68.010 21.134434
68.015 21.276234
68.020 21.456467
68.025 21.924866
68.030 21.929613
68.035 21.385866
68.040 21.771921
68.045 22.171282
68.050 21.671894
68.055 21.103199
68.060 21.070587
68.065 21.371496
68.070 21.556604
68.075 21.446215
68.080 21.376688
68.085 21.585453
68.090 21.21105
68.095 21.387684
68.100 21.280079
68.105 21.046684
68.110 21.415661
68.115 21.905979
68.120 21.948746
68.125 22.327145
68.130 22.050495
68.135 21.85006
68.140 21.829119
68.145 21.012764
68.150 20.036535
68.155 20.111017
68.160 20.499588
68.165 20.616056
68.170 20.555979
68.175 20.456545
68.180 20.937294
68.185 20.658068
68.190 20.644743
68.195 21.045994
68.200 21.170946
68.205 21.267828
68.210 21.725931
68.215 22.198149
68.220 22.305019
68.225 21.489983
68.230 21.460413
68.235 21.815285
68.240 22.218662
68.245 21.517448
68.250 21.344511
68.255 22.048061
68.260 22.20343
68.265 21.42695
68.270 21.084278
68.275 21.134521
68.280 21.46282
68.285 21.407978
68.290 21.370699
68.295 21.85253
68.300 21.6973
68.305 21.595131
68.310 21.510481
68.315 21.519484
68.320 21.279211
68.325 20.795031
68.330 20.310389
68.335 20.597115
68.340 21.047239
68.345 21.223598
68.350 21.171225
68.355 20.982706
68.360 21.149477
68.365 20.506624
68.370 20.05953
68.375 19.592794
68.380 19.545208
68.385 19.825851
68.390 20.413256
68.395 20.440538
68.400 21.064201
68.405 21.441332
68.410 21.697599
68.415 21.770636
68.420 22.205391
68.425 21.876455
68.430 22.096802
68.435 22.281284
68.440 22.173231
68.445 21.843805
68.450 21.497509
68.455 21.647757
68.460 22.045414
68.465 22.422163
68.470 22.232635
68.475 22.443726
68.480 22.218452
68.485 22.016485
68.490 22.000278
68.495 21.982315
68.500 21.537487
68.505 21.551718
68.510 21.654135
68.515 22.450315
68.520 22.194073
68.525 21.803083
68.530 22.058119
68.535 22.305258
68.540 22.544434
68.545 22.406403
68.550 21.771341
68.555 20.997763
68.560 21.17382
68.565 21.272894
68.570 21.222214
68.575 20.811819
68.580 20.95997
68.585 21.215347
68.590 21.512041
68.595 21.048389
68.600 21.070803
68.605 21.199955
68.610 21.470932
68.615 21.871948
68.620 22.582829
68.625 22.797592
68.630 23.192772
68.635 23.203093
68.640 23.22854
68.645 22.957853
68.650 23.25375
68.655 22.873541
68.660 23.010744
68.665 22.909496
68.670 23.362883
68.675 23.426676
68.680 23.214094
68.685 22.430176
68.690 22.56963
68.695 22.635666
68.700 22.448732
68.705 21.791817
68.710 21.800341
68.715 22.109692
68.720 22.362705
68.725 22.43158
68.730 22.474337
68.735 23.335211
68.740 23.600767
68.745 24.26495
68.750 23.747276
68.755 23.228506
68.760 23.237087
68.765 23.191126
68.770 22.470625
68.775 22.383846
68.780 22.161528
68.785 23.036449
68.790 23.419167
68.795 23.690834
68.800 23.439369
68.805 23.267511
68.810 23.305914
68.815 23.954865
68.820 24.341686
68.825 24.27849
68.830 23.809223
68.835 24.479788
68.840 24.829845
68.845 24.468399
68.850 23.584576
68.855 23.354071
68.860 23.180984
68.865 22.983223
68.870 22.708164
68.875 22.91951
68.880 23.396914
68.885 23.983082
68.890 23.857044
68.895 24.505232
68.900 24.511724
68.905 24.245152
68.910 24.389673
68.915 24.19416
68.920 23.637825
68.925 23.14838
68.930 22.711149
68.935 23.095453
68.940 23.904543
68.945 23.621655
68.950 23.58115
68.955 23.814276
68.960 24.495241
68.965 24.543623
68.970 24.355087
68.975 24.406021
68.980 25.12384
68.985 25.784031
68.990 25.801435
68.995 26.037361
69.000 26.784426
69.005 26.544176
69.010 25.72818
69.015 25.092524
69.020 24.596823
69.025 24.065134
69.030 23.351479
69.035 23.657042
69.040 23.9708
69.045 23.74087
69.050 24.141174
69.055 24.437454
69.060 24.65453
69.065 24.914757
69.070 24.932022
69.075 25.534523
69.080 26.513346
69.085 26.626467
69.090 27.228052
69.095 27.611876
69.100 27.657175
69.105 27.650785
69.110 27.695375
69.115 27.171192
69.120 26.005129
69.125 25.876131
69.130 25.444942
69.135 24.723473
69.140 23.962595
69.145 23.650835
69.150 24.099482
69.155 25.189125
69.160 24.912506
69.165 24.891024
69.170 25.686903
69.175 27.007721
69.180 27.738791
69.185 27.466026
69.190 27.097956
69.195 27.248388
69.200 27.31568
69.205 27.306942
69.210 26.782673
69.215 26.747566
69.220 27.528776
69.225 27.519232
69.230 27.778887
69.235 27.814764
69.240 27.549843
69.245 27.495811
69.250 26.598745
69.255 25.961491
69.260 25.547573
69.265 25.662357
69.270 26.318871
69.275 26.961033
69.280 27.065022
69.285 27.769241
69.290 28.7502
69.295 29.331585
69.300 29.418112
69.305 29.480583
69.310 29.755623
69.315 30.33757
69.320 30.328465
69.325 30.077467
69.330 30.229383
69.335 30.060518
69.340 29.287037
69.345 29.108608
69.350 28.461271
69.355 28.63821
69.360 28.567093
69.365 28.431541
69.370 28.206556
69.375 28.497969
69.380 28.773819
69.385 28.695032
69.390 28.753649
69.395 28.748671
69.400 29.324133
69.405 29.304712
69.410 28.898548
69.415 29.191763
69.420 30.309618
69.425 29.950045
69.430 29.915983
69.435 30.103642
69.440 30.946014
69.445 31.531414
69.450 31.27986
69.455 30.863024
69.460 30.996216
69.465 31.084837
69.470 30.676085
69.475 30.412857
69.480 29.516022
69.485 28.523932
69.490 28.990011
69.495 29.467999
69.500 29.509857
69.505 29.476961
69.510 29.719227
69.515 31.405891
69.520 32.265503
69.525 31.470728
69.530 31.483463
69.535 31.221529
69.540 31.936638
69.545 32.222031
69.550 32.257614
69.555 31.695276
69.560 31.870237
69.565 31.854174
69.570 33.02232
69.575 32.789188
69.580 32.522022
69.585 32.38269
69.590 32.814232
69.595 33.393677
69.600 33.401432
69.605 32.821594
69.610 32.837318
69.615 32.431637
69.620 31.990959
69.625 32.465225
69.630 32.626514
69.635 32.441071
69.640 32.314812
69.645 31.543631
69.650 31.36224
69.655 30.960566
69.660 30.141239
69.665 29.350302
69.670 29.28639
69.675 28.828314
69.680 28.715092
69.685 28.99667
69.690 29.445829
69.695 28.792574
69.700 29.604883
69.705 30.043455
69.710 30.309469
69.715 30.588631
69.720 30.613373
69.725 30.700672
69.730 30.546675
69.735 29.793133
69.740 29.152571
69.745 29.038918
69.750 28.674971
69.755 28.338472
69.760 28.185606
69.765 27.665449
69.770 27.102057
69.775 27.082792
69.780 27.429516
69.785 27.621733
69.790 27.481503
69.795 27.307972
69.800 27.978626
69.805 27.749588
69.810 27.76911
69.815 28.143974
69.820 28.363123
69.825 28.413448
69.830 27.927525
69.835 27.716263
69.840 27.663668
69.845 27.370604
69.850 26.404722
69.855 26.025221
69.860 25.686363
69.865 24.855526
69.870 25.165102
69.875 25.410151
69.880 25.088026
69.885 24.953571
69.890 24.343367
69.895 24.833075
69.900 25.479403
69.905 25.200142
69.910 25.39707
69.915 24.684063
69.920 25.204399
69.925 25.852728
69.930 25.64773
69.935 25.020569
69.940 24.05286
69.945 23.725311
69.950 24.097782
69.955 23.691187
69.960 22.923471
69.965 22.816563
69.970 22.717609
69.975 22.667473
69.980 22.588652
69.985 22.854719
69.990 22.962017
69.995 23.30003
70.000 23.911001
70.005 23.995197
70.010 23.703373
70.015 22.98587
70.020 22.739199
70.025 22.386168
70.030 21.678144
70.035 21.623497
70.040 22.117369
70.045 22.485285
70.050 22.461094
70.055 22.790434
70.060 22.582468
70.065 22.644564
70.070 23.063557
70.075 23.136108
70.080 23.197191
70.085 23.490452
70.090 23.323776
70.095 23.691223
70.100 23.825357
70.105 23.383425
70.110 22.63315
70.115 21.895605
70.120 21.424385
70.125 20.968073
70.130 21.096441
70.135 20.740168
70.140 20.248299
70.145 21.178444
70.150 21.657703
70.155 22.524899
70.160 22.320967
70.165 21.787521
70.170 21.86747
70.175 21.73698
70.180 21.976343
70.185 21.784809
70.190 21.585663
70.195 21.791534
70.200 21.883396
70.205 22.072302
70.210 21.811775
70.215 21.981354
70.220 22.244852
70.225 22.192286
70.230 22.442011
70.235 22.661888
70.240 22.067516
70.245 22.096033
70.250 22.02648
70.255 21.801853
70.260 21.045488
70.265 20.206972
70.270 19.859743
70.275 19.531414
70.280 19.289356
70.285 18.741739
70.290 18.558945
70.295 18.835878
70.300 19.134193
70.305 19.489964
70.310 19.561386
70.315 19.436861
70.320 19.702126
70.325 19.914436
70.330 20.171301
70.335 20.168545
70.340 19.445257
70.345 19.343231
70.350 19.473295
70.355 19.825809
70.360 20.09411
70.365 20.092911
70.370 20.022831
70.375 20.639551
70.380 20.927599
70.385 21.306183
70.390 21.004917
70.395 20.651041
70.400 21.154301
70.405 21.716574
70.410 21.928301
70.415 21.700293
70.420 21.27738
70.425 21.160028
70.430 21.196449
70.435 20.96998
70.440 20.834913
70.445 19.981333
70.450 19.558224
70.455 19.216778
70.460 19.844006
70.465 20.440441
70.470 20.156969
70.475 20.574051
70.480 21.195339
70.485 21.217833
70.490 21.20709
70.495 20.679649
70.500 20.572958
70.505 20.58123
70.510 20.561728
70.515 21.069996
70.520 21.857887
70.525 21.717802
70.530 22.555716
70.535 22.070004
70.540 22.167885
70.545 21.613329
70.550 20.709494
70.555 20.869629
70.560 20.88921
70.565 20.571522
70.570 20.880798
70.575 20.774492
70.580 21.073
70.585 21.024654
70.590 20.519201
70.595 20.117344
70.600 19.830999
70.605 19.369877
70.610 19.629414
70.615 19.683613
70.620 19.385841
70.625 19.452564
70.630 19.69146
70.635 19.674976
70.640 19.506735
70.645 19.067038
70.650 19.031767
70.655 19.439655
70.660 19.309032
70.665 18.565859
70.670 18.321489
70.675 18.259026
70.680 18.794834
70.685 18.496431
70.690 18.611717
70.695 18.50703
70.700 18.879416
70.705 18.828993
70.710 19.141001
70.715 19.122772
70.720 19.609758
70.725 19.387663
70.730 19.596575
70.735 19.599079
70.740 18.914173
70.745 18.43401
70.750 18.55278
70.755 19.192673
70.760 19.183119
70.765 19.480719
70.770 20.096401
70.775 20.558861
70.780 20.713644
70.785 20.216236
70.790 19.538376
70.795 19.603422
70.800 18.861412
70.805 18.715424
70.810 18.830683
70.815 19.393017
70.820 19.60434
70.825 20.042349
70.830 20.302542
70.835 21.079466
70.840 21.188301
70.845 21.30477
70.850 20.563534
70.855 20.275002
70.860 19.829292
70.865 20.517405
70.870 20.003372
70.875 19.94418
70.880 19.654043
70.885 19.885036
70.890 20.271166
70.895 20.137171
70.900 19.41176
70.905 19.383863
70.910 19.590326
70.915 20.239683
70.920 20.819752
70.925 20.32254
70.930 19.783739
70.935 20.055637
70.940 19.889318
70.945 19.943237
70.950 19.872698
70.955 19.840508
70.960 20.022572
70.965 20.054213
70.970 19.984158
70.975 19.855806
70.980 19.700085
70.985 19.633543
70.990 19.662447
70.995 20.148335
71.000 20.243399
71.005 20.241648
71.010 20.102453
71.015 20.015846
71.020 20.410061
71.025 20.155659
71.030 20.297434
71.035 20.491943
71.040 20.561728
71.045 21.322355
71.050 21.499058
71.055 21.003822
71.060 20.925962
71.065 20.301878
71.070 20.189182
71.075 19.664762
71.080 18.81604
71.085 18.241413
71.090 18.377415
71.095 18.101429
71.100 18.344479
71.105 18.279579
71.110 18.452627
71.115 18.294285
71.120 18.744835
71.125 18.434511
71.130 18.643969
71.135 18.48315
71.140 18.711105
71.145 18.52862
71.150 18.822395
71.155 18.757692
71.160 19.373234
71.165 19.983791
71.170 20.698633
71.175 20.805807
71.180 20.967783
71.185 20.158852
71.190 19.285166
71.195 18.43466
71.200 17.808458
71.205 17.720423
71.210 17.770792
71.215 18.052402
71.220 18.886063
71.225 19.428864
71.230 19.406319
71.235 19.59263
71.240 19.411663
71.245 19.573427
71.250 19.528175
71.255 19.489779
71.260 19.96863
71.265 20.765152
71.270 20.115068
71.275 20.077469
71.280 19.836536
71.285 19.567411
71.290 19.018908
71.295 17.861547
71.300 17.468006
71.305 18.025106
71.310 18.071642
71.315 18.231218
71.320 18.481287
71.325 18.944656
71.330 19.753929
71.335 19.99773
71.340 20.425325
71.345 20.674692
71.350 20.633326
71.355 20.987823
71.360 20.738775
71.365 20.748646
71.370 20.42041
71.375 20.219906
71.380 20.309744
71.385 20.009199
71.390 19.821888
71.395 19.606514
71.400 19.981829
71.405 19.581793
71.410 19.301247
71.415 18.965612
71.420 18.754396
71.425 19.160667
71.430 19.906994
71.435 19.864254
71.440 20.064064
71.445 20.049994
71.450 20.724142
71.455 21.072973
71.460 20.663595
71.465 20.471289
71.470 20.901064
71.475 20.779726
71.480 20.250528
71.485 20.100307
71.490 19.820791
71.495 19.346899
71.500 18.480066
71.505 17.639883
71.510 17.916727
71.515 18.012646
71.520 18.149239
71.525 18.3193
71.530 18.311157
71.535 19.196777
71.540 19.715828
71.545 19.857121
71.550 20.181799
71.555 19.685799
71.560 19.451252
71.565 19.59128
71.570 19.211349
71.575 19.339424
71.580 19.309639
71.585 19.518557
71.590 19.804335
71.595 20.355698
71.600 20.062847
71.605 19.949009
71.610 19.834152
71.615 19.553547
71.620 19.75666
71.625 19.719473
71.630 19.707985
71.635 19.604813
71.640 19.668983
71.645 19.348707
71.650 19.335817
71.655 18.963852
71.660 19.044565
71.665 19.338453
71.670 19.28668
71.675 19.160433
71.680 19.319572
71.685 19.292429
71.690 19.18898
71.695 18.966257
71.700 18.470354
71.705 18.467428
71.710 19.015162
71.715 18.801319
71.720 19.416121
71.725 19.990236
71.730 20.316175
71.735 20.192616
71.740 19.959433
71.745 19.61062
71.750 19.237026
71.755 18.872082
71.760 18.409626
71.765 18.735535
71.770 18.912962
71.775 19.172756
71.780 19.145699
71.785 19.233477
71.790 19.493458
71.795 19.984104
71.800 20.082104
71.805 19.895466
71.810 19.732487
71.815 19.739357
71.820 19.559105
71.825 19.272766
71.830 18.424677
71.835 18.253099
71.840 18.593071
71.845 18.708759
71.850 18.834501
71.855 19.338455
71.860 19.088734
71.865 19.293354
71.870 19.468119
71.875 18.753143
71.880 18.216925
71.885 18.331345
71.890 18.070927
71.895 18.759144
71.900 18.74864
71.905 19.198822
71.910 19.882397
71.915 20.541182
71.920 21.144323
71.925 20.866196
71.930 20.737762
71.935 20.75613
71.940 20.019695
71.945 20.054413
71.950 20.093596
71.955 19.076458
71.960 18.985928
71.965 18.819593
71.970 18.837591
71.975 19.584961
71.980 19.926832
71.985 19.614386
71.990 20.307556
71.995 20.330853
72.000 20.905144
72.005 20.836319
72.010 20.037395
72.015 19.272486
72.020 18.951336
72.025 18.518993
72.030 18.776142
72.035 18.874901
72.040 19.128317
72.045 19.708061
72.050 19.885126
72.055 19.67746
72.060 19.971291
72.065 19.682219
72.070 19.404247
72.075 18.472181
72.080 17.586502
72.085 17.810303
72.090 18.065008
72.095 17.773365
72.100 17.247252
72.105 17.56044
72.110 18.273989
72.115 18.693836
72.120 18.775721
72.125 18.6994
72.130 18.799866
72.135 19.251238
72.140 19.477243
72.145 19.470179
72.150 18.450924
72.155 18.127567
72.160 18.590212
72.165 18.864845
72.170 19.063368
72.175 18.426418
72.180 18.319914
72.185 18.684803
72.190 18.320761
72.195 17.622431
72.200 17.463421
72.205 17.422863
72.210 17.945717
72.215 18.944941
72.220 19.136875
72.225 19.520115
72.230 19.939074
72.235 19.332384
72.240 19.506947
72.245 19.956926
72.250 19.919867
72.255 20.140028
72.260 20.534241
72.265 20.141891
72.270 20.663965
72.275 19.820601
72.280 19.134134
72.285 18.865475
72.290 18.684864
72.295 18.079004
72.300 17.711027
72.305 17.094679
72.310 17.664886
72.315 18.258972
72.320 18.231602
72.325 18.214897
72.330 18.278351
72.335 18.664352
72.340 18.9704
72.345 18.699024
72.350 18.834373
72.355 18.509327
72.360 18.962851
72.365 19.333225
72.370 19.326393
72.375 18.958412
72.380 18.571072
72.385 18.013723
72.390 18.203371
72.395 18.202484
72.400 18.231455
72.405 18.209066
72.410 18.445969
72.415 19.048372
72.420 19.480116
72.425 18.796734
72.430 18.022951
72.435 17.573719
72.440 17.562204
72.445 17.803804
72.450 17.709211
72.455 17.822575
72.460 18.464773
72.465 18.830282
72.470 19.066486
72.475 18.554426
72.480 18.061483
72.485 17.743904
72.490 17.812822
72.495 17.785292
72.500 18.304079
72.505 18.245083
72.510 18.308098
72.515 18.259747
72.520 18.204334
72.525 18.246202
72.530 17.859972
72.535 17.664722
72.540 17.732121
72.545 17.849901
72.550 17.826479
72.555 18.184923
72.560 18.020985
72.565 17.857199
72.570 18.270306
72.575 18.658215
72.580 19.749315
72.585 20.0849
72.590 19.768126
72.595 20.626616
72.600 21.224466
72.605 21.214876
72.610 20.740128
72.615 19.578461
72.620 19.739271
72.625 19.110952
72.630 17.870161
72.635 16.986254
72.640 16.495764
72.645 16.447268
72.650 16.673403
72.655 16.422413
72.660 16.529675
72.665 16.658941
72.670 17.417429
72.675 17.099958
72.680 16.937408
72.685 16.816216
72.690 17.290098
72.695 17.521069
72.700 17.218639
72.705 16.853937
72.710 17.182383
72.715 17.578856
72.720 17.248514
72.725 17.964069
72.730 18.247561
72.735 18.567108
72.740 18.630585
72.745 18.435415
72.750 18.381861
72.755 18.472918
72.760 17.763718
72.765 17.569805
72.770 17.621405
72.775 17.890057
72.780 17.908588
72.785 17.669756
72.790 17.153959
72.795 16.809303
72.800 16.521988
72.805 16.337379
72.810 16.020786
72.815 15.841986
72.820 15.965607
72.825 16.645277
72.830 17.001131
72.835 17.286165
72.840 17.324858
72.845 17.163486
72.850 17.579525
72.855 17.661648
72.860 17.907953
72.865 17.981411
72.870 17.941322
72.875 18.131111
72.880 18.315722
72.885 18.059214
72.890 17.565866
72.895 17.043039
72.900 17.11249
72.905 17.485695
72.910 17.483713
72.915 16.999136
72.920 16.783537
72.925 17.074831
72.930 17.530087
72.935 17.597439
72.940 17.289696
72.945 17.36842
72.950 17.851301
72.955 17.967407
72.960 18.801647
72.965 19.035833
72.970 19.540192
72.975 19.704037
72.980 19.872528
72.985 19.700228
72.990 19.30759
72.995 18.911749
73.000 18.753233
