!@!!GADDS PLOTSO FILE: Chi integration type
!@!!Title/SampleName: map-5
!@!!Comment: ?
!@!!User: Bruker Instrument Administrator
!@!!Site: University of Illinois Chicago
!@!!Frame: map-5_01_000.gfrm
!@!!Wavelengths    1.54184   1.54056   1.54439
!@!!Frame angles: 2Theta: 63.000 Omega: 50.000 Phi: 0.000 Chi: 90.000
!@!!Integration range: 2Theta: 53.000 to 73.000  Gamma: -105.000 to -75.000
!@!!Integration method: bin normalized
!@!N
!@!SS
!@!M
!@!L 0.0 0.0 0.0 0.0
!@!XDegrees
!@!YCounts
53.000 9.225891
53.005 9.244728
53.010 9.046409
53.015 8.601865
53.020 8.189216
53.025 8.188538
53.030 8.361231
53.035 8.267674
53.040 8.289124
53.045 8.516759
53.050 8.739857
53.055 8.648758
53.060 8.553979
53.065 8.449635
53.070 8.525949
53.075 8.316331
53.080 7.914334
53.085 7.444649
53.090 7.553332
53.095 7.70998
53.100 8.056679
53.105 7.92639
53.110 8.374364
53.115 8.883992
53.120 8.867912
53.125 8.786277
53.130 8.525728
53.135 8.250556
53.140 8.308814
53.145 8.047366
53.150 7.786022
53.155 8.18691
53.160 8.250634
53.165 8.067882
53.170 8.037704
53.175 7.992914
53.180 7.643966
53.185 7.95165
53.190 7.889748
53.195 7.692122
53.200 7.43708
53.205 7.951802
53.210 8.690787
53.215 8.820192
53.220 8.397021
53.225 8.135637
53.230 8.265278
53.235 8.206129
53.240 7.765136
53.245 7.465579
53.250 7.446092
53.255 7.54208
53.260 7.886495
53.265 8.067461
53.270 8.23425
53.275 8.039142
53.280 7.961473
53.285 8.591486
53.290 8.957136
53.295 9.490491
53.300 9.544134
53.305 9.38764
53.310 9.636697
53.315 9.356879
53.320 9.025373
53.325 8.813608
53.330 8.458475
53.335 8.879694
53.340 8.920071
53.345 9.022096
53.350 9.565065
53.355 9.415059
53.360 9.633356
53.365 9.622812
53.370 9.146417
53.375 9.504354
53.380 9.22709
53.385 8.88868
53.390 8.642273
53.395 8.368578
53.400 8.236929
53.405 7.957317
53.410 7.798798
53.415 7.879635
53.420 7.746432
53.425 7.65448
53.430 7.799163
53.435 8.015533
53.440 8.339196
53.445 8.206634
53.450 8.237819
53.455 8.387897
53.460 8.682006
53.465 8.770338
53.470 8.861472
53.475 8.471074
53.480 8.691154
53.485 8.920701
53.490 9.431399
53.495 9.409013
53.500 9.238472
53.505 9.459566
53.510 9.817947
53.515 9.640611
53.520 9.758212
53.525 9.59669
53.530 9.326734
53.535 9.092785
53.540 9.169572
53.545 9.028854
53.550 9.124816
53.555 8.762656
53.560 8.982533
53.565 9.27968
53.570 9.766315
53.575 9.71242
53.580 9.890126
53.585 9.875828
53.590 9.234076
53.595 8.982924
53.600 9.142129
53.605 8.459429
53.610 8.153398
53.615 8.073382
53.620 8.376291
53.625 8.977468
53.630 8.967997
53.635 8.695914
53.640 8.836975
53.645 8.619059
53.650 8.641278
53.655 8.489192
53.660 8.389526
53.665 8.379481
53.670 8.209384
53.675 8.384528
53.680 8.549767
53.685 8.331255
53.690 8.308036
53.695 7.729938
53.700 7.741087
53.705 8.140222
53.710 8.822592
53.715 8.963165
53.720 9.705883
53.725 10.603033
53.730 11.55458
53.735 11.635637
53.740 11.063412
53.745 10.429329
53.750 10.504048
53.755 9.760671
53.760 9.058382
53.765 8.463293
53.770 8.622103
53.775 8.816497
53.780 9.132073
53.785 9.317142
53.790 9.336426
53.795 9.767746
53.800 9.898814
53.805 9.687311
53.810 10.060061
53.815 10.041829
53.820 9.868078
53.825 9.940542
53.830 9.656087
53.835 9.42024
53.840 9.380939
53.845 8.801502
53.850 8.402643
53.855 8.593676
53.860 8.539827
53.865 8.608228
53.870 8.725557
53.875 8.985828
53.880 9.167163
53.885 9.292005
53.890 9.117568
53.895 9.192072
53.900 8.954521
53.905 9.213418
53.910 9.053123
53.915 9.386661
53.920 9.61064
53.925 9.355146
53.930 9.453313
53.935 9.789742
53.940 10.014626
53.945 9.967833
53.950 10.023718
53.955 10.08955
53.960 10.520875
53.965 10.988509
53.970 10.998218
53.975 10.654169
53.980 10.556036
53.985 10.149158
53.990 9.95607
53.995 9.724771
54.000 9.094515
54.005 8.796059
54.010 9.275516
54.015 9.342329
54.020 9.517407
54.025 9.65885
54.030 10.389782
54.035 10.805935
54.040 10.779255
54.045 10.549139
54.050 10.717564
54.055 10.845492
54.060 10.712512
54.065 10.232944
54.070 9.955386
54.075 10.033861
54.080 10.468302
54.085 10.613759
54.090 10.831202
54.095 10.743484
54.100 11.266532
54.105 11.638383
54.110 11.210193
54.115 10.611069
54.120 10.692335
54.125 10.463944
54.130 10.018439
54.135 9.297674
54.140 9.623076
54.145 9.994754
54.150 9.910633
54.155 10.11782
54.160 10.130936
54.165 10.581193
54.170 10.82271
54.175 10.641052
54.180 10.643325
54.185 10.537117
54.190 10.377914
54.195 10.870078
54.200 11.145617
54.205 11.14132
54.210 10.896684
54.215 11.068547
54.220 10.938764
54.225 10.786469
54.230 10.682318
54.235 10.939983
54.240 11.162141
54.245 10.976078
54.250 10.417242
54.255 10.458502
54.260 9.94987
54.265 9.097311
54.270 8.613172
54.275 8.433474
54.280 8.94123
54.285 9.224047
54.290 9.266045
54.295 9.469107
54.300 10.069455
54.305 10.388508
54.310 10.358834
54.315 9.943587
54.320 9.566758
54.325 9.522179
54.330 9.36507
54.335 9.284573
54.340 9.240368
54.345 8.933462
54.350 9.23545
54.355 9.390052
54.360 9.782003
54.365 9.977279
54.370 9.744172
54.375 10.037961
54.380 10.333436
54.385 9.916072
54.390 9.527201
54.395 9.401541
54.400 9.493342
54.405 9.786148
54.410 9.997755
54.415 10.257351
54.420 10.561335
54.425 10.767916
54.430 10.489861
54.435 10.314064
54.440 9.967119
54.445 9.586139
54.450 9.763556
54.455 9.899783
54.460 10.384216
54.465 10.536148
54.470 11.038399
54.475 11.460401
54.480 11.839135
54.485 11.535789
54.490 11.828576
54.495 11.811055
54.500 11.822712
54.505 10.948902
54.510 10.709314
54.515 10.618641
54.520 10.370902
54.525 9.715139
54.530 9.089858
54.535 8.803039
54.540 9.24729
54.545 9.607938
54.550 9.664457
54.555 10.045051
54.560 10.356071
54.565 10.537524
54.570 10.544538
54.575 10.087563
54.580 9.904516
54.585 9.955276
54.590 9.989813
54.595 10.108171
54.600 10.889444
54.605 10.940709
54.610 11.110078
54.615 10.877916
54.620 11.287922
54.625 11.066017
54.630 10.598498
54.635 10.19799
54.640 10.401301
54.645 10.779045
54.650 11.022044
54.655 10.420102
54.660 10.377712
54.665 10.609392
54.670 10.410678
54.675 9.838788
54.680 9.678287
54.685 9.826054
54.690 10.495847
54.695 10.617231
54.700 10.633132
54.705 11.311271
54.710 11.596114
54.715 11.321649
54.720 11.301708
54.725 10.783772
54.730 10.491463
54.735 10.751301
54.740 11.137632
54.745 11.255512
54.750 11.504428
54.755 11.229928
54.760 11.850663
54.765 12.237413
54.770 11.913774
54.775 11.782489
54.780 12.015227
54.785 11.802938
54.790 11.532435
54.795 11.143732
54.800 10.777496
54.805 10.758474
54.810 10.497538
54.815 10.228915
54.820 9.832648
54.825 10.302657
54.830 10.581381
54.835 10.436891
54.840 10.202288
54.845 9.909307
54.850 10.136094
54.855 10.99507
54.860 10.826311
54.865 10.88074
54.870 11.004631
54.875 11.303832
54.880 11.294627
54.885 11.058573
54.890 10.984234
54.895 10.988264
54.900 10.767368
54.905 11.103586
54.910 11.250028
54.915 11.495915
54.920 11.582943
54.925 11.347754
54.930 12.044518
54.935 12.622029
54.940 12.128654
54.945 12.589299
54.950 12.90337
54.955 12.631776
54.960 12.258841
54.965 11.340473
54.970 10.734522
54.975 10.588159
54.980 9.728674
54.985 9.613578
54.990 9.283869
54.995 9.627024
55.000 10.113185
55.005 10.202823
55.010 10.026834
55.015 10.246415
55.020 9.949286
55.025 10.313347
55.030 10.402186
55.035 10.335449
55.040 10.61933
55.045 11.417591
55.050 11.76487
55.055 12.107507
55.060 12.154295
55.065 12.011192
55.070 11.808384
55.075 11.461231
55.080 11.037097
55.085 10.53688
55.090 10.655625
55.095 10.4341
55.100 10.459419
55.105 10.562709
55.110 10.754594
55.115 10.829927
55.120 11.247436
55.125 11.167301
55.130 11.155807
55.135 11.14901
55.140 11.318655
55.145 11.362327
55.150 11.598558
55.155 11.160762
55.160 11.07104
55.165 11.480847
55.170 11.536598
55.175 11.388321
55.180 11.288448
55.185 10.996406
55.190 11.023309
55.195 10.766537
55.200 10.317038
55.205 10.719567
55.210 11.061013
55.215 10.826463
55.220 10.860607
55.225 10.975451
55.230 11.010046
55.235 11.160377
55.240 10.754181
55.245 10.498809
55.250 10.357409
55.255 10.652409
55.260 11.005195
55.265 11.114313
55.270 11.076291
55.275 11.331562
55.280 11.75305
55.285 12.014906
55.290 11.763698
55.295 11.57076
55.300 11.796617
55.305 11.880574
55.310 11.743516
55.315 11.815804
55.320 11.924517
55.325 12.2702
55.330 12.145895
55.335 12.287825
55.340 12.187134
55.345 12.755493
55.350 13.0962
55.355 12.753164
55.360 12.44988
55.365 12.868478
55.370 12.744423
55.375 12.329637
55.380 11.659234
55.385 11.149179
55.390 11.430726
55.395 11.452634
55.400 11.347303
55.405 11.335394
55.410 11.30948
55.415 11.586062
55.420 11.988962
55.425 11.638573
55.430 11.534695
55.435 11.430626
55.440 11.330982
55.445 11.239614
55.450 11.000582
55.455 10.936934
55.460 11.39574
55.465 11.613122
55.470 11.678973
55.475 11.838263
55.480 12.344589
55.485 12.134581
55.490 12.392204
55.495 12.263159
55.500 12.16232
55.505 12.206754
55.510 12.108377
55.515 12.411537
55.520 12.503767
55.525 12.468864
55.530 12.11033
55.535 11.941686
55.540 11.77089
55.545 11.531681
55.550 11.285073
55.555 11.250865
55.560 11.403984
55.565 11.90118
55.570 12.2783
55.575 12.731195
55.580 12.789942
55.585 12.492571
55.590 12.287875
55.595 11.774968
55.600 11.137478
55.605 10.907389
55.610 11.381694
55.615 11.711786
55.620 11.902379
55.625 11.527336
55.630 11.279051
55.635 11.507115
55.640 10.986851
55.645 10.437869
55.650 10.008045
55.655 9.544107
55.660 9.763015
55.665 9.982396
55.670 10.043523
55.675 9.849795
55.680 9.465416
55.685 9.810893
55.690 10.489732
55.695 10.778056
55.700 10.699429
55.705 10.94091
55.710 11.358585
55.715 11.620625
55.720 11.309268
55.725 11.129638
55.730 11.126705
55.735 11.500489
55.740 11.741133
55.745 11.645099
55.750 11.589686
55.755 11.624966
55.760 11.597271
55.765 11.818665
55.770 11.590858
55.775 11.066661
55.780 11.548368
55.785 12.069354
55.790 11.996137
55.795 11.829597
55.800 11.934563
55.805 12.294759
55.810 12.260076
55.815 11.736026
55.820 11.467811
55.825 11.980058
55.830 12.005793
55.835 12.169475
55.840 12.042908
55.845 12.034246
55.850 11.879843
55.855 11.698767
55.860 11.432068
55.865 11.415595
55.870 10.843087
55.875 10.739042
55.880 11.564389
55.885 11.688981
55.890 11.623313
55.895 11.852964
55.900 11.690622
55.905 11.603951
55.910 11.841377
55.915 11.608712
55.920 11.760433
55.925 11.983231
55.930 11.515068
55.935 11.862618
55.940 12.487247
55.945 12.498992
55.950 12.4659
55.955 12.589206
55.960 12.337792
55.965 12.647564
55.970 12.2703
55.975 12.308469
55.980 11.94624
55.985 11.761008
55.990 12.083284
55.995 12.403973
56.000 12.614213
56.005 12.679491
56.010 12.558245
56.015 12.863585
56.020 12.312392
56.025 11.890256
56.030 12.068737
56.035 11.878455
56.040 12.111671
56.045 12.441552
56.050 12.46058
56.055 13.076749
56.060 12.968783
56.065 12.892994
56.070 13.138118
56.075 12.696784
56.080 12.18308
56.085 12.177109
56.090 11.82099
56.095 12.056043
56.100 11.73404
56.105 11.431324
56.110 11.719869
56.115 11.764605
56.120 11.724303
56.125 12.02919
56.130 11.680396
56.135 11.769052
56.140 11.776456
56.145 12.211554
56.150 11.960011
56.155 12.328374
56.160 12.569094
56.165 13.180268
56.170 13.420498
56.175 13.802008
56.180 13.478248
56.185 13.749033
56.190 13.805674
56.195 13.505707
56.200 13.646813
56.205 13.605463
56.210 13.149679
56.215 13.568354
56.220 13.832535
56.225 13.846311
56.230 13.493196
56.235 13.677518
56.240 13.86231
56.245 13.992442
56.250 13.454927
56.255 12.945421
56.260 12.42756
56.265 12.38685
56.270 12.098346
56.275 12.503463
56.280 12.565945
56.285 12.427768
56.290 13.055259
56.295 13.479033
56.300 13.72016
56.305 14.049707
56.310 13.783721
56.315 13.759731
56.320 13.275547
56.325 13.173236
56.330 12.927889
56.335 12.960189
56.340 12.418879
56.345 12.253727
56.350 12.611876
56.355 13.01923
56.360 12.883866
56.365 12.878223
56.370 12.428509
56.375 12.506889
56.380 12.221117
56.385 12.069321
56.390 12.096149
56.395 12.189595
56.400 12.4053
56.405 12.710176
56.410 12.947889
56.415 12.897249
56.420 13.02281
56.425 13.14772
56.430 13.509833
56.435 13.409656
56.440 13.262125
56.445 13.273593
56.450 13.144263
56.455 12.580525
56.460 12.697933
56.465 12.641622
56.470 12.358892
56.475 11.76463
56.480 11.699941
56.485 11.931915
56.490 12.282196
56.495 11.432831
56.500 11.437794
56.505 12.076983
56.510 12.489628
56.515 12.664919
56.520 12.840024
56.525 12.917334
56.530 13.369958
56.535 12.758652
56.540 12.665115
56.545 12.681995
56.550 12.643419
56.555 12.638864
56.560 12.751838
56.565 12.464699
56.570 13.250677
56.575 13.332889
56.580 13.393426
56.585 13.49091
56.590 13.68833
56.595 13.653597
56.600 14.015235
56.605 13.736789
56.610 13.24726
56.615 13.04372
56.620 12.570737
56.625 12.221479
56.630 12.231094
56.635 12.320238
56.640 11.926261
56.645 11.766881
56.650 11.734782
56.655 12.234978
56.660 12.769756
56.665 12.734988
56.670 12.698003
56.675 13.461921
56.680 13.689348
56.685 13.755942
56.690 13.498076
56.695 13.65647
56.700 14.168647
56.705 14.351768
56.710 14.201028
56.715 14.536526
56.720 14.678647
56.725 14.826554
56.730 14.203723
56.735 13.670524
56.740 13.478846
56.745 13.247119
56.750 13.20029
56.755 12.852551
56.760 12.708715
56.765 12.680772
56.770 12.504897
56.775 12.167323
56.780 12.44145
56.785 12.564585
56.790 12.41616
56.795 12.219447
56.800 11.882058
56.805 12.05174
56.810 11.978236
56.815 11.642821
56.820 11.337136
56.825 11.755257
56.830 11.761078
56.835 12.843315
56.840 13.273205
56.845 13.76879
56.850 13.948372
56.855 14.278489
56.860 14.152062
56.865 14.592196
56.870 14.224139
56.875 13.93581
56.880 13.705241
56.885 13.497084
56.890 13.10019
56.895 12.615989
56.900 12.654078
56.905 12.846488
56.910 12.818123
56.915 12.832724
56.920 13.482306
56.925 13.664336
56.930 13.724733
56.935 13.253626
56.940 13.213443
56.945 13.365244
56.950 13.477773
56.955 13.147867
56.960 13.628467
56.965 13.466757
56.970 13.505774
56.975 13.725546
56.980 13.339948
56.985 13.427559
56.990 13.290675
56.995 13.541876
57.000 14.221514
57.005 14.737083
57.010 14.144758
57.015 14.549856
57.020 14.340959
57.025 14.184196
57.030 13.585409
57.035 13.016617
57.040 12.282099
57.045 12.206955
57.050 12.113628
57.055 11.984204
57.060 12.216327
57.065 12.380285
57.070 12.822014
57.075 12.862056
57.080 12.592925
57.085 12.720802
57.090 13.026127
57.095 12.947114
57.100 12.700915
57.105 12.373725
57.110 12.443924
57.115 12.907362
57.120 12.557878
57.125 12.222845
57.130 12.146791
57.135 12.158691
57.140 12.100922
57.145 12.406726
57.150 12.196908
57.155 12.558243
57.160 13.098544
57.165 13.298973
57.170 13.53662
57.175 13.500518
57.180 13.216963
57.185 13.296501
57.190 13.284956
57.195 13.622797
57.200 13.829278
57.205 14.243699
57.210 14.751973
57.215 15.438483
57.220 15.494528
57.225 15.122933
57.230 14.759255
57.235 14.837865
57.240 14.978436
57.245 14.913425
57.250 14.546564
57.255 14.900763
57.260 14.888951
57.265 14.198522
57.270 13.641483
57.275 12.870139
57.280 13.16883
57.285 13.557843
57.290 13.549026
57.295 13.76085
57.300 13.977006
57.305 14.353707
57.310 14.791458
57.315 14.906702
57.320 14.71176
57.325 14.332584
57.330 14.371146
57.335 14.679075
57.340 14.325641
57.345 13.989564
57.350 13.666967
57.355 13.44314
57.360 14.023145
57.365 14.315252
57.370 14.170336
57.375 14.483966
57.380 14.317609
57.385 14.292654
57.390 14.080856
57.395 13.625324
57.400 13.754287
57.405 13.811211
57.410 13.260702
57.415 13.005609
57.420 12.863256
57.425 13.471665
57.430 13.202264
57.435 13.387774
57.440 13.880946
57.445 14.200624
57.450 14.444931
57.455 14.171109
57.460 14.179173
57.465 14.401259
57.470 13.79915
57.475 13.726714
57.480 14.022107
57.485 14.245534
57.490 14.65298
57.495 14.651448
57.500 14.64535
57.505 14.926689
57.510 14.298399
57.515 14.296274
57.520 14.325336
57.525 14.750002
57.530 14.369125
57.535 14.006497
57.540 13.980658
57.545 14.529277
57.550 14.624022
57.555 14.431331
57.560 14.099187
57.565 14.396872
57.570 14.747174
57.575 14.522949
57.580 14.354374
57.585 14.402161
57.590 14.459112
57.595 14.473443
57.600 14.51258
57.605 14.9218
57.610 15.343891
57.615 15.349114
57.620 15.019557
57.625 14.725766
57.630 14.272249
57.635 14.184547
57.640 13.705138
57.645 13.335447
57.650 13.408799
57.655 13.762205
57.660 13.97122
57.665 14.24793
57.670 14.00453
57.675 14.071173
57.680 13.868214
57.685 13.588361
57.690 13.185736
57.695 13.13693
57.700 13.351984
57.705 13.468145
57.710 13.222672
57.715 13.473727
57.720 13.715418
57.725 14.425343
57.730 14.877694
57.735 14.632713
57.740 14.840299
57.745 15.311983
57.750 15.54003
57.755 15.152258
57.760 14.666746
57.765 14.54905
57.770 14.640549
57.775 14.495778
57.780 14.114945
57.785 13.901831
57.790 13.876636
57.795 13.715795
57.800 13.615483
57.805 13.546243
57.810 13.31223
57.815 13.425288
57.820 13.475686
57.825 14.19136
57.830 14.120547
57.835 13.54063
57.840 13.266943
57.845 13.117044
57.850 13.252089
57.855 13.191952
57.860 12.676243
57.865 13.108584
57.870 13.8182
57.875 14.197101
57.880 14.615208
57.885 14.030224
57.890 13.509101
57.895 13.408066
57.900 13.052518
57.905 12.239849
57.910 11.754758
57.915 11.610296
57.920 12.458907
57.925 13.164467
57.930 13.693368
57.935 14.15449
57.940 14.502213
57.945 14.953771
57.950 15.195037
57.955 14.825983
57.960 14.428249
57.965 14.277575
57.970 14.361873
57.975 14.433842
57.980 14.512496
57.985 14.222174
57.990 14.71348
57.995 14.712948
58.000 13.986394
58.005 13.76182
58.010 13.960888
58.015 14.030847
58.020 13.75526
58.025 13.293656
58.030 13.543436
58.035 14.134219
58.040 14.110865
58.045 13.5531
58.050 13.404037
58.055 13.85215
58.060 13.937131
58.065 13.430373
58.070 13.636835
58.075 14.36417
58.080 14.392751
58.085 14.528643
58.090 14.16517
58.095 14.389179
58.100 14.801293
58.105 14.73724
58.110 14.389651
58.115 14.814568
58.120 14.903392
58.125 15.259795
58.130 14.692716
58.135 14.694658
58.140 14.929943
58.145 15.451645
58.150 15.030652
58.155 14.582167
58.160 14.388724
58.165 15.014489
58.170 15.281805
58.175 15.014835
58.180 14.382019
58.185 14.706353
58.190 15.149299
58.195 15.236822
58.200 14.971071
58.205 14.606692
58.210 14.677671
58.215 15.200894
58.220 15.223825
58.225 15.236392
58.230 15.429952
58.235 15.502341
58.240 15.290001
58.245 15.091467
58.250 15.032907
58.255 14.673436
58.260 14.338603
58.265 13.905295
58.270 13.952841
58.275 14.240183
58.280 13.966556
58.285 14.175447
58.290 14.050014
58.295 13.678988
58.300 13.5256
58.305 13.703272
58.310 13.594554
58.315 13.316504
58.320 13.183494
58.325 13.659672
58.330 14.62613
58.335 15.129821
58.340 14.72098
58.345 14.869955
58.350 15.014933
58.355 14.450862
58.360 14.249591
58.365 13.7227
58.370 13.521152
58.375 13.69337
58.380 13.830028
58.385 13.96494
58.390 14.407367
58.395 14.243361
58.400 13.936857
58.405 13.819992
58.410 13.671959
58.415 13.39139
58.420 13.261814
58.425 13.448901
58.430 13.747408
58.435 14.028795
58.440 14.116
58.445 14.513848
58.450 14.880111
58.455 14.92845
58.460 14.574768
58.465 14.184774
58.470 13.939437
58.475 13.974497
58.480 13.5435
58.485 13.368018
58.490 13.611126
58.495 14.024998
58.500 14.735373
58.505 15.227565
58.510 15.322384
58.515 15.243387
58.520 15.063997
58.525 15.022254
58.530 15.372806
58.535 15.351037
58.540 14.944407
58.545 14.369925
58.550 14.290768
58.555 14.371728
58.560 14.29506
58.565 13.605945
58.570 13.313807
58.575 14.009349
58.580 14.412689
58.585 14.542361
58.590 14.553063
58.595 14.829354
58.600 15.445495
58.605 15.910195
58.610 16.071947
58.615 15.691088
58.620 15.464962
58.625 15.289866
58.630 15.168812
58.635 15.009708
58.640 14.162099
58.645 14.013643
58.650 14.46002
58.655 14.928062
58.660 15.560483
58.665 15.690661
58.670 15.822627
58.675 16.629269
58.680 17.007452
58.685 17.306152
58.690 17.228594
58.695 16.724516
58.700 16.183319
58.705 15.804949
58.710 15.105124
58.715 14.622746
58.720 14.101665
58.725 13.699075
58.730 13.39342
58.735 13.397445
58.740 13.486795
58.745 14.045877
58.750 14.423313
58.755 14.810764
58.760 15.067916
58.765 15.619003
58.770 16.349173
58.775 16.203981
58.780 15.83478
58.785 15.543042
58.790 15.314888
58.795 15.496765
58.800 14.970582
58.805 14.775707
58.810 14.729985
58.815 14.678424
58.820 14.787263
58.825 15.329962
58.830 15.495023
58.835 15.311626
58.840 15.153106
58.845 15.473326
58.850 15.364446
58.855 15.341568
58.860 14.821115
58.865 14.450945
58.870 13.947663
58.875 13.981289
58.880 14.003036
58.885 13.646924
58.890 13.904609
58.895 14.10119
58.900 14.210482
58.905 15.048247
58.910 15.472008
58.915 15.453421
58.920 15.806529
58.925 16.071463
58.930 16.596243
58.935 16.875183
58.940 16.352196
58.945 16.391621
58.950 16.465178
58.955 16.172945
58.960 16.064365
58.965 16.027643
58.970 15.94834
58.975 15.854712
58.980 15.144964
58.985 15.506007
58.990 15.863138
58.995 15.335227
59.000 15.238349
59.005 15.611852
59.010 16.073172
59.015 15.92678
59.020 15.731648
59.025 15.635917
59.030 15.391069
59.035 14.927632
59.040 15.096593
59.045 15.130925
59.050 15.425183
59.055 15.070758
59.060 15.316886
59.065 15.870085
59.070 16.073814
59.075 15.218861
59.080 15.518205
59.085 15.294915
59.090 15.736669
59.095 15.565924
59.100 15.161194
59.105 15.099581
59.110 15.276045
59.115 14.721204
59.120 14.533901
59.125 14.352715
59.130 14.544131
59.135 14.581617
59.140 14.6052
59.145 14.773626
59.150 15.066194
59.155 15.131839
59.160 15.085901
59.165 15.161094
59.170 15.704121
59.175 15.833597
59.180 16.033222
59.185 16.339151
59.190 17.10984
59.195 17.018396
59.200 16.816217
59.205 16.741943
59.210 16.428085
59.215 16.567947
59.220 16.264355
59.225 15.685126
59.230 15.55396
59.235 15.597241
59.240 15.628611
59.245 15.868392
59.250 15.634011
59.255 15.716074
59.260 16.211996
59.265 16.407784
59.270 16.214298
59.275 16.216007
59.280 16.518068
59.285 17.134979
59.290 17.695602
59.295 17.906298
59.300 17.34783
59.305 17.057577
59.310 16.376375
59.315 16.087624
59.320 15.515032
59.325 15.203619
59.330 15.040399
59.335 15.672278
59.340 16.510321
59.345 16.843935
59.350 16.375868
59.355 15.909142
59.360 15.709493
59.365 15.467385
59.370 15.56688
59.375 15.472931
59.380 16.008579
59.385 16.788767
59.390 17.677889
59.395 17.583242
59.400 17.597858
59.405 17.363939
59.410 17.06217
59.415 16.670446
59.420 16.512457
59.425 16.584749
59.430 16.678453
59.435 16.556576
59.440 16.473097
59.445 16.535744
59.450 16.895847
59.455 17.009338
59.460 16.821127
59.465 16.82729
59.470 16.670248
59.475 16.418678
59.480 16.524
59.485 16.158113
59.490 15.76056
59.495 15.798876
59.500 16.096426
59.505 16.059546
59.510 16.558256
59.515 16.575272
59.520 16.787104
59.525 16.917311
59.530 16.423464
59.535 15.690511
59.540 15.831089
59.545 16.465845
59.550 16.687502
59.555 16.329981
59.560 15.963241
59.565 16.625338
59.570 17.340771
59.575 17.515484
59.580 16.695471
59.585 15.983538
59.590 16.304808
59.595 15.995481
59.600 15.662066
59.605 15.805623
59.610 15.902904
59.615 16.39958
59.620 16.558273
59.625 17.00441
59.630 17.238926
59.635 17.045767
59.640 17.092802
59.645 17.028015
59.650 17.558674
59.655 17.846115
59.660 17.3957
59.665 17.538422
59.670 17.937439
59.675 18.266773
59.680 17.820944
59.685 16.943739
59.690 17.161652
59.695 18.392548
59.700 19.527203
59.705 19.674381
59.710 19.154608
59.715 18.8741
59.720 18.816746
59.725 19.003969
59.730 18.555719
59.735 17.587271
59.740 17.245584
59.745 17.997564
59.750 18.258085
59.755 18.648283
59.760 18.10631
59.765 18.02829
59.770 18.322685
59.775 18.348858
59.780 18.485245
59.785 18.73864
59.790 18.721827
59.795 19.031599
59.800 18.995407
59.805 19.601437
59.810 19.62818
59.815 19.996653
59.820 19.622337
59.825 18.913109
59.830 18.750673
59.835 18.390858
59.840 17.509846
59.845 17.278309
59.850 16.301268
59.855 16.336256
59.860 17.204409
59.865 17.373199
59.870 17.893593
59.875 17.880293
59.880 18.373962
59.885 18.3151
59.890 18.945484
59.895 18.998669
59.900 19.127731
59.905 19.03793
59.910 19.238884
59.915 19.037699
59.920 19.697908
59.925 18.95327
59.930 18.694223
59.935 18.557169
59.940 18.408356
59.945 18.465679
59.950 18.324057
59.955 18.513651
59.960 19.417797
59.965 20.053082
59.970 20.534235
59.975 20.707556
59.980 20.33893
59.985 20.366182
59.990 19.995815
59.995 18.977318
60.000 18.200689
60.005 17.607931
60.010 17.700886
60.015 17.458569
60.020 17.591394
60.025 18.247482
60.030 18.952791
60.035 19.34441
60.040 19.315681
60.045 19.474646
60.050 20.498594
60.055 20.439205
60.060 20.40003
60.065 19.858688
60.070 19.536402
60.075 19.696909
60.080 19.490282
60.085 19.335211
60.090 18.846191
60.095 18.601738
60.100 18.883076
60.105 19.684866
60.110 19.577293
60.115 19.218243
60.120 19.170528
60.125 19.943314
60.130 20.539957
60.135 20.74519
60.140 20.319748
60.145 20.410667
60.150 21.073185
60.155 22.156321
60.160 21.549864
60.165 21.21143
60.170 21.483387
60.175 21.202839
60.180 21.423151
60.185 20.86146
60.190 19.569063
60.195 19.807343
60.200 19.768108
60.205 19.65324
60.210 19.938875
60.215 20.183243
60.220 20.225033
60.225 20.783129
60.230 21.791674
60.235 22.309641
60.240 22.271799
60.245 21.903505
60.250 21.57568
60.255 21.800549
60.260 21.634687
60.265 21.035152
60.270 20.538311
60.275 20.169575
60.280 20.482319
60.285 20.770679
60.290 21.57094
60.295 21.223227
60.300 21.01926
60.305 21.093769
60.310 21.013269
60.315 20.8881
60.320 20.964016
60.325 20.327234
60.330 20.201138
60.335 19.696196
60.340 19.781244
60.345 20.136868
60.350 20.174587
60.355 19.725031
60.360 19.286797
60.365 19.686148
60.370 20.519739
60.375 20.741482
60.380 20.870104
60.385 20.64986
60.390 20.760046
60.395 21.707384
60.400 21.759884
60.405 21.584021
60.410 21.624464
60.415 21.465263
60.420 21.390753
60.425 21.720284
60.430 21.352173
60.435 21.259882
60.440 20.675871
60.445 20.874653
60.450 20.676147
60.455 20.375933
60.460 19.826128
60.465 19.724075
60.470 19.541925
60.475 19.976765
60.480 19.602806
60.485 19.672615
60.490 20.153696
60.495 20.119022
60.500 20.372271
60.505 20.071007
60.510 19.593113
60.515 19.853142
60.520 19.771349
60.525 19.427933
60.530 19.633873
60.535 19.471565
60.540 19.649218
60.545 19.830942
60.550 20.167622
60.555 20.951004
60.560 20.591051
60.565 20.448374
60.570 20.249706
60.575 20.407343
60.580 20.37616
60.585 20.000843
60.590 19.506079
60.595 19.762127
60.600 19.740459
60.605 19.655249
60.610 19.282
60.615 19.761906
60.620 19.323748
60.625 19.074507
60.630 19.437719
60.635 19.495426
60.640 18.86754
60.645 19.137194
60.650 18.531895
60.655 18.258381
60.660 18.333813
60.665 18.485104
60.670 19.084045
60.675 20.423616
60.680 20.362675
60.685 20.497036
60.690 20.375483
60.695 20.044134
60.700 19.646694
60.705 19.751375
60.710 19.627403
60.715 19.909575
60.720 19.405575
60.725 19.737978
60.730 19.83391
60.735 19.539133
60.740 18.256544
60.745 17.88843
60.750 17.729273
60.755 17.867634
60.760 18.267181
60.765 18.728676
60.770 18.84186
60.775 18.570271
60.780 18.182655
60.785 17.737104
60.790 17.655169
60.795 17.375034
60.800 16.924004
60.805 17.157524
60.810 17.606527
60.815 18.22401
60.820 18.56374
60.825 18.555325
60.830 18.729763
60.835 18.711321
60.840 18.452621
60.845 18.349024
60.850 18.050957
60.855 17.995716
60.860 17.972589
60.865 17.699312
60.870 17.800077
60.875 17.569792
60.880 16.975294
60.885 16.514917
60.890 16.502451
60.895 16.886724
60.900 17.368898
60.905 17.559158
60.910 17.915657
60.915 18.463276
60.920 19.024946
60.925 19.376287
60.930 19.368753
60.935 19.511749
60.940 19.600019
60.945 18.884516
60.950 18.769598
60.955 18.183355
60.960 18.111029
60.965 18.150936
60.970 17.324545
60.975 17.132515
60.980 17.182215
60.985 16.949512
60.990 17.191809
60.995 17.012789
61.000 17.259172
61.005 17.4897
61.010 17.687843
61.015 18.546959
61.020 19.103886
61.025 19.706568
61.030 19.442204
61.035 18.67177
61.040 18.632095
61.045 18.709026
61.050 18.532782
61.055 18.248205
61.060 18.203732
61.065 18.959923
61.070 19.724966
61.075 19.489321
61.080 19.412062
61.085 19.062925
61.090 18.965664
61.095 18.483252
61.100 17.983507
61.105 17.630007
61.110 17.741404
61.115 17.702929
61.120 17.734528
61.125 17.187607
61.130 17.205765
61.135 17.165842
61.140 16.949036
61.145 16.719486
61.150 16.483551
61.155 16.42581
61.160 16.524158
61.165 15.957638
61.170 15.904923
61.175 15.75223
61.180 15.799422
61.185 15.949249
61.190 16.328375
61.195 16.902212
61.200 17.357355
61.205 17.542448
61.210 18.271971
61.215 18.773859
61.220 18.27412
61.225 18.261566
61.230 17.810123
61.235 17.589731
61.240 17.624136
61.245 17.211168
61.250 17.064636
61.255 17.617313
61.260 18.007446
61.265 18.084042
61.270 18.012774
61.275 17.926817
61.280 18.363092
61.285 18.431425
61.290 18.14892
61.295 17.559641
61.300 17.433851
61.305 17.345221
61.310 17.203724
61.315 17.047739
61.320 17.018883
61.325 17.105532
61.330 17.512672
61.335 17.648287
61.340 17.509945
61.345 17.376867
61.350 17.236912
61.355 17.032267
61.360 17.165022
61.365 16.836998
61.370 16.638556
61.375 16.763653
61.380 17.236418
61.385 17.040554
61.390 16.902966
61.395 16.825731
61.400 16.536995
61.405 16.976233
61.410 16.939234
61.415 16.513533
61.420 16.625593
61.425 17.006208
61.430 17.12348
61.435 17.205366
61.440 17.020004
61.445 17.308825
61.450 17.387152
61.455 17.351662
61.460 16.951443
61.465 16.801785
61.470 17.238251
61.475 17.628922
61.480 17.59697
61.485 17.443329
61.490 17.316883
61.495 17.666695
61.500 17.662846
61.505 17.428146
61.510 16.842485
61.515 16.410774
61.520 16.30159
61.525 16.519583
61.530 16.13397
61.535 15.910097
61.540 15.540284
61.545 16.016752
61.550 16.525087
61.555 16.434896
61.560 16.4911
61.565 16.772417
61.570 17.231682
61.575 17.647766
61.580 17.197496
61.585 17.163788
61.590 17.545847
61.595 17.51656
61.600 17.080832
61.605 16.841291
61.610 16.747377
61.615 16.388155
61.620 16.304459
61.625 16.061989
61.630 16.533627
61.635 17.411724
61.640 17.58218
61.645 18.244566
61.650 18.79789
61.655 18.493584
61.660 18.35741
61.665 17.558186
61.670 16.959223
61.675 16.813038
61.680 16.638552
61.685 16.363581
61.690 16.199837
61.695 16.09923
61.700 16.670595
61.705 16.764938
61.710 16.715132
61.715 16.610804
61.720 17.099298
61.725 16.835543
61.730 16.706753
61.735 16.469751
61.740 16.264425
61.745 16.100407
61.750 15.669749
61.755 15.263169
61.760 15.696369
61.765 15.61863
61.770 15.834015
61.775 16.200529
61.780 15.856878
61.785 15.85823
61.790 16.84058
61.795 17.756924
61.800 18.719324
61.805 18.47963
61.810 18.761278
61.815 19.305336
61.820 19.078966
61.825 18.250731
61.830 17.775187
61.835 17.534319
61.840 17.66226
61.845 17.233761
61.850 16.365707
61.855 16.499407
61.860 16.816315
61.865 16.463041
61.870 16.347729
61.875 15.987541
61.880 16.352127
61.885 17.186401
61.890 17.363808
61.895 17.438538
61.900 17.758453
61.905 17.359329
61.910 17.455528
61.915 17.397064
61.920 17.628529
61.925 18.142094
61.930 17.878811
61.935 17.720015
61.940 17.948881
61.945 18.324194
61.950 18.2397
61.955 17.932112
61.960 17.885801
61.965 18.224678
61.970 18.225924
61.975 18.259876
61.980 17.867474
61.985 17.503548
61.990 17.0812
61.995 16.267956
62.000 16.129946
62.005 16.317972
62.010 15.912441
62.015 16.104277
62.020 16.734743
62.025 17.142706
62.030 17.496538
62.035 16.924515
62.040 16.925627
62.045 17.20495
62.050 16.89098
62.055 17.095486
62.060 17.045294
62.065 17.050226
62.070 17.668461
62.075 17.471159
62.080 17.633619
62.085 17.590067
62.090 17.356695
62.095 17.270681
62.100 16.548044
62.105 16.078924
62.110 16.106567
62.115 16.101669
62.120 16.211239
62.125 16.060886
62.130 15.856092
62.135 16.51894
62.140 16.759567
62.145 16.363413
62.150 16.337332
62.155 16.528381
62.160 16.78595
62.165 17.06497
62.170 16.574142
62.175 16.080942
62.180 16.215643
62.185 16.51062
62.190 16.569254
62.195 16.435499
62.200 16.386631
62.205 16.625114
62.210 17.474331
62.215 17.456196
62.220 16.610973
62.225 16.013071
62.230 15.876392
62.235 15.869267
62.240 16.20854
62.245 16.287682
62.250 16.589365
62.255 17.14432
62.260 16.815687
62.265 16.444477
62.270 16.264431
62.275 15.914815
62.280 15.673244
62.285 15.565972
62.290 15.399825
62.295 15.972688
62.300 16.18784
62.305 16.296362
62.310 15.583234
62.315 15.337114
62.320 15.190511
62.325 15.218011
62.330 14.898813
62.335 15.321549
62.340 15.718767
62.345 16.131054
62.350 16.06974
62.355 16.453032
62.360 17.118832
62.365 17.968649
62.370 17.772543
62.375 18.15728
62.380 18.844084
62.385 19.282064
62.390 18.977308
62.395 18.885048
62.400 18.695978
62.405 18.863735
62.410 18.619959
62.415 18.311087
62.420 18.20155
62.425 18.190632
62.430 17.854816
62.435 17.445286
62.440 17.213814
62.445 17.587015
62.450 17.451271
62.455 17.259689
62.460 17.418512
62.465 17.646904
62.470 18.402914
62.475 18.420547
62.480 17.814072
62.485 17.369385
62.490 17.092178
62.495 16.687248
62.500 16.342472
62.505 15.444558
62.510 14.842249
62.515 14.702783
62.520 15.18839
62.525 15.539248
62.530 16.029205
62.535 15.623627
62.540 16.087757
62.545 16.287807
62.550 16.413067
62.555 16.836845
62.560 17.018808
62.565 16.615725
62.570 16.826649
62.575 16.976263
62.580 17.365044
62.585 17.522171
62.590 16.988573
62.595 16.58683
62.600 16.678179
62.605 16.860462
62.610 16.767235
62.615 16.844748
62.620 16.83415
62.625 17.011444
62.630 17.244833
62.635 17.52211
62.640 17.389759
62.645 16.831394
62.650 16.732021
62.655 16.01951
62.660 15.863854
62.665 15.801733
62.670 16.182587
62.675 16.448776
62.680 16.545938
62.685 16.113771
62.690 16.551258
62.695 17.446987
62.700 17.176437
62.705 16.717815
62.710 16.587814
62.715 17.356401
62.720 17.585596
62.725 18.46987
62.730 18.43145
62.735 18.723116
62.740 19.043922
62.745 19.701645
62.750 19.87686
62.755 19.913157
62.760 19.031269
62.765 18.407049
62.770 18.202778
62.775 18.047104
62.780 17.665251
62.785 17.616163
62.790 17.692726
62.795 17.925198
62.800 18.431818
62.805 18.753424
62.810 18.63345
62.815 17.962675
62.820 17.541325
62.825 17.404274
62.830 17.438059
62.835 17.037439
62.840 16.915703
62.845 16.518253
62.850 17.102217
62.855 17.597479
62.860 17.138733
62.865 16.507151
62.870 16.495312
62.875 16.454292
62.880 16.598108
62.885 16.210058
62.890 15.904586
62.895 16.105083
62.900 16.210182
62.905 16.141449
62.910 16.264132
62.915 16.719522
62.920 17.223709
62.925 17.364523
62.930 17.407112
62.935 17.368603
62.940 17.520084
62.945 17.239855
62.950 16.711903
62.955 16.150808
62.960 15.819504
62.965 15.83104
62.970 15.820452
62.975 15.872911
62.980 16.545303
62.985 17.887806
62.990 19.0446
62.995 19.781347
63.000 20.004787
63.005 20.083822
63.010 19.495352
63.015 19.222565
63.020 18.564823
63.025 18.205929
63.030 17.824707
63.035 17.664831
63.040 17.195385
63.045 17.185873
63.050 17.06773
63.055 16.348055
63.060 15.756678
63.065 15.787288
63.070 15.940942
63.075 17.143198
63.080 17.96837
63.085 17.692995
63.090 18.154892
63.095 18.150257
63.100 18.503607
63.105 18.82338
63.110 17.968481
63.115 17.489811
63.120 17.44635
63.125 17.240664
63.130 17.386553
63.135 17.249199
63.140 17.336737
63.145 17.510614
63.150 17.439877
63.155 17.799877
63.160 18.102104
63.165 18.223749
63.170 18.255028
63.175 18.029125
63.180 18.409685
63.185 18.028927
63.190 17.400034
63.195 17.052628
63.200 16.767231
63.205 16.664213
63.210 17.01716
63.215 17.357462
63.220 17.79071
63.225 17.880871
63.230 17.892437
63.235 18.040781
63.240 18.044193
63.245 17.544262
63.250 17.445084
63.255 17.827209
63.260 18.418177
63.265 18.460379
63.270 18.317234
63.275 18.260015
63.280 18.35033
63.285 18.307188
63.290 18.324638
63.295 18.027208
63.300 17.961626
63.305 18.056913
63.310 18.11598
63.315 19.152481
63.320 19.036715
63.325 18.617748
63.330 18.227266
63.335 17.954445
63.340 17.852198
63.345 17.376022
63.350 16.534441
63.355 16.682161
63.360 17.45829
63.365 17.730474
63.370 17.960268
63.375 17.96483
63.380 18.296135
63.385 18.325207
63.390 18.122494
63.395 17.333273
63.400 17.051493
63.405 16.980894
63.410 16.883999
63.415 16.520573
63.420 16.131886
63.425 15.678963
63.430 16.674698
63.435 17.816675
63.440 18.189476
63.445 18.257965
63.450 18.539474
63.455 18.697109
63.460 18.924141
63.465 18.198513
63.470 18.03713
63.475 17.882401
63.480 18.127174
63.485 18.446779
63.490 18.651949
63.495 18.32519
63.500 18.24077
63.505 18.180143
63.510 18.092901
63.515 17.850325
63.520 17.150782
63.525 16.961094
63.530 17.163334
63.535 17.649769
63.540 17.91283
63.545 17.58728
63.550 17.364275
63.555 17.504236
63.560 17.667952
63.565 18.15831
63.570 18.035004
63.575 17.484184
63.580 17.556885
63.585 17.51301
63.590 17.610388
63.595 17.693661
63.600 17.01461
63.605 16.811197
63.610 16.480116
63.615 16.732357
63.620 17.593515
63.625 17.58997
63.630 18.000618
63.635 18.110506
63.640 18.423691
63.645 18.480928
63.650 18.309322
63.655 18.092485
63.660 18.247675
63.665 17.940144
63.670 18.028931
63.675 17.526644
63.680 18.063931
63.685 18.357738
63.690 17.818998
63.695 17.312292
63.700 16.93412
63.705 17.133587
63.710 17.18553
63.715 17.406281
63.720 17.30958
63.725 17.442099
63.730 17.925741
63.735 18.146912
63.740 18.445175
63.745 18.631042
63.750 18.132683
63.755 17.666645
63.760 17.247025
63.765 16.997686
63.770 16.75106
63.775 16.490337
63.780 16.631758
63.785 16.640535
63.790 17.174887
63.795 17.433559
63.800 16.921915
63.805 16.753571
63.810 16.5431
63.815 16.382063
63.820 16.405903
63.825 16.383789
63.830 17.056013
63.835 17.874903
63.840 18.337086
63.845 18.33452
63.850 18.511192
63.855 18.635197
63.860 18.231352
63.865 17.844992
63.870 17.356152
63.875 17.21006
63.880 17.131773
63.885 16.921589
63.890 16.951233
63.895 17.364985
63.900 17.67334
63.905 18.268538
63.910 17.531115
63.915 17.413256
63.920 17.297176
63.925 16.79822
63.930 16.821962
63.935 16.569044
63.940 16.046471
63.945 16.677578
63.950 17.249434
63.955 17.822002
63.960 18.686541
63.965 18.117254
63.970 17.849056
63.975 17.669127
63.980 17.823462
63.985 18.398136
63.990 18.376501
63.995 17.930576
64.000 18.239656
64.005 18.538359
64.010 19.080872
64.015 19.219904
64.020 18.819578
64.025 18.71121
64.030 18.588003
64.035 18.728075
64.040 18.45612
64.045 17.824736
64.050 17.426355
64.055 17.011017
64.060 17.312613
64.065 17.780809
64.070 18.245434
64.075 18.197119
64.080 18.304153
64.085 17.876793
64.090 17.94014
64.095 17.656521
64.100 17.416201
64.105 17.008055
64.110 17.779585
64.115 18.72847
64.120 19.722773
64.125 20.143051
64.130 20.113945
64.135 20.363829
64.140 20.162655
64.145 19.287474
64.150 18.620903
64.155 18.218077
64.160 17.578453
64.165 17.576559
64.170 17.835976
64.175 17.812408
64.180 17.65959
64.185 17.258764
64.190 16.925482
64.195 16.964048
64.200 17.158182
64.205 16.706886
64.210 16.4813
64.215 16.176151
64.220 16.168318
64.225 16.232119
64.230 16.894112
64.235 16.854429
64.240 16.657881
64.245 17.441788
64.250 17.971134
64.255 18.239431
64.260 17.824989
64.265 16.841824
64.270 16.292448
64.275 16.576624
64.280 16.273258
64.285 16.176086
64.290 16.151876
64.295 16.606194
64.300 17.381586
64.305 17.497665
64.310 17.331867
64.315 17.343109
64.320 17.400917
64.325 17.333941
64.330 17.568121
64.335 17.749901
64.340 18.033201
64.345 18.509731
64.350 19.083397
64.355 19.500629
64.360 19.48568
64.365 18.99579
64.370 18.642855
64.375 18.411654
64.380 18.769594
64.385 18.624866
64.390 18.747339
64.395 19.030588
64.400 18.909069
64.405 19.067894
64.410 18.982262
64.415 18.758018
64.420 18.49897
64.425 18.510172
64.430 18.809566
64.435 19.355873
64.440 19.807421
64.445 19.779274
64.450 19.726902
64.455 19.568272
64.460 19.716896
64.465 19.690865
64.470 19.514263
64.475 19.407518
64.480 19.489798
64.485 19.269459
64.490 19.325014
64.495 18.805243
64.500 18.896616
64.505 18.940161
64.510 18.602947
64.515 18.712967
64.520 18.860201
64.525 19.131718
64.530 19.531809
64.535 19.477802
64.540 19.143082
64.545 18.995274
64.550 18.701223
64.555 18.3979
64.560 17.891787
64.565 17.474915
64.570 17.049238
64.575 17.330704
64.580 17.221972
64.585 17.548458
64.590 17.687483
64.595 18.229422
64.600 18.57272
64.605 19.090828
64.610 18.600084
64.615 18.749962
64.620 18.730776
64.625 18.958302
64.630 18.772097
64.635 19.020599
64.640 19.49048
64.645 19.271326
64.650 18.870251
64.655 18.840313
64.660 18.86795
64.665 18.252054
64.670 17.582296
64.675 17.256777
64.680 17.893234
64.685 18.233335
64.690 18.173206
64.695 18.267899
64.700 19.074661
64.705 19.096546
64.710 19.102308
64.715 18.938692
64.720 19.115036
64.725 19.004908
64.730 19.361361
64.735 19.059017
64.740 19.110292
64.745 18.482958
64.750 18.337593
64.755 18.649649
64.760 18.692404
64.765 18.459305
64.770 18.952913
64.775 19.409088
64.780 19.862944
64.785 20.064743
64.790 19.791866
64.795 19.485044
64.800 19.397142
64.805 19.046392
64.810 18.870077
64.815 19.476402
64.820 19.850101
64.825 20.352354
64.830 20.895895
64.835 21.444744
64.840 22.017866
64.845 22.098291
64.850 21.311575
64.855 21.252111
64.860 20.743431
64.865 20.256052
64.870 19.50807
64.875 18.881802
64.880 19.601776
64.885 20.24345
64.890 20.199678
64.895 20.728678
64.900 21.102688
64.905 21.38295
64.910 21.524343
64.915 21.123417
64.920 20.858803
64.925 20.434881
64.930 20.107655
64.935 20.090525
64.940 20.497639
64.945 20.72629
64.950 20.36301
64.955 20.192026
64.960 20.233622
64.965 20.271156
64.970 20.24045
64.975 20.058992
64.980 19.697987
64.985 19.647736
64.990 20.20841
64.995 20.8829
65.000 20.922054
65.005 20.46092
65.010 20.423904
65.015 21.16287
65.020 22.334286
65.025 22.77215
65.030 22.270319
65.035 21.921162
65.040 22.081732
65.045 22.184454
65.050 21.80414
65.055 20.931753
65.060 20.62632
65.065 19.906378
65.070 20.300398
65.075 21.045578
65.080 21.15884
65.085 21.139297
65.090 21.738293
65.095 22.281088
65.100 23.388777
65.105 23.362707
65.110 22.708523
65.115 22.551609
65.120 23.228365
65.125 23.196815
65.130 22.928019
65.135 23.145369
65.140 22.576393
65.145 22.599968
65.150 22.838852
65.155 21.907646
65.160 21.767614
65.165 21.802437
65.170 21.424625
65.175 22.178474
65.180 22.175259
65.185 22.127394
65.190 22.382294
65.195 21.797482
65.200 20.945303
65.205 20.671484
65.210 20.36887
65.215 20.073925
65.220 19.977064
65.225 20.141411
65.230 20.03705
65.235 20.241587
65.240 20.577406
65.245 20.530079
65.250 20.575453
65.255 20.735176
65.260 20.636314
65.265 21.350454
65.270 21.301384
65.275 21.467527
65.280 21.707058
65.285 21.819368
65.290 22.003983
65.295 21.697399
65.300 21.557949
65.305 21.63533
65.310 21.596888
65.315 21.880852
65.320 22.21047
65.325 22.152836
65.330 22.370218
65.335 23.664421
65.340 24.466366
65.345 24.632799
65.350 24.585974
65.355 24.114092
65.360 24.248466
65.365 24.268393
65.370 23.56624
65.375 22.751284
65.380 22.111734
65.385 22.248707
65.390 22.384968
65.395 22.605038
65.400 22.42654
65.405 21.896132
65.410 22.27033
65.415 22.399345
65.420 22.103775
65.425 22.029621
65.430 21.28467
65.435 21.467104
65.440 22.118345
65.445 23.157282
65.450 23.507915
65.455 23.495493
65.460 23.379219
65.465 23.710611
65.470 24.028601
65.475 24.174778
65.480 24.199366
65.485 24.502832
65.490 25.040037
65.495 25.781542
65.500 26.42617
65.505 26.507114
65.510 26.0585
65.515 25.833656
65.520 26.450834
65.525 26.658802
65.530 26.614218
65.535 26.95076
65.540 27.519318
65.545 27.854284
65.550 27.812601
65.555 27.903009
65.560 28.360964
65.565 28.652885
65.570 28.388226
65.575 28.350073
65.580 29.641296
65.585 29.956501
65.590 29.636772
65.595 29.03491
65.600 29.154072
65.605 29.484306
65.610 29.261879
65.615 28.979912
65.620 28.902691
65.625 28.729414
65.630 29.160654
65.635 29.273932
65.640 30.031958
65.645 31.20142
65.650 31.014116
65.655 31.077459
65.660 31.803139
65.665 32.591232
65.670 33.326912
65.675 33.195602
65.680 32.739021
65.685 32.933079
65.690 33.661552
65.695 33.772297
65.700 33.517521
65.705 33.186981
65.710 33.23465
65.715 33.374733
65.720 33.942734
65.725 33.978756
65.730 34.090744
65.735 34.695038
65.740 34.937771
65.745 35.112263
65.750 35.611206
65.755 36.005627
65.760 36.642578
65.765 36.401024
65.770 35.736221
65.775 34.798069
65.780 35.061268
65.785 35.163807
65.790 34.953918
65.795 34.894039
65.800 35.30978
65.805 35.651463
65.810 36.412392
65.815 36.040241
65.820 35.758343
65.825 36.056007
65.830 35.708828
65.835 35.696857
65.840 36.255596
65.845 36.0354
65.850 36.077896
65.855 36.739708
65.860 36.866631
65.865 37.225765
65.870 37.311237
65.875 37.186237
65.880 37.095848
65.885 37.403454
65.890 37.423622
65.895 37.352909
65.900 38.208553
65.905 37.902218
65.910 37.469753
65.915 37.850922
65.920 37.977665
65.925 37.778721
65.930 37.348896
65.935 36.80014
65.940 37.173756
65.945 37.776737
65.950 37.888809
65.955 37.797733
65.960 37.813145
65.965 37.282337
65.970 37.731003
65.975 36.977036
65.980 36.403553
65.985 36.224682
65.990 35.809025
65.995 35.630516
66.000 35.022175
66.005 34.569359
66.010 34.609509
66.015 35.39003
66.020 35.23048
66.025 35.071167
66.030 35.558968
66.035 36.18248
66.040 35.729237
66.045 35.577271
66.050 35.192829
66.055 34.938084
66.060 34.959312
66.065 34.842049
66.070 35.387135
66.075 36.219631
66.080 36.451763
66.085 36.694118
66.090 36.869991
66.095 36.999886
66.100 36.671715
66.105 35.929565
66.110 35.945339
66.115 36.016163
66.120 36.000355
66.125 36.083344
66.130 36.021202
66.135 35.984669
66.140 35.95277
66.145 35.627132
66.150 35.217728
66.155 34.402882
66.160 34.0825
66.165 34.167782
66.170 34.465614
66.175 34.430977
66.180 34.225315
66.185 34.367275
66.190 34.527412
66.195 34.749565
66.200 34.452133
66.205 34.157177
66.210 33.893913
66.215 34.074631
66.220 34.018078
66.225 33.634987
66.230 32.996883
66.235 33.233326
66.240 33.484661
66.245 33.653576
66.250 33.210968
66.255 32.656769
66.260 33.136871
66.265 33.314568
66.270 32.193165
66.275 30.990076
66.280 30.785139
66.285 31.165247
66.290 31.79932
66.295 31.724541
66.300 31.629456
66.305 32.145916
66.310 33.109417
66.315 32.759731
66.320 32.284733
66.325 32.288864
66.330 32.039082
66.335 31.847605
66.340 31.405619
66.345 30.637966
66.350 30.593861
66.355 30.532774
66.360 30.146717
66.365 29.969902
66.370 29.632885
66.375 29.711233
66.380 29.934654
66.385 29.702467
66.390 29.164339
66.395 28.776176
66.400 28.582232
66.405 29.177631
66.410 28.604237
66.415 28.566818
66.420 28.423885
66.425 27.823059
66.430 28.133272
66.435 28.097605
66.440 27.315485
66.445 27.262413
66.450 26.933926
66.455 26.889532
66.460 27.007509
66.465 26.407528
66.470 26.66217
66.475 26.751963
66.480 27.029697
66.485 27.207342
66.490 28.346258
66.495 29.076668
66.500 29.023848
66.505 29.077812
66.510 29.253809
66.515 29.132406
66.520 28.618044
66.525 28.455145
66.530 27.888777
66.535 27.81325
66.540 27.56502
66.545 27.167494
66.550 26.602873
66.555 26.59897
66.560 26.249279
66.565 26.425808
66.570 26.866951
66.575 26.503117
66.580 26.699434
66.585 26.749344
66.590 26.693911
66.595 26.698572
66.600 26.41819
66.605 26.278748
66.610 26.080282
66.615 25.925781
66.620 26.385832
66.625 26.8727
66.630 26.815569
66.635 27.049788
66.640 27.343889
66.645 27.719376
66.650 26.881592
66.655 26.083334
66.660 25.671623
66.665 25.652401
66.670 25.064547
66.675 24.491905
66.680 24.216455
66.685 24.873453
66.690 25.062986
66.695 24.354872
66.700 24.394644
66.705 25.163521
66.710 25.442951
66.715 25.432144
66.720 25.916975
66.725 26.337055
66.730 26.360151
66.735 25.881104
66.740 25.388069
66.745 25.301737
66.750 25.073263
66.755 24.708412
66.760 24.996735
66.765 25.49402
66.770 25.539978
66.775 25.676701
66.780 25.510088
66.785 25.244339
66.790 24.398014
66.795 23.933971
66.800 23.393244
66.805 23.714315
66.810 23.479445
66.815 23.738604
66.820 24.438513
66.825 24.216967
66.830 23.933435
66.835 23.867292
66.840 24.01354
66.845 24.612864
66.850 23.909073
66.855 23.440466
66.860 23.501915
66.865 22.93519
66.870 22.733175
66.875 22.141096
66.880 22.166939
66.885 22.747475
66.890 22.870117
66.895 23.535973
66.900 24.529009
66.905 24.931084
66.910 24.42886
66.915 23.964247
66.920 23.951931
66.925 23.836428
66.930 23.473372
66.935 22.696167
66.940 22.949749
66.945 22.985336
66.950 22.260921
66.955 21.843258
66.960 22.018478
66.965 22.032915
66.970 22.01148
66.975 21.901335
66.980 22.643057
66.985 23.793575
66.990 23.769623
66.995 23.608374
67.000 23.650803
67.005 24.314537
67.010 24.908878
67.015 24.810041
67.020 24.524399
67.025 24.537889
67.030 24.647869
67.035 24.579304
67.040 24.002838
67.045 23.277159
67.050 22.877907
67.055 22.795919
67.060 23.32379
67.065 22.942953
67.070 22.784269
67.075 22.566481
67.080 22.517775
67.085 22.473272
67.090 22.144156
67.095 22.057262
67.100 22.811228
67.105 22.853441
67.110 22.775032
67.115 22.834763
67.120 23.399979
67.125 23.619709
67.130 22.972626
67.135 22.8437
67.140 23.05802
67.145 22.484924
67.150 22.393152
67.155 22.543882
67.160 22.929604
67.165 23.329905
67.170 22.781166
67.175 23.065197
67.180 23.474623
67.185 23.502014
67.190 23.090696
67.195 22.154739
67.200 22.024876
67.205 22.11573
67.210 21.748869
67.215 22.280802
67.220 22.406149
67.225 22.517834
67.230 22.857031
67.235 22.991144
67.240 23.459818
67.245 23.936138
67.250 24.324421
67.255 23.985704
67.260 23.683844
67.265 23.685587
67.270 23.827675
67.275 23.301409
67.280 22.376612
67.285 22.271517
67.290 22.428318
67.295 23.502728
67.300 23.47053
67.305 23.33073
67.310 23.310444
67.315 23.408159
67.320 23.554531
67.325 23.391434
67.330 22.665781
67.335 22.89481
67.340 22.681992
67.345 22.608231
67.350 22.023193
67.355 21.620369
67.360 21.694981
67.365 22.053843
67.370 22.390299
67.375 22.668695
67.380 23.157341
67.385 23.292048
67.390 22.734562
67.395 22.98295
67.400 22.997704
67.405 22.31004
67.410 21.860617
67.415 21.418589
67.420 21.90172
67.425 21.892502
67.430 21.333006
67.435 21.588596
67.440 21.954266
67.445 22.371422
67.450 22.363054
67.455 22.397068
67.460 22.47254
67.465 22.192844
67.470 21.922945
67.475 21.703617
67.480 21.661869
67.485 21.965408
67.490 21.748917
67.495 22.156157
67.500 22.586866
67.505 22.44688
67.510 22.376631
67.515 22.582273
67.520 22.890476
67.525 23.054714
67.530 22.428568
67.535 21.713951
67.540 21.423286
67.545 21.064684
67.550 20.545313
67.555 20.554731
67.560 20.228886
67.565 20.476336
67.570 21.280737
67.575 21.368151
67.580 21.70879
67.585 21.69186
67.590 21.27352
67.595 21.540115
67.600 21.234852
67.605 20.74601
67.610 21.401487
67.615 21.607307
67.620 21.535355
67.625 21.712147
67.630 21.628304
67.635 21.658649
67.640 21.708559
67.645 21.483086
67.650 21.872173
67.655 21.895529
67.660 22.10277
67.665 22.222551
67.670 22.304823
67.675 22.398857
67.680 22.045816
67.685 21.752035
67.690 21.900591
67.695 21.551096
67.700 21.285204
67.705 20.715675
67.710 20.175062
67.715 20.004793
67.720 19.701584
67.725 19.182009
67.730 19.574833
67.735 19.861145
67.740 20.276026
67.745 20.501465
67.750 20.288225
67.755 20.711321
67.760 21.140871
67.765 21.211531
67.770 21.683807
67.775 22.403198
67.780 22.489885
67.785 22.027763
67.790 22.047777
67.795 22.127892
67.800 22.206467
67.805 22.154678
67.810 21.857662
67.815 22.066481
67.820 22.817741
67.825 22.555595
67.830 22.297894
67.835 21.835192
67.840 21.417475
67.845 21.358946
67.850 21.383202
67.855 21.2374
67.860 21.206165
67.865 21.493088
67.870 21.329939
67.875 21.473589
67.880 21.501017
67.885 21.574188
67.890 21.300072
67.895 21.117313
67.900 20.602232
67.905 20.369358
67.910 20.18681
67.915 20.120565
67.920 19.694736
67.925 19.847692
67.930 19.896858
67.935 19.70129
67.940 20.222948
67.945 20.713095
67.950 20.892897
67.955 21.109909
67.960 20.83371
67.965 21.002937
67.970 21.305943
67.975 21.470228
67.980 20.926649
67.985 20.942316
67.990 21.500084
67.995 22.380806
68.000 22.698071
68.005 22.356827
68.010 21.79628
68.015 22.104309
68.020 22.323172
68.025 21.44208
68.030 21.472984
68.035 21.243612
68.040 21.484762
68.045 21.571226
68.050 21.756054
68.055 21.434498
68.060 22.061705
68.065 21.31229
68.070 21.000984
68.075 21.205919
68.080 21.302849
68.085 21.178572
68.090 21.107456
68.095 20.836615
68.100 20.949606
68.105 21.393436
68.110 21.461107
68.115 21.380932
68.120 21.087709
68.125 21.366358
68.130 21.763882
68.135 21.863361
68.140 21.11651
68.145 20.505259
68.150 20.376545
68.155 20.561398
68.160 20.335966
68.165 20.273623
68.170 20.202456
68.175 20.766048
68.180 21.352489
68.185 21.12759
68.190 21.622822
68.195 21.960213
68.200 22.025721
68.205 22.586044
68.210 22.28244
68.215 21.84737
68.220 21.637613
68.225 21.055313
68.230 21.104855
68.235 21.643129
68.240 21.655449
68.245 22.4611
68.250 22.991158
68.255 23.567162
68.260 23.567194
68.265 22.788708
68.270 21.981514
68.275 21.572161
68.280 20.884708
68.285 20.431499
68.290 20.993362
68.295 21.309036
68.300 21.649046
68.305 22.07412
68.310 22.230785
68.315 22.946697
68.320 23.157883
68.325 22.279188
68.330 22.147243
68.335 21.793221
68.340 21.460999
68.345 21.277746
68.350 21.020964
68.355 21.522413
68.360 21.495375
68.365 21.119699
68.370 21.36627
68.375 21.682898
68.380 21.953352
68.385 21.7836
68.390 20.809216
68.395 20.705843
68.400 20.805592
68.405 20.292603
68.410 20.187551
68.415 20.927351
68.420 21.374014
68.425 21.760971
68.430 21.698444
68.435 21.982819
68.440 22.657459
68.445 23.192001
68.450 22.801394
68.455 22.618626
68.460 22.539865
68.465 22.810045
68.470 22.913889
68.475 22.426508
68.480 21.332249
68.485 21.146866
68.490 21.483833
68.495 21.565161
68.500 20.804642
68.505 20.707699
68.510 21.294727
68.515 21.534655
68.520 21.231747
68.525 20.37159
68.530 20.292252
68.535 20.667887
68.540 20.224878
68.545 20.543011
68.550 20.957348
68.555 21.34053
68.560 22.219387
68.565 22.767715
68.570 22.998678
68.575 22.653172
68.580 21.856215
68.585 21.95348
68.590 21.710007
68.595 21.770716
68.600 21.866503
68.605 22.221785
68.610 22.38777
68.615 22.173233
68.620 22.448359
68.625 22.282894
68.630 21.836586
68.635 21.391691
68.640 20.641825
68.645 20.61516
68.650 20.673485
68.655 19.867628
68.660 19.498119
68.665 18.767933
68.670 18.964819
68.675 19.754065
68.680 19.442371
68.685 19.373369
68.690 19.65917
68.695 20.476387
68.700 21.43556
68.705 21.332954
68.710 21.435059
68.715 21.758448
68.720 22.065155
68.725 22.658129
68.730 23.390251
68.735 23.224867
68.740 22.945444
68.745 23.098488
68.750 23.214289
68.755 23.060816
68.760 22.281023
68.765 21.45615
68.770 21.404148
68.775 21.541533
68.780 21.128048
68.785 21.177885
68.790 21.520508
68.795 21.806492
68.800 21.693445
68.805 22.415173
68.810 22.856522
68.815 23.913517
68.820 23.632174
68.825 23.05481
68.830 22.968662
68.835 22.886213
68.840 22.843357
68.845 23.400785
68.850 22.999426
68.855 23.595209
68.860 23.920805
68.865 23.79604
68.870 23.947226
68.875 23.267939
68.880 22.346552
68.885 21.643904
68.890 21.915346
68.895 22.227779
68.900 22.955229
68.905 23.385834
68.910 23.261448
68.915 23.872324
68.920 24.474989
68.925 24.419878
68.930 24.098043
68.935 23.750273
68.940 23.954367
68.945 23.619394
68.950 22.877382
68.955 22.261616
68.960 22.165817
68.965 22.155771
68.970 21.651972
68.975 21.129284
68.980 21.688745
68.985 22.671137
68.990 22.958183
68.995 22.737181
69.000 23.211521
69.005 24.024221
69.010 24.184414
69.015 23.533657
69.020 23.007988
69.025 23.166317
69.030 23.146425
69.035 22.717821
69.040 22.188253
69.045 23.187786
69.050 24.292969
69.055 23.909811
69.060 23.863989
69.065 24.238958
69.070 24.589046
69.075 24.862291
69.080 24.323883
69.085 24.195089
69.090 24.482576
69.095 24.900957
69.100 24.814999
69.105 24.954472
69.110 24.830032
69.115 24.555132
69.120 24.766457
69.125 25.259512
69.130 25.351446
69.135 26.165678
69.140 26.747999
69.145 27.126289
69.150 27.485512
69.155 27.840748
69.160 27.299332
69.165 26.902338
69.170 26.097645
69.175 25.464087
69.180 25.729471
69.185 25.358387
69.190 24.747337
69.195 25.363533
69.200 25.657413
69.205 26.069159
69.210 26.100752
69.215 25.740152
69.220 26.150156
69.225 26.741796
69.230 26.353695
69.235 26.346802
69.240 26.116272
69.245 26.395554
69.250 27.150547
69.255 27.134787
69.260 26.755085
69.265 26.585718
69.270 26.499645
69.275 26.759409
69.280 27.102062
69.285 26.874714
69.290 27.547684
69.295 28.278324
69.300 28.367228
69.305 28.411669
69.310 28.571472
69.315 29.029724
69.320 28.988998
69.325 28.364048
69.330 28.28912
69.335 28.471619
69.340 28.425755
69.345 27.754019
69.350 26.913561
69.355 26.751301
69.360 26.518019
69.365 26.923769
69.370 26.861805
69.375 27.233706
69.380 27.800068
69.385 28.106703
69.390 29.142324
69.395 29.897116
69.400 29.854233
69.405 30.086126
69.410 30.24419
69.415 31.024786
69.420 30.084343
69.425 29.053202
69.430 28.102589
69.435 28.049627
69.440 28.106314
69.445 27.820297
69.450 27.831825
69.455 28.3578
69.460 28.797152
69.465 29.013783
69.470 28.455679
69.475 28.204315
69.480 27.855068
69.485 27.23204
69.490 27.760248
69.495 27.457603
69.500 27.184078
69.505 27.539732
69.510 27.423967
69.515 28.208612
69.520 27.899584
69.525 27.261688
69.530 27.400757
69.535 27.351015
69.540 27.277096
69.545 27.203037
69.550 27.277203
69.555 28.152664
69.560 28.640142
69.565 29.241148
69.570 29.773426
69.575 30.244314
69.580 29.631498
69.585 29.168211
69.590 28.076717
69.595 28.019728
69.600 27.746183
69.605 27.458103
69.610 27.003096
69.615 27.325602
69.620 27.136902
69.625 27.666891
69.630 27.379869
69.635 27.425346
69.640 27.584873
69.645 28.232252
69.650 28.649931
69.655 29.000517
69.660 29.185108
69.665 29.247915
69.670 28.995249
69.675 28.752581
69.680 28.542786
69.685 28.709272
69.690 28.470285
69.695 28.092236
69.700 27.765736
69.705 27.865162
69.710 28.270168
69.715 28.004635
69.720 28.099003
69.725 27.926121
69.730 28.371056
69.735 28.73435
69.740 28.346689
69.745 28.312481
69.750 28.398495
69.755 27.715698
69.760 27.570381
69.765 27.004314
69.770 26.814096
69.775 26.51453
69.780 26.042004
69.785 26.382988
69.790 25.96644
69.795 25.31036
69.800 25.326292
69.805 25.992903
69.810 26.473263
69.815 26.732061
69.820 26.567902
69.825 27.006821
69.830 27.536963
69.835 27.355589
69.840 26.471407
69.845 25.645563
69.850 24.93689
69.855 24.67906
69.860 24.287474
69.865 24.419046
69.870 23.859112
69.875 23.837658
69.880 23.698956
69.885 23.437677
69.890 23.183479
69.895 22.64959
69.900 22.009871
69.905 22.739021
69.910 22.69784
69.915 22.672457
69.920 22.493656
69.925 22.408052
69.930 22.980497
69.935 22.938805
69.940 22.770489
69.945 22.631672
69.950 22.847878
69.955 23.280617
69.960 23.073484
69.965 22.642923
69.970 21.82741
69.975 21.403456
69.980 21.037107
69.985 20.999178
69.990 21.643204
69.995 21.717169
70.000 22.172293
70.005 22.362757
70.010 22.631891
70.015 23.064306
70.020 22.398075
70.025 21.884796
70.030 22.200632
70.035 22.340096
70.040 22.346357
70.045 22.193523
70.050 22.453423
70.055 22.605789
70.060 22.371609
70.065 21.702322
70.070 21.655941
70.075 21.667683
70.080 21.657019
70.085 21.661131
70.090 21.776773
70.095 22.04512
70.100 22.139339
70.105 21.458599
70.110 21.752279
70.115 22.363514
70.120 21.997383
70.125 21.658398
70.130 21.442366
70.135 21.151449
70.140 21.779938
70.145 20.839714
70.150 20.632507
70.155 20.697786
70.160 20.626633
70.165 20.671791
70.170 20.420034
70.175 20.167355
70.180 20.21917
70.185 20.616978
70.190 20.722551
70.195 20.684513
70.200 20.379559
70.205 20.628624
70.210 20.726322
70.215 20.517242
70.220 19.80036
70.225 19.385757
70.230 19.342665
70.235 19.940323
70.240 20.083506
70.245 20.29594
70.250 20.300594
70.255 20.404739
70.260 20.4631
70.265 20.51857
70.270 20.570684
70.275 20.121172
70.280 19.235619
70.285 19.043774
70.290 18.442873
70.295 18.529099
70.300 17.900717
70.305 17.623421
70.310 17.735296
70.315 18.561901
70.320 18.851576
70.325 19.051872
70.330 19.213846
70.335 19.208012
70.340 18.976488
70.345 18.651321
70.350 18.007219
70.355 17.850698
70.360 18.078346
70.365 18.335148
70.370 18.625729
70.375 19.09724
70.380 19.728933
70.385 19.499687
70.390 19.928713
70.395 20.036314
70.400 19.787437
70.405 19.340761
70.410 19.133219
70.415 19.013548
70.420 19.159035
70.425 18.981768
70.430 18.560791
70.435 18.701403
70.440 18.790827
70.445 18.850018
70.450 18.767994
70.455 18.59391
70.460 18.968143
70.465 19.088463
70.470 19.521723
70.475 19.325031
70.480 19.149084
70.485 20.285023
70.490 20.423851
70.495 20.028929
70.500 19.788296
70.505 19.848783
70.510 20.161846
70.515 20.019932
70.520 19.291983
70.525 19.554209
70.530 19.843033
70.535 20.177359
70.540 20.104643
70.545 20.07169
70.550 20.320719
70.555 20.922329
70.560 20.73241
70.565 20.987167
70.570 21.38121
70.575 21.435974
70.580 22.149855
70.585 21.693344
70.590 21.099192
70.595 20.697195
70.600 19.879326
70.605 19.311556
70.610 19.268379
70.615 18.744816
70.620 18.454269
70.625 18.427937
70.630 19.040813
70.635 19.157583
70.640 19.659399
70.645 19.552538
70.650 19.504433
70.655 18.843454
70.660 19.487144
70.665 19.456177
70.670 18.822655
70.675 18.488081
70.680 18.184042
70.685 18.718054
70.690 19.237926
70.695 18.31074
70.700 18.089125
70.705 18.728029
70.710 18.918344
70.715 19.345228
70.720 19.503651
70.725 19.884632
70.730 19.9319
70.735 19.609596
70.740 19.684523
70.745 19.486708
70.750 18.509865
70.755 18.425524
70.760 18.824064
70.765 18.763256
70.770 18.825104
70.775 18.360064
70.780 18.353531
70.785 18.553457
70.790 17.964367
70.795 17.383465
70.800 18.074692
70.805 17.923809
70.810 17.818735
70.815 18.071886
70.820 19.143114
70.825 19.203802
70.830 19.348845
70.835 19.308395
70.840 19.569847
70.845 19.365797
70.850 18.908163
70.855 18.074121
70.860 18.427757
70.865 18.150558
70.870 18.185394
70.875 18.492842
70.880 18.39259
70.885 18.392498
70.890 18.2787
70.895 17.954126
70.900 17.974813
70.905 17.808226
70.910 18.176613
70.915 18.766764
70.920 18.751528
70.925 18.659155
70.930 18.847851
70.935 19.158806
70.940 19.201807
70.945 18.924763
70.950 18.834166
70.955 18.515598
70.960 18.841839
70.965 18.754431
70.970 18.721926
70.975 18.816765
70.980 18.71452
70.985 18.710577
70.990 18.85742
70.995 18.805288
71.000 18.709585
71.005 18.362465
71.010 18.199808
71.015 18.187103
71.020 18.753603
71.025 18.093243
71.030 18.260557
71.035 18.513527
71.040 18.732187
71.045 18.468737
71.050 18.724829
71.055 18.956087
71.060 19.043123
71.065 19.342859
71.070 19.344412
71.075 19.413305
71.080 19.555914
71.085 19.453253
71.090 19.506411
71.095 19.645145
71.100 19.119669
71.105 19.223719
71.110 18.739605
71.115 18.361881
71.120 17.783998
71.125 17.936314
71.130 18.207315
71.135 18.510098
71.140 18.7668
71.145 19.35494
71.150 19.188011
71.155 19.30175
71.160 18.699316
71.165 18.662977
71.170 18.684767
71.175 18.536423
71.180 18.49151
71.185 19.164642
71.190 19.201349
71.195 19.902294
71.200 19.879988
71.205 20.159391
71.210 20.3869
71.215 20.743055
71.220 20.792397
71.225 20.552999
71.230 20.180401
71.235 20.173708
71.240 20.099627
71.245 20.20887
71.250 19.863997
71.255 19.960466
71.260 20.75045
71.265 20.73642
71.270 20.223858
71.275 19.915813
71.280 19.407288
71.285 19.453453
71.290 18.921268
71.295 18.185034
71.300 17.902061
71.305 18.332031
71.310 18.377007
71.315 18.803156
71.320 18.335844
71.325 18.401676
71.330 18.474207
71.335 18.693937
71.340 18.55472
71.345 18.458681
71.350 18.337723
71.355 18.688135
71.360 18.972288
71.365 19.014587
71.370 18.93318
71.375 19.464752
71.380 19.716457
71.385 19.864729
71.390 19.275244
71.395 19.035706
71.400 18.611935
71.405 17.75041
71.410 17.765743
71.415 17.58156
71.420 17.599245
71.425 18.015604
71.430 18.727694
71.435 19.838554
71.440 20.401737
71.445 20.689785
71.450 20.91674
71.455 21.36463
71.460 21.344366
71.465 21.472923
71.470 21.238659
71.475 20.85795
71.480 20.418667
71.485 20.364555
71.490 20.448925
71.495 20.261965
71.500 20.385998
71.505 20.318485
71.510 20.530258
71.515 20.521383
71.520 20.379295
71.525 20.273251
71.530 19.606302
71.535 18.995731
71.540 18.662516
71.545 18.356012
71.550 18.041536
71.555 17.630159
71.560 17.581331
71.565 18.106203
71.570 17.847769
71.575 18.821732
71.580 19.041945
71.585 19.2913
71.590 19.663197
71.595 19.500341
71.600 19.395668
71.605 19.830557
71.610 19.421246
71.615 19.302799
71.620 19.661528
71.625 19.411524
71.630 19.162481
71.635 19.389301
71.640 19.33926
71.645 18.954325
71.650 18.881002
71.655 18.293694
71.660 18.844378
71.665 19.33407
71.670 19.821163
71.675 19.921307
71.680 20.170425
71.685 20.12328
71.690 20.156708
71.695 20.025728
71.700 20.09989
71.705 19.146601
71.710 18.106539
71.715 18.440975
71.720 18.717962
71.725 18.806965
71.730 19.165482
71.735 18.870319
71.740 19.610647
71.745 20.035418
71.750 20.467985
71.755 20.224546
71.760 19.954453
71.765 20.030224
71.770 20.130762
71.775 20.414108
71.780 20.487984
71.785 19.965937
71.790 19.951542
71.795 19.356979
71.800 19.284023
71.805 19.249599
71.810 19.26988
71.815 18.978405
71.820 18.701685
71.825 18.538536
71.830 18.714596
71.835 18.5676
71.840 17.98395
71.845 18.047611
71.850 18.801542
71.855 18.919693
71.860 19.427488
71.865 19.38821
71.870 18.934214
71.875 19.043245
71.880 18.217909
71.885 17.961842
71.890 17.740036
71.895 17.271646
71.900 17.672508
71.905 17.955561
71.910 18.421827
71.915 19.105778
71.920 19.116325
71.925 19.133177
71.930 19.187523
71.935 19.113327
71.940 18.871439
71.945 18.826321
71.950 18.342426
71.955 17.966043
71.960 17.77755
71.965 17.6528
71.970 17.768097
71.975 17.388432
71.980 18.028355
71.985 18.518103
71.990 19.185841
71.995 19.379618
72.000 18.988726
72.005 19.554708
72.010 19.718998
72.015 19.99209
72.020 20.076626
72.025 19.971884
72.030 20.055019
72.035 19.942436
72.040 19.475918
72.045 19.098188
72.050 18.58346
72.055 18.687468
72.060 18.218069
72.065 18.496174
72.070 18.718309
72.075 18.5312
72.080 18.238924
72.085 18.17944
72.090 18.601219
72.095 18.820742
72.100 18.88735
72.105 18.984367
72.110 19.224667
72.115 18.919752
72.120 18.380093
72.125 17.752989
72.130 17.410196
72.135 17.424238
72.140 17.468145
72.145 16.770687
72.150 16.485889
72.155 16.831659
72.160 17.098068
72.165 17.157137
72.170 17.073095
72.175 17.745367
72.180 18.054148
72.185 18.454567
72.190 18.505011
72.195 18.484602
72.200 18.796143
72.205 19.173454
72.210 18.866312
72.215 19.187836
72.220 18.928989
72.225 19.492226
72.230 20.161734
72.235 19.772451
72.240 19.665016
72.245 19.846092
72.250 20.037687
72.255 20.164518
72.260 19.25069
72.265 18.716448
72.270 18.394997
72.275 17.922403
72.280 18.284279
72.285 18.202972
72.290 18.215229
72.295 18.376823
72.300 19.125807
72.305 20.014027
72.310 19.656202
72.315 19.651945
72.320 19.350256
72.325 19.291729
72.330 18.871105
72.335 17.891308
72.340 17.16283
72.345 17.189835
72.350 16.905306
72.355 16.545399
72.360 16.356274
72.365 16.661224
72.370 17.413614
72.375 17.576727
72.380 17.810543
72.385 18.267839
72.390 18.284634
72.395 18.667782
72.400 18.64473
72.405 18.132889
72.410 18.368158
72.415 18.296682
72.420 18.370237
72.425 18.254999
72.430 17.814138
72.435 17.626986
72.440 17.465153
72.445 17.12887
72.450 17.064037
72.455 16.739435
72.460 17.1028
72.465 17.060452
72.470 17.01029
72.475 17.252525
72.480 17.482689
72.485 17.298176
72.490 17.132526
72.495 16.926712
72.500 17.225235
72.505 17.48278
72.510 17.172878
72.515 17.306669
72.520 18.160585
72.525 18.921633
72.530 19.318365
72.535 19.178234
72.540 19.486568
72.545 19.329472
72.550 19.045849
72.555 18.167473
72.560 18.324884
72.565 18.067114
72.570 17.652098
72.575 18.14917
72.580 18.766762
72.585 19.037127
72.590 18.968042
72.595 18.950089
72.600 19.537809
72.605 19.66951
72.610 19.340651
72.615 18.580915
72.620 17.994856
72.625 18.055264
72.630 17.440979
72.635 17.128834
72.640 17.373665
72.645 17.34853
72.650 17.381653
72.655 17.758047
72.660 17.578497
72.665 17.697714
72.670 17.605017
72.675 17.746447
72.680 17.368671
72.685 17.326786
72.690 17.454037
72.695 17.490078
72.700 17.902103
72.705 17.555719
72.710 16.961004
72.715 17.0485
72.720 16.97892
72.725 16.779844
72.730 17.188766
72.735 17.03454
72.740 17.270147
72.745 17.734514
72.750 17.955198
72.755 17.850412
72.760 17.537573
72.765 17.199625
72.770 17.670383
72.775 17.726654
72.780 17.801094
72.785 17.917112
72.790 18.231228
72.795 17.62768
72.800 17.679955
72.805 17.202841
72.810 17.56671
72.815 17.445061
72.820 17.324387
72.825 16.847872
72.830 17.162155
72.835 17.428127
72.840 17.290676
72.845 16.930248
72.850 16.934607
72.855 16.904217
72.860 17.666855
72.865 16.73521
72.870 16.41749
72.875 16.361666
72.880 16.156139
72.885 16.726622
72.890 16.793888
72.895 17.026194
72.900 17.578691
72.905 17.076006
72.910 17.391615
72.915 17.332609
72.920 17.535082
72.925 17.887693
72.930 17.636295
72.935 17.470982
72.940 17.307589
72.945 17.38699
72.950 17.201014
72.955 16.653595
72.960 16.977854
72.965 17.3209
72.970 18.150549
72.975 18.603909
72.980 18.356174
72.985 17.925608
72.990 17.640394
72.995 17.210594
73.000 17.121576
