!@!!GADDS PLOTSO FILE: Chi integration type
!@!!Title/SampleName: map-f2
!@!!Comment: ?
!@!!User: Bruker Instrument Administrator
!@!!Site: University of Illinois Chicago
!@!!Frame: map-f2_01_000.gfrm
!@!!Wavelengths    1.54184   1.54056   1.54439
!@!!Frame angles: 2Theta: 63.000 Omega: 50.000 Phi: 0.000 Chi: 90.000
!@!!Integration range: 2Theta: 53.000 to 73.000  Gamma: -105.000 to -75.000
!@!!Integration method: bin normalized
!@!N
!@!SS
!@!M
!@!L 0.0 0.0 0.0 0.0
!@!XDegrees
!@!YCounts
53.000 5.774843
53.005 5.964824
53.010 5.843137
53.015 5.527802
53.020 5.172469
53.025 5.249468
53.030 5.161002
53.035 5.166031
53.040 4.934259
53.045 4.664653
53.050 4.447245
53.055 4.061379
53.060 3.938964
53.065 4.046166
53.070 4.065982
53.075 4.424026
53.080 4.673249
53.085 4.851007
53.090 4.807165
53.095 4.856962
53.100 4.49341
53.105 4.238595
53.110 4.137388
53.115 3.878262
53.120 3.987595
53.125 4.07682
53.130 4.236616
53.135 4.723019
53.140 4.931177
53.145 5.049111
53.150 5.130324
53.155 5.025591
53.160 5.158907
53.165 5.131486
53.170 4.939361
53.175 5.035803
53.180 4.99645
53.185 4.875448
53.190 4.947537
53.195 5.161962
53.200 5.332653
53.205 5.416734
53.210 5.118705
53.215 5.000009
53.220 4.931365
53.225 4.507403
53.230 4.490284
53.235 4.275826
53.240 4.762005
53.245 5.393371
53.250 5.936398
53.255 6.119455
53.260 6.374523
53.265 6.657392
53.270 6.601059
53.275 5.982962
53.280 5.661335
53.285 5.655751
53.290 5.640975
53.295 5.496899
53.300 5.122658
53.305 5.11896
53.310 5.394781
53.315 5.485176
53.320 5.028912
53.325 4.987368
53.330 4.96005
53.335 5.331872
53.340 5.39689
53.345 5.496999
53.350 5.776105
53.355 6.200734
53.360 6.49619
53.365 6.544378
53.370 6.289213
53.375 5.987431
53.380 5.614136
53.385 5.838892
53.390 5.76209
53.395 5.528502
53.400 5.802804
53.405 6.040561
53.410 6.0542
53.415 5.937209
53.420 5.687498
53.425 5.612469
53.430 5.369579
53.435 4.713968
53.440 4.779475
53.445 5.120551
53.450 5.168276
53.455 5.252198
53.460 5.174724
53.465 5.694623
53.470 5.919997
53.475 5.913526
53.480 5.802317
53.485 5.827589
53.490 5.99596
53.495 5.839108
53.500 5.269653
53.505 5.076594
53.510 4.710372
53.515 4.647301
53.520 4.814705
53.525 4.653648
53.530 4.849959
53.535 4.955052
53.540 5.052939
53.545 5.042778
53.550 4.715095
53.555 4.60585
53.560 4.721789
53.565 4.512171
53.570 4.300103
53.575 4.219406
53.580 4.319307
53.585 4.527152
53.590 4.475325
53.595 4.487272
53.600 4.615146
53.605 4.815534
53.610 4.812969
53.615 5.126045
53.620 5.096283
53.625 5.008574
53.630 5.111666
53.635 5.478001
53.640 5.548009
53.645 5.439445
53.650 5.256882
53.655 5.544695
53.660 5.643095
53.665 5.720046
53.670 5.541735
53.675 5.844376
53.680 6.046838
53.685 5.754214
53.690 5.581445
53.695 5.921498
53.700 5.850009
53.705 5.848663
53.710 5.865808
53.715 5.982317
53.720 6.177006
53.725 5.999217
53.730 5.946614
53.735 6.123009
53.740 6.171245
53.745 5.881973
53.750 5.927692
53.755 5.955141
53.760 6.014592
53.765 5.690314
53.770 5.586489
53.775 5.752965
53.780 5.909256
53.785 5.631652
53.790 5.465124
53.795 5.495055
53.800 5.414504
53.805 5.409173
53.810 5.44103
53.815 5.613314
53.820 5.661886
53.825 5.755466
53.830 5.860675
53.835 6.021092
53.840 5.786368
53.845 5.681972
53.850 5.58847
53.855 5.525513
53.860 5.67228
53.865 5.596032
53.870 5.643036
53.875 5.682178
53.880 5.684987
53.885 5.85953
53.890 5.935031
53.895 5.949852
53.900 5.787426
53.905 5.747515
53.910 5.668035
53.915 5.792235
53.920 5.868308
53.925 5.545591
53.930 5.245198
53.935 5.428992
53.940 5.408607
53.945 5.19765
53.950 4.832833
53.955 4.65626
53.960 4.814571
53.965 5.089812
53.970 4.865837
53.975 4.867912
53.980 4.909023
53.985 5.182056
53.990 5.488392
53.995 5.410909
54.000 5.346435
54.005 5.275023
54.010 5.164194
54.015 5.395545
54.020 5.43991
54.025 5.473021
54.030 5.848598
54.035 5.640099
54.040 5.572696
54.045 5.581377
54.050 5.228926
54.055 5.273567
54.060 4.827607
54.065 4.872983
54.070 4.99251
54.075 5.050081
54.080 5.205651
54.085 5.418137
54.090 5.497523
54.095 5.758484
54.100 5.580737
54.105 5.923541
54.110 6.130771
54.115 6.143601
54.120 6.000271
54.125 5.913049
54.130 5.89096
54.135 5.814457
54.140 5.497007
54.145 5.272254
54.150 5.380095
54.155 5.671662
54.160 5.693146
54.165 5.550262
54.170 5.50796
54.175 5.559782
54.180 5.542707
54.185 5.430605
54.190 5.608783
54.195 5.49326
54.200 5.793293
54.205 5.798417
54.210 6.285185
54.215 6.471122
54.220 6.240451
54.225 5.902292
54.230 5.840567
54.235 6.09735
54.240 6.399042
54.245 6.646175
54.250 6.791934
54.255 7.191248
54.260 7.447614
54.265 7.53795
54.270 7.344417
54.275 6.994658
54.280 6.592104
54.285 6.517633
54.290 6.29976
54.295 5.964819
54.300 5.747197
54.305 5.511336
54.310 5.501218
54.315 5.437855
54.320 4.978597
54.325 5.033833
54.330 5.438121
54.335 5.733542
54.340 6.199293
54.345 5.977314
54.350 5.709794
54.355 5.741947
54.360 5.64133
54.365 5.348731
54.370 5.021273
54.375 4.821694
54.380 4.734047
54.385 4.655687
54.390 4.939749
54.395 5.276673
54.400 5.535576
54.405 5.618884
54.410 5.704211
54.415 6.025608
54.420 6.421532
54.425 6.364967
54.430 6.267235
54.435 5.967433
54.440 6.148117
54.445 6.184813
54.450 6.386734
54.455 6.254153
54.460 6.204548
54.465 6.26497
54.470 6.478688
54.475 6.527784
54.480 6.362594
54.485 6.312394
54.490 6.302806
54.495 5.989854
54.500 6.079652
54.505 6.022944
54.510 6.255396
54.515 6.512328
54.520 6.564994
54.525 6.481145
54.530 6.479546
54.535 6.155072
54.540 5.763126
54.545 5.658745
54.550 5.307441
54.555 5.014778
54.560 5.10282
54.565 5.289275
54.570 5.567086
54.575 5.727406
54.580 5.644918
54.585 5.616361
54.590 5.766505
54.595 5.610605
54.600 5.452523
54.605 5.730594
54.610 5.807993
54.615 6.001561
54.620 6.273191
54.625 6.098882
54.630 5.902314
54.635 5.7076
54.640 5.074082
54.645 4.899197
54.650 4.7136
54.655 4.625641
54.660 4.836308
54.665 5.149528
54.670 5.254954
54.675 5.374979
54.680 4.977339
54.685 5.032023
54.690 5.266987
54.695 5.06946
54.700 5.003179
54.705 5.173877
54.710 5.593378
54.715 5.957655
54.720 5.956501
54.725 6.089848
54.730 6.479592
54.735 6.535676
54.740 6.586819
54.745 6.776392
54.750 6.790767
54.755 6.742964
54.760 6.826807
54.765 6.784689
54.770 6.845578
54.775 6.617972
54.780 6.266
54.785 5.980453
54.790 6.010719
54.795 6.078454
54.800 6.120397
54.805 6.313305
54.810 5.942708
54.815 6.047203
54.820 6.184444
54.825 5.575844
54.830 5.111894
54.835 5.106636
54.840 4.980703
54.845 5.180965
54.850 5.249369
54.855 5.421848
54.860 5.754371
54.865 6.163365
54.870 6.26058
54.875 6.713706
54.880 7.349947
54.885 7.620943
54.890 7.769759
54.895 7.362082
54.900 6.843274
54.905 6.668125
54.910 6.370301
54.915 6.03408
54.920 5.864392
54.925 5.576461
54.930 5.891716
54.935 5.868141
54.940 5.624481
54.945 5.531878
54.950 5.392012
54.955 5.662997
54.960 6.094378
54.965 6.131914
54.970 6.278581
54.975 6.372612
54.980 6.5764
54.985 6.541384
54.990 5.867075
54.995 5.732062
55.000 5.673356
55.005 5.527128
55.010 5.465837
55.015 5.614597
55.020 5.903951
55.025 5.89663
55.030 5.762493
55.035 5.657472
55.040 5.570343
55.045 5.306768
55.050 5.089441
55.055 5.143758
55.060 5.530871
55.065 5.619179
55.070 5.838427
55.075 6.054401
55.080 6.240113
55.085 5.985476
55.090 5.84864
55.095 5.674984
55.100 5.933136
55.105 5.869493
55.110 6.106925
55.115 6.227476
55.120 6.001808
55.125 6.027948
55.130 6.163181
55.135 5.715121
55.140 5.585916
55.145 5.378665
55.150 5.335483
55.155 5.686201
55.160 5.771007
55.165 6.083416
55.170 6.257004
55.175 6.302878
55.180 5.980525
55.185 6.096623
55.190 6.067962
55.195 6.021315
55.200 6.282673
55.205 6.715867
55.210 6.77278
55.215 6.903518
55.220 6.919043
55.225 7.228193
55.230 6.845712
55.235 6.315999
55.240 5.849249
55.245 6.006169
55.250 5.977379
55.255 6.028779
55.260 5.684448
55.265 6.040296
55.270 6.499019
55.275 6.890259
55.280 6.958751
55.285 7.217002
55.290 7.259685
55.295 7.421981
55.300 6.948988
55.305 6.536638
55.310 6.512842
55.315 6.492732
55.320 6.647113
55.325 6.654433
55.330 6.39658
55.335 6.610059
55.340 6.648978
55.345 6.625041
55.350 6.384295
55.355 6.183344
55.360 5.931067
55.365 5.833241
55.370 5.836948
55.375 5.684942
55.380 5.247002
55.385 5.07151
55.390 5.345531
55.395 6.193
55.400 6.615061
55.405 6.943463
55.410 7.309506
55.415 7.746019
55.420 7.745871
55.425 7.359372
55.430 6.848177
55.435 6.680987
55.440 6.338174
55.445 6.113247
55.450 5.897224
55.455 6.047672
55.460 6.556937
55.465 6.827938
55.470 6.804578
55.475 6.630698
55.480 6.654729
55.485 7.142674
55.490 7.058195
55.495 6.460171
55.500 6.141693
55.505 6.353773
55.510 6.998464
55.515 7.089799
55.520 6.710908
55.525 6.778081
55.530 6.527709
55.535 6.744009
55.540 6.383844
55.545 5.993793
55.550 6.308949
55.555 6.301876
55.560 6.37409
55.565 6.461428
55.570 6.327997
55.575 6.627028
55.580 6.921527
55.585 6.685862
55.590 6.949775
55.595 7.239233
55.600 7.454214
55.605 7.500241
55.610 7.294976
55.615 6.938768
55.620 6.739999
55.625 6.34238
55.630 6.119401
55.635 6.382912
55.640 6.337244
55.645 6.242957
55.650 5.810266
55.655 6.029035
55.660 6.021321
55.665 5.458505
55.670 4.972682
55.675 5.133089
55.680 5.54105
55.685 5.879724
55.690 5.925444
55.695 6.276129
55.700 6.931976
55.705 6.800417
55.710 6.520288
55.715 6.233629
55.720 6.017419
55.725 5.914888
55.730 5.79305
55.735 5.898588
55.740 6.047053
55.745 5.849493
55.750 5.970011
55.755 6.519574
55.760 6.477849
55.765 6.184473
55.770 6.323164
55.775 6.935713
55.780 7.197971
55.785 7.271531
55.790 6.667907
55.795 6.557546
55.800 6.630855
55.805 6.283034
55.810 6.052833
55.815 6.333735
55.820 6.753808
55.825 7.402406
55.830 7.169353
55.835 7.608218
55.840 7.875607
55.845 7.764672
55.850 7.378169
55.855 7.300256
55.860 7.246537
55.865 7.325896
55.870 6.883747
55.875 6.648507
55.880 6.913613
55.885 6.832958
55.890 6.448282
55.895 6.395679
55.900 6.459491
55.905 6.376741
55.910 6.440628
55.915 6.203563
55.920 6.637735
55.925 6.803282
55.930 6.823003
55.935 7.011342
55.940 7.058533
55.945 7.024642
55.950 7.162479
55.955 7.146115
55.960 7.078172
55.965 6.802857
55.970 7.053666
55.975 7.665834
55.980 7.776159
55.985 7.517062
55.990 7.061519
55.995 6.929122
56.000 7.748983
56.005 7.637401
56.010 7.262456
56.015 7.195763
56.020 7.148832
56.025 7.438234
56.030 7.437666
56.035 6.742411
56.040 6.523543
56.045 6.537066
56.050 6.392628
56.055 6.324976
56.060 6.314781
56.065 6.650054
56.070 6.696904
56.075 6.791644
56.080 6.627316
56.085 6.605906
56.090 6.600689
56.095 6.737634
56.100 6.613613
56.105 6.770945
56.110 6.83879
56.115 6.909194
56.120 7.18426
56.125 7.00811
56.130 7.127682
56.135 7.459955
56.140 7.74984
56.145 7.710388
56.150 7.508068
56.155 7.582059
56.160 8.398641
56.165 8.364436
56.170 8.050691
56.175 7.68895
56.180 7.49828
56.185 7.715617
56.190 7.278039
56.195 6.738478
56.200 6.531485
56.205 6.521901
56.210 6.482963
56.215 7.014737
56.220 7.308896
56.225 7.674302
56.230 7.526485
56.235 7.372746
56.240 7.336791
56.245 7.470698
56.250 7.228522
56.255 7.234612
56.260 7.162832
56.265 7.278946
56.270 7.28203
56.275 7.535485
56.280 7.390525
56.285 7.330967
56.290 6.853388
56.295 7.373029
56.300 7.505888
56.305 7.632385
56.310 7.699859
56.315 7.920934
56.320 7.892308
56.325 8.069325
56.330 7.401949
56.335 7.029483
56.340 6.937256
56.345 6.493426
56.350 6.524041
56.355 6.713395
56.360 6.421042
56.365 6.436068
56.370 6.718142
56.375 6.745664
56.380 6.447558
56.385 6.358305
56.390 6.328358
56.395 6.590128
56.400 6.948192
56.405 6.663522
56.410 6.713933
56.415 7.090129
56.420 7.177459
56.425 7.100492
56.430 7.013456
56.435 7.009704
56.440 7.131214
56.445 7.048261
56.450 7.340913
56.455 7.425104
56.460 7.641223
56.465 7.449503
56.470 7.239863
56.475 7.332882
56.480 7.131753
56.485 6.723616
56.490 6.569461
56.495 6.588283
56.500 6.973848
56.505 7.208789
56.510 7.253236
56.515 7.462037
56.520 7.260567
56.525 6.864033
56.530 6.984592
56.535 7.14215
56.540 7.343011
56.545 7.241935
56.550 7.196457
56.555 7.223481
56.560 6.906604
56.565 6.343874
56.570 6.185604
56.575 5.983517
56.580 6.027379
56.585 6.188879
56.590 6.827351
56.595 7.179349
56.600 7.398084
56.605 7.257237
56.610 7.41688
56.615 7.297981
56.620 7.092493
56.625 6.730738
56.630 6.698187
56.635 6.412229
56.640 6.653152
56.645 6.598231
56.650 6.46197
56.655 6.387746
56.660 6.217452
56.665 6.478736
56.670 6.636197
56.675 6.42612
56.680 6.774084
56.685 6.918657
56.690 7.441853
56.695 7.73329
56.700 7.59738
56.705 7.443678
56.710 7.401877
56.715 7.11737
56.720 7.058083
56.725 7.075747
56.730 7.174267
56.735 7.249566
56.740 7.250014
56.745 6.928759
56.750 7.047118
56.755 6.967857
56.760 6.615932
56.765 6.626225
56.770 7.216714
56.775 7.461658
56.780 7.716441
56.785 7.869254
56.790 8.164874
56.795 8.569336
56.800 8.366303
56.805 8.012909
56.810 8.043317
56.815 7.81801
56.820 7.359505
56.825 7.258038
56.830 7.369639
56.835 7.497413
56.840 7.30037
56.845 7.498595
56.850 7.41571
56.855 7.517073
56.860 7.106246
56.865 7.102529
56.870 6.97146
56.875 7.023549
56.880 7.052189
56.885 7.389558
56.890 7.638878
56.895 7.580664
56.900 7.536106
56.905 8.045413
56.910 8.236764
56.915 8.234956
56.920 8.364192
56.925 8.369511
56.930 8.577534
56.935 8.410158
56.940 8.007072
56.945 7.68259
56.950 7.296934
56.955 7.181212
56.960 7.023895
56.965 6.917892
56.970 7.159683
56.975 7.017334
56.980 7.151771
56.985 7.422565
56.990 7.6417
56.995 8.178844
57.000 8.371925
57.005 8.567607
57.010 8.992876
57.015 8.756656
57.020 8.583882
57.025 8.741822
57.030 8.660687
57.035 8.339092
57.040 8.042309
57.045 7.992448
57.050 8.277646
57.055 8.593565
57.060 8.126039
57.065 7.688896
57.070 7.310717
57.075 7.302711
57.080 7.167056
57.085 7.169688
57.090 6.763347
57.095 6.703278
57.100 6.713405
57.105 7.066186
57.110 7.277151
57.115 7.006083
57.120 6.717752
57.125 6.566007
57.130 7.05914
57.135 7.648265
57.140 7.64176
57.145 7.545006
57.150 8.035537
57.155 8.274155
57.160 8.513187
57.165 8.426369
57.170 8.398991
57.175 8.726046
57.180 8.832298
57.185 8.751002
57.190 8.756259
57.195 8.476199
57.200 8.41255
57.205 7.898824
57.210 7.371131
57.215 6.995462
57.220 7.079591
57.225 6.998843
57.230 6.783369
57.235 6.801458
57.240 7.238416
57.245 7.325954
57.250 6.901978
57.255 6.8744
57.260 7.052706
57.265 7.642522
57.270 7.371358
57.275 7.119083
57.280 7.417258
57.285 8.087722
57.290 7.886826
57.295 7.689536
57.300 7.605055
57.305 7.956035
57.310 8.068283
57.315 7.887941
57.320 7.664733
57.325 8.381607
57.330 8.614055
57.335 8.989416
57.340 8.942932
57.345 9.0927
57.350 9.521877
57.355 9.393719
57.360 8.635742
57.365 8.25116
57.370 7.89754
57.375 7.685053
57.380 7.629506
57.385 7.271207
57.390 7.533181
57.395 7.987663
57.400 8.017232
57.405 7.854697
57.410 7.753892
57.415 7.742911
57.420 8.436909
57.425 8.706098
57.430 8.857518
57.435 8.895366
57.440 9.14811
57.445 9.156664
57.450 8.504702
57.455 7.797101
57.460 7.489221
57.465 7.426664
57.470 7.30775
57.475 7.148838
57.480 7.389579
57.485 7.813298
57.490 8.139403
57.495 7.680957
57.500 7.518911
57.505 7.64366
57.510 7.74686
57.515 8.00305
57.520 8.007623
57.525 8.156967
57.530 8.613013
57.535 8.777952
57.540 9.0218
57.545 9.059123
57.550 9.091889
57.555 9.251708
57.560 9.250072
57.565 9.113844
57.570 9.179338
57.575 8.804974
57.580 8.942914
57.585 8.9952
57.590 8.764663
57.595 8.643765
57.600 8.75851
57.605 8.361253
57.610 7.947948
57.615 7.449614
57.620 7.143238
57.625 7.164188
57.630 7.458646
57.635 7.799
57.640 8.187534
57.645 8.541167
57.650 8.691598
57.655 8.744267
57.660 8.875796
57.665 8.963732
57.670 8.366292
57.675 8.382936
57.680 8.908445
57.685 9.406738
57.690 9.63663
57.695 9.848683
57.700 9.888651
57.705 10.121268
57.710 10.73549
57.715 10.545665
57.720 10.227985
57.725 9.64662
57.730 9.123703
57.735 9.095381
57.740 9.386883
57.745 8.420801
57.750 7.860018
57.755 7.550956
57.760 7.987046
57.765 8.125761
57.770 7.838978
57.775 7.962757
57.780 8.28145
57.785 8.769845
57.790 9.084742
57.795 9.103328
57.800 9.355875
57.805 9.291326
57.810 9.041758
57.815 9.307074
57.820 9.370573
57.825 9.614223
57.830 9.350895
57.835 8.933225
57.840 8.871578
57.845 8.820026
57.850 8.249125
57.855 8.023469
57.860 7.647723
57.865 7.45747
57.870 7.571026
57.875 7.842115
57.880 8.171457
57.885 8.776269
57.890 8.936582
57.895 8.88952
57.900 9.164914
57.905 9.193163
57.910 8.994396
57.915 8.662463
57.920 8.410847
57.925 8.313127
57.930 8.55597
57.935 8.529326
57.940 8.825483
57.945 8.859664
57.950 9.026125
57.955 9.137576
57.960 9.251036
57.965 9.67417
57.970 9.999823
57.975 10.097403
57.980 10.237491
57.985 10.071002
57.990 9.933728
57.995 9.993766
58.000 9.40106
58.005 9.378922
58.010 9.278318
58.015 9.307127
58.020 9.202802
58.025 9.390068
58.030 9.230917
58.035 9.357135
58.040 9.476738
58.045 9.343275
58.050 9.142464
58.055 9.144366
58.060 8.87872
58.065 8.579531
58.070 8.80859
58.075 8.537613
58.080 8.588276
58.085 8.800969
58.090 9.053926
58.095 9.174278
58.100 9.536878
58.105 9.489578
58.110 8.963776
58.115 9.025105
58.120 9.22906
58.125 9.592047
58.130 10.007605
58.135 10.03675
58.140 10.07287
58.145 10.54185
58.150 10.280287
58.155 10.000185
58.160 9.414811
58.165 8.965278
58.170 9.067977
58.175 9.105659
58.180 9.248229
58.185 9.250366
58.190 9.264016
58.195 9.630228
58.200 9.614266
58.205 9.47114
58.210 9.593283
58.215 9.517254
58.220 9.566817
58.225 9.415448
58.230 9.139984
58.235 9.506917
58.240 9.357034
58.245 9.572681
58.250 9.400776
58.255 9.696743
58.260 10.181604
58.265 10.28969
58.270 9.957654
58.275 10.062898
58.280 9.762514
58.285 10.127881
58.290 9.780922
58.295 9.39601
58.300 9.366263
58.305 9.714467
58.310 9.582937
58.315 9.288844
58.320 9.24296
58.325 9.151247
58.330 9.092123
58.335 8.891189
58.340 9.022974
58.345 9.319373
58.350 9.4315
58.355 9.182326
58.360 9.450824
58.365 9.57006
58.370 9.604275
58.375 10.043127
58.380 10.124833
58.385 10.10657
58.390 10.364937
58.395 10.496047
58.400 10.714322
58.405 10.447762
58.410 9.834468
58.415 9.778487
58.420 10.153848
58.425 10.225509
58.430 10.373776
58.435 10.39231
58.440 10.405316
58.445 10.615367
58.450 10.585916
58.455 10.485401
58.460 10.71755
58.465 10.728892
58.470 11.039176
58.475 11.10173
58.480 10.878269
58.485 11.295153
58.490 11.089983
58.495 11.042327
58.500 11.004291
58.505 11.03022
58.510 11.989569
58.515 12.609932
58.520 13.142297
58.525 14.389838
58.530 15.017791
58.535 15.371048
58.540 15.787813
58.545 15.217737
58.550 14.963588
58.555 14.602728
58.560 14.479128
58.565 14.303425
58.570 14.299669
58.575 14.400846
58.580 14.881827
58.585 15.464747
58.590 15.73129
58.595 16.487829
58.600 16.363539
58.605 16.681751
58.610 16.908936
58.615 17.079157
58.620 16.670235
58.625 16.505022
58.630 16.304337
58.635 16.477867
58.640 16.691854
58.645 16.643335
58.650 16.138063
58.655 16.769455
58.660 17.419886
58.665 17.494642
58.670 17.484695
58.675 17.432411
58.680 17.870735
58.685 18.202677
58.690 18.338058
58.695 18.665539
58.700 18.857443
58.705 19.464731
58.710 18.837023
58.715 18.673023
58.720 19.458815
58.725 19.333221
58.730 18.839981
58.735 18.95962
58.740 19.58589
58.745 20.604631
58.750 20.383463
58.755 19.657154
58.760 19.793013
58.765 19.714321
58.770 19.218294
58.775 18.962099
58.780 19.089588
58.785 19.432528
58.790 19.646826
58.795 19.378498
58.800 19.11829
58.805 18.534264
58.810 17.824816
58.815 17.432764
58.820 16.922544
58.825 16.30291
58.830 16.161022
58.835 16.276123
58.840 16.304728
58.845 15.88511
58.850 15.218947
58.855 15.079318
58.860 14.734743
58.865 13.912751
58.870 13.205237
58.875 12.830944
58.880 13.0448
58.885 13.028932
58.890 12.664161
58.895 13.373999
58.900 13.836444
58.905 14.085436
58.910 13.946554
58.915 13.636516
58.920 13.557609
58.925 13.686289
58.930 13.142097
58.935 12.888302
58.940 13.298774
58.945 13.883077
58.950 13.8515
58.955 13.659534
58.960 13.435331
58.965 13.177431
58.970 12.485346
58.975 11.92095
58.980 11.619245
58.985 11.514258
58.990 11.616354
58.995 11.885981
59.000 12.236405
59.005 12.782207
59.010 12.138691
59.015 11.693169
59.020 11.833053
59.025 11.201482
59.030 10.668019
59.035 10.563584
59.040 10.763036
59.045 11.24915
59.050 10.819058
59.055 10.158404
59.060 10.635303
59.065 10.698979
59.070 10.224311
59.075 9.747657
59.080 9.528775
59.085 10.05913
59.090 10.095146
59.095 9.969664
59.100 9.927208
59.105 10.162793
59.110 10.130968
59.115 10.247871
59.120 10.429226
59.125 10.535732
59.130 10.523466
59.135 10.856427
59.140 10.328948
59.145 10.363319
59.150 10.259275
59.155 10.208421
59.160 10.059216
59.165 9.778771
59.170 9.347558
59.175 9.5396
59.180 9.290552
59.185 9.295075
59.190 8.65854
59.195 8.746155
59.200 8.942105
59.205 9.276471
59.210 9.496813
59.215 9.243691
59.220 9.593472
59.225 10.28078
59.230 10.625427
59.235 10.985341
59.240 10.572941
59.245 10.762972
59.250 11.087703
59.255 10.269934
59.260 9.724608
59.265 9.268028
59.270 8.984661
59.275 9.278615
59.280 9.306447
59.285 9.344681
59.290 10.124622
59.295 10.593363
59.300 10.858263
59.305 10.786035
59.310 10.851505
59.315 10.608394
59.320 10.342858
59.325 9.635463
59.330 9.364085
59.335 9.350086
59.340 9.162649
59.345 8.839064
59.350 8.601184
59.355 8.375215
59.360 8.506305
59.365 8.63232
59.370 8.475759
59.375 8.303997
59.380 8.188282
59.385 8.100228
59.390 8.55542
59.395 8.71034
59.400 8.68994
59.405 8.396736
59.410 8.467066
59.415 8.716875
59.420 8.895663
59.425 8.440042
59.430 7.863352
59.435 7.576573
59.440 7.706919
59.445 7.916938
59.450 7.881655
59.455 7.973253
59.460 8.376986
59.465 8.387635
59.470 8.375497
59.475 8.351344
59.480 8.166963
59.485 8.292903
59.490 8.505695
59.495 8.830079
59.500 9.287125
59.505 9.4223
59.510 9.542676
59.515 9.439336
59.520 9.096767
59.525 8.915715
59.530 8.813337
59.535 8.299812
59.540 8.589698
59.545 8.480508
59.550 8.420908
59.555 8.365334
59.560 7.940464
59.565 7.395481
59.570 7.756399
59.575 7.70021
59.580 7.877673
59.585 7.948659
59.590 7.763423
59.595 7.732776
59.600 7.806411
59.605 7.907704
59.610 7.966851
59.615 7.977767
59.620 8.115203
59.625 8.193927
59.630 8.323944
59.635 8.880363
59.640 8.621689
59.645 8.333438
59.650 7.984818
59.655 8.049653
59.660 8.280378
59.665 8.775279
59.670 8.416445
59.675 8.635747
59.680 8.871595
59.685 8.922046
59.690 8.960752
59.695 8.944346
59.700 9.104424
59.705 9.269855
59.710 9.249386
59.715 9.498055
59.720 9.982333
59.725 10.035849
59.730 9.934337
59.735 9.740722
59.740 9.925235
59.745 9.361413
59.750 9.148484
59.755 8.97831
59.760 9.47696
59.765 9.50258
59.770 9.338468
59.775 9.101693
59.780 9.030773
59.785 8.677163
59.790 8.272231
59.795 7.583622
59.800 7.560233
59.805 7.773689
59.810 8.180722
59.815 8.752569
59.820 9.154589
59.825 9.371798
59.830 9.688872
59.835 9.826659
59.840 9.877573
59.845 10.078939
59.850 9.879456
59.855 9.971576
59.860 10.233684
59.865 10.416902
59.870 10.407399
59.875 10.272305
59.880 10.15909
59.885 10.121961
59.890 9.906795
59.895 9.503707
59.900 9.366502
59.905 9.487881
59.910 9.132546
59.915 9.040237
59.920 9.128176
59.925 9.577619
59.930 9.705537
59.935 9.648072
59.940 9.104329
59.945 8.946934
59.950 8.937976
59.955 8.888286
59.960 8.683231
59.965 8.83616
59.970 8.828369
59.975 9.317102
59.980 9.53554
59.985 9.470906
59.990 9.755741
59.995 9.783216
60.000 9.551539
60.005 9.373157
60.010 9.534553
60.015 10.056767
60.020 10.169588
60.025 9.859132
60.030 9.774336
60.035 10.07013
60.040 10.149704
60.045 9.867407
60.050 10.020096
60.055 9.771128
60.060 9.812963
60.065 9.597083
60.070 9.330629
60.075 9.393438
60.080 8.867178
60.085 8.383461
60.090 8.578278
60.095 8.404397
60.100 8.612921
60.105 8.982737
60.110 8.968081
60.115 8.931916
60.120 8.777414
60.125 8.730442
60.130 8.863964
60.135 8.66578
60.140 8.472946
60.145 8.661366
60.150 9.028966
60.155 9.209589
60.160 9.463223
60.165 9.441248
60.170 9.542017
60.175 9.426999
60.180 9.242393
60.185 9.393582
60.190 8.973611
60.195 8.667785
60.200 9.231976
60.205 9.021671
60.210 8.922374
60.215 9.077474
60.220 8.771774
60.225 9.438991
60.230 9.903065
60.235 9.735377
60.240 9.810414
60.245 10.070034
60.250 10.144693
60.255 10.479332
60.260 9.974795
60.265 9.479331
60.270 9.009329
60.275 9.058454
60.280 9.077195
60.285 8.856096
60.290 8.828876
60.295 9.072653
60.300 8.745057
60.305 8.870517
60.310 8.708382
60.315 8.398417
60.320 8.038781
60.325 8.101655
60.330 8.36164
60.335 9.019108
60.340 9.041945
60.345 9.066858
60.350 9.344918
60.355 9.436045
60.360 9.495859
60.365 9.353807
60.370 9.25522
60.375 9.240206
60.380 9.480364
60.385 9.920585
60.390 10.10344
60.395 10.135995
60.400 10.37443
60.405 10.864846
60.410 11.439144
60.415 11.226334
60.420 10.983438
60.425 10.975942
60.430 10.826015
60.435 10.362612
60.440 10.080503
60.445 9.517971
60.450 9.659723
60.455 9.522403
60.460 9.531487
60.465 10.061276
60.470 10.101875
60.475 10.489064
60.480 10.715648
60.485 10.802361
60.490 11.004066
60.495 10.585066
60.500 9.866414
60.505 10.208405
60.510 9.911401
60.515 9.66796
60.520 9.330966
60.525 9.416842
60.530 9.363969
60.535 9.401279
60.540 8.618925
60.545 8.690351
60.550 8.773429
60.555 8.947259
60.560 8.569074
60.565 8.736669
60.570 9.285888
60.575 10.009288
60.580 10.061924
60.585 10.368216
60.590 10.573497
60.595 11.033714
60.600 10.853898
60.605 10.078304
60.610 9.233979
60.615 8.602015
60.620 8.250538
60.625 7.998326
60.630 7.71757
60.635 7.758633
60.640 8.122017
60.645 8.436463
60.650 8.80883
60.655 8.815884
60.660 8.726585
60.665 9.225649
60.670 9.728293
60.675 9.677449
60.680 9.630992
60.685 9.864132
60.690 10.073304
60.695 10.150763
60.700 9.62814
60.705 9.306085
60.710 9.478891
60.715 9.452189
60.720 9.087666
60.725 8.858511
60.730 8.696403
60.735 9.222692
60.740 9.268858
60.745 9.148696
60.750 9.182773
60.755 9.553717
60.760 9.686862
60.765 9.71067
60.770 9.451759
60.775 9.649927
60.780 9.615843
60.785 9.832541
60.790 9.751759
60.795 9.630735
60.800 9.685739
60.805 9.594488
60.810 9.699284
60.815 9.930139
60.820 9.516385
60.825 9.649343
60.830 10.073875
60.835 10.421378
60.840 10.646605
60.845 10.533832
60.850 10.37993
60.855 10.598668
60.860 10.551217
60.865 10.145041
60.870 9.65855
60.875 9.535593
60.880 9.687129
60.885 10.324841
60.890 10.196302
60.895 9.907595
60.900 9.897743
60.905 9.920273
60.910 9.503489
60.915 8.811338
60.920 8.112812
60.925 8.110071
60.930 8.378859
60.935 8.630515
60.940 8.625585
60.945 9.109153
60.950 9.714453
60.955 9.922028
60.960 9.825653
60.965 9.993466
60.970 9.970326
60.975 9.790306
60.980 9.705503
60.985 9.788646
60.990 9.850782
60.995 10.085828
61.000 10.138243
61.005 10.147432
61.010 10.352259
61.015 10.120146
61.020 10.100117
61.025 10.200706
61.030 10.19102
61.035 10.155339
61.040 9.785835
61.045 9.982545
61.050 10.10382
61.055 9.852835
61.060 9.847351
61.065 9.596839
61.070 9.565079
61.075 9.712411
61.080 9.77052
61.085 9.839548
61.090 9.609822
61.095 9.367046
61.100 9.115834
61.105 9.338864
61.110 9.23038
61.115 8.954866
61.120 9.116244
61.125 9.3467
61.130 10.13236
61.135 10.197825
61.140 10.232327
61.145 10.533989
61.150 10.728481
61.155 10.474329
61.160 10.357207
61.165 10.184211
61.170 10.837226
61.175 10.723688
61.180 10.534473
61.185 10.583329
61.190 10.916183
61.195 11.166164
61.200 11.63918
61.205 11.624506
61.210 11.553235
61.215 11.865909
61.220 11.879933
61.225 11.782233
61.230 11.454403
61.235 10.613663
61.240 10.019447
61.245 9.826518
61.250 9.318707
61.255 9.258353
61.260 9.434001
61.265 9.74542
61.270 10.050995
61.275 10.210392
61.280 10.198219
61.285 10.245416
61.290 10.063221
61.295 9.670358
61.300 9.106179
61.305 8.900607
61.310 8.861403
61.315 9.347693
61.320 9.845788
61.325 10.014947
61.330 10.544174
61.335 10.87794
61.340 10.979521
61.345 11.347056
61.350 11.136455
61.355 10.582829
61.360 10.584537
61.365 10.232329
61.370 10.571585
61.375 10.257067
61.380 10.109324
61.385 10.284835
61.390 10.448156
61.395 10.37165
61.400 10.348542
61.405 9.485897
61.410 9.484186
61.415 9.387829
61.420 9.179548
61.425 8.904483
61.430 8.537211
61.435 8.373889
61.440 9.365736
61.445 9.902703
61.450 10.35896
61.455 10.628457
61.460 10.917378
61.465 10.699533
61.470 10.562397
61.475 10.022677
61.480 9.704839
61.485 9.122503
61.490 8.880944
61.495 9.038359
61.500 9.719443
61.505 9.747516
61.510 10.082187
61.515 10.167231
61.520 9.758129
61.525 9.705027
61.530 9.762972
61.535 9.510818
61.540 9.795439
61.545 9.672874
61.550 9.48684
61.555 10.514162
61.560 10.685849
61.565 10.710385
61.570 11.220281
61.575 11.110041
61.580 10.898833
61.585 10.650566
61.590 10.363553
61.595 10.515356
61.600 10.081614
61.605 9.848667
61.610 10.007424
61.615 10.298576
61.620 10.719707
61.625 10.585119
61.630 10.440312
61.635 10.499746
61.640 10.616163
61.645 10.51136
61.650 10.018825
61.655 9.977095
61.660 9.827157
61.665 9.571353
61.670 9.533029
61.675 9.264943
61.680 9.48908
61.685 9.424903
61.690 9.021082
61.695 9.140202
61.700 9.171203
61.705 9.375469
61.710 9.56377
61.715 9.411723
61.720 9.720352
61.725 9.970451
61.730 9.859692
61.735 10.097402
61.740 10.061398
61.745 9.812975
61.750 9.942871
61.755 9.892154
61.760 9.900957
61.765 10.355238
61.770 10.492461
61.775 10.285264
61.780 10.509885
61.785 10.384792
61.790 10.591561
61.795 10.465544
61.800 10.184568
61.805 10.187807
61.810 10.538615
61.815 10.388236
61.820 10.25903
61.825 9.930099
61.830 9.936253
61.835 9.788233
61.840 9.622516
61.845 9.461388
61.850 9.254149
61.855 9.668283
61.860 10.255554
61.865 10.393547
61.870 10.653943
61.875 10.787507
61.880 11.03911
61.885 11.328492
61.890 11.374864
61.895 11.38587
61.900 11.460568
61.905 11.124557
61.910 10.955989
61.915 10.882437
61.920 10.742273
61.925 10.681283
61.930 10.375479
61.935 10.26085
61.940 10.39395
61.945 10.468141
61.950 10.472622
61.955 10.45455
61.960 9.884514
61.965 9.669223
61.970 9.792379
61.975 9.812065
61.980 9.660517
61.985 9.249483
61.990 9.322465
61.995 9.998146
62.000 9.989585
62.005 10.005508
62.010 10.164965
62.015 10.512208
62.020 10.633949
62.025 10.701674
62.030 10.40839
62.035 10.573089
62.040 10.735556
62.045 10.798538
62.050 10.865876
62.055 11.060947
62.060 10.925261
62.065 11.094676
62.070 10.890628
62.075 10.844441
62.080 10.72238
62.085 10.79736
62.090 10.657833
62.095 10.395062
62.100 9.918228
62.105 9.63724
62.110 9.607307
62.115 9.51402
62.120 8.877115
62.125 9.043468
62.130 9.451323
62.135 10.052432
62.140 10.498994
62.145 10.558259
62.150 10.736128
62.155 11.090576
62.160 10.979531
62.165 10.84332
62.170 10.899604
62.175 11.037302
62.180 11.038447
62.185 10.915446
62.190 10.935072
62.195 11.028416
62.200 10.839585
62.205 10.402965
62.210 9.992635
62.215 9.962414
62.220 10.044369
62.225 9.500575
62.230 9.305166
62.235 9.422901
62.240 9.28083
62.245 9.877454
62.250 9.997443
62.255 9.848822
62.260 10.22949
62.265 10.216558
62.270 10.218678
62.275 10.314039
62.280 9.909011
62.285 9.802963
62.290 10.13795
62.295 10.158004
62.300 10.376429
62.305 10.246987
62.310 10.588566
62.315 10.321646
62.320 10.527367
62.325 9.983589
62.330 9.645089
62.335 9.521564
62.340 9.685699
62.345 9.467854
62.350 9.615199
62.355 9.27023
62.360 9.68857
62.365 10.045819
62.370 10.263146
62.375 9.993733
62.380 9.963495
62.385 9.874053
62.390 10.394707
62.395 10.299187
62.400 10.276846
62.405 10.402722
62.410 10.65015
62.415 10.878266
62.420 11.32892
62.425 11.485614
62.430 11.643921
62.435 11.81371
62.440 12.107344
62.445 12.47861
62.450 12.452804
62.455 12.155259
62.460 12.161676
62.465 12.321641
62.470 12.276565
62.475 12.438323
62.480 12.40487
62.485 11.876295
62.490 11.465818
62.495 11.058392
62.500 10.654568
62.505 9.94984
62.510 9.362454
62.515 9.190789
62.520 9.38996
62.525 9.495279
62.530 9.732154
62.535 9.891669
62.540 10.313971
62.545 10.877994
62.550 10.633838
62.555 11.419121
62.560 11.490357
62.565 11.593102
62.570 11.910079
62.575 11.678156
62.580 11.234849
62.585 11.127337
62.590 10.764504
62.595 10.523965
62.600 10.528445
62.605 10.459403
62.610 10.638924
62.615 10.392091
62.620 10.453428
62.625 10.604133
62.630 11.053069
62.635 11.103961
62.640 10.981051
62.645 10.881783
62.650 11.711032
62.655 12.227666
62.660 12.199716
62.665 12.228153
62.670 12.450209
62.675 12.594548
62.680 12.61501
62.685 12.229864
62.690 11.878051
62.695 11.708502
62.700 11.204628
62.705 10.794511
62.710 10.872928
62.715 10.999485
62.720 10.861443
62.725 10.734008
62.730 10.892396
62.735 11.121887
62.740 10.909194
62.745 10.718845
62.750 10.353688
62.755 10.56129
62.760 10.4501
62.765 10.971146
62.770 11.397355
62.775 11.76362
62.780 11.687482
62.785 11.892265
62.790 11.825309
62.795 11.853223
62.800 11.431094
62.805 11.181185
62.810 11.082662
62.815 11.443807
62.820 11.443069
62.825 11.079757
62.830 10.887753
62.835 10.378077
62.840 10.547643
62.845 10.639782
62.850 10.5
62.855 10.620933
62.860 10.583189
62.865 10.925742
62.870 11.219762
62.875 11.441837
62.880 11.435114
62.885 11.422348
62.890 11.119335
62.895 11.5899
62.900 11.823848
62.905 11.402601
62.910 10.918754
62.915 10.849019
62.920 10.662643
62.925 10.723946
62.930 10.209856
62.935 9.825284
62.940 10.078979
62.945 9.880342
62.950 9.697038
62.955 9.94842
62.960 10.168253
62.965 10.669212
62.970 11.410518
62.975 11.412871
62.980 11.996405
62.985 12.138837
62.990 12.640731
62.995 12.750775
63.000 12.397321
63.005 12.31064
63.010 12.29666
63.015 11.889751
63.020 11.824109
63.025 11.18588
63.030 10.884277
63.035 10.609743
63.040 9.924185
63.045 9.177428
63.050 8.830046
63.055 8.582285
63.060 8.326149
63.065 8.307435
63.070 8.38561
63.075 9.083871
63.080 9.903777
63.085 10.476428
63.090 11.122115
63.095 11.65577
63.100 11.633819
63.105 11.798088
63.110 11.884513
63.115 11.832022
63.120 11.71473
63.125 11.555692
63.130 11.748732
63.135 11.615748
63.140 11.22564
63.145 10.73702
63.150 10.481633
63.155 10.537663
63.160 10.346204
63.165 9.979179
63.170 10.205961
63.175 10.69139
63.180 11.191311
63.185 11.552487
63.190 11.223781
63.195 10.849252
63.200 11.129784
63.205 11.304768
63.210 11.101294
63.215 10.34719
63.220 10.35188
63.225 10.963023
63.230 11.164522
63.235 11.400285
63.240 11.586031
63.245 11.335432
63.250 11.72746
63.255 11.9296
63.260 11.877372
63.265 12.197188
63.270 11.59968
63.275 11.349607
63.280 11.96316
63.285 12.235829
63.290 12.41102
63.295 12.173651
63.300 12.17239
63.305 12.48862
63.310 12.451805
63.315 12.296682
63.320 11.931181
63.325 11.366243
63.330 12.082477
63.335 12.033199
63.340 11.943935
63.345 11.862678
63.350 11.308959
63.355 11.326942
63.360 11.261306
63.365 10.238363
63.370 9.900931
63.375 10.277576
63.380 10.770966
63.385 11.356489
63.390 11.307043
63.395 12.012321
63.400 12.996922
63.405 13.353323
63.410 13.239465
63.415 13.134238
63.420 12.733435
63.425 12.497643
63.430 12.324217
63.435 11.910686
63.440 11.520891
63.445 11.682801
63.450 11.933632
63.455 12.665896
63.460 12.939668
63.465 12.474192
63.470 12.871212
63.475 13.227178
63.480 12.985054
63.485 12.867741
63.490 12.092745
63.495 11.539611
63.500 11.678139
63.505 11.667058
63.510 11.750233
63.515 11.468946
63.520 11.453956
63.525 11.639694
63.530 11.935767
63.535 11.996192
63.540 11.715122
63.545 11.190527
63.550 11.100403
63.555 10.766388
63.560 11.07618
63.565 11.226165
63.570 10.984903
63.575 11.025544
63.580 11.289721
63.585 11.681563
63.590 12.010012
63.595 12.463675
63.600 12.712641
63.605 12.520545
63.610 12.401594
63.615 12.41196
63.620 12.42758
63.625 12.334148
63.630 12.050981
63.635 11.820239
63.640 12.233878
63.645 12.304256
63.650 12.290412
63.655 12.133727
63.660 12.037064
63.665 11.648963
63.670 11.599002
63.675 11.354534
63.680 11.202785
63.685 10.818933
63.690 11.029149
63.695 11.096228
63.700 11.614184
63.705 11.715518
63.710 11.407504
63.715 11.751642
63.720 12.346011
63.725 12.105864
63.730 12.412399
63.735 12.686802
63.740 13.01196
63.745 13.230441
63.750 13.278753
63.755 13.249839
63.760 12.933374
63.765 12.333055
63.770 11.543097
63.775 11.30272
63.780 11.740407
63.785 11.330595
63.790 10.612604
63.795 10.947421
63.800 11.109484
63.805 11.334479
63.810 11.232444
63.815 11.015926
63.820 11.541732
63.825 11.983133
63.830 11.832271
63.835 12.044281
63.840 11.868733
63.845 12.20836
63.850 12.18635
63.855 11.981971
63.860 12.315932
63.865 13.076302
63.870 13.110766
63.875 13.004537
63.880 13.351325
63.885 13.461902
63.890 13.426119
63.895 13.431471
63.900 12.870357
63.905 12.525187
63.910 12.191335
63.915 11.620613
63.920 11.769822
63.925 12.220349
63.930 11.92625
63.935 11.864512
63.940 12.364081
63.945 12.837203
63.950 13.414254
63.955 13.208634
63.960 13.246598
63.965 13.623989
63.970 13.958758
63.975 14.423965
63.980 14.810526
63.985 14.699971
63.990 14.75576
63.995 14.474125
64.000 14.307972
64.005 14.379496
64.010 14.29305
64.015 13.756319
64.020 13.543089
64.025 13.280218
64.030 13.322289
64.035 13.3325
64.040 13.101075
64.045 12.835917
64.050 13.251995
64.055 13.389469
64.060 14.258314
64.065 14.477825
64.070 14.570355
64.075 14.970047
64.080 14.743133
64.085 15.016028
64.090 15.36365
64.095 14.712469
64.100 14.581942
64.105 14.189095
64.110 14.121993
64.115 14.214155
64.120 14.074035
64.125 13.878925
64.130 14.015854
64.135 14.144295
64.140 14.671481
64.145 14.732404
64.150 15.191354
64.155 15.569527
64.160 15.696163
64.165 16.25861
64.170 16.318296
64.175 16.210688
64.180 16.612593
64.185 16.403873
64.190 16.728048
64.195 17.552282
64.200 17.705528
64.205 17.958635
64.210 17.654448
64.215 17.506056
64.220 18.003841
64.225 18.264837
64.230 18.95949
64.235 19.665291
64.240 20.676361
64.245 21.751637
64.250 22.015751
64.255 22.213326
64.260 22.688236
64.265 21.719875
64.270 21.223337
64.275 21.203518
64.280 21.145828
64.285 21.232079
64.290 21.385942
64.295 21.170279
64.300 22.165791
64.305 23.142555
64.310 23.459887
64.315 23.948223
64.320 25.017517
64.325 25.547998
64.330 25.718668
64.335 25.438261
64.340 25.575905
64.345 26.100344
64.350 26.408607
64.355 26.232908
64.360 26.786684
64.365 27.430307
64.370 28.37616
64.375 28.634958
64.380 28.753138
64.385 28.704996
64.390 29.330929
64.395 29.813385
64.400 30.241476
64.405 30.337744
64.410 30.517868
64.415 30.14032
64.420 30.309389
64.425 30.643776
64.430 30.936491
64.435 31.101698
64.440 31.155779
64.445 31.861095
64.450 32.10799
64.455 32.558716
64.460 32.550407
64.465 32.538242
64.470 32.430393
64.475 32.161358
64.480 31.29668
64.485 31.730541
64.490 31.25334
64.495 31.238995
64.500 31.571575
64.505 31.266001
64.510 30.66436
64.515 30.812922
64.520 30.220655
64.525 30.099466
64.530 29.31888
64.535 28.03759
64.540 28.088001
64.545 28.351648
64.550 27.918945
64.555 28.181885
64.560 28.307354
64.565 28.623505
64.570 28.828426
64.575 27.799473
64.580 27.553141
64.585 27.033215
64.590 26.313889
64.595 26.14237
64.600 25.10137
64.605 24.161165
64.610 24.047152
64.615 23.658108
64.620 23.793545
64.625 24.091921
64.630 23.794632
64.635 23.749483
64.640 23.833529
64.645 24.068649
64.650 23.780281
64.655 23.093403
64.660 21.902676
64.665 21.14419
64.670 20.949787
64.675 21.33004
64.680 21.477365
64.685 21.3834
64.690 21.204372
64.695 21.364819
64.700 22.037275
64.705 21.846003
64.710 21.112133
64.715 20.612648
64.720 20.433413
64.725 20.527708
64.730 20.005957
64.735 18.993645
64.740 19.264185
64.745 18.213007
64.750 17.926525
64.755 17.631048
64.760 17.64922
64.765 17.839581
64.770 17.473375
64.775 17.044716
64.780 17.669079
64.785 17.473015
64.790 17.286247
64.795 16.861935
64.800 16.849451
64.805 16.587351
64.810 16.057058
64.815 15.680151
64.820 15.139638
64.825 14.991208
64.830 14.581087
64.835 14.401606
64.840 14.489803
64.845 14.652977
64.850 14.640347
64.855 15.259085
64.860 15.256957
64.865 15.36114
64.870 15.378844
64.875 15.416518
64.880 15.214768
64.885 14.770731
64.890 14.441032
64.895 14.878527
64.900 15.060083
64.905 14.956919
64.910 15.099752
64.915 14.768827
64.920 14.941426
64.925 15.183232
64.930 14.832327
64.935 14.710602
64.940 14.916496
64.945 14.990605
64.950 15.071705
64.955 15.274904
64.960 15.49654
64.965 15.573799
64.970 16.196497
64.975 16.365015
64.980 16.783596
64.985 16.762833
64.990 17.192181
64.995 16.639095
65.000 16.812094
65.005 16.976973
65.010 17.326403
65.015 17.565132
65.020 18.543919
65.025 18.505388
65.030 19.545378
65.035 20.025272
65.040 19.916964
65.045 19.858809
65.050 20.157841
65.055 20.388914
65.060 20.939625
65.065 21.240849
65.070 21.036505
65.075 20.93305
65.080 20.63368
65.085 20.825123
65.090 21.066317
65.095 20.780214
65.100 20.298418
65.105 21.145859
65.110 22.207088
65.115 22.553968
65.120 21.84243
65.125 21.526648
65.130 22.25564
65.135 22.412619
65.140 22.15312
65.145 21.388124
65.150 21.494919
65.155 22.139593
65.160 22.520748
65.165 22.487894
65.170 22.607674
65.175 22.883427
65.180 23.804285
65.185 24.463827
65.190 24.352879
65.195 24.268894
65.200 24.399975
65.205 24.214245
65.210 24.174421
65.215 23.899057
65.220 24.09413
65.225 24.924961
65.230 25.258146
65.235 24.753918
65.240 24.284153
65.245 24.099264
65.250 23.751989
65.255 23.927921
65.260 23.768656
65.265 23.556988
65.270 23.789169
65.275 24.496122
65.280 24.709538
65.285 24.968397
65.290 24.48234
65.295 23.961645
65.300 24.141216
65.305 24.538511
65.310 24.818514
65.315 24.575216
65.320 24.585791
65.325 24.54847
65.330 24.065012
65.335 24.24283
65.340 24.252583
65.345 23.772493
65.350 24.083403
65.355 23.961184
65.360 24.467119
65.365 25.497087
65.370 25.484739
65.375 25.525162
65.380 25.161589
65.385 24.776669
65.390 24.783737
65.395 24.515587
65.400 24.690649
65.405 24.519499
65.410 24.466917
65.415 25.767385
65.420 26.927534
65.425 27.29265
65.430 27.544476
65.435 27.664331
65.440 27.948523
65.445 27.904083
65.450 27.318253
65.455 27.131876
65.460 27.376778
65.465 27.756235
65.470 27.658897
65.475 27.669588
65.480 28.266424
65.485 28.587505
65.490 28.231501
65.495 27.643118
65.500 27.196035
65.505 27.043011
65.510 27.607407
65.515 27.206573
65.520 26.485138
65.525 26.480951
65.530 26.67325
65.535 26.746155
65.540 26.636686
65.545 26.126341
65.550 25.752127
65.555 25.902412
65.560 25.423088
65.565 24.889967
65.570 24.296137
65.575 24.210529
65.580 24.518961
65.585 24.306509
65.590 24.248304
65.595 24.63558
65.600 25.114523
65.605 25.097046
65.610 24.173523
65.615 23.831276
65.620 24.205992
65.625 23.871843
65.630 23.07733
65.635 22.585978
65.640 23.2024
65.645 23.210741
65.650 22.396334
65.655 22.286381
65.660 22.095886
65.665 22.209698
65.670 22.200165
65.675 21.880846
65.680 22.790443
65.685 23.384052
65.690 23.017557
65.695 22.735762
65.700 22.800076
65.705 22.209776
65.710 21.554432
65.715 21.149342
65.720 21.006466
65.725 21.497622
65.730 21.831125
65.735 21.981112
65.740 22.670294
65.745 22.731258
65.750 22.189342
65.755 21.275496
65.760 20.810429
65.765 21.128828
65.770 21.26716
65.775 21.241304
65.780 21.178518
65.785 21.249792
65.790 21.425787
65.795 21.354597
65.800 20.239885
65.805 19.30335
65.810 18.749647
65.815 19.099714
65.820 18.824471
65.825 18.223536
65.830 18.131819
65.835 18.403435
65.840 18.819784
65.845 18.828358
65.850 18.296558
65.855 18.202194
65.860 18.627274
65.865 18.897383
65.870 18.952759
65.875 19.169594
65.880 19.659266
65.885 19.81929
65.890 19.539267
65.895 19.009123
65.900 18.983627
65.905 18.633766
65.910 18.221762
65.915 18.145805
65.920 17.946245
65.925 18.002836
65.930 17.907707
65.935 17.657305
65.940 17.432163
65.945 17.171715
65.950 16.286654
65.955 15.83632
65.960 16.399498
65.965 16.333815
65.970 16.251841
65.975 16.077227
65.980 16.148344
65.985 16.60606
65.990 16.674004
65.995 16.178299
66.000 15.85108
66.005 15.439846
66.010 15.874956
66.015 15.844225
66.020 15.747741
66.025 15.596411
66.030 15.260432
66.035 15.272946
66.040 15.356826
66.045 14.911244
66.050 14.665774
66.055 14.670094
66.060 14.455596
66.065 15.394147
66.070 15.427378
66.075 15.153646
66.080 15.40244
66.085 15.23417
66.090 14.924873
66.095 14.464025
66.100 13.073792
66.105 12.832728
66.110 12.882097
66.115 12.610344
66.120 12.597446
66.125 12.594273
66.130 13.012136
66.135 13.853404
66.140 13.990183
66.145 13.86176
66.150 13.979219
66.155 14.036036
66.160 13.945535
66.165 13.890945
66.170 13.006817
66.175 12.965524
66.180 12.871142
66.185 12.75342
66.190 13.204785
66.195 13.251696
66.200 13.004498
66.205 13.393884
66.210 13.653637
66.215 13.791532
66.220 13.364844
66.225 13.049693
66.230 12.931252
66.235 12.877057
66.240 12.544974
66.245 12.186453
66.250 12.357504
66.255 12.412208
66.260 12.475663
66.265 12.704507
66.270 13.011607
66.275 13.578802
66.280 13.973808
66.285 13.578492
66.290 14.061466
66.295 14.146719
66.300 14.23396
66.305 14.047586
66.310 13.537529
66.315 13.301612
66.320 13.651593
66.325 13.08543
66.330 12.650166
66.335 12.700365
66.340 13.069948
66.345 13.076511
66.350 13.208032
66.355 13.049401
66.360 13.321683
66.365 13.381968
66.370 12.66633
66.375 12.059457
66.380 11.582276
66.385 11.634372
66.390 11.744567
66.395 11.571628
66.400 11.91807
66.405 12.763291
66.410 13.623749
66.415 14.131742
66.420 14.290268
66.425 14.334139
66.430 14.553464
66.435 14.42681
66.440 14.288516
66.445 13.837149
66.450 13.620214
66.455 13.054053
66.460 13.027992
66.465 13.078861
66.470 13.003399
66.475 12.549341
66.480 12.882456
66.485 12.849113
66.490 12.946662
66.495 12.825693
66.500 12.908695
66.505 12.941173
66.510 13.109652
66.515 12.985226
66.520 12.968524
66.525 12.689109
66.530 12.669499
66.535 12.548076
66.540 12.571485
66.545 12.251188
66.550 11.950456
66.555 12.242645
66.560 12.450065
66.565 12.535003
66.570 12.988134
66.575 13.325711
66.580 13.725928
66.585 13.929676
66.590 14.090709
66.595 14.454297
66.600 14.299016
66.605 13.602258
66.610 13.263147
66.615 13.192944
66.620 13.253716
66.625 13.000237
66.630 12.921318
66.635 12.609254
66.640 12.750731
66.645 13.533929
66.650 13.928723
66.655 14.282453
66.660 14.091722
66.665 13.983922
66.670 13.979895
66.675 13.926867
66.680 13.34273
66.685 12.483962
66.690 12.071922
66.695 12.211268
66.700 12.251674
66.705 12.378798
66.710 12.239377
66.715 12.374034
66.720 12.745813
66.725 13.2075
66.730 13.217412
66.735 13.48305
66.740 13.500096
66.745 13.732194
66.750 14.096432
66.755 13.94949
66.760 13.454704
66.765 13.748892
66.770 13.759165
66.775 13.588127
66.780 13.63205
66.785 12.897885
66.790 12.722915
66.795 12.776382
66.800 12.836654
66.805 12.735035
66.810 12.956482
66.815 12.792862
66.820 13.070356
66.825 13.246001
66.830 13.219663
66.835 12.696639
66.840 12.487656
66.845 12.188274
66.850 12.296884
66.855 11.956578
66.860 11.963376
66.865 11.926942
66.870 12.454326
66.875 12.738746
66.880 12.803389
66.885 12.816753
66.890 13.184372
66.895 12.984874
66.900 12.988943
66.905 12.418881
66.910 11.999776
66.915 12.09252
66.920 12.007238
66.925 12.15583
66.930 12.605188
66.935 13.585275
66.940 14.044399
66.945 14.151232
66.950 13.834344
66.955 13.484724
66.960 12.920739
66.965 12.627402
66.970 11.452424
66.975 11.431139
66.980 11.757573
66.985 12.206101
66.990 12.489226
66.995 12.746044
67.000 12.940146
67.005 13.419955
67.010 13.536414
67.015 13.57577
67.020 13.669039
67.025 13.670485
67.030 13.728042
67.035 14.272051
67.040 14.239369
67.045 13.943358
67.050 13.712958
67.055 13.712154
67.060 14.002364
67.065 13.894938
67.070 13.464477
67.075 13.508026
67.080 13.668166
67.085 13.570322
67.090 13.636047
67.095 13.382669
67.100 13.010725
67.105 12.586047
67.110 12.409648
67.115 12.372762
67.120 12.455817
67.125 12.037427
67.130 12.376267
67.135 12.565708
67.140 12.305887
67.145 12.88313
67.150 12.492857
67.155 12.165356
67.160 12.247431
67.165 12.081182
67.170 12.294759
67.175 12.34757
67.180 11.972911
67.185 12.106101
67.190 12.363432
67.195 12.165618
67.200 12.158475
67.205 12.115273
67.210 12.193733
67.215 12.260365
67.220 12.287586
67.225 12.259309
67.230 12.459712
67.235 12.740945
67.240 12.844819
67.245 13.04379
67.250 12.813318
67.255 12.872351
67.260 12.878634
67.265 12.392142
67.270 11.946409
67.275 11.478024
67.280 11.173745
67.285 11.711138
67.290 11.827727
67.295 11.933138
67.300 12.234056
67.305 12.029239
67.310 12.393629
67.315 12.409017
67.320 11.960229
67.325 11.997477
67.330 11.863432
67.335 12.275716
67.340 12.519733
67.345 12.896204
67.350 13.137306
67.355 13.800122
67.360 14.340376
67.365 14.565932
67.370 14.616299
67.375 14.694293
67.380 14.337845
67.385 14.191422
67.390 13.587239
67.395 13.154818
67.400 13.15861
67.405 12.881444
67.410 12.603437
67.415 12.673189
67.420 12.916624
67.425 13.003069
67.430 12.917289
67.435 13.100521
67.440 13.437818
67.445 13.712206
67.450 14.193683
67.455 14.145663
67.460 14.238174
67.465 14.236962
67.470 14.028209
67.475 13.63619
67.480 13.698079
67.485 13.094808
67.490 12.734556
67.495 12.499911
67.500 12.675755
67.505 12.61679
67.510 13.188941
67.515 13.415932
67.520 13.369878
67.525 13.490028
67.530 13.827694
67.535 13.674279
67.540 13.837259
67.545 13.921093
67.550 13.866867
67.555 14.786076
67.560 14.864238
67.565 14.941559
67.570 15.022976
67.575 14.873277
67.580 14.413051
67.585 13.996399
67.590 13.233277
67.595 13.416305
67.600 12.994756
67.605 13.260509
67.610 13.178401
67.615 13.305814
67.620 13.091821
67.625 13.53259
67.630 13.372727
67.635 13.622202
67.640 13.419959
67.645 13.493037
67.650 13.715637
67.655 14.321774
67.660 14.203032
67.665 14.605141
67.670 14.494921
67.675 14.90791
67.680 15.15619
67.685 15.234444
67.690 15.548426
67.695 15.839593
67.700 15.419542
67.705 15.149427
67.710 14.523149
67.715 14.372622
67.720 13.847713
67.725 13.621367
67.730 13.215748
67.735 13.031622
67.740 13.127166
67.745 13.077085
67.750 13.048006
67.755 12.987768
67.760 12.644708
67.765 12.555864
67.770 13.154634
67.775 13.252452
67.780 13.456491
67.785 13.385605
67.790 13.148624
67.795 12.616343
67.800 12.951596
67.805 13.011969
67.810 12.763026
67.815 12.486444
67.820 12.49108
67.825 12.84315
67.830 13.389717
67.835 12.886309
67.840 12.673747
67.845 12.770067
67.850 12.821195
67.855 12.513752
67.860 12.142977
67.865 11.545954
67.870 11.712658
67.875 11.527258
67.880 11.298548
67.885 11.780047
67.890 12.128399
67.895 12.455001
67.900 13.375371
67.905 13.697989
67.910 13.760191
67.915 14.210464
67.920 13.766262
67.925 13.599322
67.930 13.9137
67.935 14.025353
67.940 14.007526
67.945 14.232013
67.950 13.940491
67.955 14.267665
67.960 14.502832
67.965 14.19603
67.970 13.349053
67.975 12.917718
67.980 13.104595
67.985 12.622114
67.990 12.672532
67.995 12.776752
68.000 12.657576
68.005 13.000179
68.010 13.35851
68.015 13.35468
68.020 13.48973
68.025 13.102801
68.030 13.458534
68.035 13.24087
68.040 13.371892
68.045 13.379682
68.050 13.036823
68.055 13.079439
68.060 12.948155
68.065 12.828405
68.070 13.495665
68.075 13.873074
68.080 13.921254
68.085 14.247642
68.090 14.240547
68.095 14.122084
68.100 13.923033
68.105 12.823312
68.110 12.606335
68.115 12.617141
68.120 12.962597
68.125 13.434455
68.130 14.149824
68.135 14.6929
68.140 15.477466
68.145 15.471753
68.150 15.796826
68.155 15.89724
68.160 16.345863
68.165 16.293465
68.170 15.716739
68.175 15.851869
68.180 15.776061
68.185 15.541464
68.190 15.19609
68.195 14.806581
68.200 14.602803
68.205 14.552021
68.210 14.426677
68.215 14.517468
68.220 14.503057
68.225 14.610703
68.230 14.475584
68.235 14.89129
68.240 15.548535
68.245 16.198204
68.250 16.130295
68.255 15.615972
68.260 15.854862
68.265 16.271618
68.270 16.206408
68.275 15.817595
68.280 15.521437
68.285 15.887788
68.290 16.140059
68.295 15.503221
68.300 15.518314
68.305 16.023909
68.310 16.213015
68.315 16.566317
68.320 16.675911
68.325 17.100451
68.330 17.838482
68.335 18.270508
68.340 18.157368
68.345 18.697964
68.350 19.25725
68.355 19.948948
68.360 20.295116
68.365 20.229908
68.370 19.643591
68.375 19.766645
68.380 19.65027
68.385 19.417334
68.390 19.197714
68.395 19.123507
68.400 19.021008
68.405 19.311632
68.410 19.676577
68.415 19.925093
68.420 20.198561
68.425 20.726444
68.430 20.877773
68.435 20.962492
68.440 20.853785
68.445 21.025709
68.450 20.232025
68.455 19.895245
68.460 20.3995
68.465 21.207655
68.470 21.64283
68.475 21.587742
68.480 21.589254
68.485 22.712746
68.490 23.442528
68.495 23.239014
68.500 22.979904
68.505 22.698311
68.510 22.938213
68.515 23.317019
68.520 23.250891
68.525 23.095695
68.530 22.728651
68.535 22.252493
68.540 22.161419
68.545 22.862461
68.550 22.800074
68.555 23.168577
68.560 23.314369
68.565 23.239096
68.570 24.220587
68.575 24.237913
68.580 23.57308
68.585 23.622675
68.590 23.485758
68.595 23.041
68.600 23.085327
68.605 23.061953
68.610 23.983652
68.615 24.99262
68.620 24.653296
68.625 25.387598
68.630 25.971655
68.635 26.057344
68.640 25.870024
68.645 25.063364
68.650 24.528837
68.655 24.643726
68.660 23.83581
68.665 23.737732
68.670 24.181589
68.675 24.656033
68.680 24.778013
68.685 25.048456
68.690 25.375265
68.695 25.682684
68.700 25.86887
68.705 26.247206
68.710 25.591673
68.715 25.637262
68.720 25.104647
68.725 25.074244
68.730 25.444937
68.735 24.893217
68.740 24.632559
68.745 24.828091
68.750 24.449837
68.755 24.128468
68.760 23.664944
68.765 23.50629
68.770 23.822832
68.775 23.929588
68.780 23.834805
68.785 24.06171
68.790 24.008968
68.795 23.622391
68.800 23.918812
68.805 23.709024
68.810 23.319296
68.815 23.211563
68.820 23.050045
68.825 23.274151
68.830 23.759876
68.835 23.837326
68.840 23.689802
68.845 23.465267
68.850 23.836817
68.855 24.347029
68.860 24.767902
68.865 23.83193
68.870 23.001257
68.875 22.804098
68.880 23.147341
68.885 23.182352
68.890 22.953186
68.895 23.321064
68.900 24.023661
68.905 24.324659
68.910 24.311256
68.915 24.314552
68.920 24.09193
68.925 23.272009
68.930 22.443459
68.935 22.241959
68.940 22.486885
68.945 22.235634
68.950 22.092142
68.955 22.042959
68.960 22.455523
68.965 22.082592
68.970 21.717339
68.975 21.356325
68.980 21.20335
68.985 21.319592
68.990 21.674671
68.995 21.559608
69.000 21.704723
69.005 22.111574
69.010 22.316162
69.015 22.348907
69.020 21.525236
69.025 21.601852
69.030 21.91474
69.035 21.446507
69.040 20.709766
69.045 21.172014
69.050 21.371572
69.055 21.396948
69.060 21.063223
69.065 20.586864
69.070 20.541374
69.075 20.4079
69.080 19.326769
69.085 18.388411
69.090 18.535862
69.095 18.653152
69.100 19.111441
69.105 19.253584
69.110 19.002953
69.115 18.964474
69.120 19.324352
69.125 19.356951
69.130 18.83581
69.135 18.162176
69.140 17.607479
69.145 17.450363
69.150 17.211147
69.155 17.152073
69.160 16.531843
69.165 16.842125
69.170 16.88891
69.175 16.898811
69.180 17.26643
69.185 17.165442
69.190 17.225054
69.195 17.301958
69.200 16.695583
69.205 16.381298
69.210 16.616869
69.215 16.443998
69.220 16.238514
69.225 16.014162
69.230 15.990536
69.235 16.050589
69.240 15.977725
69.245 15.149198
69.250 15.287279
69.255 15.83553
69.260 16.21035
69.265 16.35874
69.270 16.381454
69.275 16.163898
69.280 16.233042
69.285 15.169864
69.290 14.529726
69.295 14.04918
69.300 13.956272
69.305 14.275703
69.310 15.057261
69.315 15.68677
69.320 15.752337
69.325 16.019518
69.330 15.992849
69.335 15.641274
69.340 14.862939
69.345 13.626246
69.350 13.113789
69.355 14.081537
69.360 14.31615
69.365 14.345225
69.370 14.38895
69.375 15.183985
69.380 15.851181
69.385 15.771436
69.390 15.215019
69.395 14.741426
69.400 14.569375
69.405 14.467247
69.410 14.280952
69.415 14.572967
69.420 14.718915
69.425 14.709852
69.430 14.656986
69.435 14.989451
69.440 15.085867
69.445 14.71736
69.450 14.275456
69.455 13.86675
69.460 13.666014
69.465 14.148546
69.470 14.226925
69.475 14.125726
69.480 14.015344
69.485 13.926773
69.490 14.019253
69.495 13.663265
69.500 12.836831
69.505 12.457144
69.510 12.308567
69.515 12.372775
69.520 12.954938
69.525 13.156118
69.530 13.549882
69.535 13.50548
69.540 13.837822
69.545 14.290775
69.550 14.283111
69.555 13.922134
69.560 14.012945
69.565 14.121799
69.570 14.418417
69.575 14.535657
69.580 14.601852
69.585 14.249172
69.590 14.289463
69.595 13.58164
69.600 13.290854
69.605 13.14735
69.610 12.797268
69.615 12.531288
69.620 12.763224
69.625 12.587836
69.630 12.993984
69.635 13.065529
69.640 12.924227
69.645 12.749348
69.650 13.022454
69.655 13.147532
69.660 13.172138
69.665 12.71856
69.670 13.034945
69.675 13.114531
69.680 13.526061
69.685 13.075377
69.690 12.918519
69.695 13.45052
69.700 13.897022
69.705 13.853483
69.710 13.903783
69.715 13.54909
69.720 13.648952
69.725 13.550344
69.730 13.471697
69.735 13.142954
69.740 13.274176
69.745 13.072986
69.750 13.225649
69.755 13.174893
69.760 13.626177
69.765 13.700706
69.770 13.61597
69.775 13.65746
69.780 13.940937
69.785 14.197918
69.790 13.89097
69.795 13.152114
69.800 12.93507
69.805 13.00808
69.810 13.078369
69.815 13.224977
69.820 13.30023
69.825 13.257119
69.830 13.456691
69.835 13.609545
69.840 13.834264
69.845 14.230515
69.850 14.085209
69.855 13.669227
69.860 13.832911
69.865 13.718285
69.870 13.540664
69.875 13.001123
69.880 12.293258
69.885 12.586712
69.890 13.130566
69.895 13.084531
69.900 13.746148
69.905 13.857625
69.910 13.985287
69.915 13.835435
69.920 13.715231
69.925 13.786964
69.930 14.540213
69.935 13.995689
69.940 13.85189
69.945 14.031985
69.950 14.380263
69.955 14.195621
69.960 14.079803
69.965 13.82056
69.970 13.994514
69.975 14.262991
69.980 13.783589
69.985 13.761742
69.990 14.113127
69.995 14.271189
70.000 14.570615
70.005 14.265769
70.010 14.410602
70.015 14.764896
70.020 14.402256
70.025 14.352397
70.030 14.137331
70.035 13.915875
70.040 14.720009
70.045 14.477809
70.050 14.378518
70.055 14.59903
70.060 14.369421
70.065 14.049003
70.070 14.42391
70.075 13.772161
70.080 13.80376
70.085 13.726336
70.090 13.951464
70.095 14.057726
70.100 14.439647
70.105 13.961082
70.110 14.170853
70.115 14.442682
70.120 14.155881
70.125 14.292176
70.130 14.2735
70.135 14.006256
70.140 14.030707
70.145 14.114862
70.150 14.213361
70.155 14.239788
70.160 13.750306
70.165 14.037109
70.170 14.419925
70.175 14.251132
70.180 14.335351
70.185 14.193707
70.190 14.272528
70.195 14.125436
70.200 13.443837
70.205 13.22968
70.210 12.753005
70.215 12.189084
70.220 12.177527
70.225 12.413023
70.230 12.34501
70.235 12.416048
70.240 12.940532
70.245 13.506173
70.250 13.736902
70.255 13.880702
70.260 13.827738
70.265 13.905671
70.270 13.834213
70.275 13.549028
70.280 13.416865
70.285 13.191608
70.290 13.297565
70.295 14.044117
70.300 14.330874
70.305 14.497632
70.310 14.786584
70.315 14.881215
70.320 15.237575
70.325 14.892274
70.330 14.27952
70.335 14.455006
70.340 13.762223
70.345 13.386268
70.350 13.091403
70.355 12.709833
70.360 12.600902
70.365 12.858386
70.370 12.918141
70.375 13.229201
70.380 13.317375
70.385 13.594532
70.390 14.009008
70.395 13.884633
70.400 13.295069
70.405 12.788462
70.410 12.741073
70.415 12.711222
70.420 12.729681
70.425 12.83644
70.430 13.234013
70.435 13.462664
70.440 13.926114
70.445 14.128548
70.450 13.982194
70.455 13.858631
70.460 13.466251
70.465 12.84317
70.470 13.06635
70.475 12.943681
70.480 13.20617
70.485 13.539198
70.490 13.472124
70.495 13.83618
70.500 14.246511
70.505 14.318026
70.510 14.647852
70.515 14.390577
70.520 14.30033
70.525 13.869873
70.530 13.680138
70.535 14.051403
70.540 14.093091
70.545 13.779099
70.550 13.451697
70.555 13.398441
70.560 13.452545
70.565 13.175994
70.570 12.855385
70.575 12.77874
70.580 13.076421
70.585 13.484462
70.590 13.401976
70.595 13.929438
70.600 14.01216
70.605 14.033211
70.610 14.293803
70.615 14.365114
70.620 14.549539
70.625 14.426931
70.630 13.941393
70.635 13.728842
70.640 13.410856
70.645 13.186117
70.650 13.029206
70.655 13.234881
70.660 13.345436
70.665 13.48587
70.670 13.493866
70.675 13.48998
70.680 13.584867
70.685 13.056454
70.690 12.831334
70.695 13.304051
70.700 14.051373
70.705 14.335483
70.710 14.579873
70.715 14.884124
70.720 14.980461
70.725 14.748131
70.730 14.384549
70.735 13.583506
70.740 13.348711
70.745 13.116115
70.750 12.91203
70.755 13.261774
70.760 13.430369
70.765 13.841535
70.770 14.115775
70.775 14.271489
70.780 13.911196
70.785 13.490469
70.790 13.660509
70.795 13.26585
70.800 13.000987
70.805 12.891787
70.810 12.594474
70.815 13.143783
70.820 13.691549
70.825 13.561025
70.830 13.583065
70.835 13.788357
70.840 13.591045
70.845 13.537262
70.850 13.340857
70.855 13.147754
70.860 12.982406
70.865 12.556321
70.870 12.187194
70.875 12.817984
70.880 13.086472
70.885 13.522072
70.890 13.629038
70.895 13.968081
70.900 14.395008
70.905 14.502697
70.910 14.168145
70.915 13.789879
70.920 13.410137
70.925 13.334323
70.930 13.037844
70.935 12.994027
70.940 13.233488
70.945 13.66877
70.950 13.883247
70.955 13.905937
70.960 14.361666
70.965 14.743708
70.970 14.607513
70.975 13.999759
70.980 13.223048
70.985 13.47677
70.990 13.259956
70.995 13.125514
71.000 13.659445
71.005 13.157977
71.010 13.504556
71.015 13.725026
71.020 14.005786
71.025 13.775056
71.030 13.267536
71.035 12.827275
71.040 13.372447
71.045 13.338754
71.050 13.231331
71.055 12.636912
71.060 12.537115
71.065 12.630416
71.070 12.467227
71.075 12.40184
71.080 12.48746
71.085 12.726324
71.090 13.156321
71.095 14.129448
71.100 14.321528
71.105 14.204629
71.110 13.813111
71.115 13.591001
71.120 13.629296
71.125 13.674518
71.130 13.182459
71.135 13.231739
71.140 13.97418
71.145 14.326841
71.150 14.36859
71.155 14.391038
71.160 13.827586
71.165 13.676509
71.170 13.637224
71.175 13.539442
71.180 13.509772
71.185 13.596126
71.190 13.453255
71.195 13.466215
71.200 14.003346
71.205 14.435687
71.210 14.006988
71.215 13.579784
71.220 13.02984
71.225 12.98716
71.230 13.313568
71.235 12.934192
71.240 12.749295
71.245 13.001448
71.250 13.82324
71.255 14.113166
71.260 14.003443
71.265 14.077251
71.270 13.509457
71.275 13.347937
71.280 13.133719
71.285 12.596203
71.290 12.543859
71.295 12.125648
71.300 11.869827
71.305 12.091887
71.310 12.104069
71.315 12.170983
71.320 11.841887
71.325 12.000329
71.330 11.63698
71.335 11.727234
71.340 11.980762
71.345 12.188589
71.350 12.742943
71.355 13.546403
71.360 13.807283
71.365 14.739156
71.370 14.313877
71.375 14.276358
71.380 13.981145
71.385 13.769327
71.390 13.593534
71.395 13.532847
71.400 13.693405
71.405 14.055017
71.410 14.034835
71.415 13.337555
71.420 12.950885
71.425 13.189582
71.430 13.098666
71.435 12.859177
71.440 12.702302
71.445 12.985571
71.450 14.085007
71.455 14.16087
71.460 13.938267
71.465 13.336445
71.470 13.613158
71.475 14.008427
71.480 14.105297
71.485 14.23467
71.490 14.056034
71.495 14.290011
71.500 14.232177
71.505 13.449262
71.510 13.402452
71.515 12.704325
71.520 12.12909
71.525 12.499959
71.530 12.890982
71.535 13.092769
71.540 12.858408
71.545 12.536258
71.550 13.086918
71.555 12.667554
71.560 12.015715
71.565 11.691809
71.570 11.874257
71.575 12.577695
71.580 12.276932
71.585 12.260637
71.590 12.971895
71.595 13.332719
71.600 13.195665
71.605 13.174961
71.610 13.173063
71.615 13.609515
71.620 13.965508
71.625 13.762336
71.630 13.553667
71.635 13.997498
71.640 13.762045
71.645 13.071625
71.650 12.47726
71.655 12.314779
71.660 12.235826
71.665 12.064887
71.670 11.877612
71.675 12.49669
71.680 13.110313
71.685 13.447446
71.690 13.368802
71.695 13.67497
71.700 13.791428
71.705 13.425452
71.710 13.246006
71.715 13.128721
71.720 12.891701
71.725 12.363455
71.730 11.946408
71.735 11.683278
71.740 11.834406
71.745 12.065248
71.750 12.173265
71.755 12.510543
71.760 12.903085
71.765 13.31489
71.770 13.103104
71.775 12.81193
71.780 12.956358
71.785 13.151948
71.790 13.138626
71.795 12.95835
71.800 13.272863
71.805 13.802619
71.810 14.069127
71.815 13.31951
71.820 13.030979
71.825 13.433695
71.830 13.953892
71.835 13.934747
71.840 13.827565
71.845 13.434751
71.850 13.574843
71.855 13.022928
71.860 12.89712
71.865 12.815067
71.870 12.370387
71.875 12.472461
71.880 13.151767
71.885 13.285865
71.890 13.363047
71.895 13.282015
71.900 12.992734
71.905 13.308082
71.910 13.276004
71.915 12.286862
71.920 12.314991
71.925 12.463822
71.930 12.303183
71.935 12.438401
71.940 12.267044
71.945 13.125977
71.950 13.621511
71.955 13.73116
71.960 13.483871
71.965 13.635362
71.970 13.78871
71.975 13.196236
71.980 12.822213
71.985 12.688012
71.990 12.382936
71.995 12.113309
72.000 12.081982
72.005 12.613506
72.010 12.680826
72.015 12.387653
72.020 12.852141
72.025 13.473704
72.030 14.13916
72.035 14.045001
72.040 14.002554
72.045 13.974133
72.050 14.239749
72.055 14.26692
72.060 14.366795
72.065 13.827803
72.070 13.831266
72.075 13.31122
72.080 13.272846
72.085 13.370726
72.090 13.135875
72.095 12.68596
72.100 12.723197
72.105 13.000542
72.110 13.178967
72.115 12.900403
72.120 12.92912
72.125 12.993757
72.130 13.339132
72.135 13.088051
72.140 13.441772
72.145 13.564031
72.150 13.695397
72.155 13.36777
72.160 13.11394
72.165 12.886222
72.170 13.012322
72.175 12.652448
72.180 12.530312
72.185 13.160422
72.190 13.279062
72.195 13.651915
72.200 13.736494
72.205 13.009331
72.210 12.809901
72.215 12.371544
72.220 12.041934
72.225 11.80557
72.230 11.473488
72.235 11.926938
72.240 12.451047
72.245 12.878037
72.250 13.234585
72.255 12.802191
72.260 13.108098
72.265 13.306252
72.270 13.294619
72.275 13.037991
72.280 13.033484
72.285 13.163699
72.290 13.686312
72.295 13.66937
72.300 13.604464
72.305 13.599387
72.310 13.158278
72.315 13.19774
72.320 12.593415
72.325 12.032068
72.330 11.696986
72.335 11.72939
72.340 12.152913
72.345 12.350773
72.350 12.670968
72.355 13.860011
72.360 14.238804
72.365 14.725463
72.370 14.802176
72.375 14.53694
72.380 14.577477
72.385 14.740005
72.390 14.248833
72.395 14.092657
72.400 13.546585
72.405 13.288146
72.410 13.825322
72.415 14.121403
72.420 13.894547
72.425 13.867367
72.430 14.079209
72.435 14.040335
72.440 14.244439
72.445 13.984265
72.450 13.990314
72.455 13.889297
72.460 13.927236
72.465 13.960227
72.470 14.10842
72.475 13.463737
72.480 13.293993
72.485 13.169661
72.490 12.718189
72.495 12.428732
72.500 12.060767
72.505 12.287982
72.510 12.281848
72.515 12.12936
72.520 12.331356
72.525 12.955622
72.530 13.490988
72.535 13.881326
72.540 14.310143
72.545 14.242687
72.550 14.385622
72.555 14.768019
72.560 14.455824
72.565 14.009275
72.570 13.541243
72.575 13.305323
72.580 13.352192
72.585 12.685407
72.590 12.180074
72.595 12.534609
72.600 12.799098
72.605 13.071517
72.610 13.322428
72.615 13.545902
72.620 13.980082
72.625 13.941616
72.630 13.96691
72.635 13.562677
72.640 12.890016
72.645 12.783095
72.650 12.438987
72.655 12.312889
72.660 12.399978
72.665 12.414165
72.670 13.067942
72.675 13.308763
72.680 13.390942
72.685 13.580952
72.690 13.104677
72.695 13.435039
72.700 13.833423
72.705 13.615704
72.710 13.379096
72.715 13.27205
72.720 13.225561
72.725 13.223395
72.730 12.772712
72.735 12.685275
72.740 12.62782
72.745 12.500221
72.750 12.596491
72.755 12.655132
72.760 12.701992
72.765 12.402325
72.770 12.475211
72.775 12.41365
72.780 12.254451
72.785 12.098895
72.790 12.05993
72.795 11.863231
72.800 12.310184
72.805 12.075098
72.810 12.477697
72.815 12.664834
72.820 12.541403
72.825 13.399191
72.830 13.386088
72.835 13.6461
72.840 13.676271
72.845 13.46103
72.850 13.581512
72.855 13.510013
72.860 13.346242
72.865 13.252142
72.870 13.290913
72.875 13.444086
72.880 13.320775
72.885 13.448889
72.890 12.969749
72.895 12.625938
72.900 12.643046
72.905 12.477758
72.910 12.094144
72.915 12.444323
72.920 12.414445
72.925 12.453598
72.930 12.18917
72.935 12.131677
72.940 11.990399
72.945 12.073882
72.950 11.834285
72.955 12.017447
72.960 12.666444
72.965 12.839746
72.970 12.966641
72.975 13.623806
72.980 13.519278
72.985 14.126044
72.990 13.706923
72.995 12.536792
73.000 12.365677
