!@!!GADDS PLOTSO FILE: Chi integration type
!@!!Title/SampleName: map-100
!@!!Comment: ?
!@!!User: Bruker Instrument Administrator
!@!!Site: University of Illinois Chicago
!@!!Frame: map-100_01_000.gfrm
!@!!Wavelengths    1.54184   1.54056   1.54439
!@!!Frame angles: 2Theta: 63.000 Omega: 50.000 Phi: 0.000 Chi: 90.000
!@!!Integration range: 2Theta: 53.000 to 73.000  Gamma: -105.000 to -75.000
!@!!Integration method: bin normalized
!@!N
!@!SS
!@!M
!@!L 0.0 0.0 0.0 0.0
!@!XDegrees
!@!YCounts
53.000 9.825446
53.005 9.802996
53.010 9.629218
53.015 9.868378
53.020 9.855051
53.025 10.181361
53.030 10.176692
53.035 10.150202
53.040 10.538562
53.045 10.309362
53.050 9.972705
53.055 9.611143
53.060 9.449321
53.065 9.326465
53.070 9.282948
53.075 9.073499
53.080 9.461673
53.085 9.783408
53.090 10.086539
53.095 9.968569
53.100 10.181383
53.105 10.044276
53.110 10.45341
53.115 10.577209
53.120 10.730138
53.125 10.601055
53.130 10.478552
53.135 10.331106
53.140 9.908709
53.145 9.517783
53.150 8.981196
53.155 8.653337
53.160 8.904493
53.165 8.984795
53.170 9.524042
53.175 9.600441
53.180 9.251276
53.185 9.137545
53.190 8.970066
53.195 8.780269
53.200 8.678748
53.205 8.548681
53.210 8.509926
53.215 8.650478
53.220 8.734632
53.225 9.175496
53.230 9.505908
53.235 9.732697
53.240 9.546861
53.245 10.067626
53.250 10.479493
53.255 10.689455
53.260 10.554444
53.265 10.404037
53.270 10.308142
53.275 10.592726
53.280 10.526616
53.285 10.422566
53.290 10.492952
53.295 10.036767
53.300 10.351008
53.305 10.534978
53.310 10.738493
53.315 10.600687
53.320 10.369115
53.325 10.153583
53.330 10.362646
53.335 9.714983
53.340 9.312075
53.345 8.751628
53.350 8.729854
53.355 8.860502
53.360 9.265076
53.365 9.48638
53.370 9.614891
53.375 10.080534
53.380 10.370254
53.385 11.11478
53.390 11.274187
53.395 10.883642
53.400 10.666468
53.405 10.68462
53.410 10.428582
53.415 10.074244
53.420 8.893979
53.425 8.514642
53.430 8.749308
53.435 8.55832
53.440 8.574484
53.445 8.550933
53.450 8.507142
53.455 8.783072
53.460 9.019949
53.465 8.888074
53.470 9.263734
53.475 9.046968
53.480 9.064194
53.485 9.864381
53.490 10.169977
53.495 10.40442
53.500 10.31769
53.505 10.202633
53.510 10.807109
53.515 11.283854
53.520 10.965746
53.525 10.962434
53.530 10.359688
53.535 10.737114
53.540 10.924552
53.545 10.702114
53.550 10.22732
53.555 10.010839
53.560 9.947388
53.565 10.489979
53.570 9.951609
53.575 9.44819
53.580 9.193675
53.585 9.4268
53.590 9.615685
53.595 9.967581
53.600 9.198449
53.605 9.506868
53.610 9.713463
53.615 9.933653
53.620 10.368538
53.625 10.496968
53.630 10.920209
53.635 11.781776
53.640 11.849883
53.645 12.04506
53.650 12.06511
53.655 11.770672
53.660 11.77408
53.665 11.451781
53.670 11.145839
53.675 11.383148
53.680 10.86943
53.685 10.250301
53.690 10.082886
53.695 9.996273
53.700 9.734951
53.705 9.601247
53.710 9.965483
53.715 10.118224
53.720 10.359577
53.725 10.474048
53.730 10.880899
53.735 11.023791
53.740 11.088071
53.745 10.814516
53.750 10.949152
53.755 11.054237
53.760 10.74255
53.765 10.393509
53.770 10.675664
53.775 10.796882
53.780 10.846762
53.785 10.903106
53.790 10.660883
53.795 10.768807
53.800 10.844374
53.805 10.913926
53.810 11.014603
53.815 11.060965
53.820 11.315535
53.825 11.726852
53.830 11.706997
53.835 11.455522
53.840 10.780679
53.845 10.259287
53.850 10.162195
53.855 9.790318
53.860 9.393429
53.865 9.614936
53.870 9.651451
53.875 10.138418
53.880 10.225836
53.885 10.295206
53.890 10.311991
53.895 10.592027
53.900 10.754548
53.905 10.917994
53.910 10.769673
53.915 10.675734
53.920 10.512622
53.925 10.300026
53.930 9.715125
53.935 9.033431
53.940 8.782207
53.945 8.853207
53.950 9.131352
53.955 9.224971
53.960 9.807916
53.965 10.315202
53.970 10.40937
53.975 10.605395
53.980 10.005062
53.985 9.852252
53.990 9.774562
53.995 9.2725
54.000 9.318353
54.005 9.326474
54.010 9.683947
54.015 10.2513
54.020 10.289597
54.025 10.329527
54.030 9.995666
54.035 9.913116
54.040 10.000656
54.045 9.42624
54.050 9.246792
54.055 9.364288
54.060 9.171443
54.065 9.930007
54.070 10.245692
54.075 10.254573
54.080 10.723958
54.085 10.96242
54.090 11.151248
54.095 11.497884
54.100 11.120967
54.105 10.988893
54.110 10.764085
54.115 10.534348
54.120 10.351823
54.125 10.357271
54.130 10.175845
54.135 10.309552
54.140 10.367295
54.145 10.737885
54.150 10.594378
54.155 10.349646
54.160 10.447049
54.165 10.739764
54.170 10.818425
54.175 11.181603
54.180 11.047957
54.185 11.259012
54.190 11.717213
54.195 11.757083
54.200 11.929646
54.205 11.815455
54.210 11.79799
54.215 11.856367
54.220 11.411269
54.225 10.796188
54.230 10.667439
54.235 10.338345
54.240 10.025672
54.245 9.997494
54.250 10.121483
54.255 10.318376
54.260 10.839427
54.265 10.867945
54.270 11.010999
54.275 10.962548
54.280 10.796474
54.285 10.706633
54.290 10.457152
54.295 9.963565
54.300 9.982841
54.305 10.273319
54.310 10.706482
54.315 10.37432
54.320 10.870111
54.325 11.303934
54.330 11.757644
54.335 11.722321
54.340 11.508406
54.345 11.447442
54.350 11.382025
54.355 10.788879
54.360 10.401101
54.365 10.317102
54.370 10.108994
54.375 10.099356
54.380 10.323907
54.385 10.736864
54.390 10.74725
54.395 11.511265
54.400 11.48503
54.405 11.119666
54.410 11.143101
54.415 10.814493
54.420 10.694411
54.425 10.62919
54.430 10.137707
54.435 10.22403
54.440 10.090548
54.445 10.087761
54.450 10.048595
54.455 10.039256
54.460 10.086493
54.465 10.209183
54.470 11.054391
54.475 11.632293
54.480 11.960897
54.485 11.943886
54.490 12.004475
54.495 12.236852
54.500 12.108469
54.505 11.227251
54.510 10.754875
54.515 10.487156
54.520 10.698667
54.525 10.865548
54.530 10.751203
54.535 10.5036
54.540 10.555249
54.545 10.842583
54.550 11.295218
54.555 11.619541
54.560 11.691669
54.565 11.663713
54.570 11.684008
54.575 11.833246
54.580 11.677307
54.585 11.536928
54.590 11.057921
54.595 10.799808
54.600 10.959774
54.605 11.208896
54.610 10.730698
54.615 10.642469
54.620 10.592428
54.625 10.614792
54.630 10.581699
54.635 10.621098
54.640 10.085208
54.645 9.915755
54.650 10.365782
54.655 10.452769
54.660 10.439861
54.665 10.456748
54.670 10.446408
54.675 10.738634
54.680 11.214845
54.685 11.175874
54.690 11.67766
54.695 11.659236
54.700 11.858319
54.705 12.312397
54.710 12.440502
54.715 12.237766
54.720 12.125534
54.725 11.97866
54.730 12.218421
54.735 11.929043
54.740 11.578494
54.745 11.258938
54.750 10.792442
54.755 9.822225
54.760 9.806295
54.765 9.456525
54.770 9.185231
54.775 8.715916
54.780 8.856034
54.785 9.613171
54.790 9.990143
54.795 10.173971
54.800 10.37341
54.805 10.935695
54.810 11.542687
54.815 11.647467
54.820 11.758945
54.825 11.448172
54.830 10.957446
54.835 10.591318
54.840 10.289859
54.845 10.893836
54.850 10.919044
54.855 10.7862
54.860 11.167336
54.865 11.705022
54.870 11.946383
54.875 11.784733
54.880 11.006135
54.885 10.677683
54.890 10.317986
54.895 10.171515
54.900 9.881811
54.905 10.004871
54.910 10.428029
54.915 10.946832
54.920 11.598416
54.925 11.854663
54.930 11.53368
54.935 11.516114
54.940 11.448725
54.945 11.49429
54.950 11.457609
54.955 10.976274
54.960 11.337734
54.965 11.831122
54.970 11.898273
54.975 11.65829
54.980 11.285367
54.985 10.945413
54.990 10.520563
54.995 10.187964
55.000 10.414717
55.005 10.981059
55.010 11.290247
55.015 11.560842
55.020 12.061849
55.025 12.94239
55.030 13.020617
55.035 12.876011
55.040 12.535517
55.045 12.163094
55.050 11.885811
55.055 11.41508
55.060 10.954183
55.065 10.968693
55.070 10.413384
55.075 10.638733
55.080 10.912637
55.085 10.689102
55.090 10.844011
55.095 10.761721
55.100 10.690081
55.105 10.541176
55.110 10.456589
55.115 11.236895
55.120 11.955589
55.125 12.066445
55.130 11.828741
55.135 12.38268
55.140 12.756835
55.145 12.645412
55.150 12.26187
55.155 12.230308
55.160 12.069001
55.165 11.937974
55.170 11.894932
55.175 11.835326
55.180 11.596107
55.185 11.148995
55.190 10.643078
55.195 10.664268
55.200 11.007645
55.205 10.620337
55.210 10.581225
55.215 10.829185
55.220 10.954476
55.225 11.237284
55.230 11.026244
55.235 11.127064
55.240 11.192848
55.245 11.494616
55.250 11.64055
55.255 11.563376
55.260 11.665371
55.265 11.907428
55.270 12.315293
55.275 11.969593
55.280 11.887156
55.285 11.81299
55.290 11.78167
55.295 11.791479
55.300 11.676696
55.305 11.5265
55.310 11.845513
55.315 11.329168
55.320 11.406432
55.325 12.295401
55.330 12.326812
55.335 12.210855
55.340 12.348873
55.345 12.269843
55.350 12.070302
55.355 11.825484
55.360 11.159728
55.365 11.21157
55.370 11.574238
55.375 11.321117
55.380 11.296961
55.385 11.133557
55.390 11.353256
55.395 11.430067
55.400 11.163496
55.405 10.576278
55.410 10.625909
55.415 10.699
55.420 10.94492
55.425 10.716043
55.430 10.340407
55.435 10.739037
55.440 11.259144
55.445 11.276954
55.450 11.39043
55.455 11.808689
55.460 12.114007
55.465 11.889791
55.470 11.628364
55.475 11.621184
55.480 12.005796
55.485 11.972034
55.490 11.765084
55.495 12.668921
55.500 13.36335
55.505 13.238177
55.510 13.427526
55.515 13.72177
55.520 13.469714
55.525 13.49921
55.530 12.863327
55.535 12.868103
55.540 12.969495
55.545 12.436428
55.550 11.923393
55.555 11.863704
55.560 11.491754
55.565 11.17797
55.570 10.758194
55.575 10.577054
55.580 10.644547
55.585 10.771358
55.590 11.477962
55.595 11.805862
55.600 11.965601
55.605 12.125017
55.610 11.841123
55.615 11.585121
55.620 11.810973
55.625 11.804404
55.630 11.693034
55.635 11.470783
55.640 11.299891
55.645 12.022414
55.650 12.64774
55.655 12.567443
55.660 12.231842
55.665 12.329087
55.670 12.75203
55.675 13.022838
55.680 12.743438
55.685 12.724669
55.690 12.353385
55.695 12.0877
55.700 12.607838
55.705 12.833645
55.710 12.7022
55.715 12.549202
55.720 12.196185
55.725 12.620583
55.730 12.323971
55.735 11.922761
55.740 11.713066
55.745 11.361491
55.750 11.334157
55.755 11.268986
55.760 11.262871
55.765 11.43543
55.770 10.951439
55.775 11.036968
55.780 11.682387
55.785 11.445707
55.790 11.525133
55.795 11.439196
55.800 11.554867
55.805 11.979706
55.810 11.819758
55.815 11.909448
55.820 12.407727
55.825 12.923929
55.830 13.986866
55.835 14.595172
55.840 14.772162
55.845 14.980499
55.850 14.979649
55.855 14.696484
55.860 14.453609
55.865 13.591154
55.870 12.65816
55.875 12.323459
55.880 11.925131
55.885 12.098088
55.890 12.262296
55.895 12.299175
55.900 12.504239
55.905 13.052372
55.910 12.861364
55.915 12.829161
55.920 12.538769
55.925 12.754375
55.930 13.171264
55.935 13.509983
55.940 13.887
55.945 14.262447
55.950 14.507276
55.955 14.521139
55.960 13.802506
55.965 13.492461
55.970 13.197698
55.975 12.744463
55.980 12.51264
55.985 12.565984
55.990 12.463048
55.995 12.870001
56.000 12.958967
56.005 13.008539
56.010 13.344563
56.015 13.187325
56.020 13.542216
56.025 13.463252
56.030 13.179917
56.035 13.004325
56.040 12.967505
56.045 12.429427
56.050 12.397467
56.055 12.611156
56.060 12.626131
56.065 12.532768
56.070 12.535742
56.075 12.927797
56.080 12.845151
56.085 12.743714
56.090 12.266052
56.095 11.811707
56.100 11.735289
56.105 11.573366
56.110 11.161577
56.115 12.400801
56.120 12.436115
56.125 12.377076
56.130 12.765395
56.135 12.892573
56.140 13.228378
56.145 14.221141
56.150 13.484228
56.155 13.528975
56.160 13.654669
56.165 13.557355
56.170 13.90461
56.175 13.498847
56.180 12.981369
56.185 12.590559
56.190 12.597871
56.195 12.408014
56.200 12.924496
56.205 12.963821
56.210 13.374931
56.215 13.494617
56.220 13.560869
56.225 13.739152
56.230 14.206897
56.235 13.757645
56.240 13.455134
56.245 13.286772
56.250 13.158234
56.255 13.299503
56.260 12.651314
56.265 12.504413
56.270 12.965561
56.275 13.186911
56.280 13.45977
56.285 13.293054
56.290 13.178439
56.295 13.75838
56.300 13.533925
56.305 13.297277
56.310 12.935594
56.315 12.77551
56.320 12.701492
56.325 12.827972
56.330 12.656048
56.335 13.089246
56.340 13.381106
56.345 13.005737
56.350 12.75824
56.355 13.072447
56.360 13.270951
56.365 13.496369
56.370 13.203594
56.375 13.275692
56.380 13.589267
56.385 13.340885
56.390 13.082202
56.395 13.076009
56.400 12.549774
56.405 11.921865
56.410 11.330363
56.415 10.845352
56.420 11.599263
56.425 12.855169
56.430 12.971231
56.435 12.888739
56.440 12.943079
56.445 13.865938
56.450 14.337255
56.455 13.835676
56.460 13.00633
56.465 13.208386
56.470 13.89645
56.475 13.978292
56.480 13.613782
56.485 13.679862
56.490 14.043027
56.495 13.483611
56.500 13.183629
56.505 13.209541
56.510 13.189611
56.515 13.102509
56.520 12.856549
56.525 12.879636
56.530 13.611017
56.535 13.499522
56.540 13.851642
56.545 14.105466
56.550 14.34417
56.555 14.371319
56.560 14.19795
56.565 14.275957
56.570 14.087527
56.575 13.611395
56.580 13.606134
56.585 13.449656
56.590 13.290392
56.595 13.040912
56.600 12.470397
56.605 12.553366
56.610 12.741439
56.615 12.812711
56.620 12.924223
56.625 13.335601
56.630 13.049884
56.635 13.252011
56.640 13.217431
56.645 13.160694
56.650 12.999966
56.655 13.155995
56.660 12.979877
56.665 13.529538
56.670 13.451159
56.675 13.274387
56.680 13.598717
56.685 14.035287
56.690 14.370559
56.695 14.739897
56.700 14.907273
56.705 15.069262
56.710 14.837299
56.715 14.42746
56.720 14.160993
56.725 14.072528
56.730 13.60864
56.735 13.494108
56.740 13.626127
56.745 13.939795
56.750 13.711412
56.755 13.502794
56.760 13.351408
56.765 13.654379
56.770 13.568515
56.775 13.980969
56.780 14.141972
56.785 14.568035
56.790 14.522765
56.795 14.488714
56.800 14.585966
56.805 14.765273
56.810 14.524748
56.815 14.682283
56.820 14.381587
56.825 14.847762
56.830 14.835001
56.835 14.619282
56.840 14.838837
56.845 14.718312
56.850 14.400404
56.855 14.290748
56.860 13.723553
56.865 13.602702
56.870 13.672208
56.875 13.710741
56.880 13.294516
56.885 13.493831
56.890 13.370608
56.895 13.772539
56.900 14.113869
56.905 13.964382
56.910 13.921515
56.915 14.147767
56.920 14.051769
56.925 13.969863
56.930 13.962628
56.935 14.502746
56.940 14.315145
56.945 14.240162
56.950 14.195765
56.955 14.143472
56.960 14.283937
56.965 13.817007
56.970 13.282853
56.975 13.707581
56.980 13.533077
56.985 13.843095
56.990 13.841149
56.995 13.903696
57.000 13.993625
57.005 13.704226
57.010 13.646384
57.015 13.522807
57.020 12.871005
57.025 13.113873
57.030 12.752546
57.035 12.784655
57.040 13.321321
57.045 14.122307
57.050 15.113519
57.055 16.01861
57.060 16.028154
57.065 16.314381
57.070 16.23797
57.075 15.917205
57.080 14.963877
57.085 14.111722
57.090 13.484498
57.095 13.029035
57.100 12.972127
57.105 12.926549
57.110 13.150721
57.115 13.042794
57.120 12.772017
57.125 12.404922
57.130 12.499537
57.135 12.631008
57.140 12.338157
57.145 11.796021
57.150 12.127963
57.155 12.44634
57.160 12.984504
57.165 13.373361
57.170 13.708202
57.175 14.014412
57.180 14.01501
57.185 13.974755
57.190 13.698417
57.195 13.243336
57.200 12.842105
57.205 12.488198
57.210 12.811675
57.215 13.259197
57.220 13.230133
57.225 13.793415
57.230 14.420668
57.235 14.500945
57.240 14.631567
57.245 13.816592
57.250 13.119995
57.255 12.95817
57.260 12.875302
57.265 13.165637
57.270 13.280725
57.275 13.21244
57.280 13.563573
57.285 13.759407
57.290 13.662539
57.295 13.49749
57.300 13.279021
57.305 13.625731
57.310 13.405253
57.315 13.811638
57.320 14.457424
57.325 15.396289
57.330 15.959609
57.335 15.972158
57.340 15.580366
57.345 15.387298
57.350 14.779771
57.355 13.768745
57.360 13.012864
57.365 12.751314
57.370 12.533523
57.375 12.773423
57.380 13.125567
57.385 13.216013
57.390 13.426348
57.395 13.346152
57.400 13.161708
57.405 13.435312
57.410 13.533184
57.415 13.861355
57.420 14.05306
57.425 14.064055
57.430 14.01835
57.435 14.240626
57.440 13.820974
57.445 13.798982
57.450 13.321366
57.455 13.577759
57.460 14.598598
57.465 14.624556
57.470 14.114757
57.475 14.395828
57.480 14.715138
57.485 15.242187
57.490 15.06145
57.495 15.179224
57.500 15.638738
57.505 15.842237
57.510 15.652656
57.515 15.02105
57.520 14.847972
57.525 14.7601
57.530 14.297296
57.535 14.280578
57.540 14.739607
57.545 15.059543
57.550 15.15108
57.555 15.092391
57.560 15.528162
57.565 15.161619
57.570 15.084262
57.575 14.861296
57.580 14.427481
57.585 14.948797
57.590 15.351642
57.595 15.192379
57.600 15.338806
57.605 15.390793
57.610 15.232203
57.615 15.356616
57.620 15.033313
57.625 15.120803
57.630 15.534197
57.635 15.436833
57.640 15.241578
57.645 15.439049
57.650 15.633265
57.655 15.964526
57.660 15.694722
57.665 15.228627
57.670 14.739073
57.675 14.581091
57.680 14.604329
57.685 14.598854
57.690 14.327094
57.695 14.245475
57.700 14.586267
57.705 15.279128
57.710 15.806476
57.715 15.900086
57.720 16.385548
57.725 16.352503
57.730 16.573782
57.735 16.315201
57.740 16.283258
57.745 16.204414
57.750 15.804795
57.755 15.848751
57.760 16.397604
57.765 16.522596
57.770 16.17836
57.775 15.697047
57.780 16.110077
57.785 16.785791
57.790 16.245642
57.795 15.896391
57.800 16.272402
57.805 17.223156
57.810 17.40737
57.815 16.689692
57.820 16.407366
57.825 16.797537
57.830 16.399418
57.835 15.511604
57.840 14.617281
57.845 15.072156
57.850 15.451196
57.855 15.437012
57.860 15.107973
57.865 15.259849
57.870 15.537261
57.875 16.227152
57.880 16.091118
57.885 16.216242
57.890 16.703346
57.895 16.876238
57.900 17.06284
57.905 16.791878
57.910 16.355682
57.915 16.253187
57.920 15.605522
57.925 14.923317
57.930 14.6966
57.935 14.756067
57.940 15.565464
57.945 15.842567
57.950 16.097836
57.955 16.459961
57.960 16.319452
57.965 15.945652
57.970 16.028326
57.975 15.633078
57.980 15.499043
57.985 15.311228
57.990 15.304769
57.995 15.616628
58.000 16.470249
58.005 16.580538
58.010 16.208668
58.015 16.211283
58.020 16.137327
58.025 16.30361
58.030 15.965811
58.035 15.608848
58.040 15.969226
58.045 17.113501
58.050 17.138683
58.055 17.207539
58.060 17.148582
58.065 17.347116
58.070 17.068743
58.075 16.546301
58.080 16.531691
58.085 17.064735
58.090 17.744133
58.095 18.1089
58.100 18.35359
58.105 18.735447
58.110 18.943272
58.115 18.092402
58.120 17.471252
58.125 16.9863
58.130 16.611647
58.135 16.258671
58.140 16.134975
58.145 16.53565
58.150 16.889744
58.155 16.963648
58.160 16.375446
58.165 16.341627
58.170 16.456898
58.175 16.46117
58.180 16.261635
58.185 16.61812
58.190 17.100838
58.195 17.418602
58.200 18.301104
58.205 18.943829
58.210 19.257408
58.215 18.994144
58.220 18.603245
58.225 18.07519
58.230 17.667583
58.235 17.280066
58.240 17.22802
58.245 17.48177
58.250 18.455364
58.255 19.281471
58.260 20.156567
58.265 20.315329
58.270 19.98394
58.275 20.272835
58.280 20.34367
58.285 19.817575
58.290 20.017065
58.295 20.338766
58.300 21.000204
58.305 21.369465
58.310 21.15296
58.315 21.148304
58.320 21.381865
58.325 21.406853
58.330 21.075768
58.335 21.376665
58.340 21.220629
58.345 21.273884
58.350 21.040388
58.355 20.985695
58.360 20.756607
58.365 20.801056
58.370 21.104923
58.375 21.936028
58.380 22.326935
58.385 23.51335
58.390 24.663021
58.395 25.245798
58.400 26.022421
58.405 26.151609
58.410 25.84761
58.415 25.80949
58.420 25.323259
58.425 25.186733
58.430 25.530443
58.435 25.508099
58.440 25.787157
58.445 25.792549
58.450 26.341946
58.455 27.081192
58.460 27.105078
58.465 27.228815
58.470 27.50058
58.475 27.554459
58.480 28.255478
58.485 28.663923
58.490 29.699802
58.495 31.024191
58.500 30.850557
58.505 30.733494
58.510 31.318314
58.515 31.702553
58.520 31.785524
58.525 30.936974
58.530 30.170815
58.535 30.436781
58.540 30.534437
58.545 30.606949
58.550 30.829567
58.555 30.953842
58.560 31.446428
58.565 31.799196
58.570 32.460323
58.575 32.986912
58.580 32.987019
58.585 33.056568
58.590 33.302395
58.595 33.043255
58.600 33.058208
58.605 32.61768
58.610 32.000561
58.615 32.336128
58.620 32.132854
58.625 31.431969
58.630 31.895903
58.635 31.609268
58.640 31.67371
58.645 31.442804
58.650 30.910135
58.655 30.921663
58.660 30.898172
58.665 30.038311
58.670 29.872223
58.675 30.337828
58.680 30.684723
58.685 30.562672
58.690 30.667063
58.695 31.336248
58.700 31.250732
58.705 30.438311
58.710 29.624466
58.715 29.180557
58.720 28.972315
58.725 28.51881
58.730 27.590816
58.735 28.241158
58.740 28.448879
58.745 28.487614
58.750 28.427917
58.755 28.538372
58.760 28.970085
58.765 29.130674
58.770 27.720078
58.775 27.428627
58.780 26.999861
58.785 26.819387
58.790 26.27512
58.795 25.45546
58.800 25.219652
58.805 25.509211
58.810 25.064236
58.815 24.298405
58.820 24.438177
58.825 24.766039
58.830 24.153645
58.835 22.92708
58.840 22.803881
58.845 23.391762
58.850 23.149794
58.855 22.802172
58.860 22.25185
58.865 22.680145
58.870 23.461712
58.875 23.094532
58.880 22.557379
58.885 22.504385
58.890 21.977741
58.895 22.283365
58.900 22.164358
58.905 22.00666
58.910 21.623352
58.915 21.693207
58.920 22.250683
58.925 22.252314
58.930 22.305019
58.935 21.655956
58.940 21.238543
58.945 21.48818
58.950 21.382589
58.955 21.076784
58.960 21.079964
58.965 20.289761
58.970 20.669033
58.975 21.021059
58.980 20.536797
58.985 20.01923
58.990 20.068745
58.995 20.09857
59.000 20.379311
59.005 20.550508
59.010 20.675581
59.015 20.859184
59.020 21.117107
59.025 20.59416
59.030 20.502008
59.035 20.213209
59.040 19.38328
59.045 18.750931
59.050 19.352049
59.055 19.248308
59.060 19.460884
59.065 19.188286
59.070 18.723038
59.075 18.06027
59.080 17.298925
59.085 16.423923
59.090 16.269077
59.095 16.131033
59.100 16.123655
59.105 16.29884
59.110 16.404335
59.115 16.762951
59.120 16.600269
59.125 16.287939
59.130 16.09831
59.135 16.110283
59.140 16.733688
59.145 17.036381
59.150 16.729372
59.155 16.459457
59.160 16.545509
59.165 16.285164
59.170 16.039026
59.175 16.149233
59.180 16.644098
59.185 16.918228
59.190 17.054445
59.195 16.571207
59.200 16.841709
59.205 16.988716
59.210 17.082355
59.215 16.426903
59.220 16.587448
59.225 16.44883
59.230 16.639414
59.235 15.822319
59.240 15.730805
59.245 15.609957
59.250 15.480165
59.255 15.739946
59.260 16.095062
59.265 16.190355
59.270 16.897158
59.275 16.828299
59.280 16.774137
59.285 17.148262
59.290 16.717352
59.295 16.832651
59.300 17.449499
59.305 17.953703
59.310 17.945539
59.315 17.898447
59.320 17.654705
59.325 17.670727
59.330 17.424664
59.335 17.270565
59.340 16.965906
59.345 16.652018
59.350 16.447262
59.355 16.421656
59.360 16.347824
59.365 16.275524
59.370 16.002365
59.375 16.01141
59.380 16.336229
59.385 16.479296
59.390 17.16766
59.395 17.393476
59.400 17.449432
59.405 17.241194
59.410 17.251675
59.415 16.995686
59.420 17.384445
59.425 16.912493
59.430 17.072639
59.435 17.010025
59.440 16.959112
59.445 16.627768
59.450 16.726965
59.455 16.106592
59.460 16.151789
59.465 16.191423
59.470 15.953858
59.475 15.838033
59.480 16.012712
59.485 16.198933
59.490 16.215633
59.495 15.968816
59.500 15.858254
59.505 16.010683
59.510 15.652344
59.515 15.413111
59.520 15.366059
59.525 15.795197
59.530 16.178196
59.535 16.183199
59.540 15.897463
59.545 16.159824
59.550 16.627838
59.555 16.425745
59.560 16.169722
59.565 15.825094
59.570 15.247465
59.575 14.999672
59.580 14.724683
59.585 13.98188
59.590 14.301185
59.595 14.252364
59.600 13.942622
59.605 14.105788
59.610 14.411946
59.615 14.575308
59.620 15.212861
59.625 14.695897
59.630 14.833035
59.635 15.265309
59.640 15.584908
59.645 15.43421
59.650 15.617527
59.655 15.310864
59.660 15.480557
59.665 15.260865
59.670 15.098304
59.675 14.854725
59.680 15.00761
59.685 15.271135
59.690 15.081426
59.695 14.954163
59.700 15.209681
59.705 15.186465
59.710 15.4795
59.715 15.459973
59.720 15.107186
59.725 15.305532
59.730 15.792904
59.735 16.067354
59.740 16.247168
59.745 15.951164
59.750 16.418547
59.755 16.72463
59.760 17.201025
59.765 17.244261
59.770 16.394941
59.775 16.117031
59.780 16.460329
59.785 15.839049
59.790 15.652303
59.795 15.180579
59.800 14.947783
59.805 15.055468
59.810 15.168162
59.815 14.802355
59.820 14.480546
59.825 14.507326
59.830 14.20152
59.835 13.893815
59.840 14.270319
59.845 13.871293
59.850 13.928605
59.855 14.302493
59.860 14.389562
59.865 14.732346
59.870 14.747825
59.875 14.30153
59.880 14.53542
59.885 14.631929
59.890 14.735559
59.895 14.923536
59.900 14.812013
59.905 15.115207
59.910 15.711949
59.915 16.123045
59.920 16.302666
59.925 16.32254
59.930 16.082836
59.935 16.065702
59.940 15.724565
59.945 15.206652
59.950 15.277124
59.955 15.011786
59.960 14.725655
59.965 15.232759
59.970 15.505991
59.975 15.434496
59.980 14.801767
59.985 14.530363
59.990 14.767052
59.995 14.937545
60.000 14.544502
60.005 14.968609
60.010 15.683241
60.015 16.307928
60.020 16.453808
60.025 16.958715
60.030 16.518021
60.035 16.150789
60.040 15.92589
60.045 16.176506
60.050 16.298334
60.055 16.063976
60.060 16.08742
60.065 16.911814
60.070 17.190155
60.075 16.873871
60.080 16.477373
60.085 16.791557
60.090 16.810726
60.095 16.62108
60.100 16.047991
60.105 15.811073
60.110 15.54523
60.115 15.390815
60.120 15.323762
60.125 15.477265
60.130 15.277115
60.135 15.093495
60.140 14.844114
60.145 15.053918
60.150 14.824968
60.155 14.412376
60.160 14.00848
60.165 14.204526
60.170 14.576238
60.175 14.723098
60.180 15.037641
60.185 15.814884
60.190 16.830898
60.195 17.506868
60.200 17.813354
60.205 17.583233
60.210 17.856527
60.215 17.580282
60.220 17.277273
60.225 16.727551
60.230 16.542013
60.235 16.744473
60.240 17.333649
60.245 17.05265
60.250 16.468885
60.255 15.885855
60.260 15.639726
60.265 14.958712
60.270 14.528211
60.275 14.06007
60.280 14.358155
60.285 14.672831
60.290 15.142539
60.295 14.995699
60.300 15.464431
60.305 15.51735
60.310 16.429461
60.315 16.496679
60.320 16.741447
60.325 17.003658
60.330 17.163382
60.335 17.650782
60.340 17.242815
60.345 16.7761
60.350 16.714499
60.355 16.386553
60.360 16.284599
60.365 16.533699
60.370 15.991052
60.375 15.926681
60.380 16.176886
60.385 16.651869
60.390 17.051075
60.395 16.910023
60.400 16.364712
60.405 16.363789
60.410 16.666948
60.415 16.373762
60.420 16.120842
60.425 16.179125
60.430 15.931468
60.435 15.908812
60.440 15.635649
60.445 14.975745
60.450 14.797977
60.455 14.903529
60.460 14.543063
60.465 14.2712
60.470 14.133113
60.475 14.640155
60.480 15.056579
60.485 15.219196
60.490 15.087529
60.495 15.441034
60.500 16.152735
60.505 16.420706
60.510 16.408043
60.515 16.327913
60.520 15.912393
60.525 15.901291
60.530 15.900857
60.535 15.71562
60.540 15.741783
60.545 15.170405
60.550 15.282979
60.555 15.793641
60.560 15.920736
60.565 15.612941
60.570 15.933747
60.575 16.088762
60.580 16.194675
60.585 15.99641
60.590 15.855437
60.595 15.68412
60.600 15.751391
60.605 16.141153
60.610 16.146614
60.615 16.122255
60.620 16.608168
60.625 16.744871
60.630 16.723166
60.635 16.484627
60.640 15.827526
60.645 15.81108
60.650 15.761928
60.655 15.583632
60.660 15.485404
60.665 15.596221
60.670 15.444854
60.675 15.638832
60.680 15.608321
60.685 15.786796
60.690 15.475477
60.695 15.741094
60.700 15.868379
60.705 16.554491
60.710 16.852188
60.715 17.446587
60.720 17.551781
60.725 16.922377
60.730 16.428776
60.735 16.411688
60.740 16.295271
60.745 15.907336
60.750 15.66601
60.755 15.651999
60.760 16.001062
60.765 16.26926
60.770 15.624582
60.775 15.214509
60.780 15.196043
60.785 15.342965
60.790 15.645148
60.795 16.059189
60.800 16.234221
60.805 16.593754
60.810 16.817148
60.815 17.272083
60.820 16.89747
60.825 17.106085
60.830 16.507889
60.835 15.962257
60.840 15.932031
60.845 16.021029
60.850 15.988022
60.855 16.249947
60.860 16.036579
60.865 16.282154
60.870 16.504242
60.875 16.298531
60.880 15.65399
60.885 15.400344
60.890 14.751056
60.895 14.692612
60.900 14.861384
60.905 14.754858
60.910 14.922542
60.915 14.97055
60.920 14.604279
60.925 14.627408
60.930 14.837406
60.935 15.174917
60.940 15.317742
60.945 15.596622
60.950 15.982851
60.955 16.198774
60.960 15.952302
60.965 15.502295
60.970 14.82157
60.975 15.373827
60.980 15.18868
60.985 14.511999
60.990 14.693006
60.995 15.200054
61.000 15.64361
61.005 15.962754
61.010 15.441705
61.015 15.710152
61.020 16.462849
61.025 16.35288
61.030 16.144159
61.035 15.698486
61.040 15.447078
61.045 15.487321
61.050 16.019491
61.055 15.569592
61.060 15.221252
61.065 15.82471
61.070 16.220221
61.075 16.747669
61.080 16.755913
61.085 15.95913
61.090 15.839975
61.095 16.095329
61.100 16.20199
61.105 16.513346
61.110 16.45492
61.115 16.612598
61.120 16.657272
61.125 16.828419
61.130 16.955217
61.135 16.384134
61.140 16.03973
61.145 15.867636
61.150 15.824404
61.155 15.782342
61.160 16.100824
61.165 16.465332
61.170 16.916836
61.175 17.16782
61.180 17.371986
61.185 17.057888
61.190 17.10412
61.195 17.424656
61.200 17.062994
61.205 16.845247
61.210 16.776129
61.215 16.857994
61.220 17.662521
61.225 17.954533
61.230 18.411959
61.235 18.856665
61.240 19.133705
61.245 18.984812
61.250 18.719841
61.255 18.390343
61.260 18.472462
61.265 18.059015
61.270 18.654091
61.275 18.091921
61.280 17.727009
61.285 18.184448
61.290 18.52194
61.295 18.509302
61.300 18.509624
61.305 17.545317
61.310 17.297684
61.315 17.362656
61.320 16.680593
61.325 16.203287
61.330 16.181581
61.335 15.550542
61.340 15.747773
61.345 16.180132
61.350 15.996582
61.355 16.143402
61.360 16.032255
61.365 15.51695
61.370 15.114808
61.375 14.777366
61.380 15.224141
61.385 15.728308
61.390 15.858919
61.395 16.101357
61.400 16.325363
61.405 16.795462
61.410 17.194075
61.415 16.748329
61.420 16.66415
61.425 16.697105
61.430 16.629416
61.435 16.887114
61.440 16.603086
61.445 16.73134
61.450 17.037983
61.455 17.079649
61.460 16.862932
61.465 16.711432
61.470 16.32925
61.475 16.208824
61.480 15.920238
61.485 15.295724
61.490 14.951612
61.495 14.824962
61.500 14.525118
61.505 14.789751
61.510 15.535065
61.515 15.398755
61.520 15.78453
61.525 16.574261
61.530 17.175119
61.535 17.070784
61.540 16.600435
61.545 16.877304
61.550 17.522835
61.555 17.73893
61.560 17.538366
61.565 18.073524
61.570 18.786602
61.575 19.237019
61.580 19.082523
61.585 18.941311
61.590 18.77182
61.595 18.086414
61.600 17.065222
61.605 17.032946
61.610 17.106434
61.615 16.804655
61.620 16.677586
61.625 16.868326
61.630 17.290243
61.635 17.411175
61.640 17.283941
61.645 16.447676
61.650 15.734151
61.655 15.032336
61.660 14.599895
61.665 15.106051
61.670 15.529811
61.675 15.376383
61.680 16.350428
61.685 17.030247
61.690 17.68104
61.695 17.578075
61.700 16.868093
61.705 16.414043
61.710 16.209084
61.715 15.1551
61.720 14.583226
61.725 14.236484
61.730 14.673995
61.735 14.40076
61.740 14.37484
61.745 14.804468
61.750 15.506179
61.755 16.251261
61.760 16.336332
61.765 16.237226
61.770 16.622379
61.775 16.720329
61.780 16.310036
61.785 16.29043
61.790 16.339888
61.795 16.489616
61.800 16.344519
61.805 16.313343
61.810 16.124027
61.815 16.47382
61.820 16.506603
61.825 16.452621
61.830 16.006376
61.835 15.225406
61.840 15.237989
61.845 15.657339
61.850 15.635736
61.855 15.985626
61.860 16.461409
61.865 17.395855
61.870 18.119923
61.875 18.196579
61.880 18.028835
61.885 18.096502
61.890 17.739544
61.895 17.472607
61.900 17.144653
61.905 16.945248
61.910 17.157425
61.915 17.169111
61.920 17.040508
61.925 17.138418
61.930 16.973455
61.935 17.5658
61.940 17.93935
61.945 17.517382
61.950 17.165506
61.955 16.51293
61.960 15.84027
61.965 16.085993
61.970 15.886685
61.975 15.880457
61.980 16.291262
61.985 16.549191
61.990 17.334307
61.995 18.048504
62.000 17.655962
62.005 17.138309
62.010 16.959999
62.015 17.288933
62.020 17.28743
62.025 16.906765
62.030 15.545807
62.035 15.316062
62.040 15.622737
62.045 15.719581
62.050 14.787424
62.055 15.066605
62.060 16.001766
62.065 17.026432
62.070 16.931278
62.075 16.740583
62.080 16.880297
62.085 17.185059
62.090 16.999186
62.095 16.571898
62.100 15.988784
62.105 16.171059
62.110 16.295158
62.115 16.138506
62.120 16.662746
62.125 16.671278
62.130 16.216719
62.135 16.492241
62.140 16.490042
62.145 16.031176
62.150 15.900735
62.155 15.606092
62.160 15.359164
62.165 15.974281
62.170 16.032753
62.175 16.288637
62.180 16.747032
62.185 16.979042
62.190 16.856512
62.195 16.683075
62.200 16.229939
62.205 16.023916
62.210 16.284861
62.215 16.350969
62.220 16.396408
62.225 16.416317
62.230 16.435509
62.235 16.447821
62.240 15.906376
62.245 15.180944
62.250 15.058299
62.255 15.293648
62.260 15.316876
62.265 15.394732
62.270 15.730738
62.275 16.392242
62.280 16.947729
62.285 17.219797
62.290 16.43461
62.295 16.463959
62.300 16.362299
62.305 16.15666
62.310 15.681597
62.315 14.967242
62.320 14.558394
62.325 15.152642
62.330 15.110607
62.335 14.993142
62.340 14.664255
62.345 15.035898
62.350 15.374713
62.355 15.626085
62.360 15.205455
62.365 14.85882
62.370 15.017556
62.375 15.808384
62.380 15.785995
62.385 15.841481
62.390 16.097425
62.395 16.406393
62.400 17.115301
62.405 17.667917
62.410 17.810209
62.415 17.570023
62.420 17.675999
62.425 17.611929
62.430 17.771267
62.435 18.01745
62.440 17.694405
62.445 18.302402
62.450 19.219543
62.455 19.384443
62.460 19.174665
62.465 19.38773
62.470 19.265471
62.475 19.331501
62.480 19.078951
62.485 18.756908
62.490 18.696363
62.495 18.380297
62.500 17.712393
62.505 17.500149
62.510 17.344065
62.515 17.202478
62.520 16.864538
62.525 16.53277
62.530 16.750006
62.535 16.685478
62.540 16.516598
62.545 16.23506
62.550 15.176254
62.555 14.834657
62.560 15.563621
62.565 16.06571
62.570 16.255949
62.575 16.479687
62.580 17.013176
62.585 17.483734
62.590 17.617117
62.595 17.346895
62.600 17.796959
62.605 18.117205
62.610 17.954081
62.615 17.911173
62.620 17.701826
62.625 17.536642
62.630 17.295317
62.635 16.420877
62.640 16.333368
62.645 16.353853
62.650 15.850903
62.655 16.825109
62.660 17.060482
62.665 16.948263
62.670 17.201441
62.675 17.29936
62.680 17.109821
62.685 17.61075
62.690 16.995075
62.695 16.743822
62.700 16.572981
62.705 16.035891
62.710 15.979567
62.715 16.641083
62.720 16.930027
62.725 17.416616
62.730 17.611282
62.735 17.49048
62.740 17.895676
62.745 17.580738
62.750 17.080004
62.755 16.671448
62.760 16.934496
62.765 17.770569
62.770 18.713093
62.775 18.653919
62.780 19.286173
62.785 19.553974
62.790 19.790911
62.795 19.446777
62.800 18.960775
62.805 18.960236
62.810 19.377741
62.815 19.662579
62.820 19.365543
62.825 19.167824
62.830 18.673523
62.835 18.659008
62.840 18.249716
62.845 18.067745
62.850 17.794106
62.855 17.934929
62.860 17.741617
62.865 18.526897
62.870 18.31428
62.875 18.233835
62.880 18.226059
62.885 18.345882
62.890 18.188028
62.895 18.119925
62.900 18.134209
62.905 18.173763
62.910 18.682888
62.915 18.411098
62.920 17.705616
62.925 17.728811
62.930 17.592163
62.935 16.654394
62.940 16.377352
62.945 15.74369
62.950 15.359261
62.955 15.433343
62.960 15.438926
62.965 15.130751
62.970 15.198837
62.975 15.301396
62.980 15.637949
62.985 16.341063
62.990 16.78064
62.995 17.051588
63.000 17.508102
63.005 17.73727
63.010 17.935118
63.015 17.978792
63.020 17.58938
63.025 17.274551
63.030 16.913839
63.035 16.858664
63.040 16.950014
63.045 17.011852
63.050 16.941319
63.055 17.136673
63.060 17.315269
63.065 17.745188
63.070 17.993986
63.075 18.379873
63.080 17.954126
63.085 18.047892
63.090 17.862715
63.095 17.661304
63.100 17.449732
63.105 17.321409
63.110 17.077457
63.115 17.61548
63.120 17.770611
63.125 18.606682
63.130 18.847303
63.135 19.351622
63.140 19.347658
63.145 18.957096
63.150 18.649382
63.155 18.448517
63.160 17.78792
63.165 17.492737
63.170 17.053911
63.175 16.969994
63.180 17.124153
63.185 16.947866
63.190 16.958414
63.195 16.586929
63.200 16.152533
63.205 15.972451
63.210 16.223717
63.215 17.15114
63.220 17.470802
63.225 17.4275
63.230 17.562601
63.235 18.071751
63.240 18.34304
63.245 17.531277
63.250 16.715569
63.255 16.522152
63.260 16.357815
63.265 17.424871
63.270 17.316544
63.275 17.265907
63.280 18.050896
63.285 18.255854
63.290 18.200247
63.295 17.844332
63.300 17.204041
63.305 17.338329
63.310 17.748112
63.315 17.104353
63.320 16.943899
63.325 16.95113
63.330 17.245409
63.335 17.305283
63.340 17.055485
63.345 16.867506
63.350 17.483522
63.355 18.098652
63.360 18.440844
63.365 18.483082
63.370 18.780682
63.375 19.285667
63.380 19.533672
63.385 19.15626
63.390 19.21426
63.395 18.776119
63.400 18.454105
63.405 17.629179
63.410 16.957602
63.415 16.629099
63.420 17.05456
63.425 16.976648
63.430 17.762838
63.435 18.454523
63.440 19.179972
63.445 19.319702
63.450 19.450109
63.455 19.31843
63.460 18.940292
63.465 18.611349
63.470 18.450464
63.475 18.195456
63.480 18.079868
63.485 17.987833
63.490 18.165754
63.495 18.582766
63.500 18.512989
63.505 18.773722
63.510 18.908997
63.515 19.037806
63.520 19.422501
63.525 19.974833
63.530 20.37254
63.535 20.749559
63.540 20.875578
63.545 21.167747
63.550 20.997465
63.555 20.029842
63.560 18.47024
63.565 17.646139
63.570 17.075956
63.575 16.700912
63.580 16.20867
63.585 16.498657
63.590 17.4268
63.595 18.326422
63.600 18.398203
63.605 18.248919
63.610 18.222673
63.615 18.980761
63.620 19.183624
63.625 18.66399
63.630 18.916782
63.635 19.111406
63.640 20.023586
63.645 20.162235
63.650 19.614977
63.655 19.779192
63.660 19.97448
63.665 19.839914
63.670 19.948301
63.675 19.641556
63.680 19.903955
63.685 20.059591
63.690 19.931581
63.695 19.592617
63.700 19.401175
63.705 19.132446
63.710 18.792692
63.715 18.406771
63.720 18.408104
63.725 18.29393
63.730 18.589361
63.735 19.184561
63.740 19.665728
63.745 19.765368
63.750 19.900543
63.755 20.321848
63.760 20.554564
63.765 20.778589
63.770 20.61146
63.775 20.893929
63.780 21.659868
63.785 21.147999
63.790 20.764668
63.795 20.711941
63.800 21.091009
63.805 20.56386
63.810 20.50078
63.815 20.265377
63.820 20.477968
63.825 20.002373
63.830 19.79137
63.835 19.823141
63.840 20.613392
63.845 21.239811
63.850 21.21488
63.855 21.967787
63.860 22.590229
63.865 22.687084
63.870 22.742386
63.875 22.531055
63.880 22.293776
63.885 22.913898
63.890 22.70047
63.895 22.996922
63.900 22.756256
63.905 22.593767
63.910 22.898991
63.915 22.420786
63.920 21.994045
63.925 21.636503
63.930 21.578363
63.935 21.969629
63.940 21.913183
63.945 21.717056
63.950 22.396667
63.955 23.230631
63.960 23.821098
63.965 23.901461
63.970 24.241844
63.975 24.636341
63.980 24.657196
63.985 24.941183
63.990 25.738417
63.995 26.731615
64.000 27.804523
64.005 28.156689
64.010 28.375887
64.015 29.311119
64.020 29.272364
64.025 28.363503
64.030 27.955212
64.035 27.436045
64.040 27.357178
64.045 27.353937
64.050 27.088947
64.055 27.141705
64.060 27.849068
64.065 28.5471
64.070 29.791437
64.075 30.2973
64.080 30.703112
64.085 31.40831
64.090 31.596317
64.095 31.708851
64.100 31.58069
64.105 31.669962
64.110 31.913507
64.115 32.979969
64.120 33.136868
64.125 33.872433
64.130 34.599567
64.135 35.012341
64.140 34.964558
64.145 34.703365
64.150 34.402649
64.155 34.708305
64.160 34.858212
64.165 34.915184
64.170 34.906887
64.175 35.254406
64.180 35.764126
64.185 35.97578
64.190 36.651367
64.195 37.05159
64.200 37.526073
64.205 37.638805
64.210 37.787899
64.215 37.224995
64.220 37.914505
64.225 38.285995
64.230 38.406597
64.235 38.214321
64.240 38.742188
64.245 39.728985
64.250 40.544922
64.255 41.808403
64.260 42.233585
64.265 41.993412
64.270 41.975704
64.275 41.666672
64.280 41.460663
64.285 41.388271
64.290 40.230091
64.295 39.385754
64.300 39.488251
64.305 39.532024
64.310 39.434998
64.315 39.572975
64.320 39.837269
64.325 39.422829
64.330 39.51252
64.335 39.537312
64.340 38.962399
64.345 38.761333
64.350 38.204029
64.355 38.070156
64.360 38.195999
64.365 38.728905
64.370 38.719723
64.375 39.225681
64.380 39.559315
64.385 39.924473
64.390 39.822449
64.395 39.508636
64.400 39.489124
64.405 39.229443
64.410 39.353325
64.415 38.898094
64.420 38.323689
64.425 39.02243
64.430 39.705875
64.435 39.221321
64.440 38.744308
64.445 38.160683
64.450 37.945099
64.455 37.762119
64.460 36.612766
64.465 36.086151
64.470 35.566727
64.475 36.05027
64.480 36.899612
64.485 37.344028
64.490 37.378532
64.495 36.668087
64.500 36.075478
64.505 36.261456
64.510 35.774105
64.515 34.533623
64.520 33.641548
64.525 33.551453
64.530 33.694908
64.535 32.635166
64.540 31.966589
64.545 32.055145
64.550 31.967161
64.555 31.325844
64.560 30.76936
64.565 30.166611
64.570 30.052736
64.575 29.430544
64.580 27.807833
64.585 27.839109
64.590 28.020826
64.595 27.690397
64.600 27.568211
64.605 27.229334
64.610 27.015385
64.615 27.270224
64.620 27.439968
64.625 27.522425
64.630 27.353409
64.635 26.660522
64.640 26.140079
64.645 25.892681
64.650 25.719484
64.655 25.212389
64.660 24.354694
64.665 24.28125
64.670 24.516172
64.675 24.009457
64.680 24.46315
64.685 23.735464
64.690 22.765535
64.695 22.766764
64.700 22.851463
64.705 22.479361
64.710 22.43742
64.715 22.642973
64.720 23.207222
64.725 23.564484
64.730 23.526932
64.735 23.53783
64.740 23.994804
64.745 24.007427
64.750 23.192898
64.755 22.179438
64.760 22.441141
64.765 22.859507
64.770 23.209955
64.775 23.128141
64.780 22.6793
64.785 22.472034
64.790 22.986559
64.795 22.613018
64.800 22.130474
64.805 21.206945
64.810 20.644161
64.815 21.692795
64.820 22.362036
64.825 22.677114
64.830 23.124281
64.835 23.221945
64.840 23.637556
64.845 23.972895
64.850 23.567198
64.855 22.93598
64.860 22.391752
64.865 21.666092
64.870 22.018259
64.875 22.395321
64.880 22.168995
64.885 22.02021
64.890 22.365536
64.895 22.201014
64.900 22.238256
64.905 22.121569
64.910 22.080933
64.915 21.933487
64.920 21.537828
64.925 21.230194
64.930 21.448132
64.935 21.451853
64.940 21.563784
64.945 21.539919
64.950 21.630215
64.955 21.744789
64.960 22.13833
64.965 22.035353
64.970 22.421549
64.975 22.704576
64.980 22.364277
64.985 22.605034
64.990 22.846937
64.995 22.73081
65.000 22.636763
65.005 22.069792
65.010 21.532179
65.015 21.667343
65.020 21.755117
65.025 21.70406
65.030 22.290392
65.035 23.372026
65.040 23.806007
65.045 23.991583
65.050 24.058239
65.055 24.072079
65.060 24.179567
65.065 24.061186
65.070 23.383091
65.075 23.136753
65.080 23.303175
65.085 23.694233
65.090 23.913786
65.095 24.138796
65.100 24.061016
65.105 24.257984
65.110 25.020277
65.115 25.994001
65.120 26.075533
65.125 26.15066
65.130 26.347139
65.135 26.484966
65.140 26.729248
65.145 26.027222
65.150 25.027534
65.155 24.699469
65.160 23.707888
65.165 23.252836
65.170 22.865303
65.175 22.563345
65.180 22.684278
65.185 23.241598
65.190 23.91334
65.195 24.500319
65.200 24.958561
65.205 25.281591
65.210 25.374031
65.215 24.806103
65.220 24.897013
65.225 24.897882
65.230 24.797104
65.235 24.712629
65.240 25.195761
65.245 25.640234
65.250 26.049446
65.255 25.666325
65.260 25.837555
65.265 26.546633
65.270 26.591993
65.275 26.010553
65.280 25.621132
65.285 25.446476
65.290 24.919855
65.295 24.245968
65.300 24.334797
65.305 25.001608
65.310 25.908091
65.315 26.160919
65.320 26.583395
65.325 27.350952
65.330 28.034889
65.335 27.722839
65.340 27.526119
65.345 27.502167
65.350 28.282627
65.355 28.400003
65.360 28.411541
65.365 28.627308
65.370 28.665157
65.375 29.001215
65.380 29.012571
65.385 28.576849
65.390 28.926098
65.395 28.649923
65.400 28.15904
65.405 28.299025
65.410 27.98436
65.415 27.371578
65.420 27.352068
65.425 26.770193
65.430 27.317129
65.435 27.889364
65.440 27.979904
65.445 28.289164
65.450 29.350407
65.455 29.494396
65.460 29.720192
65.465 29.3081
65.470 29.023947
65.475 28.995897
65.480 29.49391
65.485 29.828123
65.490 30.289715
65.495 30.746353
65.500 31.333174
65.505 31.812389
65.510 31.424553
65.515 31.38249
65.520 31.466179
65.525 31.550629
65.530 31.352142
65.535 31.689436
65.540 32.318462
65.545 33.248432
65.550 33.620834
65.555 33.845253
65.560 33.945
65.565 33.690353
65.570 33.017467
65.575 33.22205
65.580 33.315319
65.585 33.01878
65.590 32.556347
65.595 32.617374
65.600 33.374569
65.605 33.989323
65.610 34.660713
65.615 33.964527
65.620 34.192013
65.625 34.128666
65.630 34.489052
65.635 34.931446
65.640 35.258835
65.645 35.223938
65.650 36.069683
65.655 36.166843
65.660 36.671818
65.665 36.726112
65.670 36.685677
65.675 36.763611
65.680 36.654911
65.685 37.155987
65.690 38.227856
65.695 38.602512
65.700 39.014885
65.705 39.271473
65.710 39.5149
65.715 39.190277
65.720 38.738247
65.725 38.438374
65.730 38.777367
65.735 38.616722
65.740 38.036465
65.745 37.854034
65.750 38.274033
65.755 38.514359
65.760 38.129642
65.765 38.133808
65.770 38.009949
65.775 37.404167
65.780 37.258099
65.785 37.406418
65.790 36.683331
65.795 36.78495
65.800 37.241741
65.805 37.491478
65.810 38.298756
65.815 38.368118
65.820 38.665146
65.825 38.730831
65.830 38.431454
65.835 37.533298
65.840 37.777763
65.845 37.029373
65.850 37.468838
65.855 37.473454
65.860 37.230545
65.865 37.111073
65.870 37.109444
65.875 36.70113
65.880 36.846428
65.885 36.650017
65.890 35.739651
65.895 36.102028
65.900 35.100872
65.905 34.986877
65.910 35.474815
65.915 34.682156
65.920 33.755196
65.925 34.088848
65.930 33.199474
65.935 33.709385
65.940 32.210007
65.945 32.153515
65.950 33.076065
65.955 33.244976
65.960 32.898964
65.965 33.293808
65.970 33.702774
65.975 34.144768
65.980 34.04855
65.985 33.187042
65.990 33.036659
65.995 32.75856
66.000 32.390591
66.005 32.355667
66.010 32.817902
66.015 32.970894
66.020 33.750843
66.025 34.194378
66.030 34.515259
66.035 34.677097
66.040 34.619621
66.045 33.695248
66.050 33.150135
66.055 31.552895
66.060 30.756674
66.065 30.648161
66.070 30.477678
66.075 30.145687
66.080 30.094191
66.085 30.266914
66.090 30.876581
66.095 30.167768
66.100 29.334719
66.105 28.754896
66.110 28.793633
66.115 28.737295
66.120 28.358072
66.125 28.740461
66.130 29.343821
66.135 29.352051
66.140 29.050785
66.145 29.47047
66.150 29.717478
66.155 29.348532
66.160 28.430264
66.165 27.580236
66.170 27.37792
66.175 27.735813
66.180 27.173475
66.185 26.466652
66.190 26.674015
66.195 27.070107
66.200 27.50441
66.205 26.944952
66.210 26.757469
66.215 26.216238
66.220 26.011559
66.225 26.152197
66.230 25.697424
66.235 25.834291
66.240 25.5529
66.245 25.326576
66.250 25.655399
66.255 25.250818
66.260 25.03331
66.265 25.370535
66.270 24.221146
66.275 24.097219
66.280 23.623304
66.285 23.428339
66.290 23.414192
66.295 22.617121
66.300 22.194838
66.305 22.523474
66.310 22.981411
66.315 22.806677
66.320 22.669842
66.325 22.72743
66.330 22.462311
66.335 22.456747
66.340 23.116356
66.345 22.777838
66.350 22.615244
66.355 22.342392
66.360 22.602499
66.365 22.999563
66.370 22.525023
66.375 21.654318
66.380 21.634346
66.385 21.991491
66.390 22.154797
66.395 21.821707
66.400 21.713799
66.405 21.73266
66.410 21.844736
66.415 21.696997
66.420 21.662176
66.425 22.060869
66.430 21.818724
66.435 21.983858
66.440 22.223978
66.445 22.061235
66.450 21.7491
66.455 20.902088
66.460 20.525003
66.465 20.457235
66.470 20.880085
66.475 20.209957
66.480 19.823751
66.485 19.970356
66.490 20.191055
66.495 19.855663
66.500 20.169216
66.505 20.051815
66.510 20.514673
66.515 20.235844
66.520 20.014435
66.525 19.858791
66.530 20.108629
66.535 20.028013
66.540 20.123169
66.545 20.060152
66.550 20.681807
66.555 20.720009
66.560 21.223019
66.565 20.879898
66.570 20.476778
66.575 20.631617
66.580 20.829588
66.585 20.858131
66.590 20.862261
66.595 20.107016
66.600 20.425529
66.605 20.957571
66.610 20.34046
66.615 20.311363
66.620 20.551699
66.625 20.471539
66.630 20.777529
66.635 20.318134
66.640 19.732611
66.645 19.448261
66.650 19.064375
66.655 19.318897
66.660 18.998306
66.665 18.694553
66.670 18.847927
66.675 19.276079
66.680 19.517971
66.685 19.38212
66.690 18.558931
66.695 17.887434
66.700 18.227503
66.705 18.265295
66.710 17.986124
66.715 18.219563
66.720 18.554283
66.725 18.91194
66.730 19.403114
66.735 19.10302
66.740 19.086536
66.745 19.217737
66.750 19.025429
66.755 18.629986
66.760 18.540974
66.765 18.520288
66.770 18.380468
66.775 18.691465
66.780 19.32983
66.785 19.358698
66.790 19.220205
66.795 19.849411
66.800 20.386734
66.805 20.348906
66.810 19.630192
66.815 19.023464
66.820 19.284882
66.825 19.24799
66.830 18.86754
66.835 18.743891
66.840 18.800409
66.845 19.516132
66.850 19.581947
66.855 19.18203
66.860 19.427242
66.865 19.073275
66.870 18.803762
66.875 18.553333
66.880 18.277147
66.885 18.336117
66.890 18.192776
66.895 17.745361
66.900 17.671717
66.905 17.99715
66.910 18.544245
66.915 18.854027
66.920 18.860693
66.925 18.452414
66.930 18.255459
66.935 18.099943
66.940 17.899578
66.945 17.393408
66.950 16.815172
66.955 17.280441
66.960 18.637335
66.965 18.711988
66.970 18.775427
66.975 18.763395
66.980 18.211906
66.985 18.456615
66.990 18.369871
66.995 18.425076
67.000 18.811773
67.005 19.110254
67.010 19.283207
67.015 19.944025
67.020 19.306431
67.025 18.771423
67.030 18.379599
67.035 18.364428
67.040 18.320852
67.045 18.551086
67.050 18.256784
67.055 18.636419
67.060 19.150711
67.065 19.091045
67.070 19.331589
67.075 19.435516
67.080 19.693495
67.085 20.091587
67.090 20.167877
67.095 19.88525
67.100 20.331684
67.105 20.083881
67.110 19.453552
67.115 19.326075
67.120 19.274874
67.125 18.937996
67.130 18.893766
67.135 18.314131
67.140 18.072777
67.145 18.155306
67.150 17.688259
67.155 17.530546
67.160 17.979124
67.165 18.221445
67.170 18.552275
67.175 18.969986
67.180 19.226488
67.185 19.128725
67.190 19.287443
67.195 19.11231
67.200 18.877069
67.205 18.157417
67.210 18.050426
67.215 18.194521
67.220 18.360918
67.225 18.390198
67.230 18.538612
67.235 18.443617
67.240 19.168613
67.245 18.909002
67.250 19.537941
67.255 19.841148
67.260 19.453793
67.265 18.877768
67.270 19.507765
67.275 18.753054
67.280 18.728453
67.285 18.037249
67.290 17.967178
67.295 18.770529
67.300 18.895496
67.305 18.303473
67.310 18.115065
67.315 17.946077
67.320 17.723375
67.325 16.809822
67.330 16.473166
67.335 15.91721
67.340 16.093922
67.345 16.384562
67.350 16.41312
67.355 16.647133
67.360 17.146957
67.365 17.350492
67.370 17.840212
67.375 18.159447
67.380 18.720846
67.385 18.791548
67.390 18.725712
67.395 18.756495
67.400 18.689413
67.405 18.373758
67.410 17.800657
67.415 17.592934
67.420 17.740513
67.425 17.916574
67.430 17.394079
67.435 16.899996
67.440 17.092394
67.445 17.539351
67.450 17.343109
67.455 16.908693
67.460 17.516533
67.465 18.146515
67.470 18.792927
67.475 18.744547
67.480 19.168543
67.485 20.595728
67.490 21.040436
67.495 21.018751
67.500 21.062517
67.505 20.928032
67.510 21.363756
67.515 21.142874
67.520 20.442841
67.525 20.260702
67.530 19.512558
67.535 18.804794
67.540 19.106997
67.545 19.216652
67.550 18.956753
67.555 18.919525
67.560 18.840958
67.565 19.137627
67.570 19.874609
67.575 19.378441
67.580 19.17486
67.585 19.267458
67.590 18.972986
67.595 18.977053
67.600 19.232563
67.605 19.19018
67.610 19.595892
67.615 19.699144
67.620 19.778011
67.625 19.938744
67.630 19.780863
67.635 19.505379
67.640 19.191586
67.645 19.21821
67.650 19.501324
67.655 19.404129
67.660 19.297909
67.665 19.4226
67.670 19.079027
67.675 18.932436
67.680 18.137756
67.685 18.09516
67.690 18.002947
67.695 18.410954
67.700 18.833714
67.705 19.410213
67.710 19.747395
67.715 19.78887
67.720 19.77187
67.725 20.050653
67.730 19.612602
67.735 19.343596
67.740 19.048679
67.745 18.741426
67.750 19.687515
67.755 19.692696
67.760 19.360189
67.765 19.606783
67.770 19.113306
67.775 19.824209
67.780 19.897757
67.785 19.199793
67.790 19.120131
67.795 18.768375
67.800 18.384193
67.805 18.544477
67.810 18.347252
67.815 18.258982
67.820 17.914377
67.825 18.093357
67.830 19.273815
67.835 19.98226
67.840 19.93919
67.845 19.636417
67.850 19.617449
67.855 19.684347
67.860 18.955097
67.865 18.648546
67.870 18.564423
67.875 18.832468
67.880 18.968534
67.885 18.713274
67.890 19.381338
67.895 19.893633
67.900 19.79306
67.905 19.684725
67.910 19.065893
67.915 19.216011
67.920 19.256586
67.925 18.471159
67.930 18.169035
67.935 18.057634
67.940 18.139286
67.945 18.421041
67.950 18.334711
67.955 18.563484
67.960 19.119289
67.965 19.323387
67.970 19.217754
67.975 19.415735
67.980 19.309746
67.985 19.269413
67.990 18.875925
67.995 18.575262
68.000 18.246651
68.005 18.694145
68.010 19.048193
68.015 19.826521
68.020 20.485455
68.025 20.914885
68.030 20.794294
68.035 21.428619
68.040 21.653105
68.045 21.32881
68.050 20.898687
68.055 20.498169
68.060 20.318592
68.065 20.093079
68.070 19.46875
68.075 18.616779
68.080 18.801855
68.085 18.48769
68.090 18.363758
68.095 18.419628
68.100 18.533985
68.105 19.387714
68.110 19.38924
68.115 18.817013
68.120 18.578831
68.125 18.988909
68.130 19.267147
68.135 19.374968
68.140 19.005161
68.145 19.013342
68.150 19.237638
68.155 19.451885
68.160 19.092108
68.165 18.927095
68.170 18.720751
68.175 18.958027
68.180 18.996889
68.185 19.161882
68.190 19.63711
68.195 19.467686
68.200 19.162193
68.205 18.987537
68.210 19.124043
68.215 19.355803
68.220 19.786608
68.225 19.720469
68.230 20.04038
68.235 20.040752
68.240 20.207396
68.245 20.194109
68.250 20.082844
68.255 19.675716
68.260 19.816328
68.265 20.156487
68.270 20.618526
68.275 20.1784
68.280 20.75655
68.285 20.884506
68.290 20.614801
68.295 20.097956
68.300 19.680099
68.305 19.443001
68.310 19.066553
68.315 17.939005
68.320 17.804863
68.325 17.769293
68.330 17.955042
68.335 17.831226
68.340 17.939301
68.345 18.05538
68.350 18.369135
68.355 18.62047
68.360 19.192822
68.365 19.75268
68.370 20.472647
68.375 21.04285
68.380 21.60708
68.385 21.550161
68.390 21.343616
68.395 20.952608
68.400 20.623449
68.405 20.214108
68.410 19.587307
68.415 19.440447
68.420 19.753891
68.425 20.420658
68.430 20.708813
68.435 20.913918
68.440 20.79417
68.445 21.405418
68.450 21.813774
68.455 21.803442
68.460 22.067661
68.465 22.41234
68.470 22.306667
68.475 22.578226
68.480 22.986217
68.485 23.246679
68.490 23.149687
68.495 23.016743
68.500 22.485874
68.505 23.125713
68.510 23.555607
68.515 23.176126
68.520 23.609879
68.525 23.807919
68.530 23.651207
68.535 24.084011
68.540 23.748028
68.545 23.527946
68.550 23.747034
68.555 23.932545
68.560 23.612993
68.565 23.316158
68.570 23.059631
68.575 23.608164
68.580 23.724537
68.585 23.774551
68.590 23.856873
68.595 24.40674
68.600 25.220465
68.605 25.464115
68.610 25.155092
68.615 25.089327
68.620 24.682194
68.625 24.8391
68.630 25.564049
68.635 25.69549
68.640 26.146095
68.645 26.291632
68.650 26.866854
68.655 27.620161
68.660 28.287951
68.665 27.698372
68.670 28.368103
68.675 29.118643
68.680 29.430803
68.685 30.151423
68.690 30.41081
68.695 30.575138
68.700 30.509706
68.705 29.811752
68.710 29.111164
68.715 29.144552
68.720 28.952517
68.725 28.761112
68.730 29.185513
68.735 29.077282
68.740 29.133036
68.745 29.074955
68.750 28.631432
68.755 28.893213
68.760 28.649527
68.765 28.663172
68.770 29.349714
68.775 29.79071
68.780 30.342169
68.785 30.541777
68.790 30.800646
68.795 31.38275
68.800 31.871
68.805 32.227757
68.810 32.704109
68.815 32.565376
68.820 32.787117
68.825 32.676552
68.830 32.288116
68.835 32.732803
68.840 32.876862
68.845 32.515827
68.850 32.891068
68.855 33.40274
68.860 34.013119
68.865 35.137173
68.870 34.291714
68.875 33.909195
68.880 34.217751
68.885 34.333736
68.890 34.02626
68.895 33.109337
68.900 32.168312
68.905 33.257713
68.910 33.261044
68.915 32.692947
68.920 32.38118
68.925 32.878418
68.930 33.65263
68.935 34.091621
68.940 33.585186
68.945 33.883381
68.950 34.647736
68.955 35.043587
68.960 35.08268
68.965 35.120113
68.970 35.639637
68.975 35.515247
68.980 35.611702
68.985 35.167778
68.990 35.157967
68.995 34.877651
69.000 34.206772
69.005 34.010109
69.010 33.641731
69.015 33.432892
69.020 32.930923
69.025 32.24889
69.030 32.063797
69.035 32.769653
69.040 33.477879
69.045 33.948887
69.050 34.145962
69.055 35.198753
69.060 34.370029
69.065 33.820374
69.070 33.425659
69.075 33.14196
69.080 33.818501
69.085 33.640804
69.090 34.137039
69.095 35.137581
69.100 35.413982
69.105 35.508904
69.110 34.783367
69.115 34.204308
69.120 34.693531
69.125 34.492603
69.130 34.215721
69.135 33.570313
69.140 34.071476
69.145 34.586067
69.150 34.25758
69.155 33.805729
69.160 33.167423
69.165 33.069702
69.170 33.597717
69.175 32.109821
69.180 31.182594
69.185 31.861628
69.190 31.720739
69.195 31.213408
69.200 31.472509
69.205 31.182877
69.210 31.517586
69.215 31.817047
69.220 30.77496
69.225 30.501959
69.230 30.653633
69.235 30.097446
69.240 29.90074
69.245 29.865238
69.250 29.233738
69.255 29.326889
69.260 29.423738
69.265 29.030418
69.270 28.854916
69.275 28.341129
69.280 28.411465
69.285 28.222979
69.290 27.557787
69.295 27.142717
69.300 27.140982
69.305 27.478352
69.310 27.177586
69.315 26.458138
69.320 26.343729
69.325 26.51804
69.330 26.802656
69.335 26.520555
69.340 25.949883
69.345 25.877136
69.350 26.264126
69.355 26.293749
69.360 26.687187
69.365 25.912596
69.370 25.968214
69.375 25.997761
69.380 25.669739
69.385 25.662407
69.390 26.062098
69.395 26.04318
69.400 26.449715
69.405 26.53521
69.410 26.619865
69.415 25.850811
69.420 24.824503
69.425 24.040434
69.430 23.874653
69.435 24.332426
69.440 24.458179
69.445 24.572655
69.450 24.929485
69.455 24.913614
69.460 24.78861
69.465 24.15711
69.470 22.897837
69.475 22.459932
69.480 22.483461
69.485 23.177607
69.490 23.234306
69.495 23.229767
69.500 22.910311
69.505 22.827496
69.510 22.964201
69.515 22.906185
69.520 22.381731
69.525 22.348352
69.530 22.041885
69.535 22.423443
69.540 22.760839
69.545 22.602736
69.550 21.954601
69.555 21.806114
69.560 21.767878
69.565 21.649963
69.570 22.350269
69.575 22.633467
69.580 22.70561
69.585 23.304924
69.590 23.229134
69.595 23.152109
69.600 23.120583
69.605 22.706579
69.610 22.141685
69.615 21.736811
69.620 21.046787
69.625 20.909285
69.630 20.670164
69.635 20.123665
69.640 19.560944
69.645 19.497919
69.650 19.293114
69.655 19.498829
69.660 19.411177
69.665 19.540676
69.670 19.836519
69.675 20.624014
69.680 20.494196
69.685 20.787264
69.690 21.503363
69.695 22.020317
69.700 22.415436
69.705 22.942015
69.710 22.402172
69.715 22.691526
69.720 22.823942
69.725 22.112383
69.730 21.917187
69.735 22.198528
69.740 21.783642
69.745 21.608335
69.750 21.470089
69.755 21.195448
69.760 21.992558
69.765 21.270332
69.770 20.472111
69.775 20.219164
69.780 20.201351
69.785 20.47336
69.790 20.009462
69.795 19.280838
69.800 19.25345
69.805 19.294436
69.810 19.55337
69.815 19.654285
69.820 19.528589
69.825 19.760632
69.830 20.420713
69.835 20.993874
69.840 21.330437
69.845 21.376339
69.850 21.307877
69.855 21.307285
69.860 20.965887
69.865 21.373865
69.870 21.255405
69.875 20.925894
69.880 21.283018
69.885 21.4758
69.890 21.017605
69.895 21.223694
69.900 20.432289
69.905 20.302853
69.910 20.421356
69.915 19.833511
69.920 19.87208
69.925 19.395344
69.930 18.761591
69.935 19.526491
69.940 19.385469
69.945 19.42008
69.950 19.614763
69.955 19.472414
69.960 19.191212
69.965 18.823198
69.970 18.26545
69.975 18.456486
69.980 18.473379
69.985 18.097424
69.990 18.094404
69.995 18.481882
70.000 18.84717
70.005 18.814583
70.010 18.209164
70.015 18.556408
70.020 19.08548
70.025 19.013662
70.030 19.20026
70.035 19.045439
70.040 18.946764
70.045 19.085001
70.050 18.784296
70.055 18.956085
70.060 19.345955
70.065 19.614946
70.070 19.838406
70.075 19.7246
70.080 19.509312
70.085 19.112986
70.090 19.216291
70.095 19.251574
70.100 18.941551
70.105 19.122524
70.110 19.086376
70.115 19.040302
70.120 19.448809
70.125 18.921659
70.130 19.07196
70.135 18.754503
70.140 18.741484
70.145 19.211193
70.150 18.823698
70.155 18.304737
70.160 17.799702
70.165 17.469152
70.170 17.761282
70.175 17.585939
70.180 17.749788
70.185 18.242443
70.190 18.3981
70.195 18.893574
70.200 18.768087
70.205 18.78265
70.210 18.639479
70.215 18.546335
70.220 18.132305
70.225 18.105354
70.230 18.175188
70.235 18.643614
70.240 18.763079
70.245 18.547625
70.250 18.349239
70.255 18.624163
70.260 18.163315
70.265 18.483717
70.270 17.690754
70.275 17.303614
70.280 17.389832
70.285 17.884199
70.290 18.497551
70.295 19.506073
70.300 19.362738
70.305 19.836782
70.310 20.128765
70.315 20.237158
70.320 19.422302
70.325 18.743786
70.330 18.018385
70.335 18.220509
70.340 18.312826
70.345 18.257656
70.350 18.696482
70.355 18.826487
70.360 18.549793
70.365 18.493582
70.370 18.075083
70.375 18.008417
70.380 17.469418
70.385 17.11097
70.390 17.604597
70.395 17.585861
70.400 18.425732
70.405 18.724472
70.410 19.611393
70.415 20.233749
70.420 20.07531
70.425 19.894468
70.430 19.9251
70.435 19.224972
70.440 19.122931
70.445 18.067612
70.450 17.906485
70.455 17.812176
70.460 17.877766
70.465 17.671413
70.470 17.693487
70.475 17.26552
70.480 16.732794
70.485 16.57559
70.490 16.618202
70.495 16.603559
70.500 16.632729
70.505 16.322287
70.510 17.06398
70.515 18.195017
70.520 18.3874
70.525 18.287636
70.530 18.375353
70.535 18.134369
70.540 17.851652
70.545 18.051645
70.550 17.507988
70.555 17.998247
70.560 18.478035
70.565 19.014677
70.570 19.704863
70.575 19.85849
70.580 19.729641
70.585 20.074457
70.590 18.859217
70.595 18.354174
70.600 18.031527
70.605 18.122683
70.610 18.62899
70.615 18.228065
70.620 18.095064
70.625 18.581625
70.630 19.093534
70.635 19.332235
70.640 19.447584
70.645 19.55228
70.650 20.505049
70.655 20.856438
70.660 20.664816
70.665 20.523155
70.670 19.941845
70.675 19.574148
70.680 19.019396
70.685 18.494442
70.690 18.805313
70.695 19.224453
70.700 18.686659
70.705 18.304604
70.710 18.31039
70.715 18.862461
70.720 18.994875
70.725 18.544916
70.730 18.733446
70.735 19.755396
70.740 19.795771
70.745 19.775339
70.750 19.092693
70.755 18.994019
70.760 18.781263
70.765 18.463675
70.770 18.559053
70.775 19.377327
70.780 19.301672
70.785 19.234209
70.790 19.469742
70.795 19.964832
70.800 19.827759
70.805 19.545063
70.810 19.103083
70.815 18.412687
70.820 17.8521
70.825 17.839214
70.830 17.907866
70.835 18.108557
70.840 17.739182
70.845 17.415733
70.850 18.358719
70.855 18.629311
70.860 18.201773
70.865 18.104506
70.870 18.266356
70.875 18.623394
70.880 18.926994
70.885 18.410509
70.890 18.084497
70.895 17.907881
70.900 17.580332
70.905 17.682131
70.910 17.609859
70.915 17.152296
70.920 17.264059
70.925 16.91489
70.930 16.875534
70.935 16.425333
70.940 15.795386
70.945 15.830893
70.950 16.469582
70.955 17.197285
70.960 17.672234
70.965 17.825695
70.970 17.844631
70.975 18.08267
70.980 18.491442
70.985 18.135128
70.990 18.285444
70.995 18.283491
71.000 18.308338
71.005 18.705294
71.010 19.207745
71.015 18.826679
71.020 19.117643
71.025 18.91811
71.030 19.299742
71.035 18.865265
71.040 18.731144
71.045 18.544319
71.050 18.63426
71.055 18.888777
71.060 18.660433
71.065 19.073711
71.070 19.323643
71.075 18.731846
71.080 18.481657
71.085 18.851259
71.090 18.555067
71.095 18.653889
71.100 18.115396
71.105 17.774414
71.110 18.012287
71.115 18.010916
71.120 17.209217
71.125 17.403103
71.130 18.391211
71.135 19.13435
71.140 19.320551
71.145 19.240877
71.150 18.831097
71.155 18.786394
71.160 18.518652
71.165 17.500111
71.170 17.193117
71.175 17.449741
71.180 17.790928
71.185 18.073402
71.190 18.158316
71.195 17.70492
71.200 18.218349
71.205 18.549545
71.210 18.467251
71.215 17.940908
71.220 17.833202
71.225 17.567392
71.230 18.105753
71.235 17.598791
71.240 17.873316
71.245 17.9946
71.250 18.055061
71.255 17.796377
71.260 17.966223
71.265 18.301888
71.270 18.421463
71.275 18.179348
71.280 18.461884
71.285 18.6029
71.290 18.999496
71.295 18.544062
71.300 18.321066
71.305 18.410679
71.310 18.713675
71.315 18.386101
71.320 17.790613
71.325 17.388828
71.330 17.515192
71.335 17.071617
71.340 16.9091
71.345 16.61694
71.350 17.247572
71.355 18.327496
71.360 18.919804
71.365 18.510529
71.370 18.57818
71.375 18.642122
71.380 18.495985
71.385 18.061064
71.390 17.479425
71.395 17.252634
71.400 17.497154
71.405 17.399809
71.410 17.476456
71.415 17.849998
71.420 18.364244
71.425 18.546902
71.430 18.40052
71.435 18.38105
71.440 18.069471
71.445 17.978113
71.450 17.745108
71.455 17.155138
71.460 17.273996
71.465 17.392481
71.470 17.470106
71.475 17.267673
71.480 17.393278
71.485 17.88171
71.490 17.96398
71.495 17.8964
71.500 17.371
71.505 17.210783
71.510 17.501497
71.515 17.295046
71.520 17.079834
71.525 16.786415
71.530 16.852217
71.535 17.794479
71.540 18.202602
71.545 17.776623
71.550 17.884867
71.555 17.955526
71.560 18.252304
71.565 18.119467
71.570 18.156424
71.575 17.767914
71.580 18.223711
71.585 18.322317
71.590 18.632936
71.595 18.699596
71.600 18.90403
71.605 18.657934
71.610 18.872976
71.615 18.339209
71.620 17.998922
71.625 18.205118
71.630 18.302856
71.635 18.389664
71.640 18.973492
71.645 19.589794
71.650 19.726194
71.655 19.69935
71.660 19.00403
71.665 18.3333
71.670 18.559998
71.675 18.268337
71.680 18.262291
71.685 18.533592
71.690 18.598253
71.695 19.151665
71.700 18.953857
71.705 18.633194
71.710 18.459696
71.715 18.505947
71.720 18.205854
71.725 18.079134
71.730 18.103054
71.735 18.364487
71.740 18.047255
71.745 18.076242
71.750 17.482225
71.755 17.682129
71.760 17.750053
71.765 18.093332
71.770 18.291128
71.775 18.84473
71.780 18.772774
71.785 19.04991
71.790 18.649284
71.795 18.045044
71.800 17.560772
71.805 17.368378
71.810 17.297321
71.815 17.114559
71.820 17.19175
71.825 17.454359
71.830 17.671667
71.835 17.886745
71.840 17.714867
71.845 17.725964
71.850 17.788853
71.855 17.492165
71.860 17.690285
71.865 18.101393
71.870 17.813272
71.875 18.864771
71.880 18.298521
71.885 18.60079
71.890 18.485682
71.895 17.993017
71.900 17.571749
71.905 17.564199
71.910 16.830261
71.915 17.000151
71.920 16.89868
71.925 16.853233
71.930 16.7876
71.935 16.68601
71.940 16.30743
71.945 16.360004
71.950 16.243502
71.955 16.57745
71.960 17.301973
71.965 17.520123
71.970 17.509768
71.975 17.530745
71.980 18.259073
71.985 17.925434
71.990 17.481314
71.995 17.597485
72.000 18.008053
72.005 17.564936
72.010 17.755886
72.015 17.330206
72.020 17.690651
72.025 18.094492
72.030 18.216331
72.035 18.235136
72.040 18.944187
72.045 18.189415
72.050 18.668686
72.055 18.882538
72.060 18.606741
72.065 18.229618
72.070 18.198961
72.075 18.26796
72.080 18.640623
72.085 18.412539
72.090 18.238087
72.095 17.720036
72.100 17.563244
72.105 17.299372
72.110 17.403027
72.115 17.318493
72.120 16.775564
72.125 16.992676
72.130 17.570524
72.135 18.132553
72.140 18.521887
72.145 17.634979
72.150 17.513966
72.155 17.915419
72.160 17.517498
72.165 16.848064
72.170 16.651745
72.175 16.444752
72.180 17.260921
72.185 17.096668
72.190 17.52667
72.195 17.832975
72.200 17.805067
72.205 17.668118
72.210 17.756731
72.215 17.324293
72.220 17.519451
72.225 17.16498
72.230 17.374971
72.235 17.641991
72.240 17.65501
72.245 17.118233
72.250 17.210793
72.255 16.905901
72.260 16.955364
72.265 16.931957
72.270 16.758913
72.275 16.995342
72.280 17.094694
72.285 17.160381
72.290 17.43635
72.295 17.010448
72.300 17.260782
72.305 17.237705
72.310 17.100887
72.315 17.235403
72.320 17.428097
72.325 17.612896
72.330 17.927069
72.335 17.790119
72.340 17.944969
72.345 18.175747
72.350 18.252258
72.355 17.907372
72.360 17.704498
72.365 17.424013
72.370 17.306973
72.375 17.37961
72.380 17.327879
72.385 17.222343
72.390 16.566807
72.395 15.920175
72.400 15.930712
72.405 15.730179
72.410 15.484439
72.415 15.433845
72.420 15.910719
72.425 16.592525
72.430 17.452145
72.435 17.606842
72.440 17.916201
72.445 17.926271
72.450 17.707033
72.455 18.111803
72.460 17.654318
72.465 17.543785
72.470 17.831402
72.475 17.541506
72.480 17.79414
72.485 17.43704
72.490 17.47731
72.495 17.91707
72.500 17.644537
72.505 17.606375
72.510 17.740913
72.515 17.660885
72.520 18.369419
72.525 18.28908
72.530 18.137346
72.535 18.340389
72.540 18.404825
72.545 18.495697
72.550 18.754072
72.555 18.700275
72.560 18.26668
72.565 18.354713
72.570 18.238699
72.575 18.07074
72.580 18.386202
72.585 18.006731
72.590 17.59836
72.595 17.553246
72.600 17.470026
72.605 17.838463
72.610 17.676779
72.615 17.458538
72.620 17.579165
72.625 17.411175
72.630 17.205616
72.635 17.026764
72.640 16.580359
72.645 16.266586
72.650 16.029066
72.655 16.486504
72.660 17.133158
72.665 16.822979
72.670 16.857044
72.675 17.239532
72.680 17.18844
72.685 16.737955
72.690 16.729712
72.695 16.809906
72.700 17.046545
72.705 17.002296
72.710 17.084316
72.715 16.911694
72.720 16.897068
72.725 16.533066
72.730 16.552729
72.735 16.576218
72.740 16.562937
72.745 16.436544
72.750 16.83007
72.755 16.822876
72.760 17.067226
72.765 17.071222
72.770 17.297808
72.775 17.267368
72.780 17.498146
72.785 17.295715
72.790 17.255444
72.795 17.424221
72.800 17.043695
72.805 16.465412
72.810 16.650946
72.815 16.742134
72.820 17.148861
72.825 17.261578
72.830 17.149469
72.835 17.721188
72.840 17.29904
72.845 17.101233
72.850 16.965921
72.855 16.141256
72.860 15.30771
72.865 15.172853
72.870 15.575099
72.875 15.971009
72.880 15.832994
72.885 16.35256
72.890 18.006056
72.895 18.916029
72.900 19.204617
72.905 19.222038
72.910 19.139107
72.915 18.819805
72.920 18.321556
72.925 17.448591
72.930 16.926302
72.935 16.355568
72.940 16.432142
72.945 16.589731
72.950 16.811024
72.955 16.528919
72.960 16.279711
72.965 16.579159
72.970 16.921972
72.975 17.511278
72.980 17.651253
72.985 17.731106
72.990 17.759554
72.995 18.032339
73.000 18.024323
