!@!!GADDS PLOTSO FILE: Chi integration type
!@!!Title/SampleName: map-7e
!@!!Comment: ?
!@!!User: Bruker Instrument Administrator
!@!!Site: University of Illinois Chicago
!@!!Frame: map-7e_01_000.gfrm
!@!!Wavelengths    1.54184   1.54056   1.54439
!@!!Frame angles: 2Theta: 63.000 Omega: 50.000 Phi: 0.000 Chi: 90.000
!@!!Integration range: 2Theta: 53.000 to 73.000  Gamma: -105.000 to -75.000
!@!!Integration method: bin normalized
!@!N
!@!SS
!@!M
!@!L 0.0 0.0 0.0 0.0
!@!XDegrees
!@!YCounts
53.000 9.612648
53.005 8.962194
53.010 8.668339
53.015 8.445878
53.020 8.013342
53.025 7.627969
53.030 7.737162
53.035 7.710385
53.040 8.203681
53.045 8.35291
53.050 8.383111
53.055 8.714864
53.060 8.573079
53.065 8.671307
53.070 8.589783
53.075 8.514716
53.080 9.014594
53.085 9.179444
53.090 9.68277
53.095 10.421942
53.100 10.231141
53.105 10.186339
53.110 10.023354
53.115 9.942442
53.120 10.223633
53.125 9.844601
53.130 9.348558
53.135 9.5588
53.140 9.452834
53.145 9.728013
53.150 9.641897
53.155 9.349675
53.160 9.322095
53.165 9.605814
53.170 9.777823
53.175 9.691535
53.180 9.537365
53.185 9.141004
53.190 9.258172
53.195 9.376516
53.200 9.113857
53.205 8.921697
53.210 9.092094
53.215 9.030844
53.220 9.355565
53.225 9.466129
53.230 9.539807
53.235 9.716354
53.240 9.738695
53.245 9.723939
53.250 9.6339
53.255 9.370756
53.260 9.303983
53.265 9.461846
53.270 9.448426
53.275 9.420929
53.280 9.213104
53.285 9.588948
53.290 9.123488
53.295 8.791133
53.300 8.554554
53.305 8.512487
53.310 8.51966
53.315 8.433835
53.320 8.37371
53.325 9.127467
53.330 9.400746
53.335 9.278821
53.340 9.247989
53.345 8.825147
53.350 8.875016
53.355 9.237362
53.360 8.9559
53.365 9.123291
53.370 9.042766
53.375 9.507699
53.380 10.049619
53.385 10.111868
53.390 9.666922
53.395 9.499409
53.400 9.207582
53.405 9.254205
53.410 8.986624
53.415 8.887237
53.420 8.610154
53.425 8.644824
53.430 8.690767
53.435 9.259848
53.440 9.341825
53.445 9.738389
53.450 9.824174
53.455 10.127362
53.460 10.187283
53.465 10.270247
53.470 10.224048
53.475 10.590179
53.480 10.575488
53.485 10.751562
53.490 10.794979
53.495 11.293214
53.500 11.022136
53.505 10.790885
53.510 10.204317
53.515 9.830622
53.520 9.619568
53.525 10.024813
53.530 9.63793
53.535 9.410032
53.540 9.3145
53.545 9.438355
53.550 9.355047
53.555 9.191976
53.560 8.629541
53.565 8.607709
53.570 9.348737
53.575 9.634551
53.580 9.814947
53.585 10.05813
53.590 10.574035
53.595 10.50893
53.600 10.231943
53.605 9.692401
53.610 9.169098
53.615 9.109255
53.620 8.522764
53.625 8.068436
53.630 8.405255
53.635 8.948242
53.640 9.483038
53.645 9.974994
53.650 10.169896
53.655 10.47086
53.660 10.352136
53.665 9.695905
53.670 9.271714
53.675 9.011158
53.680 8.712104
53.685 8.571851
53.690 8.55203
53.695 8.541667
53.700 9.124968
53.705 9.323269
53.710 9.347707
53.715 9.831048
53.720 10.228136
53.725 10.312039
53.730 10.894569
53.735 10.664815
53.740 11.011212
53.745 10.476474
53.750 10.108607
53.755 10.190548
53.760 10.245729
53.765 10.047499
53.770 10.046878
53.775 9.997655
53.780 10.881898
53.785 11.163244
53.790 10.774412
53.795 10.517609
53.800 10.811935
53.805 10.747571
53.810 11.198051
53.815 10.561574
53.820 10.311394
53.825 10.668663
53.830 11.224524
53.835 10.905886
53.840 10.307494
53.845 9.783957
53.850 9.875494
53.855 10.043081
53.860 10.165097
53.865 9.574843
53.870 9.923827
53.875 9.95114
53.880 10.003345
53.885 9.940747
53.890 9.418762
53.895 9.630418
53.900 10.159141
53.905 10.660632
53.910 10.712547
53.915 10.427446
53.920 10.307981
53.925 10.532476
53.930 10.134305
53.935 10.057061
53.940 9.750006
53.945 10.374328
53.950 10.985736
53.955 11.082857
53.960 11.080446
53.965 10.577482
53.970 10.237425
53.975 9.865247
53.980 9.279398
53.985 9.260663
53.990 9.619654
53.995 10.045527
54.000 10.36592
54.005 10.142721
54.010 10.005524
54.015 9.87266
54.020 10.027779
54.025 9.582989
54.030 9.393788
54.035 9.713888
54.040 10.343449
54.045 10.710149
54.050 10.603749
54.055 10.412762
54.060 10.499502
54.065 10.336722
54.070 10.11142
54.075 9.868499
54.080 10.288872
54.085 10.23206
54.090 10.330369
54.095 10.695653
54.100 10.211185
54.105 10.394535
54.110 10.091
54.115 10.039043
54.120 10.368112
54.125 10.313567
54.130 9.875112
54.135 9.690471
54.140 9.753642
54.145 9.947846
54.150 9.62805
54.155 9.576988
54.160 9.438554
54.165 9.982634
54.170 10.535379
54.175 10.34284
54.180 10.402251
54.185 10.83981
54.190 10.580501
54.195 10.911285
54.200 11.441778
54.205 11.878957
54.210 12.234403
54.215 12.029023
54.220 11.922326
54.225 12.03387
54.230 11.494202
54.235 10.94888
54.240 10.643653
54.245 10.651253
54.250 10.585303
54.255 10.334824
54.260 10.118333
54.265 9.83906
54.270 9.499456
54.275 9.344197
54.280 9.357453
54.285 9.721273
54.290 9.986671
54.295 10.29532
54.300 10.818465
54.305 11.290882
54.310 11.294477
54.315 10.860675
54.320 10.582594
54.325 11.033607
54.330 10.884763
54.335 10.518468
54.340 10.25475
54.345 10.381156
54.350 10.836794
54.355 10.850833
54.360 10.82539
54.365 11.168437
54.370 11.899847
54.375 11.955267
54.380 11.784077
54.385 11.200107
54.390 10.898129
54.395 10.496329
54.400 10.637892
54.405 10.37473
54.410 10.657462
54.415 10.957606
54.420 11.161705
54.425 11.41926
54.430 11.373353
54.435 10.949151
54.440 10.695805
54.445 10.267381
54.450 9.945036
54.455 9.961423
54.460 10.292467
54.465 10.123349
54.470 9.570304
54.475 9.505995
54.480 9.493741
54.485 9.495004
54.490 9.13092
54.495 8.896127
54.500 8.899459
54.505 9.475943
54.510 9.843239
54.515 10.449945
54.520 10.644872
54.525 11.05416
54.530 11.197646
54.535 11.553054
54.540 11.800248
54.545 11.857806
54.550 11.798722
54.555 11.52735
54.560 11.170211
54.565 11.157764
54.570 10.597572
54.575 9.794147
54.580 9.820712
54.585 9.937126
54.590 10.481973
54.595 10.477139
54.600 10.446491
54.605 11.373924
54.610 11.809259
54.615 11.483671
54.620 11.540213
54.625 10.963138
54.630 10.868537
54.635 10.552308
54.640 10.011035
54.645 9.861064
54.650 9.794834
54.655 9.853619
54.660 10.096668
54.665 10.413002
54.670 10.51876
54.675 10.595046
54.680 10.790402
54.685 11.092038
54.690 11.353522
54.695 11.208163
54.700 11.136849
54.705 11.105671
54.710 11.351498
54.715 11.537031
54.720 11.306233
54.725 11.356133
54.730 11.307739
54.735 11.305145
54.740 11.528813
54.745 11.34895
54.750 11.460487
54.755 11.194813
54.760 11.238544
54.765 11.562555
54.770 11.328737
54.775 11.434235
54.780 11.308499
54.785 10.527785
54.790 10.428963
54.795 10.582073
54.800 10.467749
54.805 10.657463
54.810 10.355191
54.815 10.55726
54.820 11.397724
54.825 11.988115
54.830 11.803817
54.835 11.511344
54.840 11.330607
54.845 11.745936
54.850 12.143898
54.855 12.309348
54.860 12.318007
54.865 12.425691
54.870 12.520238
54.875 12.908807
54.880 12.340958
54.885 11.469051
54.890 11.024199
54.895 10.558579
54.900 10.377921
54.905 10.257248
54.910 10.091442
54.915 10.006496
54.920 10.323259
54.925 10.661941
54.930 11.071856
54.935 11.423836
54.940 11.539116
54.945 11.259466
54.950 11.94874
54.955 12.071651
54.960 11.888454
54.965 11.659705
54.970 11.497873
54.975 11.526337
54.980 11.69008
54.985 11.446935
54.990 11.309855
54.995 11.263779
55.000 11.233206
55.005 11.230721
55.010 11.320374
55.015 11.5014
55.020 11.387789
55.025 11.384314
55.030 11.49038
55.035 11.503614
55.040 11.674745
55.045 11.88154
55.050 11.695422
55.055 11.659218
55.060 11.947863
55.065 11.724136
55.070 11.767823
55.075 11.99544
55.080 11.342237
55.085 10.985473
55.090 10.847165
55.095 10.428047
55.100 10.691043
55.105 10.518772
55.110 10.161913
55.115 10.362143
55.120 10.671898
55.125 10.935709
55.130 11.248644
55.135 10.997613
55.140 11.080699
55.145 11.483819
55.150 11.630611
55.155 11.142065
55.160 11.091125
55.165 10.745847
55.170 11.037877
55.175 11.125723
55.180 11.016194
55.185 11.262418
55.190 11.814737
55.195 11.819298
55.200 12.213756
55.205 11.950159
55.210 11.935922
55.215 11.723708
55.220 11.706779
55.225 11.509276
55.230 11.303843
55.235 11.050892
55.240 11.424566
55.245 11.643229
55.250 11.47637
55.255 11.750872
55.260 11.654681
55.265 11.538363
55.270 11.770033
55.275 11.65794
55.280 11.44183
55.285 11.297417
55.290 10.884815
55.295 11.121339
55.300 11.309749
55.305 11.175616
55.310 11.129024
55.315 11.255437
55.320 11.521185
55.325 11.844109
55.330 12.066698
55.335 11.860065
55.340 12.011275
55.345 12.463178
55.350 12.572036
55.355 12.110116
55.360 11.333527
55.365 11.285179
55.370 11.722063
55.375 11.771419
55.380 11.214901
55.385 10.975965
55.390 11.5061
55.395 12.360244
55.400 12.407861
55.405 11.722599
55.410 11.635678
55.415 11.798223
55.420 12.210461
55.425 11.755356
55.430 11.228521
55.435 11.087653
55.440 11.280334
55.445 11.298507
55.450 11.248629
55.455 10.682206
55.460 10.686504
55.465 10.877438
55.470 11.463469
55.475 11.431438
55.480 11.094185
55.485 11.140367
55.490 11.486118
55.495 11.492229
55.500 11.16293
55.505 10.729818
55.510 10.622315
55.515 10.943284
55.520 11.318273
55.525 11.597729
55.530 12.180887
55.535 12.332432
55.540 12.512489
55.545 12.47155
55.550 12.416478
55.555 12.554626
55.560 12.554379
55.565 12.742665
55.570 12.560705
55.575 12.615253
55.580 12.755495
55.585 13.143017
55.590 12.970474
55.595 12.824621
55.600 12.486124
55.605 12.689144
55.610 12.652669
55.615 12.513342
55.620 11.953283
55.625 11.671088
55.630 11.25652
55.635 11.749167
55.640 11.749196
55.645 11.677753
55.650 11.884315
55.655 11.925014
55.660 12.397285
55.665 12.494026
55.670 11.80861
55.675 11.765974
55.680 11.694824
55.685 11.52372
55.690 11.230329
55.695 11.027705
55.700 10.848133
55.705 10.637253
55.710 10.687067
55.715 10.572621
55.720 10.886783
55.725 11.127629
55.730 11.141154
55.735 11.144398
55.740 11.681577
55.745 11.850955
55.750 12.256065
55.755 12.227978
55.760 12.244697
55.765 12.122541
55.770 12.148803
55.775 11.793461
55.780 11.325845
55.785 11.336029
55.790 11.43308
55.795 11.52854
55.800 12.156528
55.805 13.024528
55.810 13.203423
55.815 13.414229
55.820 13.38961
55.825 13.052241
55.830 13.526768
55.835 13.245594
55.840 12.868985
55.845 13.116202
55.850 13.25146
55.855 13.215919
55.860 13.161695
55.865 12.816198
55.870 12.486941
55.875 12.301485
55.880 12.266878
55.885 12.386635
55.890 12.792747
55.895 12.906946
55.900 12.781255
55.905 13.147575
55.910 13.299128
55.915 13.156048
55.920 13.197258
55.925 13.430451
55.930 13.259653
55.935 13.214836
55.940 12.975968
55.945 13.295062
55.950 13.41259
55.955 13.029637
55.960 12.848561
55.965 13.069821
55.970 13.420141
55.975 13.3368
55.980 12.683948
55.985 12.444315
55.990 12.1886
55.995 12.014923
56.000 11.64764
56.005 11.337881
56.010 11.364222
56.015 11.920834
56.020 12.0034
56.025 11.869184
56.030 11.783714
56.035 11.979582
56.040 12.352791
56.045 12.053027
56.050 12.00662
56.055 12.562749
56.060 12.619928
56.065 12.774005
56.070 12.637655
56.075 12.555852
56.080 13.224421
56.085 13.019279
56.090 12.440485
56.095 12.542571
56.100 12.426172
56.105 12.443275
56.110 12.262403
56.115 11.688042
56.120 12.007978
56.125 12.300948
56.130 12.000303
56.135 12.100054
56.140 12.549709
56.145 13.315689
56.150 13.694086
56.155 13.71048
56.160 13.397561
56.165 13.504474
56.170 13.659869
56.175 12.910656
56.180 12.070578
56.185 11.783865
56.190 11.476249
56.195 11.728614
56.200 11.69654
56.205 11.592553
56.210 11.869423
56.215 11.785684
56.220 11.768673
56.225 12.329567
56.230 12.471024
56.235 12.790997
56.240 13.276042
56.245 14.401231
56.250 15.057847
56.255 14.768779
56.260 14.582794
56.265 14.960029
56.270 14.715696
56.275 14.113754
56.280 12.82665
56.285 12.614296
56.290 12.861418
56.295 12.763477
56.300 12.685958
56.305 12.633066
56.310 12.460987
56.315 13.117982
56.320 13.100832
56.325 12.735234
56.330 12.159285
56.335 12.139371
56.340 12.545222
56.345 12.215999
56.350 11.893188
56.355 11.841531
56.360 11.89745
56.365 12.014216
56.370 11.295634
56.375 11.171716
56.380 11.216104
56.385 11.001486
56.390 11.28157
56.395 11.894265
56.400 12.450626
56.405 12.787581
56.410 13.077423
56.415 13.304318
56.420 13.101937
56.425 12.902431
56.430 12.628362
56.435 11.849571
56.440 12.030604
56.445 11.715553
56.450 11.80174
56.455 11.610462
56.460 11.480488
56.465 11.541946
56.470 11.703509
56.475 11.843092
56.480 12.033529
56.485 12.519043
56.490 13.84166
56.495 14.319077
56.500 14.451055
56.505 14.877172
56.510 14.610926
56.515 14.572513
56.520 14.489848
56.525 13.67254
56.530 13.345189
56.535 13.179895
56.540 13.487701
56.545 13.35471
56.550 13.298822
56.555 13.690378
56.560 14.199844
56.565 14.501818
56.570 14.578686
56.575 14.50947
56.580 14.89001
56.585 14.586269
56.590 14.192469
56.595 13.552467
56.600 13.071294
56.605 13.137643
56.610 12.864827
56.615 12.871816
56.620 12.843264
56.625 12.744363
56.630 12.692852
56.635 13.166936
56.640 13.106828
56.645 12.859765
56.650 12.581329
56.655 12.80376
56.660 13.275228
56.665 13.532944
56.670 13.261689
56.675 13.262754
56.680 13.955731
56.685 14.585224
56.690 14.576571
56.695 13.924747
56.700 14.425229
56.705 14.556764
56.710 14.69277
56.715 14.439905
56.720 14.207275
56.725 13.860307
56.730 13.753509
56.735 13.538513
56.740 13.756575
56.745 13.978844
56.750 14.372198
56.755 14.08263
56.760 14.290614
56.765 14.170293
56.770 14.151759
56.775 13.764788
56.780 13.436386
56.785 13.115566
56.790 12.751488
56.795 12.491223
56.800 12.5681
56.805 12.40661
56.810 12.338673
56.815 12.012354
56.820 11.812128
56.825 12.479278
56.830 12.694875
56.835 12.646612
56.840 12.744325
56.845 13.202994
56.850 13.424712
56.855 13.446525
56.860 13.405568
56.865 13.673438
56.870 14.298694
56.875 14.349473
56.880 13.98102
56.885 13.663457
56.890 13.529578
56.895 12.862042
56.900 12.345952
56.905 12.177992
56.910 12.182217
56.915 12.420732
56.920 12.886753
56.925 13.59695
56.930 14.613895
56.935 15.216508
56.940 14.860862
56.945 14.713016
56.950 14.35067
56.955 14.145837
56.960 13.844443
56.965 13.155106
56.970 12.8873
56.975 12.980887
56.980 13.026419
56.985 13.15579
56.990 13.167699
56.995 13.28147
57.000 13.117746
57.005 13.376841
57.010 13.573617
57.015 13.51615
57.020 13.333309
57.025 13.123217
57.030 13.417126
57.035 13.224698
57.040 12.831818
57.045 12.898742
57.050 13.7054
57.055 14.383472
57.060 14.408607
57.065 14.400712
57.070 14.630316
57.075 14.812394
57.080 14.252761
57.085 13.56487
57.090 13.157523
57.095 13.278705
57.100 13.47469
57.105 13.330287
57.110 13.081533
57.115 12.780922
57.120 12.179131
57.125 12.243917
57.130 12.440581
57.135 12.094209
57.140 12.508692
57.145 12.890096
57.150 12.907047
57.155 13.334872
57.160 13.361695
57.165 13.222344
57.170 13.353268
57.175 13.853256
57.180 13.789306
57.185 14.620799
57.190 14.891261
57.195 14.799389
57.200 14.824289
57.205 14.993255
57.210 14.637876
57.215 14.653046
57.220 13.877273
57.225 13.330494
57.230 13.543308
57.235 13.231202
57.240 12.628922
57.245 12.422145
57.250 12.807037
57.255 13.365149
57.260 13.958886
57.265 13.962311
57.270 14.621197
57.275 14.992751
57.280 15.085311
57.285 14.870037
57.290 15.010201
57.295 15.106932
57.300 14.997483
57.305 14.726471
57.310 14.766433
57.315 14.362222
57.320 14.234935
57.325 14.189428
57.330 14.572109
57.335 15.114733
57.340 15.150612
57.345 15.06034
57.350 14.929245
57.355 14.451017
57.360 14.211016
57.365 13.852277
57.370 13.331491
57.375 13.568256
57.380 13.61149
57.385 13.980383
57.390 14.508913
57.395 14.552496
57.400 14.698749
57.405 14.930464
57.410 15.200431
57.415 15.148458
57.420 14.519955
57.425 14.511323
57.430 14.422345
57.435 14.146007
57.440 14.378346
57.445 14.440353
57.450 14.510857
57.455 14.649497
57.460 14.480473
57.465 14.671773
57.470 14.827398
57.475 14.307215
57.480 13.883195
57.485 14.551211
57.490 15.070663
57.495 15.311459
57.500 15.091865
57.505 14.953051
57.510 14.93951
57.515 14.443866
57.520 14.047946
57.525 13.770501
57.530 13.316658
57.535 13.622748
57.540 13.651242
57.545 13.481149
57.550 14.081424
57.555 14.293287
57.560 14.652049
57.565 14.67142
57.570 14.494088
57.575 14.589936
57.580 14.598719
57.585 14.389608
57.590 14.162109
57.595 14.218422
57.600 14.22956
57.605 13.756914
57.610 13.837019
57.615 14.282876
57.620 14.132461
57.625 14.076118
57.630 14.239239
57.635 14.199031
57.640 14.452744
57.645 14.506952
57.650 13.906859
57.655 14.601207
57.660 14.596541
57.665 14.015935
57.670 13.946109
57.675 14.073496
57.680 13.824725
57.685 13.757777
57.690 13.936455
57.695 14.408928
57.700 15.087257
57.705 15.21314
57.710 14.606373
57.715 14.591991
57.720 14.597845
57.725 14.250415
57.730 13.717646
57.735 13.402514
57.740 12.994242
57.745 12.982093
57.750 13.130217
57.755 13.190789
57.760 13.513799
57.765 13.778305
57.770 13.546185
57.775 13.970753
57.780 14.966749
57.785 15.177201
57.790 15.191412
57.795 14.573625
57.800 14.739088
57.805 14.715394
57.810 14.703886
57.815 14.3587
57.820 14.384064
57.825 14.583911
57.830 14.734098
57.835 14.600366
57.840 14.618548
57.845 14.03382
57.850 13.751354
57.855 13.136327
57.860 12.936921
57.865 12.991672
57.870 12.998577
57.875 13.409957
57.880 14.138489
57.885 14.841083
57.890 15.221557
57.895 15.252316
57.900 15.407986
57.905 15.957726
57.910 15.804469
57.915 15.447002
57.920 15.2606
57.925 15.391395
57.930 15.248225
57.935 14.999337
57.940 14.198997
57.945 13.778784
57.950 13.833272
57.955 13.567456
57.960 13.960676
57.965 14.205371
57.970 14.173206
57.975 14.488074
57.980 14.550021
57.985 14.388419
57.990 14.614156
57.995 14.545385
58.000 14.6426
58.005 14.718127
58.010 14.83652
58.015 14.531687
58.020 14.813715
58.025 14.520936
58.030 14.278673
58.035 14.630992
58.040 14.531509
58.045 14.729379
58.050 15.237803
58.055 15.13612
58.060 14.587446
58.065 14.392713
58.070 13.878816
58.075 13.821803
58.080 14.159398
58.085 14.054659
58.090 14.223633
58.095 14.69358
58.100 14.923191
58.105 15.370893
58.110 15.349345
58.115 14.982911
58.120 15.061032
58.125 14.768527
58.130 14.503056
58.135 14.445248
58.140 13.795104
58.145 13.619824
58.150 14.127488
58.155 14.423582
58.160 14.364755
58.165 14.541415
58.170 14.604142
58.175 15.020082
58.180 15.646933
58.185 14.89655
58.190 15.039629
58.195 15.172369
58.200 14.816715
58.205 15.12922
58.210 15.037289
58.215 14.989249
58.220 15.209984
58.225 15.175362
58.230 15.653859
58.235 15.498534
58.240 15.209395
58.245 14.987734
58.250 14.367817
58.255 14.566377
58.260 14.455745
58.265 14.003823
58.270 14.127629
58.275 14.036016
58.280 14.131083
58.285 14.552348
58.290 14.158263
58.295 13.99446
58.300 14.716334
58.305 14.67389
58.310 14.708977
58.315 14.950567
58.320 14.733639
58.325 15.089775
58.330 14.99514
58.335 14.870563
58.340 14.953308
58.345 15.162416
58.350 15.075151
58.355 14.830862
58.360 14.234074
58.365 14.264471
58.370 14.66124
58.375 15.239783
58.380 15.425282
58.385 16.076267
58.390 16.455141
58.395 16.369871
58.400 15.488001
58.405 14.243044
58.410 13.767525
58.415 12.876432
58.420 11.839835
58.425 11.977329
58.430 12.250079
58.435 12.96952
58.440 13.397851
58.445 13.754915
58.450 14.432387
58.455 14.366385
58.460 14.1856
58.465 14.678352
58.470 14.84166
58.475 14.854984
58.480 14.982611
58.485 15.281987
58.490 16.291922
58.495 16.056543
58.500 15.502526
58.505 15.395675
58.510 15.397814
58.515 14.786942
58.520 14.600822
58.525 14.152864
58.530 14.286633
58.535 14.271459
58.540 14.290103
58.545 14.187288
58.550 13.563933
58.555 13.286208
58.560 13.600138
58.565 13.900203
58.570 14.3631
58.575 14.343927
58.580 14.608268
58.585 15.554257
58.590 15.947436
58.595 15.949546
58.600 16.335129
58.605 16.534481
58.610 16.820284
58.615 16.735973
58.620 16.623442
58.625 16.530298
58.630 16.592083
58.635 15.684403
58.640 15.465678
58.645 15.398872
58.650 15.421288
58.655 15.371388
58.660 15.675572
58.665 15.90744
58.670 16.728704
58.675 17.075449
58.680 17.342861
58.685 17.571362
58.690 17.490089
58.695 17.510658
58.700 17.491257
58.705 17.28195
58.710 17.032253
58.715 16.117594
58.720 16.008457
58.725 15.675001
58.730 15.103839
58.735 14.884271
58.740 15.176493
58.745 15.340262
58.750 15.71808
58.755 15.886237
58.760 15.964675
58.765 16.219492
58.770 16.132326
58.775 15.675492
58.780 15.676022
58.785 15.850096
58.790 15.64824
58.795 15.508292
58.800 15.389523
58.805 15.326618
58.810 15.238935
58.815 15.109572
58.820 15.324373
58.825 15.572017
58.830 15.741125
58.835 15.727211
58.840 16.126976
58.845 16.367741
58.850 16.321341
58.855 16.552843
58.860 16.433369
58.865 16.575817
58.870 16.243196
58.875 15.40631
58.880 15.298138
58.885 15.363184
58.890 14.813491
58.895 14.822764
58.900 14.450178
58.905 14.441691
58.910 14.470156
58.915 14.303437
58.920 13.873095
58.925 13.998102
58.930 14.181554
58.935 14.498215
58.940 15.108905
58.945 15.37102
58.950 15.758586
58.955 15.561138
58.960 15.275689
58.965 15.181671
58.970 14.981689
58.975 15.176146
58.980 15.553543
58.985 15.3589
58.990 16.308321
58.995 16.93964
59.000 17.089092
59.005 17.747868
59.010 17.868176
59.015 17.582668
59.020 17.357306
59.025 17.047758
59.030 16.703991
59.035 16.670984
59.040 16.371721
59.045 15.581237
59.050 15.854309
59.055 16.34173
59.060 16.548685
59.065 16.752525
59.070 17.140318
59.075 17.425207
59.080 18.152172
59.085 17.728634
59.090 17.188431
59.095 16.68327
59.100 16.402088
59.105 15.992978
59.110 15.401336
59.115 14.964841
59.120 15.337143
59.125 15.955822
59.130 15.973545
59.135 16.47562
59.140 16.987476
59.145 16.902458
59.150 17.216026
59.155 17.13501
59.160 16.625408
59.165 16.419075
59.170 16.241085
59.175 15.904778
59.180 16.188232
59.185 15.947074
59.190 15.841037
59.195 16.076834
59.200 16.409311
59.205 16.247869
59.210 16.099983
59.215 15.971486
59.220 16.465654
59.225 16.791626
59.230 16.744987
59.235 16.568998
59.240 16.51976
59.245 16.305872
59.250 16.223557
59.255 15.920368
59.260 15.166222
59.265 14.948486
59.270 15.203167
59.275 15.427509
59.280 15.741763
59.285 15.909508
59.290 15.879484
59.295 16.495338
59.300 16.992983
59.305 17.173559
59.310 17.415285
59.315 17.1695
59.320 17.069992
59.325 17.609779
59.330 17.393162
59.335 16.933231
59.340 16.313021
59.345 15.787361
59.350 15.937407
59.355 16.16684
59.360 15.85196
59.365 15.937436
59.370 15.68702
59.375 15.675625
59.380 16.153322
59.385 16.443352
59.390 16.13726
59.395 16.15023
59.400 16.231991
59.405 16.471769
59.410 16.61491
59.415 16.706093
59.420 16.458439
59.425 16.166395
59.430 15.741001
59.435 15.531413
59.440 15.521626
59.445 15.151269
59.450 15.110205
59.455 15.826872
59.460 16.552189
59.465 16.666931
59.470 16.362442
59.475 16.472191
59.480 16.498127
59.485 16.168299
59.490 15.687142
59.495 15.111935
59.500 15.469982
59.505 15.684242
59.510 15.805017
59.515 16.155216
59.520 16.25285
59.525 15.89572
59.530 16.184435
59.535 15.800918
59.540 15.521972
59.545 15.681772
59.550 15.824059
59.555 16.05888
59.560 16.373533
59.565 16.551008
59.570 17.189833
59.575 18.104591
59.580 17.843351
59.585 17.285032
59.590 16.995232
59.595 17.450705
59.600 17.376474
59.605 17.03163
59.610 16.601904
59.615 16.98694
59.620 17.635372
59.625 17.900085
59.630 17.256699
59.635 17.452929
59.640 17.77231
59.645 17.684498
59.650 17.908607
59.655 17.569075
59.660 17.142677
59.665 17.557886
59.670 17.710251
59.675 17.933174
59.680 17.927607
59.685 17.51918
59.690 18.015005
59.695 18.454082
59.700 18.646885
59.705 18.658802
59.710 18.781656
59.715 19.357708
59.720 19.486012
59.725 19.001213
59.730 18.54167
59.735 18.33795
59.740 18.283226
59.745 18.128727
59.750 17.803946
59.755 17.593784
59.760 17.731911
59.765 18.152161
59.770 17.863146
59.775 17.953913
59.780 17.680248
59.785 17.408947
59.790 17.431526
59.795 17.431
59.800 17.567057
59.805 17.541573
59.810 18.120754
59.815 18.095581
59.820 18.256025
59.825 18.27552
59.830 18.042944
59.835 17.99229
59.840 18.433353
59.845 17.973663
59.850 17.999413
59.855 17.842758
59.860 17.998167
59.865 18.147539
59.870 18.093334
59.875 18.331964
59.880 18.354132
59.885 19.138142
59.890 19.847765
59.895 19.975513
59.900 20.626692
59.905 20.772739
59.910 20.768028
59.915 21.073769
59.920 21.068598
59.925 21.255753
59.930 21.28043
59.935 20.413952
59.940 20.253662
59.945 19.713253
59.950 19.530369
59.955 18.834742
59.960 18.581818
59.965 18.910921
59.970 19.116323
59.975 19.042154
59.980 19.195656
59.985 19.27253
59.990 19.973131
59.995 20.136471
60.000 20.143709
60.005 20.695709
60.010 20.735193
60.015 20.481592
60.020 20.311687
60.025 19.855251
60.030 19.771561
60.035 19.828249
60.040 20.226681
60.045 20.460447
60.050 21.057997
60.055 21.319576
60.060 21.277849
60.065 20.94544
60.070 20.559349
60.075 20.137814
60.080 20.08304
60.085 20.092896
60.090 19.907614
60.095 20.192287
60.100 20.702202
60.105 21.172419
60.110 21.446793
60.115 21.344225
60.120 21.048868
60.125 21.812092
60.130 21.847292
60.135 21.745352
60.140 21.123396
60.145 20.416496
60.150 20.706329
60.155 20.585726
60.160 20.087618
60.165 19.932201
60.170 19.974051
60.175 20.162214
60.180 20.591486
60.185 20.327093
60.190 20.504103
60.195 20.182949
60.200 20.045792
60.205 20.192469
60.210 20.53438
60.215 19.987438
60.220 19.985624
60.225 20.703007
60.230 20.938435
60.235 21.582439
60.240 21.549465
60.245 21.627712
60.250 22.143181
60.255 21.683689
60.260 21.061827
60.265 21.703064
60.270 21.794538
60.275 21.805046
60.280 21.758064
60.285 21.882402
60.290 22.894342
60.295 22.837603
60.300 21.954102
60.305 21.632416
60.310 21.397657
60.315 21.090027
60.320 21.057558
60.325 20.457535
60.330 20.611534
60.335 20.930487
60.340 21.09614
60.345 21.016819
60.350 21.508223
60.355 21.359621
60.360 21.095053
60.365 20.766506
60.370 20.331184
60.375 19.94455
60.380 20.139637
60.385 20.197342
60.390 20.491461
60.395 21.234478
60.400 21.150654
60.405 21.172588
60.410 21.598974
60.415 21.763527
60.420 21.807486
60.425 21.933077
60.430 22.241522
60.435 22.571697
60.440 22.642721
60.445 22.158958
60.450 21.289307
60.455 20.99275
60.460 20.642336
60.465 20.459089
60.470 20.55427
60.475 20.808128
60.480 21.126736
60.485 21.099426
60.490 20.409506
60.495 20.283392
60.500 19.623749
60.505 19.664612
60.510 18.526911
60.515 18.653246
60.520 19.017311
60.525 19.623205
60.530 20.005995
60.535 20.393299
60.540 20.565702
60.545 21.29641
60.550 21.452463
60.555 21.633965
60.560 21.594612
60.565 21.474112
60.570 21.099281
60.575 21.189507
60.580 21.412607
60.585 21.490128
60.590 22.175703
60.595 22.638334
60.600 22.47727
60.605 22.43708
60.610 21.933491
60.615 21.539608
60.620 20.936104
60.625 20.036913
60.630 19.707985
60.635 19.591381
60.640 19.212765
60.645 19.428469
60.650 19.36517
60.655 19.345615
60.660 19.538004
60.665 19.624157
60.670 19.602201
60.675 19.626993
60.680 19.437805
60.685 19.118181
60.690 18.721378
60.695 18.730356
60.700 18.445799
60.705 18.279419
60.710 18.252401
60.715 18.469574
60.720 18.947708
60.725 19.380859
60.730 19.158377
60.735 19.152782
60.740 18.774448
60.745 19.06724
60.750 19.195459
60.755 18.184805
60.760 17.890909
60.765 18.099651
60.770 18.029394
60.775 18.405157
60.780 18.203836
60.785 18.149124
60.790 18.708872
60.795 18.873142
60.800 19.286583
60.805 19.560825
60.810 19.713089
60.815 19.551683
60.820 19.746756
60.825 20.0574
60.830 20.141138
60.835 19.741127
60.840 19.336519
60.845 18.792694
60.850 18.141441
60.855 17.76651
60.860 17.216213
60.865 17.282595
60.870 16.976566
60.875 16.811554
60.880 17.236155
60.885 17.894253
60.890 17.862333
60.895 17.557045
60.900 17.364674
60.905 17.435452
60.910 17.498613
60.915 17.421429
60.920 17.622803
60.925 18.235155
60.930 18.910009
60.935 18.819235
60.940 19.207008
60.945 19.665773
60.950 20.187342
60.955 20.884802
60.960 20.744122
60.965 20.260612
60.970 20.231644
60.975 19.770676
60.980 19.673765
60.985 19.787945
60.990 19.181646
60.995 18.809492
61.000 19.069975
61.005 18.862032
61.010 18.688339
61.015 17.767471
61.020 16.769711
61.025 16.226265
61.030 16.478722
61.035 16.538164
61.040 17.195354
61.045 17.596727
61.050 17.956524
61.055 17.817133
61.060 18.225191
61.065 18.117107
61.070 17.937845
61.075 17.490629
61.080 17.763004
61.085 18.031588
61.090 17.949291
61.095 17.384504
61.100 16.843254
61.105 17.063076
61.110 17.683344
61.115 17.713293
61.120 17.724609
61.125 17.801756
61.130 18.032053
61.135 18.782534
61.140 18.293835
61.145 17.418736
61.150 17.443228
61.155 17.203274
61.160 17.544388
61.165 17.476032
61.170 17.368917
61.175 17.814886
61.180 18.322533
61.185 17.770378
61.190 17.962059
61.195 18.169621
61.200 18.686089
61.205 18.929089
61.210 18.998428
61.215 19.242626
61.220 19.636356
61.225 19.77317
61.230 20.215401
61.235 19.78089
61.240 19.153833
61.245 19.039101
61.250 18.747852
61.255 18.683794
61.260 18.217779
61.265 17.647192
61.270 17.291092
61.275 17.620123
61.280 17.568558
61.285 17.93541
61.290 18.515245
61.295 18.753325
61.300 18.894876
61.305 18.712503
61.310 18.468443
61.315 18.221325
61.320 17.768248
61.325 16.961885
61.330 16.773676
61.335 16.234488
61.340 16.281414
61.345 16.176535
61.350 16.487417
61.355 16.234179
61.360 17.121061
61.365 17.271473
61.370 17.692549
61.375 18.163294
61.380 18.218351
61.385 17.794477
61.390 17.498096
61.395 17.003283
61.400 16.806393
61.405 16.387974
61.410 16.728853
61.415 16.817324
61.420 17.070257
61.425 17.487288
61.430 17.313974
61.435 17.580696
61.440 18.008226
61.445 17.928488
61.450 18.102501
61.455 18.318779
61.460 18.196304
61.465 18.667356
61.470 18.695787
61.475 18.513466
61.480 18.104237
61.485 17.741924
61.490 18.082554
61.495 18.80699
61.500 19.134361
61.505 19.023455
61.510 18.787895
61.515 18.946154
61.520 18.986168
61.525 18.308163
61.530 17.551502
61.535 16.579487
61.540 17.23752
61.545 18.168844
61.550 18.659037
61.555 18.517635
61.560 18.52033
61.565 18.334957
61.570 18.287464
61.575 17.881348
61.580 17.38286
61.585 16.883263
61.590 16.917801
61.595 17.160551
61.600 17.304131
61.605 17.225933
61.610 16.905872
61.615 16.675081
61.620 16.744749
61.625 16.458496
61.630 16.05694
61.635 15.865262
61.640 16.001429
61.645 15.757277
61.650 15.522789
61.655 15.418905
61.660 15.505956
61.665 15.887052
61.670 16.453655
61.675 16.224613
61.680 15.907119
61.685 15.886622
61.690 15.975008
61.695 16.289133
61.700 16.182343
61.705 16.015261
61.710 16.450922
61.715 17.543732
61.720 18.321321
61.725 18.073074
61.730 17.463032
61.735 17.228699
61.740 17.136547
61.745 17.360556
61.750 16.717754
61.755 15.92588
61.760 16.090588
61.765 16.510172
61.770 16.48181
61.775 15.737317
61.780 15.409559
61.785 15.816929
61.790 16.412138
61.795 16.705154
61.800 17.0336
61.805 17.374718
61.810 18.092596
61.815 17.937981
61.820 17.283974
61.825 17.117615
61.830 17.305784
61.835 17.329634
61.840 17.167774
61.845 17.084324
61.850 17.146709
61.855 18.157007
61.860 18.449799
61.865 17.981995
61.870 17.721611
61.875 18.397469
61.880 18.743616
61.885 19.002562
61.890 18.721947
61.895 18.425682
61.900 18.401491
61.905 18.448616
61.910 17.83717
61.915 17.759239
61.920 17.60862
61.925 17.249767
61.930 17.259659
61.935 17.031288
61.940 16.428411
61.945 16.276014
61.950 16.020224
61.955 16.038309
61.960 16.043369
61.965 16.043999
61.970 16.783648
61.975 17.056162
61.980 17.10467
61.985 17.238556
61.990 16.762032
61.995 16.6998
62.000 16.480982
62.005 16.290043
62.010 16.135839
62.015 15.998984
62.020 15.694624
62.025 16.021408
62.030 15.783044
62.035 15.69322
62.040 15.116452
62.045 15.57708
62.050 16.262341
62.055 16.447519
62.060 16.883701
62.065 17.01362
62.070 16.724815
62.075 17.125834
62.080 16.796938
62.085 16.056618
62.090 16.307663
62.095 16.128454
62.100 15.681841
62.105 15.956721
62.110 15.619797
62.115 15.8769
62.120 16.035036
62.125 16.057051
62.130 16.276205
62.135 17.111374
62.140 16.902025
62.145 17.364931
62.150 17.179144
62.155 17.106962
62.160 16.901686
62.165 17.1106
62.170 17.615339
62.175 17.80481
62.180 18.090973
62.185 18.34305
62.190 17.823204
62.195 17.388016
62.200 16.787756
62.205 16.129944
62.210 16.115162
62.215 15.953601
62.220 15.67778
62.225 16.118862
62.230 16.383289
62.235 15.731119
62.240 15.597688
62.245 15.785362
62.250 16.24527
62.255 16.469545
62.260 16.243137
62.265 16.28372
62.270 16.936106
62.275 17.327402
62.280 16.996449
62.285 16.763569
62.290 16.680822
62.295 17.070797
62.300 17.492579
62.305 17.105858
62.310 16.725271
62.315 16.946354
62.320 17.03714
62.325 17.488089
62.330 17.172909
62.335 16.929335
62.340 17.175753
62.345 17.133135
62.350 16.667244
62.355 16.001749
62.360 15.200438
62.365 15.435084
62.370 15.511449
62.375 15.564284
62.380 16.05777
62.385 16.215151
62.390 16.133524
62.395 16.519852
62.400 16.537556
62.405 16.249945
62.410 15.838694
62.415 15.911364
62.420 16.032236
62.425 16.358343
62.430 16.679333
62.435 16.961748
62.440 17.116556
62.445 17.575867
62.450 18.029921
62.455 18.011478
62.460 18.036173
62.465 17.709194
62.470 17.438442
62.475 17.406988
62.480 16.945356
62.485 16.346287
62.490 16.63187
62.495 16.848492
62.500 17.459185
62.505 17.259508
62.510 17.173723
62.515 17.274416
62.520 17.288063
62.525 17.315409
62.530 16.971367
62.535 15.997664
62.540 15.755846
62.545 16.107279
62.550 16.124691
62.555 16.124537
62.560 15.658031
62.565 15.944876
62.570 16.23834
62.575 16.070396
62.580 15.971915
62.585 15.774816
62.590 15.96491
62.595 16.327391
62.600 16.227839
62.605 16.832312
62.610 17.17119
62.615 17.181431
62.620 16.984921
62.625 16.886692
62.630 17.016926
62.635 17.029432
62.640 17.18556
62.645 17.800089
62.650 17.797443
62.655 18.173931
62.660 18.037088
62.665 17.370396
62.670 17.289789
62.675 17.138777
62.680 16.685978
62.685 16.746035
62.690 16.331451
62.695 16.566555
62.700 17.067051
62.705 16.98731
62.710 17.03191
62.715 17.260332
62.720 17.567696
62.725 17.942299
62.730 18.01696
62.735 17.976866
62.740 17.615831
62.745 17.56967
62.750 17.099276
62.755 16.813524
62.760 16.50205
62.765 16.468409
62.770 16.935249
62.775 17.51593
62.780 17.414345
62.785 17.629229
62.790 17.427361
62.795 17.639498
62.800 17.251686
62.805 16.896404
62.810 16.586077
62.815 16.640173
62.820 17.166544
62.825 17.318233
62.830 17.472052
62.835 17.456244
62.840 17.214884
62.845 17.082375
62.850 16.529079
62.855 16.612621
62.860 17.06246
62.865 16.876455
62.870 16.723587
62.875 16.760048
62.880 16.916033
62.885 17.025318
62.890 16.410364
62.895 16.031837
62.900 16.389786
62.905 16.755375
62.910 16.700474
62.915 16.758221
62.920 16.879082
62.925 16.855694
62.930 16.749992
62.935 16.132122
62.940 16.021999
62.945 16.109713
62.950 15.951543
62.955 16.231998
62.960 16.492168
62.965 16.610199
62.970 17.182959
62.975 17.640909
62.980 17.725237
62.985 17.792786
62.990 17.222439
62.995 17.193422
63.000 18.189438
63.005 18.394203
63.010 18.130554
63.015 18.027571
63.020 18.045343
63.025 17.958832
63.030 17.622944
63.035 16.939863
63.040 16.447433
63.045 16.240982
63.050 16.26091
63.055 16.480635
63.060 17.127653
63.065 17.54122
63.070 17.888851
63.075 18.355429
63.080 17.964361
63.085 17.868198
63.090 17.538189
63.095 17.153543
63.100 16.801197
63.105 16.370775
63.110 16.016195
63.115 16.753687
63.120 16.945162
63.125 16.81732
63.130 17.008524
63.135 17.231462
63.140 17.354364
63.145 17.632217
63.150 17.34663
63.155 17.667253
63.160 18.079683
63.165 18.052773
63.170 18.119553
63.175 18.231483
63.180 18.236843
63.185 18.678513
63.190 18.339571
63.195 18.227819
63.200 17.919704
63.205 18.227053
63.210 18.539747
63.215 19.045197
63.220 18.874557
63.225 19.15757
63.230 19.34215
63.235 19.522945
63.240 19.193262
63.245 18.956284
63.250 18.944927
63.255 19.089231
63.260 19.304188
63.265 19.271751
63.270 19.11277
63.275 18.432993
63.280 17.645058
63.285 17.524889
63.290 17.279596
63.295 17.178419
63.300 16.655909
63.305 16.690552
63.310 17.243311
63.315 17.593767
63.320 17.183489
63.325 17.456263
63.330 17.822269
63.335 18.618614
63.340 18.69659
63.345 18.840816
63.350 18.711538
63.355 18.694241
63.360 18.548586
63.365 18.360064
63.370 18.215471
63.375 18.101791
63.380 17.654947
63.385 17.667082
63.390 17.298883
63.395 16.748203
63.400 16.146307
63.405 15.662009
63.410 15.512118
63.415 15.577302
63.420 16.046228
63.425 16.653669
63.430 17.154682
63.435 17.586603
63.440 17.862423
63.445 18.530363
63.450 19.106749
63.455 18.945162
63.460 18.821215
63.465 18.660234
63.470 18.849625
63.475 19.306124
63.480 19.002327
63.485 18.709953
63.490 19.113199
63.495 19.564693
63.500 19.617092
63.505 19.513895
63.510 19.074625
63.515 19.400084
63.520 19.202761
63.525 18.761547
63.530 17.721029
63.535 17.780125
63.540 18.451723
63.545 18.828571
63.550 17.955059
63.555 17.675905
63.560 17.972734
63.565 18.484499
63.570 17.988548
63.575 16.996531
63.580 16.683969
63.585 17.018282
63.590 16.823078
63.595 16.736879
63.600 16.898314
63.605 16.855547
63.610 16.890995
63.615 16.864017
63.620 17.259424
63.625 17.68215
63.630 17.827789
63.635 17.772392
63.640 18.36788
63.645 18.702066
63.650 18.412975
63.655 17.829134
63.660 17.729168
63.665 17.860445
63.670 17.885134
63.675 17.912024
63.680 17.877363
63.685 17.916843
63.690 18.557943
63.695 18.495419
63.700 18.475683
63.705 18.319395
63.710 18.047142
63.715 17.950375
63.720 18.309505
63.725 18.175308
63.730 18.289417
63.735 18.101465
63.740 18.274023
63.745 18.266808
63.750 17.87607
63.755 17.428394
63.760 17.288536
63.765 17.388756
63.770 17.232288
63.775 16.870613
63.780 17.355118
63.785 18.054472
63.790 18.671865
63.795 18.845379
63.800 18.748388
63.805 19.36801
63.810 19.447046
63.815 18.85799
63.820 18.272799
63.825 18.221563
63.830 18.409361
63.835 18.170353
63.840 18.514587
63.845 19.011755
63.850 19.877188
63.855 20.100266
63.860 19.771809
63.865 19.575645
63.870 19.812077
63.875 19.218311
63.880 18.562523
63.885 17.989388
63.890 17.941114
63.895 17.83246
63.900 18.03718
63.905 17.730705
63.910 17.499554
63.915 17.599321
63.920 17.481829
63.925 17.556166
63.930 17.629551
63.935 17.466843
63.940 17.321787
63.945 17.648922
63.950 17.798397
63.955 17.870628
63.960 18.295818
63.965 18.300285
63.970 18.321901
63.975 18.24564
63.980 18.648058
63.985 18.845127
63.990 18.918615
63.995 18.842487
64.000 18.532223
64.005 18.388311
64.010 18.646736
64.015 18.412563
64.020 18.705082
64.025 19.444508
64.030 19.598114
64.035 19.621193
64.040 19.490221
64.045 19.40798
64.050 18.761683
64.055 17.833498
64.060 16.974842
64.065 16.786461
64.070 17.210779
64.075 17.452959
64.080 17.555904
64.085 18.044779
64.090 18.608097
64.095 18.228523
64.100 18.346754
64.105 18.170135
64.110 18.059965
64.115 17.835493
64.120 17.711447
64.125 17.401354
64.130 17.566181
64.135 17.685415
64.140 17.684713
64.145 17.908468
64.150 18.033178
64.155 18.212564
64.160 18.51763
64.165 18.85907
64.170 19.194979
64.175 19.217741
64.180 19.480749
64.185 20.183538
64.190 20.337042
64.195 20.19631
64.200 20.018524
64.205 19.261206
64.210 18.540085
64.215 18.442036
64.220 17.765146
64.225 17.538235
64.230 17.427324
64.235 17.032158
64.240 17.225618
64.245 17.943975
64.250 17.879663
64.255 18.056473
64.260 18.283163
64.265 18.767832
64.270 18.799017
64.275 18.765337
64.280 18.410255
64.285 18.600344
64.290 19.049725
64.295 19.099243
64.300 18.82205
64.305 18.755827
64.310 19.047735
64.315 19.90802
64.320 19.833839
64.325 19.40583
64.330 19.248552
64.335 19.30806
64.340 19.553429
64.345 19.312117
64.350 18.205643
64.355 18.343897
64.360 19.121632
64.365 19.011311
64.370 19.231499
64.375 19.078789
64.380 19.231255
64.385 19.089682
64.390 18.63212
64.395 17.894358
64.400 18.24876
64.405 17.627514
64.410 17.614355
64.415 17.963625
64.420 17.988956
64.425 18.368542
64.430 18.743013
64.435 19.007486
64.440 19.909739
64.445 19.895683
64.450 19.55827
64.455 19.952677
64.460 19.585815
64.465 19.607756
64.470 19.164951
64.475 18.979691
64.480 19.555191
64.485 20.109735
64.490 20.351137
64.495 20.31576
64.500 20.072008
64.505 20.362576
64.510 20.472178
64.515 20.210037
64.520 19.989174
64.525 19.851933
64.530 19.694468
64.535 19.868969
64.540 19.421465
64.545 19.237959
64.550 19.102182
64.555 19.061762
64.560 19.015316
64.565 18.547316
64.570 17.620186
64.575 18.080206
64.580 18.00531
64.585 17.75621
64.590 17.699217
64.595 17.423283
64.600 17.44289
64.605 17.674973
64.610 17.896029
64.615 18.1045
64.620 18.48402
64.625 18.288433
64.630 18.577726
64.635 18.764334
64.640 18.594524
64.645 18.191479
64.650 17.993567
64.655 17.824247
64.660 17.901354
64.665 17.443289
64.670 17.500704
64.675 17.930046
64.680 18.126532
64.685 18.290953
64.690 18.797325
64.695 19.417065
64.700 19.755903
64.705 19.634972
64.710 19.944214
64.715 20.08555
64.720 19.556459
64.725 19.641434
64.730 19.345629
64.735 19.104723
64.740 19.388952
64.745 18.820364
64.750 18.431177
64.755 18.535795
64.760 18.187845
64.765 18.379114
64.770 19.215202
64.775 19.160997
64.780 18.90073
64.785 19.434023
64.790 19.459404
64.795 18.563202
64.800 18.972099
64.805 18.677414
64.810 19.015755
64.815 19.273207
64.820 18.979321
64.825 19.214518
64.830 19.332113
64.835 18.959843
64.840 18.858377
64.845 18.711906
64.850 19.096502
64.855 19.368601
64.860 19.665569
64.865 19.652185
64.870 19.635044
64.875 19.90947
64.880 19.989174
64.885 19.859074
64.890 19.695318
64.895 19.494755
64.900 19.919109
64.905 19.965393
64.910 20.085035
64.915 19.792736
64.920 19.672878
64.925 19.419456
64.930 19.592224
64.935 20.158752
64.940 20.293438
64.945 20.21837
64.950 20.267506
64.955 20.423016
64.960 20.442663
64.965 20.276413
64.970 19.66782
64.975 19.761368
64.980 19.780958
64.985 20.041327
64.990 19.657492
64.995 19.997183
65.000 20.092072
65.005 19.997152
65.010 19.72258
65.015 19.873116
65.020 20.391645
65.025 20.544666
65.030 20.216433
65.035 20.00411
65.040 20.358149
65.045 20.839264
65.050 20.818424
65.055 21.200891
65.060 22.383423
65.065 23.262966
65.070 23.503424
65.075 23.91692
65.080 23.890684
65.085 24.361601
65.090 24.397554
65.095 24.574823
65.100 24.09868
65.105 24.288446
65.110 24.052744
65.115 23.849716
65.120 23.290867
65.125 22.885084
65.130 22.427794
65.135 22.4587
65.140 22.258169
65.145 21.892561
65.150 22.095396
65.155 22.59096
65.160 22.232948
65.165 21.740719
65.170 22.257551
65.175 22.529696
65.180 22.256922
65.185 22.394815
65.190 22.055916
65.195 21.748907
65.200 22.512611
65.205 21.744137
65.210 21.907488
65.215 22.457813
65.220 22.209124
65.225 22.833845
65.230 23.632624
65.235 23.203224
65.240 22.888552
65.245 22.91054
65.250 22.778345
65.255 22.716646
65.260 21.915926
65.265 21.974052
65.270 22.462042
65.275 22.693594
65.280 22.580254
65.285 22.873762
65.290 23.405739
65.295 24.144091
65.300 24.179176
65.305 23.78146
65.310 23.625967
65.315 23.724901
65.320 23.876156
65.325 23.639658
65.330 23.276081
65.335 23.280676
65.340 23.39646
65.345 24.169962
65.350 24.041971
65.355 23.505344
65.360 22.882549
65.365 22.742594
65.370 21.966208
65.375 21.864418
65.380 21.26429
65.385 21.28842
65.390 21.679863
65.395 22.069309
65.400 22.443396
65.405 22.837688
65.410 22.815296
65.415 23.120964
65.420 23.195478
65.425 23.233891
65.430 23.156683
65.435 23.355333
65.440 24.25263
65.445 24.738529
65.450 25.399956
65.455 26.035824
65.460 26.369688
65.465 26.145212
65.470 26.100451
65.475 25.502516
65.480 25.174891
65.485 24.447926
65.490 23.390278
65.495 22.999294
65.500 23.576918
65.505 23.879665
65.510 25.236938
65.515 25.912294
65.520 26.552359
65.525 27.005096
65.530 26.959024
65.535 27.001986
65.540 27.412491
65.545 27.433659
65.550 27.738043
65.555 27.74824
65.560 28.695679
65.565 29.230688
65.570 28.925646
65.575 28.86694
65.580 28.958773
65.585 28.579502
65.590 28.695133
65.595 27.858429
65.600 27.653137
65.605 27.89369
65.610 27.652578
65.615 27.65468
65.620 27.723301
65.625 27.999277
65.630 28.7805
65.635 29.52763
65.640 30.343922
65.645 30.793447
65.650 30.203083
65.655 30.676994
65.660 30.372742
65.665 30.242498
65.670 29.807394
65.675 29.438438
65.680 30.313148
65.685 31.59539
65.690 32.071442
65.695 32.320576
65.700 32.624832
65.705 32.934998
65.710 33.091274
65.715 32.768219
65.720 33.006493
65.725 33.984497
65.730 34.123299
65.735 35.066845
65.740 35.599899
65.745 35.680527
65.750 35.182743
65.755 35.066685
65.760 33.937866
65.765 34.342873
65.770 33.854515
65.775 33.775166
65.780 33.374603
65.785 33.132572
65.790 33.671909
65.795 33.970871
65.800 33.846092
65.805 34.125389
65.810 34.736809
65.815 35.649765
65.820 36.013172
65.825 35.792427
65.830 36.720276
65.835 37.297779
65.840 37.451782
65.845 36.773746
65.850 36.081829
65.855 36.62978
65.860 36.322536
65.865 36.603275
65.870 36.723186
65.875 37.139606
65.880 37.645058
65.885 37.853134
65.890 37.255596
65.895 36.954281
65.900 36.273388
65.905 35.550323
65.910 35.614914
65.915 36.611782
65.920 36.85088
65.925 37.357426
65.930 37.809422
65.935 38.428383
65.940 38.623981
65.945 37.765156
65.950 36.807529
65.955 36.821289
65.960 36.873455
65.965 36.369137
65.970 35.815769
65.975 35.167427
65.980 35.247837
65.985 35.382389
65.990 36.067863
65.995 35.710625
66.000 36.259678
66.005 36.669678
66.010 37.044758
66.015 36.768795
66.020 37.054726
66.025 37.032803
66.030 37.303822
66.035 36.466984
66.040 35.891445
66.045 35.750988
66.050 36.138039
66.055 35.601868
66.060 34.87495
66.065 35.135044
66.070 35.307892
66.075 34.913109
66.080 34.700684
66.085 35.055878
66.090 34.908375
66.095 35.087704
66.100 35.285923
66.105 35.763542
66.110 37.226498
66.115 37.965347
66.120 36.878952
66.125 36.955956
66.130 37.324371
66.135 36.976307
66.140 37.073696
66.145 35.980003
66.150 36.475986
66.155 36.956085
66.160 36.668587
66.165 36.107632
66.170 35.583569
66.175 35.269436
66.180 34.586411
66.185 33.611431
66.190 33.33065
66.195 33.057823
66.200 33.185204
66.205 33.559288
66.210 33.965557
66.215 34.293518
66.220 34.459625
66.225 34.203754
66.230 34.295029
66.235 33.865406
66.240 32.997559
66.245 32.560184
66.250 32.162048
66.255 31.68401
66.260 31.691027
66.265 31.424009
66.270 31.839296
66.275 31.507866
66.280 31.278627
66.285 31.330994
66.290 31.375696
66.295 31.269093
66.300 31.913139
66.305 32.367214
66.310 32.548752
66.315 32.015003
66.320 32.184116
66.325 32.574947
66.330 32.617218
66.335 31.942226
66.340 30.435291
66.345 30.747587
66.350 31.771641
66.355 31.961573
66.360 31.653221
66.365 31.537821
66.370 31.829525
66.375 31.84614
66.380 31.693243
66.385 31.164555
66.390 30.946234
66.395 31.074751
66.400 31.295826
66.405 31.028986
66.410 31.006336
66.415 30.107124
66.420 29.837074
66.425 29.413919
66.430 28.940939
66.435 28.313719
66.440 28.553015
66.445 29.440443
66.450 29.448448
66.455 29.124807
66.460 29.168846
66.465 28.963461
66.470 28.997606
66.475 28.441286
66.480 27.780306
66.485 28.378614
66.490 29.241982
66.495 29.460337
66.500 29.5357
66.505 29.475872
66.510 29.555143
66.515 28.377087
66.520 27.459593
66.525 26.476463
66.530 25.904701
66.535 25.930019
66.540 25.954622
66.545 26.406086
66.550 27.221149
66.555 27.432508
66.560 27.44898
66.565 27.18755
66.570 26.836378
66.575 26.688435
66.580 26.367371
66.585 26.287891
66.590 26.32863
66.595 26.359529
66.600 26.362923
66.605 26.051907
66.610 26.149549
66.615 25.916254
66.620 25.987551
66.625 26.05596
66.630 25.580423
66.635 25.814436
66.640 25.708506
66.645 25.371468
66.650 25.501097
66.655 25.745939
66.660 25.87425
66.665 25.998112
66.670 25.995592
66.675 25.998692
66.680 26.282448
66.685 25.109203
66.690 24.404074
66.695 24.528351
66.700 25.099985
66.705 25.488222
66.710 25.972353
66.715 25.931589
66.720 26.636215
66.725 26.871164
66.730 26.389833
66.735 25.394894
66.740 24.539
66.745 23.768114
66.750 23.630943
66.755 23.664436
66.760 24.206463
66.765 24.700684
66.770 24.754873
66.775 24.983887
66.780 25.244177
66.785 25.393547
66.790 24.994987
66.795 24.092737
66.800 24.058102
66.805 24.841434
66.810 25.079796
66.815 25.050673
66.820 24.808924
66.825 25.330904
66.830 25.075642
66.835 24.775389
66.840 24.287937
66.845 24.70669
66.850 25.301329
66.855 25.320335
66.860 24.594954
66.865 25.022423
66.870 25.327543
66.875 25.331596
66.880 24.617714
66.885 24.226553
66.890 24.292887
66.895 24.25021
66.900 23.664923
66.905 23.188139
66.910 22.997728
66.915 22.247274
66.920 21.95001
66.925 21.532734
66.930 21.458588
66.935 21.26124
66.940 21.642538
66.945 21.661966
66.950 22.192337
66.955 22.24511
66.960 22.597414
66.965 22.906872
66.970 23.539356
66.975 22.763929
66.980 22.680285
66.985 22.988333
66.990 23.110561
66.995 22.869467
67.000 22.486198
67.005 22.415751
67.010 22.512867
67.015 22.778212
67.020 22.274944
67.025 22.307894
67.030 22.357536
67.035 22.245539
67.040 22.095814
67.045 21.902582
67.050 22.019909
67.055 22.2169
67.060 22.5665
67.065 23.154758
67.070 23.169121
67.075 23.689362
67.080 24.556587
67.085 24.409958
67.090 24.095476
67.095 23.56333
67.100 23.279186
67.105 23.345249
67.110 22.96657
67.115 22.637978
67.120 23.251953
67.125 23.714714
67.130 23.984756
67.135 23.231459
67.140 22.979897
67.145 22.721251
67.150 22.316294
67.155 22.519217
67.160 23.151386
67.165 23.453474
67.170 24.05822
67.175 24.133402
67.180 24.023565
67.185 23.757551
67.190 22.692181
67.195 21.818743
67.200 21.81616
67.205 22.497387
67.210 22.963923
67.215 23.242155
67.220 23.775015
67.225 23.964819
67.230 24.006819
67.235 23.306309
67.240 22.550041
67.245 21.756039
67.250 21.263985
67.255 21.010525
67.260 20.564585
67.265 20.576206
67.270 20.642904
67.275 20.686172
67.280 20.973091
67.285 20.993305
67.290 21.047487
67.295 21.52692
67.300 21.382597
67.305 20.984455
67.310 20.7868
67.315 20.893259
67.320 21.401886
67.325 21.343351
67.330 21.232241
67.335 21.364828
67.340 21.49641
67.345 21.47216
67.350 20.776108
67.355 20.865299
67.360 20.784657
67.365 20.885046
67.370 20.983345
67.375 21.83807
67.380 22.243616
67.385 22.803223
67.390 22.408499
67.395 22.225649
67.400 21.770786
67.405 21.455643
67.410 21.032782
67.415 20.496746
67.420 20.772884
67.425 20.865522
67.430 20.464699
67.435 20.850599
67.440 21.116751
67.445 21.710632
67.450 21.372053
67.455 21.045725
67.460 20.878929
67.465 21.273182
67.470 21.217321
67.475 21.249384
67.480 21.402542
67.485 22.554478
67.490 22.145586
67.495 22.545673
67.500 22.538925
67.505 22.145611
67.510 21.646093
67.515 21.073671
67.520 20.878624
67.525 21.391188
67.530 21.147165
67.535 21.249786
67.540 21.266565
67.545 21.083881
67.550 21.224077
67.555 20.689358
67.560 20.143974
67.565 20.20223
67.570 20.399134
67.575 20.405842
67.580 21.102638
67.585 21.197903
67.590 21.746674
67.595 22.211246
67.600 22.240456
67.605 22.153923
67.610 22.498459
67.615 22.221479
67.620 21.778704
67.625 21.459297
67.630 21.371874
67.635 21.294199
67.640 20.887119
67.645 20.792957
67.650 20.724749
67.655 20.672127
67.660 20.610569
67.665 20.749937
67.670 20.77597
67.675 21.741676
67.680 21.796021
67.685 22.134823
67.690 23.035957
67.695 23.172785
67.700 23.159132
67.705 23.062607
67.710 21.981518
67.715 22.027884
67.720 21.925026
67.725 21.731144
67.730 21.813372
67.735 21.754025
67.740 22.020248
67.745 22.313051
67.750 22.398577
67.755 22.152376
67.760 20.904505
67.765 20.435776
67.770 20.682556
67.775 20.393993
67.780 20.180084
67.785 19.481209
67.790 19.714443
67.795 20.73217
67.800 21.48395
67.805 21.783323
67.810 21.897112
67.815 22.046066
67.820 22.262543
67.825 21.742762
67.830 22.066504
67.835 21.845373
67.840 22.50536
67.845 22.875891
67.850 22.935015
67.855 22.866819
67.860 22.374929
67.865 21.291016
67.870 21.747913
67.875 21.043684
67.880 20.64122
67.885 20.74835
67.890 20.870756
67.895 21.725323
67.900 21.763855
67.905 20.651407
67.910 20.445963
67.915 20.461781
67.920 20.674749
67.925 20.418848
67.930 20.653179
67.935 21.0144
67.940 21.646988
67.945 22.188797
67.950 22.284243
67.955 22.202532
67.960 22.252945
67.965 22.079254
67.970 21.733732
67.975 21.387516
67.980 20.905621
67.985 20.309927
67.990 20.767492
67.995 21.3582
68.000 21.599281
68.005 21.583941
68.010 21.579683
68.015 21.973129
68.020 22.273935
68.025 21.733963
68.030 21.440022
68.035 21.550037
68.040 21.90337
68.045 22.294733
68.050 23.186821
68.055 23.589012
68.060 23.685705
68.065 23.375706
68.070 22.955544
68.075 22.755703
68.080 22.055643
68.085 21.081835
68.090 21.173204
68.095 21.35685
68.100 21.17178
68.105 21.473999
68.110 21.632053
68.115 21.825661
68.120 21.995161
68.125 21.818863
68.130 21.851875
68.135 22.166035
68.140 22.353468
68.145 22.214304
68.150 22.205257
68.155 21.987097
68.160 22.329996
68.165 22.456629
68.170 22.145226
68.175 21.631691
68.180 21.670475
68.185 21.634718
68.190 22.021261
68.195 21.860079
68.200 21.725454
68.205 21.957005
68.210 22.224478
68.215 21.912703
68.220 21.659752
68.225 21.205868
68.230 20.869732
68.235 20.79907
68.240 20.960772
68.245 20.957428
68.250 21.069719
68.255 21.071602
68.260 21.139702
68.265 21.290594
68.270 21.559427
68.275 21.72644
68.280 21.855391
68.285 22.108006
68.290 22.18177
68.295 22.672842
68.300 22.674479
68.305 21.884325
68.310 21.477869
68.315 21.805174
68.320 21.294556
68.325 20.890753
68.330 20.80711
68.335 21.203743
68.340 21.838455
68.345 21.589544
68.350 21.373541
68.355 21.98292
68.360 22.507322
68.365 22.111105
68.370 22.145868
68.375 22.017679
68.380 22.305204
68.385 22.097696
68.390 21.740969
68.395 21.365797
68.400 20.935371
68.405 20.9172
68.410 21.441109
68.415 21.503782
68.420 21.153091
68.425 21.231176
68.430 21.554649
68.435 21.039108
68.440 20.679819
68.445 20.337368
68.450 20.318756
68.455 20.47492
68.460 20.021431
68.465 20.118057
68.470 20.570751
68.475 20.846046
68.480 21.221043
68.485 21.453003
68.490 21.751301
68.495 21.846407
68.500 21.775711
68.505 21.872217
68.510 21.716475
68.515 21.339981
68.520 21.489868
68.525 21.348547
68.530 21.123848
68.535 21.207392
68.540 21.389221
68.545 21.216345
68.550 21.379101
68.555 20.58749
68.560 21.087572
68.565 21.358109
68.570 21.060345
68.575 20.757866
68.580 20.863068
68.585 20.957815
68.590 21.16869
68.595 21.125374
68.600 21.420336
68.605 21.52877
68.610 21.59848
68.615 21.285446
68.620 21.421688
68.625 21.655037
68.630 21.439627
68.635 21.162483
68.640 21.412678
68.645 21.576202
68.650 21.859694
68.655 21.840019
68.660 22.202719
68.665 22.4431
68.670 22.786392
68.675 22.360531
68.680 21.923437
68.685 22.027033
68.690 22.14348
68.695 21.648281
68.700 20.809803
68.705 20.709053
68.710 20.863194
68.715 21.079298
68.720 21.080774
68.725 20.951859
68.730 21.379326
68.735 21.336941
68.740 20.488779
68.745 20.268444
68.750 20.41778
68.755 20.393084
68.760 20.755299
68.765 20.733328
68.770 21.62915
68.775 22.479822
68.780 22.881985
68.785 22.918234
68.790 23.183378
68.795 23.119987
68.800 23.271845
68.805 23.078012
68.810 23.058523
68.815 23.008375
68.820 23.340317
68.825 23.162191
68.830 22.824657
68.835 22.929188
68.840 23.348326
68.845 23.643351
68.850 23.781595
68.855 23.217455
68.860 23.514559
68.865 24.186836
68.870 24.579596
68.875 24.43375
68.880 24.014231
68.885 23.902124
68.890 23.989134
68.895 23.916677
68.900 23.703367
68.905 23.35998
68.910 23.47131
68.915 23.573601
68.920 24.335037
68.925 24.635084
68.930 24.673162
68.935 24.544411
68.940 24.518978
68.945 24.323555
68.950 24.514858
68.955 24.624498
68.960 24.586245
68.965 24.620728
68.970 24.708481
68.975 25.539747
68.980 25.44014
68.985 24.468689
68.990 23.949635
68.995 23.647358
69.000 23.802486
69.005 23.466318
69.010 22.50032
69.015 22.408209
69.020 22.572901
69.025 22.896242
69.030 22.856066
69.035 22.767345
69.040 22.880022
69.045 23.548561
69.050 24.661089
69.055 24.85577
69.060 25.005131
69.065 25.048731
69.070 25.046793
69.075 25.002905
69.080 24.838264
69.085 25.042341
69.090 25.591537
69.095 25.672981
69.100 25.972984
69.105 26.412445
69.110 26.535465
69.115 26.477077
69.120 25.993399
69.125 26.051285
69.130 25.579027
69.135 24.991077
69.140 24.373459
69.145 23.922308
69.150 24.550795
69.155 24.984995
69.160 24.637899
69.165 25.459169
69.170 26.041504
69.175 26.447754
69.180 26.820786
69.185 26.41655
69.190 26.202534
69.195 26.333639
69.200 26.505508
69.205 27.103453
69.210 27.17165
69.215 26.948486
69.220 26.478065
69.225 26.684496
69.230 26.579861
69.235 25.435631
69.240 24.81064
69.245 25.55731
69.250 25.723007
69.255 25.853224
69.260 25.782698
69.265 25.975504
69.270 26.021236
69.275 26.283184
69.280 26.25738
69.285 27.035845
69.290 27.006245
69.295 26.469856
69.300 26.535986
69.305 27.131519
69.310 27.385427
69.315 26.710051
69.320 27.17174
69.325 27.656292
69.330 28.036036
69.335 28.511986
69.340 28.998766
69.345 29.259087
69.350 29.196484
69.355 29.19252
69.360 29.665945
69.365 30.085402
69.370 30.164497
69.375 29.664913
69.380 30.07477
69.385 30.221725
69.390 30.267469
69.395 30.080784
69.400 29.719921
69.405 29.225389
69.410 28.558369
69.415 28.660379
69.420 29.068024
69.425 28.628735
69.430 29.004402
69.435 28.914989
69.440 28.809366
69.445 29.376717
69.450 28.910303
69.455 28.958145
69.460 29.388531
69.465 29.273756
69.470 30.295977
69.475 30.239416
69.480 30.272358
69.485 29.979914
69.490 29.769667
69.495 30.241375
69.500 29.747501
69.505 29.375801
69.510 29.708677
69.515 29.814674
69.520 30.072397
69.525 29.460125
69.530 29.092138
69.535 29.701063
69.540 29.869699
69.545 30.363449
69.550 30.662266
69.555 30.156124
69.560 30.285805
69.565 30.218159
69.570 30.054739
69.575 30.183018
69.580 29.675797
69.585 28.775381
69.590 29.080139
69.595 28.455732
69.600 28.140759
69.605 27.764523
69.610 27.65023
69.615 27.639811
69.620 27.674952
69.625 28.121357
69.630 28.397995
69.635 28.450106
69.640 28.548798
69.645 28.478222
69.650 28.823853
69.655 28.868246
69.660 28.238394
69.665 27.753307
69.670 27.814169
69.675 27.683653
69.680 27.493767
69.685 27.103365
69.690 27.170343
69.695 27.385359
69.700 27.375164
69.705 26.715578
69.710 26.850418
69.715 27.240723
69.720 27.951221
69.725 29.122128
69.730 28.849489
69.735 28.941429
69.740 29.113447
69.745 29.269665
69.750 29.38216
69.755 28.847645
69.760 28.074356
69.765 27.791296
69.770 28.019695
69.775 27.780136
69.780 27.322458
69.785 27.029478
69.790 26.389605
69.795 26.011702
69.800 26.024366
69.805 26.067455
69.810 25.652584
69.815 25.142599
69.820 25.110928
69.825 24.569593
69.830 23.84927
69.835 23.969727
69.840 23.635477
69.845 23.146898
69.850 22.916737
69.855 22.870916
69.860 23.980051
69.865 25.121702
69.870 24.981213
69.875 25.196192
69.880 26.232109
69.885 26.532467
69.890 25.746361
69.895 24.299229
69.900 23.605213
69.905 23.736668
69.910 23.993694
69.915 22.976776
69.920 23.272976
69.925 23.917727
69.930 24.549095
69.935 24.197403
69.940 24.585331
69.945 24.643469
69.950 24.888441
69.955 24.408239
69.960 24.069
69.965 23.160021
69.970 22.594013
69.975 21.701515
69.980 20.947182
69.985 20.659723
69.990 20.627838
69.995 20.778757
70.000 21.313208
70.005 21.300205
70.010 21.115492
70.015 20.952332
70.020 20.6455
70.025 20.919254
70.030 21.374176
70.035 22.195038
70.040 21.934315
70.045 21.728144
70.050 21.475159
70.055 21.986937
70.060 21.452463
70.065 20.936306
70.070 20.642553
70.075 21.53923
70.080 21.796511
70.085 21.710087
70.090 21.66659
70.095 20.989056
70.100 20.307215
70.105 20.123276
70.110 19.601406
70.115 19.775196
70.120 19.948742
70.125 19.836458
70.130 21.12278
70.135 22.021423
70.140 22.571211
70.145 22.8015
70.150 22.71677
70.155 23.086185
70.160 23.084635
70.165 22.71949
70.170 21.983603
70.175 21.44768
70.180 21.454136
70.185 21.599131
70.190 21.534296
70.195 21.296825
70.200 21.674788
70.205 21.881767
70.210 21.881063
70.215 21.699888
70.220 21.389147
70.225 21.024939
70.230 21.137329
70.235 20.41032
70.240 20.253958
70.245 21.006842
70.250 21.242203
70.255 21.612761
70.260 21.590826
70.265 21.724752
70.270 21.791204
70.275 21.37747
70.280 20.644407
70.285 20.291386
70.290 20.827734
70.295 20.482878
70.300 20.233137
70.305 19.921068
70.310 19.873217
70.315 19.687405
70.320 19.260193
70.325 18.422548
70.330 18.470331
70.335 18.695999
70.340 19.282965
70.345 18.677794
70.350 18.744184
70.355 19.051184
70.360 19.741091
70.365 19.460732
70.370 19.214626
70.375 19.602375
70.380 19.70743
70.385 19.775465
70.390 19.9508
70.395 20.030863
70.400 20.391415
70.405 20.325285
70.410 20.473488
70.415 20.947083
70.420 20.733982
70.425 19.643612
70.430 19.183947
70.435 19.283772
70.440 18.644142
70.445 18.241514
70.450 18.373514
70.455 18.883209
70.460 19.475996
70.465 19.514914
70.470 19.678158
70.475 20.305225
70.480 19.900921
70.485 19.850243
70.490 19.398941
70.495 19.597921
70.500 20.021
70.505 19.774868
70.510 19.38489
70.515 19.811008
70.520 19.881706
70.525 20.071995
70.530 20.116287
70.535 19.409309
70.540 19.697023
70.545 20.139046
70.550 19.379982
70.555 19.531609
70.560 19.785973
70.565 19.594456
70.570 19.314041
70.575 18.741764
70.580 19.29336
70.585 19.765944
70.590 19.577581
70.595 19.651518
70.600 19.892975
70.605 20.694664
70.610 21.246
70.615 20.501259
70.620 21.207737
70.625 21.15345
70.630 20.984962
70.635 20.640936
70.640 20.271009
70.645 20.111937
70.650 20.648558
70.655 20.302145
70.660 20.01766
70.665 20.170925
70.670 20.790737
70.675 20.933561
70.680 20.974785
70.685 20.659882
70.690 20.087952
70.695 19.934103
70.700 19.225683
70.705 19.67659
70.710 19.993492
70.715 19.323956
70.720 19.500591
70.725 19.816589
70.730 19.956854
70.735 19.470499
70.740 18.419413
70.745 17.64172
70.750 17.200949
70.755 16.35434
70.760 15.979095
70.765 16.354488
70.770 17.15127
70.775 17.4184
70.780 17.928324
70.785 19.128241
70.790 19.796595
70.795 19.506548
70.800 18.94663
70.805 18.957397
70.810 18.75194
70.815 18.310028
70.820 18.442316
70.825 18.499414
70.830 19.156214
70.835 19.404217
70.840 19.015947
70.845 19.515406
70.850 19.920582
70.855 19.712004
70.860 19.968018
70.865 19.633715
70.870 19.720707
70.875 19.595695
70.880 19.80743
70.885 19.393126
70.890 18.696575
70.895 18.543242
70.900 18.547436
70.905 18.95295
70.910 19.137978
70.915 18.8762
70.920 19.815683
70.925 20.814976
70.930 20.788712
70.935 20.658962
70.940 20.197302
70.945 19.694929
70.950 19.730465
70.955 19.113485
70.960 19.052376
70.965 18.970926
70.970 19.092455
70.975 19.615526
70.980 19.551247
70.985 19.007799
70.990 18.401367
70.995 18.779877
71.000 19.053339
71.005 18.845228
71.010 18.504902
71.015 18.667986
71.020 19.003195
71.025 19.232973
71.030 18.164297
71.035 18.019226
71.040 17.980957
71.045 17.815386
71.050 18.013319
71.055 17.90243
71.060 18.092344
71.065 18.978802
71.070 18.767546
71.075 19.128504
71.080 19.420727
71.085 19.954651
71.090 19.955959
71.095 19.632362
71.100 19.63929
71.105 19.527655
71.110 19.403292
71.115 19.383856
71.120 18.846243
71.125 18.992821
71.130 19.529585
71.135 18.956554
71.140 19.568483
71.145 19.731358
71.150 19.162848
71.155 19.325315
71.160 19.236794
71.165 19.319815
71.170 19.825916
71.175 19.060175
71.180 19.155201
71.185 19.521713
71.190 19.185732
71.195 18.676476
71.200 19.169439
71.205 19.503904
71.210 19.905405
71.215 20.141335
71.220 20.044197
71.225 20.161057
71.230 19.861025
71.235 19.778229
71.240 20.129351
71.245 20.283459
71.250 20.404943
71.255 21.080135
71.260 20.968267
71.265 20.63126
71.270 19.746845
71.275 19.129175
71.280 18.296124
71.285 18.332052
71.290 18.465572
71.295 18.810862
71.300 18.520548
71.305 18.572468
71.310 18.809179
71.315 19.139381
71.320 19.062342
71.325 18.807323
71.330 19.119642
71.335 19.691477
71.340 19.931444
71.345 19.77076
71.350 19.618763
71.355 19.221371
71.360 19.030762
71.365 18.699888
71.370 18.508566
71.375 18.794542
71.380 18.5686
71.385 18.227369
71.390 18.500013
71.395 18.495361
71.400 17.867989
71.405 18.285074
71.410 17.934465
71.415 18.579134
71.420 19.065639
71.425 19.399742
71.430 19.799028
71.435 19.642712
71.440 18.754084
71.445 18.908297
71.450 18.92384
71.455 18.645729
71.460 18.343124
71.465 18.353853
71.470 18.936415
71.475 18.724516
71.480 18.357433
71.485 18.300611
71.490 18.468138
71.495 18.56192
71.500 18.028946
71.505 17.986597
71.510 18.310339
71.515 18.1716
71.520 17.665569
71.525 17.155573
71.530 17.394348
71.535 18.653528
71.540 19.026291
71.545 19.504745
71.550 19.86496
71.555 20.236895
71.560 20.311703
71.565 20.134802
71.570 20.225334
71.575 19.629843
71.580 19.451126
71.585 18.966768
71.590 18.994877
71.595 19.243916
71.600 19.115442
71.605 18.46195
71.610 18.798658
71.615 18.89856
71.620 19.005388
71.625 18.815355
71.630 18.874123
71.635 18.723299
71.640 18.318962
71.645 17.867374
71.650 18.017809
71.655 18.789164
71.660 19.051025
71.665 18.609831
71.670 18.389914
71.675 18.849525
71.680 18.890514
71.685 19.074644
71.690 18.567383
71.695 18.329533
71.700 18.700468
71.705 19.292439
71.710 19.235388
71.715 19.022608
71.720 18.980158
71.725 19.440845
71.730 19.400229
71.735 19.560249
71.740 19.67507
71.745 19.839542
71.750 19.359516
71.755 18.100609
71.760 17.471626
71.765 17.31213
71.770 16.866217
71.775 16.785944
71.780 16.763752
71.785 17.32584
71.790 17.67971
71.795 17.919159
71.800 17.849033
71.805 18.353788
71.810 17.926689
71.815 18.475969
71.820 18.696718
71.825 18.692476
71.830 18.902658
71.835 19.030655
71.840 19.028936
71.845 20.153593
71.850 20.200186
71.855 20.12063
71.860 20.18903
71.865 20.304878
71.870 19.85416
71.875 19.565121
71.880 18.160439
71.885 17.610271
71.890 17.615547
71.895 17.491055
71.900 17.63719
71.905 18.319975
71.910 18.929815
71.915 19.586689
71.920 20.042694
71.925 19.824556
71.930 19.866495
71.935 19.445744
71.940 19.044174
71.945 19.834564
71.950 19.790161
71.955 19.557549
71.960 19.653063
71.965 19.092993
71.970 19.173069
71.975 18.845623
71.980 18.385218
71.985 18.320215
71.990 18.036863
71.995 17.92981
72.000 18.747858
72.005 18.50474
72.010 17.665787
72.015 17.677376
72.020 18.07173
72.025 18.161469
72.030 18.154387
72.035 17.74852
72.040 18.213646
72.045 18.516754
72.050 17.627073
72.055 17.131607
72.060 17.578556
72.065 18.026033
72.070 19.060598
72.075 18.471354
72.080 18.336191
72.085 19.219023
72.090 19.477428
72.095 19.055655
72.100 18.513157
72.105 17.910545
72.110 18.429073
72.115 18.652857
72.120 18.645712
72.125 18.977304
72.130 19.382133
72.135 19.457485
72.140 19.231197
72.145 18.847538
72.150 18.423008
72.155 18.038961
72.160 17.860945
72.165 17.870686
72.170 18.216667
72.175 18.290331
72.180 18.617237
72.185 19.007263
72.190 19.30718
72.195 19.454342
72.200 19.312788
72.205 19.152885
72.210 19.566441
72.215 19.753521
72.220 19.595821
72.225 19.581356
72.230 19.61735
72.235 19.749968
72.240 20.119677
72.245 19.860012
72.250 20.297836
72.255 20.298992
72.260 20.262234
72.265 20.037863
72.270 19.556168
72.275 18.882076
72.280 18.313648
72.285 17.330481
72.290 17.216637
72.295 16.672905
72.300 16.555483
72.305 16.728281
72.310 16.86097
72.315 17.535717
72.320 18.149218
72.325 18.74762
72.330 18.981745
72.335 19.051895
72.340 19.332331
72.345 19.124985
72.350 18.40126
72.355 17.605759
72.360 17.263351
72.365 18.048624
72.370 18.222017
72.375 18.035524
72.380 18.147669
72.385 18.869276
72.390 18.997339
72.395 18.955093
72.400 18.520054
72.405 18.25989
72.410 18.081598
72.415 17.777328
72.420 17.917797
72.425 17.761415
72.430 17.743004
72.435 17.529808
72.440 17.008774
72.445 17.302073
72.450 17.710745
72.455 17.768312
72.460 18.017859
72.465 17.702299
72.470 17.430777
72.475 17.919708
72.480 18.1413
72.485 17.812248
72.490 16.773714
72.495 16.92037
72.500 17.018787
72.505 17.754604
72.510 17.341103
72.515 17.454395
72.520 17.67856
72.525 18.222532
72.530 18.21744
72.535 18.433117
72.540 18.715199
72.545 19.346674
72.550 19.693012
72.555 20.120872
72.560 19.944002
72.565 20.111393
72.570 19.395098
72.575 19.191925
72.580 19.069025
72.585 18.644892
72.590 18.500757
72.595 18.508125
72.600 18.497305
72.605 19.118502
72.610 18.666058
72.615 18.345457
72.620 17.507145
72.625 17.25959
72.630 17.534653
72.635 17.53804
72.640 17.346737
72.645 17.638937
72.650 17.713978
72.655 17.883045
72.660 17.566584
72.665 17.561455
72.670 17.411777
72.675 17.19998
72.680 16.838299
72.685 16.244999
72.690 16.149797
72.695 16.128635
72.700 15.90183
72.705 15.914779
72.710 15.827155
72.715 15.768462
72.720 16.42664
72.725 16.857319
72.730 16.717562
72.735 16.453709
72.740 16.841684
72.745 17.30917
72.750 16.948793
72.755 17.235506
72.760 17.766682
72.765 18.157848
72.770 18.131397
72.775 17.393997
72.780 17.632254
72.785 17.675209
72.790 17.574665
72.795 16.608501
72.800 16.916443
72.805 16.701515
72.810 16.264503
72.815 16.154549
72.820 15.839366
72.825 15.8476
72.830 15.755237
72.835 15.932276
72.840 16.148712
72.845 16.587189
72.850 17.106707
72.855 17.571012
72.860 18.046928
72.865 18.976049
72.870 19.238155
72.875 19.759743
72.880 19.653381
72.885 19.342073
72.890 19.203611
72.895 18.802923
72.900 17.911488
72.905 17.733744
72.910 17.77022
72.915 18.293337
72.920 18.139635
72.925 18.10535
72.930 18.002054
72.935 18.467129
72.940 18.745155
72.945 17.811834
72.950 17.611637
72.955 17.467997
72.960 17.226557
72.965 17.076893
72.970 16.448328
72.975 16.475527
72.980 16.480246
72.985 16.922642
72.990 17.151951
72.995 16.785263
73.000 16.711874
