!@!!GADDS PLOTSO FILE: Chi integration type
!@!!Title/SampleName: map-54
!@!!Comment: ?
!@!!User: Bruker Instrument Administrator
!@!!Site: University of Illinois Chicago
!@!!Frame: map-54_01_000.gfrm
!@!!Wavelengths    1.54184   1.54056   1.54439
!@!!Frame angles: 2Theta: 63.000 Omega: 50.000 Phi: 0.000 Chi: 90.000
!@!!Integration range: 2Theta: 53.000 to 73.000  Gamma: -105.000 to -75.000
!@!!Integration method: bin normalized
!@!N
!@!SS
!@!M
!@!L 0.0 0.0 0.0 0.0
!@!XDegrees
!@!YCounts
53.000 8.74097
53.005 8.589843
53.010 7.988077
53.015 8.097194
53.020 7.736475
53.025 7.272605
53.030 7.044671
53.035 6.877655
53.040 6.959508
53.045 6.577254
53.050 6.568365
53.055 7.059718
53.060 7.375367
53.065 7.18085
53.070 7.223579
53.075 7.553732
53.080 8.168021
53.085 8.299147
53.090 8.586856
53.095 8.670937
53.100 8.574712
53.105 8.300003
53.110 8.075186
53.115 8.517989
53.120 8.44227
53.125 8.190598
53.130 8.14773
53.135 8.065657
53.140 8.276097
53.145 7.73041
53.150 7.096701
53.155 7.059224
53.160 7.094986
53.165 7.706913
53.170 8.038385
53.175 8.173671
53.180 8.344178
53.185 8.615338
53.190 8.765091
53.195 8.412148
53.200 7.813665
53.205 8.140254
53.210 7.903926
53.215 7.907891
53.220 7.849341
53.225 7.424479
53.230 7.599592
53.235 7.612107
53.240 7.412038
53.245 8.080487
53.250 8.068625
53.255 7.675529
53.260 7.818229
53.265 7.734922
53.270 7.798476
53.275 7.616072
53.280 7.071965
53.285 7.238728
53.290 7.770393
53.295 8.482945
53.300 9.136577
53.305 9.73015
53.310 9.592802
53.315 9.461743
53.320 9.585732
53.325 9.57542
53.330 9.138801
53.335 8.59176
53.340 8.220107
53.345 8.485231
53.350 8.604702
53.355 8.295536
53.360 7.707891
53.365 7.80882
53.370 7.622077
53.375 7.642219
53.380 7.757758
53.385 8.394606
53.390 8.605027
53.395 8.774834
53.400 8.826171
53.405 8.91045
53.410 8.932542
53.415 8.734985
53.420 8.735776
53.425 8.506121
53.430 8.547787
53.435 8.922585
53.440 9.077917
53.445 9.342088
53.450 8.992992
53.455 8.707148
53.460 9.023929
53.465 9.18317
53.470 8.963549
53.475 9.519712
53.480 9.808491
53.485 10.194388
53.490 10.219278
53.495 10.114229
53.500 10.035783
53.505 9.757058
53.510 9.175921
53.515 9.040451
53.520 9.092239
53.525 9.49299
53.530 9.284892
53.535 9.392885
53.540 9.435572
53.545 9.512407
53.550 9.338536
53.555 9.011835
53.560 9.218946
53.565 8.910851
53.570 8.852116
53.575 8.829916
53.580 8.367865
53.585 8.594586
53.590 8.401604
53.595 8.11748
53.600 8.628976
53.605 8.264662
53.610 8.293541
53.615 8.512093
53.620 8.109982
53.625 7.876345
53.630 7.782579
53.635 7.599364
53.640 7.921457
53.645 7.667091
53.650 7.77555
53.655 8.361683
53.660 8.772807
53.665 8.94789
53.670 9.03756
53.675 8.755672
53.680 9.017046
53.685 8.832623
53.690 8.756973
53.695 8.42211
53.700 8.347732
53.705 8.253263
53.710 8.157027
53.715 8.243387
53.720 8.300658
53.725 8.665097
53.730 8.732683
53.735 8.880317
53.740 8.990196
53.745 9.419463
53.750 9.399907
53.755 9.444272
53.760 9.447201
53.765 9.49024
53.770 9.414483
53.775 9.360203
53.780 9.205956
53.785 8.932387
53.790 9.023238
53.795 9.085533
53.800 8.935136
53.805 9.07359
53.810 9.286572
53.815 9.673401
53.820 9.6272
53.825 9.228711
53.830 9.409529
53.835 9.282535
53.840 8.844866
53.845 8.351979
53.850 8.049892
53.855 8.269209
53.860 8.229329
53.865 8.0777
53.870 8.353296
53.875 8.596552
53.880 9.124335
53.885 9.528662
53.890 9.76558
53.895 9.68546
53.900 9.673199
53.905 9.470472
53.910 9.337738
53.915 9.133815
53.920 8.820668
53.925 8.766707
53.930 9.079499
53.935 9.25972
53.940 9.687777
53.945 9.656064
53.950 9.697718
53.955 10.065447
53.960 9.591793
53.965 9.397577
53.970 9.334323
53.975 9.463753
53.980 9.466395
53.985 9.517859
53.990 9.563734
53.995 9.938335
54.000 9.696022
54.005 9.459709
54.010 9.196636
54.015 8.976748
54.020 8.651819
54.025 8.647564
54.030 9.385269
54.035 9.359367
54.040 9.716138
54.045 9.984779
54.050 10.106122
54.055 10.311823
54.060 10.207911
54.065 9.889254
54.070 9.964583
54.075 9.743287
54.080 9.768677
54.085 9.524611
54.090 9.194098
54.095 8.482905
54.100 8.406402
54.105 8.82815
54.110 8.972192
54.115 9.483226
54.120 9.798664
54.125 9.849363
54.130 10.270922
54.135 10.218312
54.140 9.922033
54.145 9.456655
54.150 8.965488
54.155 9.213662
54.160 9.1866
54.165 8.908081
54.170 8.91797
54.175 9.242945
54.180 9.41207
54.185 8.95832
54.190 9.242038
54.195 9.751515
54.200 9.791494
54.205 9.696687
54.210 9.396992
54.215 9.609771
54.220 9.647986
54.225 8.993432
54.230 8.791398
54.235 8.543098
54.240 8.771373
54.245 8.526914
54.250 8.507669
54.255 8.608258
54.260 8.78105
54.265 9.002906
54.270 9.547647
54.275 9.730901
54.280 9.727971
54.285 9.986388
54.290 10.232986
54.295 9.958517
54.300 10.121615
54.305 10.271755
54.310 10.354492
54.315 10.562104
54.320 10.425591
54.325 10.534816
54.330 10.794498
54.335 10.478965
54.340 10.356984
54.345 10.477484
54.350 10.505832
54.355 10.45785
54.360 10.290048
54.365 10.52326
54.370 10.649263
54.375 10.076786
54.380 9.908205
54.385 9.808377
54.390 9.813555
54.395 9.544484
54.400 9.064253
54.405 8.729132
54.410 8.886304
54.415 8.682281
54.420 8.742282
54.425 8.979048
54.430 9.270693
54.435 9.546392
54.440 9.965563
54.445 10.209332
54.450 10.614477
54.455 10.476868
54.460 10.560128
54.465 10.222274
54.470 9.952615
54.475 9.259768
54.480 9.124398
54.485 8.777862
54.490 8.824057
54.495 8.498912
54.500 8.86517
54.505 8.874969
54.510 9.2674
54.515 9.180707
54.520 9.030613
54.525 9.039206
54.530 9.001778
54.535 8.710966
54.540 8.977687
54.545 9.254711
54.550 9.752222
54.555 10.054127
54.560 9.963513
54.565 9.967178
54.570 10.347974
54.575 10.297886
54.580 10.102839
54.585 10.055744
54.590 10.250094
54.595 10.30469
54.600 10.020665
54.605 10.064842
54.610 10.010952
54.615 9.729419
54.620 9.534987
54.625 9.362986
54.630 9.443369
54.635 9.390737
54.640 9.19939
54.645 9.64493
54.650 9.88168
54.655 9.983777
54.660 10.262968
54.665 10.476368
54.670 10.949156
54.675 10.831567
54.680 10.654281
54.685 10.74901
54.690 10.63557
54.695 10.904122
54.700 10.822305
54.705 10.35512
54.710 10.748904
54.715 10.770482
54.720 10.326277
54.725 10.291919
54.730 10.162835
54.735 10.403527
54.740 10.874574
54.745 10.373609
54.750 10.162298
54.755 10.160381
54.760 10.03816
54.765 10.214228
54.770 10.182922
54.775 9.996794
54.780 9.518922
54.785 9.1627
54.790 9.801175
54.795 9.615547
54.800 9.260049
54.805 9.340615
54.810 9.954235
54.815 11.138587
54.820 11.562308
54.825 11.242188
54.830 11.400739
54.835 11.246172
54.840 10.976592
54.845 10.338991
54.850 10.149868
54.855 10.019011
54.860 9.841408
54.865 9.824771
54.870 9.81771
54.875 9.587594
54.880 9.442526
54.885 9.827223
54.890 9.900477
54.895 10.014602
54.900 10.309175
54.905 10.529388
54.910 10.660675
54.915 10.943424
54.920 10.798717
54.925 10.990872
54.930 10.814351
54.935 10.395839
54.940 10.442905
54.945 10.883708
54.950 10.974903
54.955 10.57404
54.960 10.198088
54.965 10.083405
54.970 10.129519
54.975 9.680307
54.980 9.034663
54.985 9.07462
54.990 9.572445
54.995 9.647907
55.000 9.384749
55.005 9.216215
55.010 9.607883
55.015 9.919203
55.020 9.667383
55.025 9.662305
55.030 10.12175
55.035 10.558799
55.040 10.758286
55.045 10.583776
55.050 10.260401
55.055 9.910231
55.060 9.910526
55.065 9.636707
55.070 9.603044
55.075 9.762478
55.080 9.979041
55.085 9.965556
55.090 10.379207
55.095 10.328688
55.100 10.347764
55.105 10.431873
55.110 10.226221
55.115 9.95807
55.120 10.32806
55.125 10.567205
55.130 10.957601
55.135 11.242789
55.140 11.464553
55.145 11.59544
55.150 11.652715
55.155 10.972695
55.160 10.88271
55.165 10.621612
55.170 10.325536
55.175 10.298907
55.180 10.309015
55.185 10.527596
55.190 10.40724
55.195 10.195358
55.200 10.265965
55.205 10.266741
55.210 10.252738
55.215 10.911674
55.220 10.939183
55.225 10.920803
55.230 10.569057
55.235 10.740372
55.240 11.072227
55.245 10.484293
55.250 9.703379
55.255 9.727573
55.260 9.736229
55.265 10.134203
55.270 9.974031
55.275 9.609742
55.280 10.21018
55.285 10.480575
55.290 10.574421
55.295 10.952243
55.300 10.795295
55.305 10.767859
55.310 10.763028
55.315 10.315219
55.320 10.379652
55.325 10.501804
55.330 11.002275
55.335 10.915382
55.340 11.080571
55.345 11.560613
55.350 12.261383
55.355 12.515164
55.360 12.553219
55.365 11.815467
55.370 11.954312
55.375 11.715234
55.380 11.575577
55.385 11.248298
55.390 10.945577
55.395 10.740398
55.400 10.504702
55.405 10.523286
55.410 10.528116
55.415 9.90612
55.420 9.903461
55.425 9.685443
55.430 9.809073
55.435 10.11475
55.440 9.76854
55.445 10.272724
55.450 11.179782
55.455 11.3452
55.460 11.317489
55.465 11.382318
55.470 11.420995
55.475 11.653658
55.480 11.515254
55.485 11.244276
55.490 11.681636
55.495 12.148965
55.500 12.180424
55.505 12.374644
55.510 12.266369
55.515 11.875308
55.520 11.45805
55.525 10.772687
55.530 10.626128
55.535 10.649241
55.540 10.363296
55.545 10.484311
55.550 11.149863
55.555 11.857245
55.560 11.880374
55.565 11.98358
55.570 12.019873
55.575 12.670835
55.580 12.96109
55.585 12.199291
55.590 12.14444
55.595 12.291391
55.600 12.254403
55.605 12.044661
55.610 11.620364
55.615 11.422192
55.620 11.124907
55.625 10.578471
55.630 10.001763
55.635 9.695749
55.640 9.941579
55.645 9.917429
55.650 10.238418
55.655 10.429177
55.660 10.414565
55.665 11.438505
55.670 11.459869
55.675 11.500802
55.680 11.416809
55.685 11.531734
55.690 11.898228
55.695 11.774834
55.700 11.663433
55.705 11.851448
55.710 11.806524
55.715 11.450401
55.720 11.397931
55.725 11.438694
55.730 11.2576
55.735 11.320942
55.740 11.806056
55.745 11.997879
55.750 12.442606
55.755 12.666941
55.760 12.901698
55.765 13.164001
55.770 12.552822
55.775 12.309614
55.780 12.399515
55.785 12.505665
55.790 12.33648
55.795 11.952401
55.800 11.690686
55.805 12.261493
55.810 12.374897
55.815 12.060301
55.820 11.777834
55.825 11.991039
55.830 12.346805
55.835 13.077826
55.840 12.86103
55.845 12.654429
55.850 12.643946
55.855 12.401645
55.860 12.467754
55.865 12.436816
55.870 11.78195
55.875 11.973742
55.880 12.39464
55.885 13.167037
55.890 13.63575
55.895 13.618395
55.900 13.418752
55.905 13.462189
55.910 13.176907
55.915 12.362519
55.920 11.841498
55.925 11.524718
55.930 11.60813
55.935 11.784793
55.940 11.933602
55.945 12.255791
55.950 12.311743
55.955 12.281292
55.960 12.01946
55.965 11.510741
55.970 11.337072
55.975 10.922251
55.980 10.726851
55.985 10.636729
55.990 10.812989
55.995 11.153139
56.000 11.336721
56.005 11.526203
56.010 11.528594
56.015 11.499184
56.020 11.682954
56.025 11.453987
56.030 11.9405
56.035 11.840121
56.040 11.794054
56.045 11.453348
56.050 11.519955
56.055 11.662679
56.060 11.181269
56.065 11.112913
56.070 11.06219
56.075 11.456751
56.080 11.894459
56.085 11.635169
56.090 11.520745
56.095 11.184796
56.100 11.143261
56.105 10.924898
56.110 10.583716
56.115 10.672463
56.120 10.872017
56.125 10.865829
56.130 11.505688
56.135 11.576929
56.140 12.293276
56.145 12.255252
56.150 11.784952
56.155 11.887024
56.160 12.559446
56.165 12.513881
56.170 12.077788
56.175 11.714308
56.180 11.772141
56.185 12.102328
56.190 11.788583
56.195 11.148642
56.200 10.905723
56.205 10.976096
56.210 10.64015
56.215 10.695449
56.220 11.087506
56.225 11.578436
56.230 12.218637
56.235 12.696624
56.240 12.835971
56.245 13.150167
56.250 12.914575
56.255 12.575507
56.260 12.08287
56.265 11.982759
56.270 11.806394
56.275 12.01285
56.280 12.316453
56.285 12.605791
56.290 13.185163
56.295 13.441339
56.300 13.288628
56.305 13.102912
56.310 13.097867
56.315 12.791863
56.320 13.263252
56.325 13.102374
56.330 12.941066
56.335 12.832077
56.340 12.982141
56.345 12.745556
56.350 13.068223
56.355 12.313223
56.360 11.991299
56.365 12.127639
56.370 11.856557
56.375 11.788986
56.380 11.781683
56.385 11.757191
56.390 11.849722
56.395 12.007496
56.400 11.719838
56.405 11.803481
56.410 12.077454
56.415 12.872643
56.420 12.427265
56.425 12.497609
56.430 12.00894
56.435 12.111334
56.440 11.889159
56.445 11.477389
56.450 10.843983
56.455 10.289897
56.460 9.798653
56.465 9.769779
56.470 10.267223
56.475 10.764971
56.480 10.717192
56.485 10.774137
56.490 11.740507
56.495 12.706036
56.500 13.216819
56.505 12.957355
56.510 12.657683
56.515 12.893765
56.520 13.454889
56.525 13.360099
56.530 12.886927
56.535 12.388227
56.540 12.180142
56.545 12.114933
56.550 11.935096
56.555 12.371837
56.560 12.268848
56.565 12.437902
56.570 12.679056
56.575 12.57008
56.580 13.135288
56.585 13.371687
56.590 12.832048
56.595 12.83231
56.600 12.532926
56.605 12.247601
56.610 12.298717
56.615 11.742897
56.620 11.569704
56.625 11.659589
56.630 11.940148
56.635 12.231625
56.640 12.446249
56.645 12.683839
56.650 12.67595
56.655 12.149175
56.660 11.993936
56.665 11.786818
56.670 11.370866
56.675 11.18729
56.680 11.002286
56.685 10.997778
56.690 11.522254
56.695 11.113384
56.700 11.419423
56.705 11.949052
56.710 12.493157
56.715 12.773945
56.720 12.973332
56.725 13.061491
56.730 13.256526
56.735 13.609759
56.740 13.318337
56.745 12.698376
56.750 12.778549
56.755 13.071878
56.760 13.147205
56.765 12.881182
56.770 12.527756
56.775 13.150166
56.780 13.502015
56.785 13.738219
56.790 13.433309
56.795 13.360246
56.800 13.917179
56.805 14.272501
56.810 14.087831
56.815 13.925952
56.820 13.21984
56.825 13.452538
56.830 13.233382
56.835 13.251675
56.840 13.017637
56.845 13.170527
56.850 12.695376
56.855 12.411596
56.860 12.023094
56.865 12.212056
56.870 12.130445
56.875 12.008658
56.880 11.722479
56.885 11.921161
56.890 12.043027
56.895 12.520299
56.900 12.911852
56.905 13.585805
56.910 13.931271
56.915 14.524759
56.920 14.979185
56.925 15.289592
56.930 14.918775
56.935 14.277231
56.940 13.512897
56.945 13.115706
56.950 12.267558
56.955 11.784137
56.960 11.58322
56.965 11.411164
56.970 11.476556
56.975 11.400569
56.980 11.324667
56.985 11.797171
56.990 11.952875
56.995 12.192077
57.000 12.528111
57.005 12.803305
57.010 12.735439
57.015 12.652355
57.020 12.874432
57.025 12.784617
57.030 12.413839
57.035 12.017448
57.040 11.310894
57.045 11.596161
57.050 11.961376
57.055 12.210829
57.060 12.368309
57.065 12.31052
57.070 12.263354
57.075 12.459459
57.080 12.932262
57.085 13.022674
57.090 12.546768
57.095 13.404699
57.100 14.003113
57.105 14.054897
57.110 14.160662
57.115 13.791788
57.120 13.989242
57.125 14.036857
57.130 13.550621
57.135 13.65729
57.140 13.878945
57.145 13.680393
57.150 13.498577
57.155 13.123394
57.160 12.913877
57.165 12.746797
57.170 12.673923
57.175 12.829132
57.180 12.900462
57.185 13.286745
57.190 13.654268
57.195 13.962968
57.200 13.912364
57.205 13.801582
57.210 13.866752
57.215 13.881477
57.220 13.237282
57.225 13.117593
57.230 13.357975
57.235 13.498799
57.240 13.262163
57.245 13.540872
57.250 13.243646
57.255 13.642278
57.260 13.475682
57.265 13.013681
57.270 13.329759
57.275 13.270023
57.280 13.174477
57.285 13.325384
57.290 13.345751
57.295 13.355688
57.300 13.729037
57.305 13.393311
57.310 13.665751
57.315 14.206408
57.320 14.856704
57.325 14.919301
57.330 14.844392
57.335 14.603201
57.340 14.132373
57.345 13.84596
57.350 13.314859
57.355 12.7954
57.360 12.733202
57.365 12.8943
57.370 13.086447
57.375 13.624207
57.380 13.601192
57.385 13.45531
57.390 13.72549
57.395 13.873729
57.400 14.17197
57.405 14.043551
57.410 13.73036
57.415 13.72237
57.420 13.39387
57.425 13.755447
57.430 13.411508
57.435 13.437282
57.440 13.270982
57.445 13.242704
57.450 13.505711
57.455 13.577882
57.460 12.940983
57.465 12.597439
57.470 12.592312
57.475 12.672075
57.480 12.730744
57.485 12.251291
57.490 11.593992
57.495 11.574935
57.500 11.441065
57.505 11.044291
57.510 11.353757
57.515 11.531557
57.520 11.861025
57.525 12.550672
57.530 12.74082
57.535 13.343987
57.540 13.447984
57.545 13.140815
57.550 13.138124
57.555 13.293667
57.560 13.28224
57.565 13.497842
57.570 13.630823
57.575 13.789766
57.580 13.631914
57.585 13.70583
57.590 13.172159
57.595 13.438898
57.600 13.573997
57.605 13.312132
57.610 13.574211
57.615 14.046122
57.620 14.27128
57.625 15.446907
57.630 15.195276
57.635 15.08448
57.640 15.289065
57.645 14.781176
57.650 14.867611
57.655 14.794469
57.660 13.86619
57.665 13.303931
57.670 12.830709
57.675 12.427334
57.680 12.559739
57.685 12.06126
57.690 12.618424
57.695 13.438573
57.700 13.815669
57.705 14.022791
57.710 14.493732
57.715 14.781932
57.720 14.274074
57.725 13.890919
57.730 14.171995
57.735 14.023647
57.740 14.576728
57.745 14.736798
57.750 14.955511
57.755 15.256309
57.760 15.19797
57.765 15.013698
57.770 15.247498
57.775 14.840824
57.780 14.315742
57.785 14.29267
57.790 14.434511
57.795 14.223636
57.800 14.201526
57.805 13.972063
57.810 13.638313
57.815 13.583053
57.820 13.291438
57.825 13.089561
57.830 12.789365
57.835 12.38856
57.840 12.472358
57.845 12.70288
57.850 12.891873
57.855 12.933408
57.860 13.24315
57.865 13.68872
57.870 13.806588
57.875 13.656778
57.880 13.593651
57.885 13.433012
57.890 12.816434
57.895 12.187423
57.900 12.493747
57.905 12.911435
57.910 13.205834
57.915 13.355341
57.920 13.586486
57.925 14.383802
57.930 14.28885
57.935 13.939946
57.940 13.697065
57.945 13.514862
57.950 13.974049
57.955 14.408563
57.960 14.567244
57.965 14.968433
57.970 15.256174
57.975 15.974734
57.980 15.964396
57.985 15.315948
57.990 15.09921
57.995 15.705731
58.000 16.27853
58.005 16.61388
58.010 16.523237
58.015 16.945841
58.020 17.244701
58.025 17.703154
58.030 16.990704
58.035 16.449305
58.040 15.748934
58.045 15.35675
58.050 15.548542
58.055 15.358577
58.060 14.607288
58.065 14.460522
58.070 14.336895
58.075 14.694617
58.080 14.840245
58.085 14.117966
58.090 13.404113
58.095 13.353148
58.100 13.820498
58.105 13.814802
58.110 13.582092
58.115 13.243191
58.120 13.367355
58.125 13.717562
58.130 13.729948
58.135 13.425817
58.140 13.576682
58.145 13.098226
58.150 12.858284
58.155 13.196501
58.160 13.129025
58.165 13.699288
58.170 13.742103
58.175 13.414829
58.180 13.506865
58.185 13.900217
58.190 14.27868
58.195 14.052576
58.200 13.271007
58.205 13.286597
58.210 14.181407
58.215 14.377105
58.220 14.33696
58.225 14.038004
58.230 14.042417
58.235 14.266693
58.240 14.189456
58.245 13.337727
58.250 13.482196
58.255 13.288697
58.260 13.908326
58.265 14.277271
58.270 14.267576
58.275 14.589612
58.280 14.779301
58.285 14.890384
58.290 14.871336
58.295 14.559958
58.300 14.564039
58.305 14.274457
58.310 13.835205
58.315 14.226968
58.320 14.515927
58.325 14.134312
58.330 13.540742
58.335 13.122574
58.340 13.66897
58.345 14.18433
58.350 14.315203
58.355 14.192183
58.360 14.600613
58.365 14.90762
58.370 15.251147
58.375 14.465199
58.380 13.791703
58.385 13.471825
58.390 13.630728
58.395 13.802691
58.400 14.156734
58.405 14.421375
58.410 14.809162
58.415 15.116012
58.420 15.087681
58.425 15.517983
58.430 15.472438
58.435 15.747964
58.440 15.869843
58.445 15.792171
58.450 15.255156
58.455 14.907591
58.460 14.798848
58.465 14.534958
58.470 13.537308
58.475 12.712059
58.480 13.209975
58.485 13.783961
58.490 13.669057
58.495 13.123051
58.500 13.471044
58.505 13.744468
58.510 14.345369
58.515 14.06014
58.520 14.331904
58.525 14.513671
58.530 14.193832
58.535 13.996791
58.540 13.990157
58.545 14.032277
58.550 13.804269
58.555 13.303288
58.560 13.213616
58.565 13.489964
58.570 13.633293
58.575 14.204445
58.580 14.665379
58.585 14.810805
58.590 15.414093
58.595 15.466525
58.600 15.529552
58.605 15.51792
58.610 15.035084
58.615 14.578245
58.620 14.761683
58.625 14.211251
58.630 14.680671
58.635 14.789052
58.640 14.774104
58.645 14.940875
58.650 15.297756
58.655 15.543712
58.660 16.308113
58.665 16.424175
58.670 16.348867
58.675 16.087111
58.680 15.890515
58.685 15.271568
58.690 15.067555
58.695 15.194821
58.700 14.664861
58.705 14.402164
58.710 14.867013
58.715 15.053728
58.720 15.164549
58.725 14.851499
58.730 14.428337
58.735 14.526793
58.740 14.733167
58.745 14.687121
58.750 14.820761
58.755 14.989599
58.760 14.947194
58.765 15.012946
58.770 15.282332
58.775 15.357052
58.780 15.505871
58.785 15.32352
58.790 15.466693
58.795 15.513162
58.800 15.424994
58.805 15.544136
58.810 15.512115
58.815 15.23379
58.820 15.415994
58.825 15.389686
58.830 15.576097
58.835 15.279144
58.840 15.217284
58.845 15.672486
58.850 15.902207
58.855 15.615411
58.860 15.297584
58.865 15.250601
58.870 15.290225
58.875 14.798132
58.880 14.667567
58.885 14.273345
58.890 14.741486
58.895 15.01182
58.900 14.604834
58.905 14.82113
58.910 15.291207
58.915 15.128097
58.920 15.371696
58.925 15.359227
58.930 15.4683
58.935 15.672017
58.940 15.327344
58.945 15.238952
58.950 14.827801
58.955 14.453003
58.960 14.436043
58.965 14.747422
58.970 15.244405
58.975 15.414045
58.980 15.531932
58.985 16.038443
58.990 16.295099
58.995 16.086769
59.000 16.055096
59.005 15.785523
59.010 16.488192
59.015 16.244404
59.020 16.084829
59.025 16.129177
59.030 16.059067
59.035 16.395021
59.040 16.525948
59.045 15.93408
59.050 16.037697
59.055 16.213865
59.060 16.130655
59.065 16.207468
59.070 16.19368
59.075 16.149815
59.080 16.50078
59.085 16.478371
59.090 15.972139
59.095 15.795066
59.100 15.617844
59.105 15.372135
59.110 15.549817
59.115 15.520436
59.120 15.803761
59.125 15.882728
59.130 16.427658
59.135 16.203773
59.140 15.834439
59.145 15.956637
59.150 15.796353
59.155 15.479353
59.160 15.429888
59.165 14.969319
59.170 15.997661
59.175 16.521816
59.180 16.167789
59.185 15.628732
59.190 15.672713
59.195 15.868005
59.200 15.968498
59.205 14.936699
59.210 14.630186
59.215 14.398661
59.220 14.828568
59.225 15.050394
59.230 15.19662
59.235 15.356196
59.240 15.490414
59.245 15.307909
59.250 15.46388
59.255 15.152749
59.260 15.20745
59.265 15.158998
59.270 15.130549
59.275 15.166669
59.280 15.390432
59.285 15.991006
59.290 16.052864
59.295 16.195915
59.300 15.968371
59.305 15.743791
59.310 16.117405
59.315 16.707071
59.320 16.198502
59.325 16.368711
59.330 16.408915
59.335 16.720169
59.340 16.905743
59.345 16.933266
59.350 16.489706
59.355 16.570114
59.360 16.558342
59.365 16.097624
59.370 15.572556
59.375 15.606258
59.380 15.160355
59.385 14.654139
59.390 14.068406
59.395 13.63022
59.400 13.968317
59.405 14.686426
59.410 14.745435
59.415 14.974947
59.420 15.670305
59.425 16.533161
59.430 17.077423
59.435 16.852835
59.440 16.845163
59.445 16.285042
59.450 16.732849
59.455 16.520498
59.460 16.323967
59.465 16.132448
59.470 16.059031
59.475 16.079939
59.480 16.510611
59.485 16.23101
59.490 16.561823
59.495 17.065008
59.500 17.234739
59.505 17.300831
59.510 17.056532
59.515 16.88027
59.520 16.60651
59.525 15.835532
59.530 15.213917
59.535 15.229241
59.540 15.228198
59.545 14.988262
59.550 15.303981
59.555 16.074097
59.560 16.831657
59.565 16.51466
59.570 16.29623
59.575 16.061865
59.580 16.011292
59.585 15.377919
59.590 14.387938
59.595 14.028914
59.600 14.451603
59.605 14.969348
59.610 15.454529
59.615 15.853967
59.620 16.310669
59.625 16.570034
59.630 16.858414
59.635 17.279148
59.640 17.037434
59.645 16.660089
59.650 16.718678
59.655 16.729244
59.660 16.71871
59.665 16.466946
59.670 16.351706
59.675 16.603889
59.680 16.954206
59.685 16.827461
59.690 16.498699
59.695 16.571573
59.700 17.576159
59.705 17.28791
59.710 16.923937
59.715 16.678205
59.720 17.083307
59.725 17.711479
59.730 18.017843
59.735 18.134745
59.740 18.478882
59.745 19.102917
59.750 19.910049
59.755 19.833677
59.760 19.379993
59.765 19.078484
59.770 18.141724
59.775 17.995558
59.780 17.960978
59.785 17.603048
59.790 17.695696
59.795 18.315422
59.800 18.47364
59.805 19.011124
59.810 18.835514
59.815 18.59976
59.820 18.949215
59.825 19.322493
59.830 19.742798
59.835 19.925951
59.840 19.679834
59.845 19.759573
59.850 19.63744
59.855 19.206512
59.860 18.680937
59.865 17.909304
59.870 17.78443
59.875 17.874197
59.880 18.006985
59.885 18.541471
59.890 19.275246
59.895 19.596703
59.900 19.95083
59.905 20.405912
59.910 20.024649
59.915 20.038574
59.920 19.560505
59.925 18.857002
59.930 18.945549
59.935 18.935894
59.940 18.602879
59.945 19.36203
59.950 19.929342
59.955 20.542301
59.960 20.815487
59.965 20.364202
59.970 20.554409
59.975 20.700985
59.980 20.253527
59.985 19.77376
59.990 19.687038
59.995 19.958681
60.000 20.113091
60.005 19.923206
60.010 20.125221
60.015 20.682455
60.020 20.845472
60.025 21.173597
60.030 20.99691
60.035 20.403107
60.040 20.391157
60.045 20.583042
60.050 21.217062
60.055 21.037653
60.060 20.688627
60.065 21.040354
60.070 21.099548
60.075 21.283669
60.080 21.033644
60.085 20.920237
60.090 20.779047
60.095 20.116798
60.100 19.966042
60.105 20.693739
60.110 20.416887
60.115 20.044283
60.120 19.82888
60.125 20.787251
60.130 21.548466
60.135 21.727262
60.140 21.588316
60.145 21.842476
60.150 22.190138
60.155 22.103577
60.160 21.559559
60.165 21.467632
60.170 21.484823
60.175 21.450636
60.180 21.407703
60.185 21.314098
60.190 21.693472
60.195 21.873278
60.200 21.716484
60.205 21.763624
60.210 21.76775
60.215 22.02212
60.220 22.252731
60.225 22.297836
60.230 22.426867
60.235 22.274939
60.240 21.587008
60.245 21.603659
60.250 21.224667
60.255 20.976063
60.260 20.733183
60.265 20.993431
60.270 21.527414
60.275 22.073875
60.280 22.568789
60.285 23.34993
60.290 22.847607
60.295 22.704905
60.300 22.133045
60.305 21.815874
60.310 21.724897
60.315 21.134035
60.320 20.504135
60.325 20.505171
60.330 19.981483
60.335 20.23653
60.340 20.493324
60.345 20.987871
60.350 21.13842
60.355 20.862951
60.360 21.252371
60.365 21.535561
60.370 21.309679
60.375 20.567657
60.380 20.297379
60.385 19.952711
60.390 20.266504
60.395 20.246761
60.400 20.18553
60.405 20.33761
60.410 20.825333
60.415 20.956911
60.420 21.746731
60.425 21.401636
60.430 21.351246
60.435 21.32794
60.440 20.593477
60.445 20.074787
60.450 19.47056
60.455 18.907673
60.460 18.939013
60.465 18.725573
60.470 18.802662
60.475 19.903776
60.480 20.221281
60.485 20.548798
60.490 21.001917
60.495 21.448927
60.500 21.00042
60.505 21.044142
60.510 21.135551
60.515 21.282845
60.520 20.906202
60.525 20.326107
60.530 20.297237
60.535 20.385906
60.540 19.32906
60.545 18.936596
60.550 18.963842
60.555 19.326635
60.560 19.192097
60.565 19.022312
60.570 20.116001
60.575 20.806274
60.580 20.526937
60.585 20.484236
60.590 19.945818
60.595 19.94599
60.600 20.644836
60.605 20.240574
60.610 20.109793
60.615 20.396057
60.620 20.309996
60.625 20.288921
60.630 20.758596
60.635 19.966129
60.640 19.348822
60.645 19.101923
60.650 18.911776
60.655 19.044617
60.660 18.913395
60.665 18.748772
60.670 18.750256
60.675 18.976879
60.680 18.951319
60.685 18.405876
60.690 18.244633
60.695 18.313143
60.700 17.861404
60.705 17.785915
60.710 17.511583
60.715 17.475117
60.720 17.649298
60.725 17.678885
60.730 18.25773
60.735 18.571159
60.740 18.743399
60.745 19.207335
60.750 19.051178
60.755 18.922577
60.760 19.271984
60.765 18.903557
60.770 19.012545
60.775 19.229784
60.780 19.080902
60.785 19.538446
60.790 19.864878
60.795 19.946762
60.800 20.05529
60.805 19.523046
60.810 19.315468
60.815 19.162453
60.820 18.888466
60.825 18.603945
60.830 18.059219
60.835 17.869703
60.840 17.916538
60.845 18.092203
60.850 18.006155
60.855 18.070475
60.860 18.066631
60.865 18.184698
60.870 18.377424
60.875 18.452751
60.880 18.595015
60.885 18.843092
60.890 18.911394
60.895 18.319809
60.900 18.625092
60.905 18.845486
60.910 18.73645
60.915 18.457644
60.920 18.013351
60.925 17.412294
60.930 17.900043
60.935 17.344076
60.940 17.128336
60.945 17.098459
60.950 16.594252
60.955 16.649929
60.960 16.906252
60.965 16.824289
60.970 16.754658
60.975 16.983463
60.980 17.424953
60.985 17.884686
60.990 18.264608
60.995 18.713003
61.000 18.325369
61.005 18.038725
61.010 17.489552
61.015 17.162338
61.020 18.155333
61.025 17.689983
61.030 17.470062
61.035 17.876272
61.040 17.585575
61.045 17.501583
61.050 16.88887
61.055 16.298389
61.060 17.218573
61.065 17.141384
61.070 16.967571
61.075 17.20219
61.080 17.353121
61.085 17.248606
61.090 15.739368
61.095 14.611164
61.100 14.42024
61.105 14.671898
61.110 14.757369
61.115 15.063082
61.120 15.509232
61.125 16.271151
61.130 16.643862
61.135 16.888578
61.140 16.672012
61.145 16.386644
61.150 15.738378
61.155 15.377114
61.160 15.394835
61.165 15.35976
61.170 15.148002
61.175 15.567864
61.180 15.705054
61.185 16.010696
61.190 16.259752
61.195 16.961021
61.200 17.307703
61.205 17.553638
61.210 17.56036
61.215 17.495741
61.220 17.599962
61.225 17.928877
61.230 17.552937
61.235 17.35845
61.240 17.238646
61.245 16.662813
61.250 16.709986
61.255 17.163494
61.260 16.829975
61.265 16.334234
61.270 16.426004
61.275 16.904034
61.280 17.623178
61.285 17.971497
61.290 17.775404
61.295 17.686113
61.300 18.200447
61.305 18.190901
61.310 17.650164
61.315 17.432529
61.320 17.243273
61.325 17.143259
61.330 17.172302
61.335 17.188921
61.340 16.982475
61.345 17.233339
61.350 17.343672
61.355 17.590799
61.360 17.290216
61.365 17.632374
61.370 17.076538
61.375 16.787636
61.380 16.742304
61.385 16.438757
61.390 16.326366
61.395 16.02935
61.400 15.289507
61.405 15.472143
61.410 15.707471
61.415 15.432497
61.420 14.789921
61.425 15.033282
61.430 15.653611
61.435 16.168627
61.440 16.290792
61.445 16.271793
61.450 16.401554
61.455 17.06768
61.460 16.410561
61.465 16.313238
61.470 15.985364
61.475 15.787187
61.480 15.88412
61.485 16.113565
61.490 16.408274
61.495 16.439642
61.500 16.113808
61.505 16.308977
61.510 15.523487
61.515 15.504985
61.520 15.235011
61.525 15.118101
61.530 15.50971
61.535 15.296689
61.540 15.650764
61.545 16.298595
61.550 16.596867
61.555 16.613991
61.560 16.510769
61.565 16.401131
61.570 16.352842
61.575 16.153559
61.580 16.210672
61.585 16.477196
61.590 16.594816
61.595 16.03413
61.600 15.852535
61.605 16.303993
61.610 16.962183
61.615 16.779964
61.620 16.644623
61.625 16.968672
61.630 17.538916
61.635 18.060944
61.640 18.316534
61.645 17.611914
61.650 17.308411
61.655 16.842686
61.660 16.548983
61.665 16.297983
61.670 16.397457
61.675 16.162806
61.680 16.418295
61.685 16.588247
61.690 16.423607
61.695 16.996185
61.700 17.392904
61.705 17.052456
61.710 16.82029
61.715 17.361418
61.720 17.690517
61.725 18.0422
61.730 17.577951
61.735 17.483591
61.740 17.741678
61.745 17.473396
61.750 16.333601
61.755 15.839361
61.760 15.423705
61.765 15.051543
61.770 14.787313
61.775 14.628923
61.780 14.845247
61.785 14.817548
61.790 14.966859
61.795 15.590539
61.800 16.489059
61.805 16.498838
61.810 16.447628
61.815 16.86359
61.820 17.0287
61.825 17.401825
61.830 17.355331
61.835 16.955082
61.840 17.249821
61.845 17.285601
61.850 17.461594
61.855 17.498169
61.860 17.576263
61.865 18.105068
61.870 17.972548
61.875 17.720446
61.880 17.89072
61.885 18.005468
61.890 17.841816
61.895 16.702358
61.900 15.621969
61.905 15.840158
61.910 16.197119
61.915 16.11021
61.920 15.751688
61.925 15.826306
61.930 16.473488
61.935 17.256084
61.940 17.179682
61.945 16.810564
61.950 16.420382
61.955 16.321989
61.960 16.147648
61.965 15.715366
61.970 15.653172
61.975 16.0254
61.980 15.426614
61.985 15.282508
61.990 15.245391
61.995 15.314408
62.000 16.029249
62.005 15.67906
62.010 14.966745
62.015 15.650459
62.020 15.554441
62.025 15.704752
62.030 15.780017
62.035 15.747499
62.040 16.015316
62.045 16.446188
62.050 16.497595
62.055 16.886822
62.060 17.094515
62.065 17.12254
62.070 17.029516
62.075 17.017044
62.080 17.407324
62.085 17.199772
62.090 17.357573
62.095 17.176497
62.100 17.088808
62.105 16.74468
62.110 16.565031
62.115 16.402693
62.120 16.452198
62.125 16.634974
62.130 16.723915
62.135 16.723312
62.140 17.133265
62.145 16.801405
62.150 16.514332
62.155 16.298784
62.160 16.071503
62.165 16.263765
62.170 16.470364
62.175 16.855852
62.180 17.224461
62.185 17.167301
62.190 17.338879
62.195 16.67775
62.200 16.000313
62.205 15.376547
62.210 14.532325
62.215 14.659862
62.220 14.54575
62.225 13.896827
62.230 14.325226
62.235 14.627258
62.240 14.996078
62.245 15.594771
62.250 15.580752
62.255 15.883192
62.260 16.582563
62.265 16.307592
62.270 16.504646
62.275 16.117989
62.280 15.012585
62.285 14.735571
62.290 15.129272
62.295 15.138493
62.300 15.165719
62.305 14.460738
62.310 14.695507
62.315 15.346502
62.320 15.366011
62.325 15.318752
62.330 15.415325
62.335 15.834669
62.340 16.986336
62.345 17.610605
62.350 17.442373
62.355 17.522861
62.360 17.286776
62.365 16.962839
62.370 16.808235
62.375 16.109533
62.380 15.739982
62.385 15.582046
62.390 15.523191
62.395 15.690752
62.400 16.326284
62.405 16.519257
62.410 17.068705
62.415 17.332298
62.420 17.639729
62.425 17.381136
62.430 17.114742
62.435 17.006365
62.440 17.071959
62.445 16.673271
62.450 16.645395
62.455 17.10301
62.460 17.267447
62.465 17.276493
62.470 17.070225
62.475 16.448336
62.480 16.12294
62.485 16.118973
62.490 15.859179
62.495 15.988411
62.500 16.005207
62.505 15.906825
62.510 16.467264
62.515 16.412695
62.520 16.426945
62.525 16.596691
62.530 16.480354
62.535 16.212168
62.540 16.325209
62.545 15.861691
62.550 16.121719
62.555 15.569859
62.560 15.44629
62.565 15.620601
62.570 15.52683
62.575 15.265198
62.580 15.62614
62.585 15.792672
62.590 15.882934
62.595 15.465622
62.600 15.385099
62.605 15.75843
62.610 16.355053
62.615 16.371243
62.620 16.21228
62.625 16.91836
62.630 17.384235
62.635 17.662378
62.640 17.864843
62.645 17.485048
62.650 17.507938
62.655 17.69994
62.660 17.724993
62.665 17.707998
62.670 17.882002
62.675 17.83824
62.680 18.034264
62.685 18.212513
62.690 17.760351
62.695 17.35161
62.700 16.861429
62.705 17.187513
62.710 16.832241
62.715 16.813419
62.720 16.744085
62.725 16.467466
62.730 16.243139
62.735 16.534212
62.740 16.495821
62.745 16.975164
62.750 16.95735
62.755 17.809473
62.760 18.702612
62.765 19.134218
62.770 18.89897
62.775 18.424622
62.780 17.677351
62.785 17.554855
62.790 16.753397
62.795 16.636116
62.800 16.252283
62.805 16.270254
62.810 15.959517
62.815 16.006931
62.820 15.981174
62.825 15.854774
62.830 15.885406
62.835 16.290726
62.840 16.282927
62.845 16.641935
62.850 17.134733
62.855 17.452665
62.860 17.937958
62.865 17.617033
62.870 17.469196
62.875 17.391958
62.880 17.502087
62.885 17.135254
62.890 16.878824
62.895 16.977835
62.900 16.844288
62.905 16.398779
62.910 16.206299
62.915 16.774788
62.920 16.999336
62.925 16.798351
62.930 16.748819
62.935 17.172894
62.940 18.274355
62.945 18.428949
62.950 17.666128
62.955 17.821217
62.960 17.951433
62.965 17.847296
62.970 17.824459
62.975 17.864658
62.980 17.591663
62.985 17.877985
62.990 18.270641
62.995 18.24147
63.000 17.516617
63.005 16.919186
63.010 16.41243
63.015 17.006882
63.020 17.176962
63.025 15.941986
63.030 15.872663
63.035 16.374544
63.040 16.780186
63.045 17.414936
63.050 17.003281
63.055 16.741549
63.060 17.277651
63.065 17.308323
63.070 17.54285
63.075 17.206421
63.080 16.61516
63.085 16.287554
63.090 16.73185
63.095 16.754776
63.100 16.989191
63.105 16.882416
63.110 16.837572
63.115 17.356192
63.120 17.804207
63.125 17.759691
63.130 18.295839
63.135 18.505714
63.140 18.551664
63.145 18.682623
63.150 18.894037
63.155 18.849735
63.160 18.624275
63.165 18.815428
63.170 18.854752
63.175 19.245083
63.180 19.50876
63.185 18.817158
63.190 18.299946
63.195 17.792627
63.200 17.608763
63.205 17.383101
63.210 16.910604
63.215 16.710039
63.220 16.581045
63.225 16.988825
63.230 17.459644
63.235 16.966537
63.240 16.807861
63.245 16.774509
63.250 16.627905
63.255 16.78751
63.260 16.731773
63.265 16.500881
63.270 16.318941
63.275 16.248735
63.280 16.240904
63.285 16.587685
63.290 17.0268
63.295 17.383253
63.300 17.328382
63.305 17.417473
63.310 17.463312
63.315 18.140787
63.320 18.009623
63.325 17.48642
63.330 17.066839
63.335 17.120268
63.340 17.219324
63.345 17.191605
63.350 16.551773
63.355 16.658554
63.360 16.930788
63.365 17.511501
63.370 17.465769
63.375 17.001822
63.380 17.154282
63.385 17.407513
63.390 17.19109
63.395 16.840572
63.400 16.460186
63.405 15.94542
63.410 16.730213
63.415 16.908287
63.420 16.735411
63.425 17.314445
63.430 17.806257
63.435 17.881586
63.440 18.809507
63.445 18.652969
63.450 18.350521
63.455 18.652931
63.460 18.216339
63.465 18.181816
63.470 18.294741
63.475 17.949942
63.480 18.258654
63.485 18.316011
63.490 17.663305
63.495 17.154713
63.500 17.31918
63.505 17.620646
63.510 17.629517
63.515 17.034456
63.520 16.651512
63.525 16.999031
63.530 17.970808
63.535 18.17012
63.540 17.586216
63.545 17.344625
63.550 17.237049
63.555 17.707045
63.560 17.756697
63.565 17.155582
63.570 16.333981
63.575 16.363527
63.580 16.789194
63.585 16.859997
63.590 16.923655
63.595 17.398773
63.600 18.011021
63.605 18.286396
63.610 18.420563
63.615 18.703957
63.620 18.792585
63.625 18.455484
63.630 18.130844
63.635 17.777519
63.640 17.189604
63.645 17.149307
63.650 17.176119
63.655 17.178213
63.660 17.227369
63.665 17.031612
63.670 16.820242
63.675 17.741562
63.680 17.81007
63.685 17.446487
63.690 17.56114
63.695 17.835083
63.700 18.054951
63.705 18.463137
63.710 18.172913
63.715 18.560074
63.720 18.399452
63.725 18.169529
63.730 18.029316
63.735 18.098671
63.740 18.067255
63.745 18.28249
63.750 17.386036
63.755 17.337967
63.760 17.058212
63.765 16.958477
63.770 16.370506
63.775 16.123447
63.780 16.381517
63.785 16.684732
63.790 17.286093
63.795 17.286875
63.800 17.519262
63.805 17.947403
63.810 18.355446
63.815 18.477242
63.820 18.726908
63.825 18.576254
63.830 18.628134
63.835 18.020277
63.840 17.563375
63.845 16.945301
63.850 16.653469
63.855 16.581381
63.860 16.368969
63.865 16.595942
63.870 17.026199
63.875 17.951372
63.880 17.937977
63.885 18.068077
63.890 18.065159
63.895 18.35747
63.900 18.154696
63.905 17.86227
63.910 17.634319
63.915 17.458115
63.920 17.398224
63.925 17.181572
63.930 16.960325
63.935 17.00034
63.940 17.143982
63.945 16.521002
63.950 16.856001
63.955 17.149176
63.960 17.960503
63.965 18.022659
63.970 18.099194
63.975 18.124155
63.980 18.695782
63.985 18.306513
63.990 17.734591
63.995 17.246073
64.000 17.593988
64.005 18.056343
64.010 18.111544
64.015 18.007706
64.020 18.488071
64.025 18.679419
64.030 18.613104
64.035 18.286985
64.040 18.376085
64.045 18.91437
64.050 19.726109
64.055 19.740086
64.060 19.387064
64.065 19.615334
64.070 20.252283
64.075 19.972075
64.080 19.54928
64.085 19.169889
64.090 19.486933
64.095 19.998005
64.100 19.408976
64.105 19.112036
64.110 19.223162
64.115 19.158796
64.120 18.87961
64.125 18.660366
64.130 18.690588
64.135 19.091249
64.140 18.567654
64.145 17.9828
64.150 17.838272
64.155 17.780622
64.160 18.285904
64.165 18.228075
64.170 17.821253
64.175 18.023722
64.180 18.118662
64.185 17.813381
64.190 17.501741
64.195 16.864962
64.200 16.278999
64.205 16.633667
64.210 17.117155
64.215 17.304659
64.220 17.595858
64.225 17.330849
64.230 17.20785
64.235 18.005125
64.240 18.430264
64.245 18.140165
64.250 18.147617
64.255 17.917896
64.260 18.171968
64.265 18.493551
64.270 17.694689
64.275 17.134844
64.280 16.868923
64.285 16.680904
64.290 17.094141
64.295 17.107883
64.300 16.953081
64.305 17.285051
64.310 17.985023
64.315 18.316963
64.320 18.236767
64.325 18.580664
64.330 18.255024
64.335 18.361164
64.340 18.261589
64.345 18.00079
64.350 18.165213
64.355 18.457596
64.360 18.402275
64.365 18.933979
64.370 18.956364
64.375 19.004179
64.380 18.768179
64.385 18.836117
64.390 19.268314
64.395 19.366514
64.400 19.049736
64.405 19.450792
64.410 19.693995
64.415 19.807499
64.420 19.644213
64.425 19.073362
64.430 18.880795
64.435 18.563719
64.440 18.45479
64.445 17.928783
64.450 18.338873
64.455 18.986109
64.460 19.170401
64.465 19.262465
64.470 19.731016
64.475 19.784702
64.480 19.800669
64.485 18.972662
64.490 18.181631
64.495 18.494814
64.500 18.773708
64.505 18.975698
64.510 18.716419
64.515 18.860966
64.520 19.421616
64.525 19.423126
64.530 19.394382
64.535 19.607111
64.540 19.751097
64.545 19.370838
64.550 19.042641
64.555 18.95953
64.560 19.193113
64.565 19.165951
64.570 18.59874
64.575 18.890575
64.580 19.660074
64.585 20.040577
64.590 19.859711
64.595 19.638987
64.600 19.184336
64.605 19.07926
64.610 18.950529
64.615 18.175699
64.620 18.075275
64.625 17.829639
64.630 18.138477
64.635 17.543221
64.640 17.590534
64.645 17.720366
64.650 18.180609
64.655 18.147783
64.660 18.534958
64.665 18.747135
64.670 19.412687
64.675 19.109585
64.680 18.830917
64.685 19.035181
64.690 18.702747
64.695 18.694962
64.700 18.789408
64.705 18.682169
64.710 18.955074
64.715 18.97098
64.720 18.970505
64.725 18.563654
64.730 18.017584
64.735 17.441572
64.740 17.239101
64.745 17.385353
64.750 17.998125
64.755 18.416046
64.760 18.796215
64.765 19.280674
64.770 19.141245
64.775 19.481575
64.780 19.456339
64.785 18.509466
64.790 18.296499
64.795 18.848255
64.800 19.684061
64.805 20.225035
64.810 19.949392
64.815 19.473974
64.820 19.7115
64.825 19.950279
64.830 19.932936
64.835 19.337124
64.840 19.640179
64.845 19.861502
64.850 20.593311
64.855 20.361202
64.860 19.816614
64.865 19.580276
64.870 19.195827
64.875 19.19508
64.880 18.843225
64.885 18.419836
64.890 18.374737
64.895 18.797739
64.900 18.759941
64.905 19.417557
64.910 19.986603
64.915 20.37632
64.920 20.247473
64.925 20.321835
64.930 19.803841
64.935 19.837587
64.940 19.759264
64.945 19.187542
64.950 19.273878
64.955 19.514585
64.960 20.122269
64.965 20.232452
64.970 20.417063
64.975 20.553265
64.980 20.668505
64.985 20.434143
64.990 20.641495
64.995 20.844566
65.000 21.020113
65.005 20.266088
65.010 20.293539
65.015 20.047812
65.020 19.806101
65.025 19.491535
65.030 19.442064
65.035 19.466446
65.040 20.110874
65.045 20.145433
65.050 20.702244
65.055 21.165834
65.060 21.245962
65.065 21.64011
65.070 22.371038
65.075 22.446907
65.080 22.381119
65.085 21.933969
65.090 21.967194
65.095 22.341885
65.100 22.132887
65.105 21.501249
65.110 21.222281
65.115 21.74906
65.120 21.998646
65.125 22.579861
65.130 22.912491
65.135 23.075897
65.140 23.222956
65.145 23.221857
65.150 22.721262
65.155 22.654348
65.160 22.177929
65.165 21.493864
65.170 21.53595
65.175 22.173199
65.180 22.354939
65.185 22.597643
65.190 22.603611
65.195 22.462336
65.200 22.68338
65.205 22.570225
65.210 22.329325
65.215 22.505644
65.220 22.244118
65.225 22.417818
65.230 22.725248
65.235 22.830971
65.240 22.669727
65.245 22.257421
65.250 22.338156
65.255 22.239765
65.260 22.108955
65.265 22.512651
65.270 22.478802
65.275 22.678379
65.280 22.852032
65.285 22.470661
65.290 22.120079
65.295 22.404549
65.300 22.509363
65.305 22.346518
65.310 22.141129
65.315 21.965094
65.320 22.384649
65.325 22.203785
65.330 22.084661
65.335 21.997173
65.340 21.690643
65.345 21.947821
65.350 22.28686
65.355 22.171124
65.360 22.580811
65.365 22.470047
65.370 22.756166
65.375 23.202059
65.380 23.587265
65.385 23.66934
65.390 23.847868
65.395 23.857277
65.400 23.702574
65.405 22.907785
65.410 22.778341
65.415 22.849464
65.420 22.838667
65.425 22.849894
65.430 22.896845
65.435 22.757788
65.440 23.347731
65.445 23.26819
65.450 23.451101
65.455 23.332447
65.460 23.45491
65.465 23.5331
65.470 24.207592
65.475 24.494427
65.480 24.659687
65.485 24.662397
65.490 25.694548
65.495 25.817329
65.500 26.310801
65.505 26.807785
65.510 27.108725
65.515 27.183565
65.520 27.479704
65.525 27.484901
65.530 27.775906
65.535 27.079075
65.540 26.941933
65.545 27.60359
65.550 27.986759
65.555 27.676456
65.560 27.519567
65.565 28.015123
65.570 28.445566
65.575 28.183922
65.580 28.126299
65.585 27.999281
65.590 28.513248
65.595 28.304523
65.600 27.874453
65.605 28.265976
65.610 28.615082
65.615 28.38571
65.620 29.09481
65.625 29.760511
65.630 30.492069
65.635 31.252357
65.640 31.548485
65.645 31.913044
65.650 32.641666
65.655 31.927736
65.660 31.002434
65.665 30.408508
65.670 30.426012
65.675 30.820187
65.680 30.546555
65.685 29.700623
65.690 30.332573
65.695 30.653244
65.700 31.275791
65.705 31.400583
65.710 31.443823
65.715 32.695503
65.720 34.352093
65.725 35.523884
65.730 36.254539
65.735 36.524807
65.740 36.947411
65.745 36.692715
65.750 35.51804
65.755 34.159424
65.760 33.724804
65.765 33.878078
65.770 33.491787
65.775 33.406746
65.780 33.343349
65.785 33.739845
65.790 34.238075
65.795 33.815403
65.800 33.900776
65.805 34.416218
65.810 34.417591
65.815 34.850895
65.820 36.265617
65.825 36.346443
65.830 36.31551
65.835 36.107841
65.840 36.247322
65.845 35.988773
65.850 35.73074
65.855 34.89463
65.860 35.830406
65.865 35.654007
65.870 35.430363
65.875 35.983135
65.880 37.221889
65.885 37.505981
65.890 37.160748
65.895 36.143341
65.900 36.506935
65.905 36.673584
65.910 35.642284
65.915 35.438679
65.920 35.759224
65.925 36.509098
65.930 37.190475
65.935 37.905773
65.940 38.484386
65.945 38.794788
65.950 38.226246
65.955 38.460594
65.960 38.766567
65.965 39.11684
65.970 39.297215
65.975 38.901318
65.980 39.019337
65.985 38.816498
65.990 38.199703
65.995 37.565678
66.000 38.071789
66.005 38.13681
66.010 38.338894
66.015 38.988358
66.020 39.344891
66.025 39.79142
66.030 39.516029
66.035 38.184708
66.040 37.621883
66.045 37.187366
66.050 36.529312
66.055 36.566811
66.060 35.720036
66.065 35.278412
66.070 35.258457
66.075 35.169601
66.080 35.993679
66.085 36.072155
66.090 35.932541
66.095 36.372017
66.100 36.57653
66.105 36.477512
66.110 36.495438
66.115 35.541939
66.120 35.558819
66.125 36.539143
66.130 36.756798
66.135 36.731171
66.140 36.699368
66.145 36.485035
66.150 36.233063
66.155 35.784733
66.160 35.265717
66.165 34.990635
66.170 35.581284
66.175 35.687725
66.180 35.235973
66.185 35.342079
66.190 35.898129
66.195 35.571358
66.200 35.146465
66.205 34.720482
66.210 34.307274
66.215 34.823502
66.220 35.206799
66.225 34.49894
66.230 34.997643
66.235 35.428745
66.240 35.506615
66.245 35.619511
66.250 34.493443
66.255 34.215401
66.260 33.457985
66.265 32.889874
66.270 32.299355
66.275 31.466137
66.280 31.259039
66.285 31.356037
66.290 31.140015
66.295 30.788429
66.300 30.370062
66.305 30.518957
66.310 30.283588
66.315 30.918892
66.320 31.179892
66.325 30.893879
66.330 31.024717
66.335 31.659883
66.340 32.456371
66.345 32.714832
66.350 32.942207
66.355 33.256561
66.360 33.757645
66.365 34.114212
66.370 33.610844
66.375 33.132088
66.380 32.880745
66.385 32.241402
66.390 31.713875
66.395 30.981279
66.400 30.877037
66.405 30.510099
66.410 30.888903
66.415 30.793343
66.420 30.601133
66.425 30.219372
66.430 30.402588
66.435 30.134846
66.440 29.833385
66.445 29.068748
66.450 28.737247
66.455 28.621338
66.460 28.874077
66.465 28.694229
66.470 28.995115
66.475 29.070801
66.480 29.179956
66.485 29.873396
66.490 30.672874
66.495 30.14187
66.500 29.649429
66.505 29.0923
66.510 29.231861
66.515 29.42432
66.520 27.893536
66.525 26.925438
66.530 27.026217
66.535 27.567173
66.540 27.416368
66.545 26.069084
66.550 25.233641
66.555 25.894073
66.560 26.69767
66.565 27.114029
66.570 26.739445
66.575 26.727945
66.580 27.152546
66.585 26.819351
66.590 26.294765
66.595 25.366968
66.600 24.425364
66.605 24.485456
66.610 24.258453
66.615 24.746767
66.620 24.478579
66.625 24.167944
66.630 24.422546
66.635 24.218904
66.640 24.052443
66.645 24.216747
66.650 23.360802
66.655 23.499933
66.660 24.136185
66.665 23.910183
66.670 24.644142
66.675 24.344374
66.680 24.411539
66.685 24.720757
66.690 25.277979
66.695 24.403622
66.700 24.445673
66.705 23.768265
66.710 24.333473
66.715 24.261593
66.720 23.91375
66.725 23.156189
66.730 23.272291
66.735 23.361282
66.740 23.166912
66.745 22.841377
66.750 22.709631
66.755 22.901897
66.760 23.280836
66.765 23.38456
66.770 23.209799
66.775 23.100159
66.780 23.03603
66.785 23.743898
66.790 23.607105
66.795 23.314262
66.800 23.349277
66.805 23.591633
66.810 23.937744
66.815 24.186773
66.820 24.242994
66.825 24.224483
66.830 23.84742
66.835 23.036837
66.840 22.430555
66.845 22.362951
66.850 22.124256
66.855 21.839582
66.860 22.391363
66.865 22.562628
66.870 22.37652
66.875 22.449623
66.880 22.56053
66.885 22.100031
66.890 21.890894
66.895 21.959681
66.900 22.928267
66.905 23.850863
66.910 24.250517
66.915 24.046263
66.920 23.495045
66.925 23.586529
66.930 23.010199
66.935 21.859173
66.940 21.616253
66.945 21.909519
66.950 22.604883
66.955 23.280798
66.960 23.185265
66.965 23.268682
66.970 23.834671
66.975 24.019152
66.980 23.63356
66.985 23.264372
66.990 23.400219
66.995 23.378788
67.000 23.124397
67.005 22.485643
67.010 21.781637
67.015 21.487375
67.020 21.342068
67.025 21.326811
67.030 21.687826
67.035 21.512112
67.040 21.420456
67.045 20.782917
67.050 21.189512
67.055 21.395313
67.060 20.620085
67.065 20.212376
67.070 20.688217
67.075 21.463346
67.080 22.120026
67.085 21.751747
67.090 21.977591
67.095 22.31966
67.100 22.483047
67.105 22.676586
67.110 22.329763
67.115 21.912367
67.120 21.984766
67.125 21.650513
67.130 21.916624
67.135 22.257956
67.140 22.650734
67.145 23.09557
67.150 23.341177
67.155 23.401356
67.160 23.103771
67.165 22.898785
67.170 22.542393
67.175 22.182352
67.180 22.374214
67.185 22.358541
67.190 22.732391
67.195 22.987167
67.200 23.453035
67.205 23.619806
67.210 23.369577
67.215 23.183439
67.220 23.089857
67.225 22.71039
67.230 22.519886
67.235 22.594603
67.240 22.979036
67.245 23.004761
67.250 22.772606
67.255 23.225842
67.260 23.307533
67.265 23.08185
67.270 22.382484
67.275 22.016933
67.280 21.529123
67.285 21.99238
67.290 21.667273
67.295 21.518539
67.300 21.351875
67.305 21.056696
67.310 20.864607
67.315 20.63448
67.320 20.891684
67.325 20.732119
67.330 20.976345
67.335 21.302818
67.340 21.68062
67.345 22.04538
67.350 22.509645
67.355 22.367069
67.360 22.401495
67.365 22.184818
67.370 22.110548
67.375 21.615538
67.380 21.6649
67.385 21.901602
67.390 21.579784
67.395 21.397375
67.400 21.416464
67.405 21.173527
67.410 20.98115
67.415 20.241669
67.420 19.903976
67.425 19.381599
67.430 19.665295
67.435 19.674604
67.440 20.195883
67.445 20.613111
67.450 20.956331
67.455 20.863958
67.460 21.175213
67.465 21.140406
67.470 22.065887
67.475 21.839838
67.480 22.199827
67.485 23.233271
67.490 23.966228
67.495 24.01618
67.500 23.545021
67.505 22.907505
67.510 23.203911
67.515 23.175333
67.520 22.336401
67.525 21.560411
67.530 21.715483
67.535 22.124498
67.540 21.849215
67.545 21.599249
67.550 21.193172
67.555 21.165674
67.560 21.291317
67.565 21.372969
67.570 21.958498
67.575 22.176336
67.580 22.431316
67.585 22.30337
67.590 22.370073
67.595 22.39459
67.600 21.848331
67.605 21.234997
67.610 21.331623
67.615 20.698391
67.620 20.554153
67.625 20.714037
67.630 21.275362
67.635 21.924877
67.640 22.563995
67.645 23.495317
67.650 24.026884
67.655 24.363188
67.660 23.803133
67.665 23.393242
67.670 22.960588
67.675 22.15134
67.680 21.547705
67.685 21.222181
67.690 20.909199
67.695 21.276711
67.700 21.024836
67.705 21.254364
67.710 21.377373
67.715 21.327782
67.720 21.363361
67.725 21.229662
67.730 20.859592
67.735 21.007652
67.740 20.187399
67.745 19.506176
67.750 19.807133
67.755 19.718462
67.760 19.889849
67.765 19.9828
67.770 19.888346
67.775 20.289797
67.780 20.290209
67.785 19.835518
67.790 19.952192
67.795 19.944269
67.800 19.929943
67.805 19.812372
67.810 19.654814
67.815 19.406778
67.820 20.02998
67.825 19.758949
67.830 19.4534
67.835 19.343714
67.840 19.542967
67.845 19.501406
67.850 19.149588
67.855 19.24111
67.860 19.947477
67.865 19.610596
67.870 19.468237
67.875 19.372768
67.880 19.668678
67.885 19.991217
67.890 19.315941
67.895 19.179731
67.900 19.340839
67.905 19.530331
67.910 19.711884
67.915 20.3922
67.920 20.835718
67.925 20.889673
67.930 20.405779
67.935 20.745066
67.940 20.743334
67.945 20.475954
67.950 19.583744
67.955 18.742163
67.960 19.494961
67.965 20.142408
67.970 20.653366
67.975 21.087645
67.980 21.533394
67.985 22.587633
67.990 23.259626
67.995 22.412079
68.000 22.418943
68.005 21.874836
68.010 21.433958
68.015 21.255529
68.020 20.976967
68.025 20.849556
68.030 21.305861
68.035 21.222725
68.040 21.184233
68.045 21.22393
68.050 20.95302
68.055 20.628336
68.060 20.919949
68.065 20.421925
68.070 20.208744
68.075 20.147898
68.080 20.375103
68.085 20.656946
68.090 20.416443
68.095 19.968349
68.100 20.58807
68.105 21.124357
68.110 21.522249
68.115 21.548052
68.120 21.56562
68.125 21.980078
68.130 22.23863
68.135 22.025295
68.140 21.721954
68.145 21.654202
68.150 21.39003
68.155 21.060421
68.160 20.988008
68.165 20.974363
68.170 20.95377
68.175 21.101635
68.180 20.914104
68.185 20.254684
68.190 20.140444
68.195 19.783981
68.200 19.369158
68.205 19.291771
68.210 19.072258
68.215 19.285473
68.220 20.296892
68.225 20.774551
68.230 21.012083
68.235 21.619232
68.240 21.709558
68.245 21.514021
68.250 21.510296
68.255 20.914352
68.260 20.932472
68.265 21.020945
68.270 21.163879
68.275 21.163361
68.280 21.135286
68.285 21.400341
68.290 21.424894
68.295 21.277674
68.300 20.720688
68.305 20.301521
68.310 20.363525
68.315 20.967552
68.320 21.521
68.325 21.510159
68.330 21.548977
68.335 21.631063
68.340 21.420685
68.345 21.769129
68.350 21.432043
68.355 20.724751
68.360 20.607635
68.365 20.270147
68.370 20.884947
68.375 21.502537
68.380 21.455629
68.385 21.312672
68.390 21.725166
68.395 22.294809
68.400 22.527592
68.405 21.77887
68.410 21.051683
68.415 21.416986
68.420 22.056383
68.425 22.029022
68.430 22.136782
68.435 22.277933
68.440 22.505285
68.445 22.63413
68.450 22.208078
68.455 21.962496
68.460 22.490654
68.465 22.439705
68.470 21.946739
68.475 22.007414
68.480 21.364458
68.485 20.556175
68.490 20.308548
68.495 19.758793
68.500 19.398453
68.505 19.87903
68.510 20.43359
68.515 20.591606
68.520 21.04632
68.525 20.704079
68.530 20.983355
68.535 21.224459
68.540 20.966837
68.545 20.751282
68.550 21.111689
68.555 20.90497
68.560 21.88364
68.565 21.909851
68.570 21.857483
68.575 21.868534
68.580 22.088888
68.585 22.185863
68.590 21.86179
68.595 21.268703
68.600 21.343254
68.605 21.566967
68.610 21.630915
68.615 21.567829
68.620 21.821272
68.625 21.580938
68.630 21.066767
68.635 20.838192
68.640 20.801966
68.645 20.8172
68.650 20.854782
68.655 21.1812
68.660 21.669275
68.665 21.75098
68.670 21.937538
68.675 22.775145
68.680 22.563629
68.685 22.671852
68.690 22.050112
68.695 20.83099
68.700 20.334654
68.705 20.018566
68.710 20.056248
68.715 20.357071
68.720 20.024557
68.725 19.946835
68.730 21.409952
68.735 22.314913
68.740 22.087248
68.745 21.847158
68.750 21.983803
68.755 22.493189
68.760 22.871162
68.765 22.409452
68.770 22.414778
68.775 22.621216
68.780 22.29516
68.785 22.057268
68.790 21.747372
68.795 22.025343
68.800 22.133389
68.805 21.317368
68.810 20.764679
68.815 20.815834
68.820 20.938257
68.825 20.577305
68.830 20.219288
68.835 20.32597
68.840 20.825127
68.845 21.273659
68.850 20.741018
68.855 20.167974
68.860 20.433455
68.865 20.768444
68.870 20.795645
68.875 21.34712
68.880 21.40349
68.885 21.355724
68.890 21.958168
68.895 22.108784
68.900 22.039738
68.905 22.003231
68.910 22.077751
68.915 22.663633
68.920 23.282591
68.925 23.006302
68.930 23.068733
68.935 23.360586
68.940 23.143633
68.945 22.884577
68.950 22.201788
68.955 22.478209
68.960 22.382244
68.965 22.618427
68.970 23.125982
68.975 23.55088
68.980 23.66399
68.985 23.958048
68.990 24.566788
68.995 24.978201
69.000 24.919691
69.005 24.601582
69.010 24.369812
69.015 24.404568
69.020 24.176235
69.025 23.391962
69.030 23.209564
69.035 22.737183
69.040 22.764708
69.045 23.26819
69.050 23.372934
69.055 23.492283
69.060 23.608585
69.065 23.951746
69.070 24.101912
69.075 23.957981
69.080 24.381563
69.085 24.840311
69.090 24.905249
69.095 24.880459
69.100 24.984194
69.105 25.461065
69.110 25.407757
69.115 25.313353
69.120 25.326134
69.125 25.939898
69.130 26.15169
69.135 26.003513
69.140 25.550713
69.145 25.143497
69.150 25.906622
69.155 26.202414
69.160 25.767651
69.165 25.663059
69.170 26.064533
69.175 26.747017
69.180 26.786198
69.185 25.498125
69.190 25.028017
69.195 24.85845
69.200 24.393097
69.205 24.641327
69.210 25.018744
69.215 25.097347
69.220 25.547243
69.225 26.551872
69.230 26.939337
69.235 26.497356
69.240 26.43692
69.245 26.940453
69.250 27.064716
69.255 26.816803
69.260 26.556023
69.265 26.942623
69.270 28.069422
69.275 27.880707
69.280 27.820293
69.285 28.320656
69.290 28.205982
69.295 27.958897
69.300 27.629978
69.305 27.491772
69.310 26.707628
69.315 26.387318
69.320 25.921757
69.325 26.779638
69.330 27.112455
69.335 27.815849
69.340 28.404526
69.345 29.011013
69.350 28.677578
69.355 28.469902
69.360 28.332733
69.365 28.184189
69.370 28.124531
69.375 27.82789
69.380 28.523729
69.385 29.848721
69.390 30.860443
69.395 30.595076
69.400 30.445288
69.405 30.070961
69.410 29.314299
69.415 28.87343
69.420 27.608644
69.425 26.689419
69.430 26.583714
69.435 26.630602
69.440 27.309052
69.445 27.897381
69.450 28.231207
69.455 28.413202
69.460 28.537094
69.465 27.94989
69.470 27.330267
69.475 26.855415
69.480 26.869699
69.485 26.409178
69.490 26.567543
69.495 27.499456
69.500 27.579582
69.505 27.994095
69.510 28.06288
69.515 28.085546
69.520 28.729046
69.525 27.760605
69.530 27.240088
69.535 28.326494
69.540 28.894089
69.545 29.053356
69.550 29.904631
69.555 29.603962
69.560 30.551476
69.565 30.480755
69.570 29.708254
69.575 29.005037
69.580 28.151634
69.585 27.708214
69.590 27.437849
69.595 26.975002
69.600 26.861727
69.605 27.402445
69.610 27.606369
69.615 28.216782
69.620 28.672426
69.625 28.746637
69.630 28.81241
69.635 28.525373
69.640 28.421671
69.645 28.606623
69.650 27.892054
69.655 27.413906
69.660 26.954201
69.665 27.049641
69.670 26.980318
69.675 26.611835
69.680 27.108393
69.685 27.606354
69.690 28.541418
69.695 29.455606
69.700 29.777267
69.705 29.844379
69.710 30.127251
69.715 29.668682
69.720 29.03458
69.725 28.148216
69.730 28.006559
69.735 27.502436
69.740 26.900539
69.745 26.219225
69.750 26.243498
69.755 25.892738
69.760 25.402084
69.765 25.374231
69.770 25.984947
69.775 26.765551
69.780 27.107094
69.785 27.034462
69.790 26.886604
69.795 26.575693
69.800 26.589331
69.805 26.303324
69.810 25.480686
69.815 25.077068
69.820 25.079071
69.825 25.482061
69.830 25.484095
69.835 25.54874
69.840 25.86655
69.845 25.725155
69.850 25.646011
69.855 25.50877
69.860 25.534082
69.865 25.038774
69.870 24.377552
69.875 24.494919
69.880 24.6024
69.885 24.296381
69.890 24.327383
69.895 24.233887
69.900 24.365042
69.905 24.261892
69.910 23.796551
69.915 23.261419
69.920 23.281878
69.925 22.252766
69.930 21.426834
69.935 20.586977
69.940 20.366001
69.945 20.283953
69.950 21.125538
69.955 21.354912
69.960 22.080521
69.965 23.150396
69.970 22.769051
69.975 22.978888
69.980 22.969149
69.985 22.859324
69.990 23.034714
69.995 22.698996
70.000 22.412994
70.005 22.565817
70.010 21.644516
70.015 21.217669
70.020 20.375227
70.025 20.287226
70.030 19.898914
70.035 19.99543
70.040 20.171871
70.045 20.121469
70.050 20.47776
70.055 20.843138
70.060 20.943691
70.065 21.43075
70.070 21.90086
70.075 22.076498
70.080 22.710768
70.085 23.545225
70.090 22.98074
70.095 22.756525
70.100 22.639906
70.105 22.531155
70.110 22.164915
70.115 21.787334
70.120 21.295956
70.125 22.130766
70.130 21.868822
70.135 21.271746
70.140 21.238977
70.145 21.718605
70.150 21.585011
70.155 21.037468
70.160 20.412716
70.165 20.483953
70.170 20.190941
70.175 19.737911
70.180 19.578251
70.185 19.455511
70.190 19.799854
70.195 19.958441
70.200 19.539328
70.205 19.692533
70.210 19.574492
70.215 19.081676
70.220 19.01149
70.225 18.476519
70.230 18.619383
70.235 19.023693
70.240 19.002344
70.245 19.096378
70.250 19.281334
70.255 19.812614
70.260 20.29966
70.265 20.325413
70.270 20.697023
70.275 21.072243
70.280 21.029593
70.285 20.887865
70.290 20.823849
70.295 20.963171
70.300 21.193359
70.305 21.067387
70.310 21.302906
70.315 21.993301
70.320 22.297272
70.325 21.583946
70.330 21.064642
70.335 20.926554
70.340 20.497202
70.345 20.293718
70.350 19.682074
70.355 19.769001
70.360 20.706444
70.365 20.649651
70.370 20.472002
70.375 20.624792
70.380 20.358154
70.385 20.394657
70.390 20.267155
70.395 20.174644
70.400 20.337387
70.405 19.887823
70.410 19.633183
70.415 19.477118
70.420 19.266167
70.425 19.427721
70.430 19.575401
70.435 20.416039
70.440 20.875086
70.445 20.582718
70.450 21.088917
70.455 21.451052
70.460 21.127769
70.465 20.390596
70.470 19.842916
70.475 19.602995
70.480 19.754299
70.485 19.167694
70.490 18.444038
70.495 18.538677
70.500 19.355875
70.505 19.44594
70.510 19.507883
70.515 19.160786
70.520 19.121593
70.525 19.504646
70.530 18.989923
70.535 18.171186
70.540 18.242023
70.545 18.549612
70.550 19.109962
70.555 18.973181
70.560 18.984884
70.565 19.03598
70.570 19.128071
70.575 19.207958
70.580 19.480158
70.585 19.360605
70.590 19.658157
70.595 19.989822
70.600 20.371168
70.605 20.66387
70.610 20.847595
70.615 20.959269
70.620 21.21361
70.625 20.970654
70.630 20.138023
70.635 19.938534
70.640 19.999887
70.645 19.580791
70.650 19.137491
70.655 19.215038
70.660 19.263136
70.665 19.500402
70.670 19.580351
70.675 19.565166
70.680 19.443493
70.685 19.962696
70.690 20.190886
70.695 20.671679
70.700 20.822525
70.705 20.803812
70.710 21.004349
70.715 21.231489
70.720 20.658596
70.725 20.309649
70.730 20.340372
70.735 20.033857
70.740 19.618801
70.745 19.569424
70.750 20.332731
70.755 20.582979
70.760 20.933819
70.765 20.656359
70.770 21.181833
70.775 21.206627
70.780 20.930527
70.785 19.738384
70.790 19.949642
70.795 19.781277
70.800 19.935755
70.805 19.300062
70.810 19.643446
70.815 19.813307
70.820 20.329239
70.825 19.779186
70.830 19.499283
70.835 19.352285
70.840 19.628815
70.845 19.502888
70.850 19.375044
70.855 18.682016
70.860 18.780645
70.865 19.10268
70.870 18.995516
70.875 19.161552
70.880 19.162323
70.885 19.121918
70.890 19.627548
70.895 19.881914
70.900 20.159279
70.905 20.409288
70.910 20.588179
70.915 20.317806
70.920 20.08099
70.925 20.08564
70.930 20.038769
70.935 20.099649
70.940 19.805174
70.945 19.457354
70.950 19.412144
70.955 18.995888
70.960 18.547375
70.965 18.172298
70.970 17.991344
70.975 18.101864
70.980 17.96397
70.985 18.551125
70.990 18.771488
70.995 18.802637
71.000 18.591005
71.005 18.47595
71.010 18.767456
71.015 18.388107
71.020 18.154531
71.025 18.582151
71.030 18.827848
71.035 19.369936
71.040 19.702364
71.045 19.601435
71.050 20.101208
71.055 20.116571
71.060 20.172974
71.065 20.022869
71.070 19.643915
71.075 19.507841
71.080 19.302277
71.085 19.162863
71.090 18.747484
71.095 18.717743
71.100 18.650633
71.105 18.287357
71.110 17.997179
71.115 18.221718
71.120 18.579418
71.125 19.24926
71.130 19.98913
71.135 20.270597
71.140 20.227575
71.145 19.746479
71.150 19.243101
71.155 19.269615
71.160 18.518269
71.165 18.245014
71.170 18.406094
71.175 18.602468
71.180 18.760666
71.185 19.19158
71.190 19.164892
71.195 19.595539
71.200 19.183601
71.205 19.448759
71.210 19.799238
71.215 19.579241
71.220 19.635685
71.225 19.254642
71.230 19.131163
71.235 18.834349
71.240 18.54133
71.245 18.609615
71.250 18.998205
71.255 19.480253
71.260 19.635475
71.265 19.374056
71.270 20.35186
71.275 20.91662
71.280 21.015785
71.285 21.139896
71.290 21.048544
71.295 20.632318
71.300 20.476271
71.305 19.83424
71.310 19.933714
71.315 19.60988
71.320 19.160192
71.325 19.162449
71.330 19.786892
71.335 19.574944
71.340 18.914951
71.345 19.194715
71.350 19.096998
71.355 18.871004
71.360 18.444546
71.365 17.481024
71.370 17.652039
71.375 17.813705
71.380 17.35298
71.385 17.548037
71.390 17.319952
71.395 17.746122
71.400 18.783718
71.405 18.732073
71.410 19.033098
71.415 19.357088
71.420 19.745239
71.425 19.826715
71.430 19.586281
71.435 18.894218
71.440 19.157063
71.445 19.023115
71.450 18.868189
71.455 18.745646
71.460 19.120062
71.465 18.79364
71.470 19.245039
71.475 19.462023
71.480 19.556622
71.485 19.742805
71.490 19.646095
71.495 20.099934
71.500 21.095961
71.505 20.704149
71.510 20.365911
71.515 20.032011
71.520 19.72868
71.525 19.409977
71.530 19.040667
71.535 18.34005
71.540 18.547169
71.545 18.301888
71.550 17.907175
71.555 17.97468
71.560 18.097752
71.565 18.266804
71.570 18.00596
71.575 17.825781
71.580 18.456345
71.585 18.964472
71.590 19.169275
71.595 19.407938
71.600 19.586712
71.605 19.426855
71.610 18.899778
71.615 18.707581
71.620 18.830843
71.625 18.410139
71.630 17.988247
71.635 18.282476
71.640 19.430452
71.645 19.810368
71.650 20.350559
71.655 20.059772
71.660 20.611328
71.665 20.856422
71.670 20.290518
71.675 20.184853
71.680 19.880644
71.685 19.02809
71.690 18.869703
71.695 18.863766
71.700 19.275246
71.705 19.364124
71.710 19.109911
71.715 19.026646
71.720 19.158901
71.725 18.889484
71.730 18.740908
71.735 18.777706
71.740 19.407656
71.745 19.579119
71.750 19.631771
71.755 19.923592
71.760 19.874605
71.765 19.47522
71.770 19.132837
71.775 18.3992
71.780 18.412882
71.785 18.288212
71.790 18.233774
71.795 18.080585
71.800 18.368124
71.805 18.159348
71.810 18.057186
71.815 18.001074
71.820 18.188602
71.825 18.359545
71.830 18.567215
71.835 18.519775
71.840 18.621
71.845 19.125036
71.850 19.443468
71.855 20.06686
71.860 20.090679
71.865 20.180502
71.870 20.498514
71.875 20.698553
71.880 19.983355
71.885 19.73127
71.890 19.414026
71.895 19.799887
71.900 19.221392
71.905 18.700041
71.910 17.999922
71.915 18.332071
71.920 18.076969
71.925 18.306728
71.930 18.401201
71.935 18.987299
71.940 19.177643
71.945 19.199596
71.950 19.101768
71.955 18.911377
71.960 18.147152
71.965 18.196026
71.970 17.973688
71.975 18.183716
71.980 18.828262
71.985 19.17041
71.990 19.792418
71.995 19.665411
72.000 19.643665
72.005 19.935173
72.010 19.715168
72.015 19.420937
72.020 19.461535
72.025 19.457066
72.030 19.552248
72.035 19.39323
72.040 19.341278
72.045 18.830902
72.050 18.194561
72.055 17.846401
72.060 17.710236
72.065 17.584116
72.070 17.90415
72.075 18.027443
72.080 18.854492
72.085 19.264452
72.090 19.205521
72.095 19.572889
72.100 19.441324
72.105 19.345442
72.110 19.243567
72.115 19.12771
72.120 19.032499
72.125 19.224997
72.130 18.971579
72.135 20.086271
72.140 20.102676
72.145 20.002787
72.150 20.819578
72.155 20.828539
72.160 21.244026
72.165 20.805326
72.170 19.266338
72.175 18.956301
72.180 18.18903
72.185 16.758972
72.190 16.580225
72.195 16.274086
72.200 16.891428
72.205 17.909639
72.210 18.172003
72.215 18.60988
72.220 19.257589
72.225 19.299625
72.230 19.218323
72.235 19.176359
72.240 18.811319
72.245 18.831055
72.250 19.240808
72.255 19.220379
72.260 19.246931
72.265 19.051933
72.270 18.576891
72.275 18.261076
72.280 18.220091
72.285 17.300272
72.290 16.657455
72.295 16.493183
72.300 16.643726
72.305 17.137972
72.310 17.100426
72.315 17.193121
72.320 17.525784
72.325 17.35387
72.330 17.364609
72.335 16.996637
72.340 17.393982
72.345 17.524868
72.350 17.777325
72.355 18.127224
72.360 18.643646
72.365 19.028616
72.370 19.138084
72.375 18.688387
72.380 18.8347
72.385 18.901018
72.390 19.128937
72.395 19.018759
72.400 18.664806
72.405 18.609602
72.410 18.930515
72.415 19.25528
72.420 19.192633
72.425 18.744759
72.430 18.58729
72.435 18.710791
72.440 19.297171
72.445 19.224373
72.450 18.863079
72.455 18.778015
72.460 19.148432
72.465 19.297632
72.470 18.78495
72.475 18.091047
72.480 18.204067
72.485 18.161581
72.490 18.545151
72.495 17.492256
72.500 17.374004
72.505 17.565605
72.510 17.665802
72.515 17.68873
72.520 17.12731
72.525 17.326433
72.530 18.328524
72.535 18.379097
72.540 18.248116
72.545 18.0933
72.550 18.258177
72.555 18.701836
72.560 18.692484
72.565 18.253267
72.570 18.049187
72.575 18.266836
72.580 18.503654
72.585 18.185825
72.590 17.625765
72.595 17.71628
72.600 17.81366
72.605 17.882999
72.610 17.103596
72.615 16.505056
72.620 16.500965
72.625 16.702185
72.630 16.496769
72.635 16.461994
72.640 16.272297
72.645 16.591061
72.650 16.917423
72.655 17.049126
72.660 17.026615
72.665 17.207794
72.670 17.086517
72.675 17.61142
72.680 17.685598
72.685 17.876083
72.690 17.488821
72.695 17.120104
72.700 17.148308
72.705 17.188036
72.710 16.881021
72.715 16.744555
72.720 16.808069
72.725 17.579739
72.730 18.443701
72.735 18.340883
72.740 18.467884
72.745 18.473022
72.750 18.188574
72.755 18.614084
72.760 17.948317
72.765 17.322128
72.770 17.024527
72.775 16.724752
72.780 16.447105
72.785 16.683485
72.790 16.607161
72.795 16.385159
72.800 16.611391
72.805 16.837181
72.810 17.114264
72.815 17.367527
72.820 16.891409
72.825 16.824289
72.830 17.164738
72.835 17.418959
72.840 17.470322
72.845 17.356497
72.850 17.027266
72.855 16.7561
72.860 17.059547
72.865 17.583523
72.870 17.234686
72.875 17.217346
72.880 17.357784
72.885 17.463156
72.890 16.912138
72.895 15.733418
72.900 15.01058
72.905 14.793102
72.910 14.628823
72.915 14.638628
72.920 14.309774
72.925 14.950873
72.930 15.506212
72.935 15.933421
72.940 16.047012
72.945 16.305376
72.950 16.743864
72.955 17.332365
72.960 16.958443
72.965 17.19173
72.970 16.967096
72.975 17.420721
72.980 17.264996
72.985 17.362007
72.990 17.216595
72.995 17.532763
73.000 17.463276
