!@!!GADDS PLOTSO FILE: Chi integration type
!@!!Title/SampleName: map-62
!@!!Comment: ?
!@!!User: Bruker Instrument Administrator
!@!!Site: University of Illinois Chicago
!@!!Frame: map-62_01_000.gfrm
!@!!Wavelengths    1.54184   1.54056   1.54439
!@!!Frame angles: 2Theta: 63.000 Omega: 50.000 Phi: 0.000 Chi: 90.000
!@!!Integration range: 2Theta: 53.000 to 73.000  Gamma: -105.000 to -75.000
!@!!Integration method: bin normalized
!@!N
!@!SS
!@!M
!@!L 0.0 0.0 0.0 0.0
!@!XDegrees
!@!YCounts
53.000 7.042839
53.005 6.624966
53.010 5.978652
53.015 5.400679
53.020 5.790022
53.025 6.413854
53.030 6.92561
53.035 7.444405
53.040 7.731285
53.045 7.945455
53.050 8.144206
53.055 7.931149
53.060 7.966808
53.065 7.724487
53.070 7.738503
53.075 8.166403
53.080 8.258226
53.085 8.369946
53.090 8.489807
53.095 8.204566
53.100 8.49765
53.105 8.432126
53.110 8.103207
53.115 7.933607
53.120 7.982827
53.125 8.250833
53.130 8.552729
53.135 8.143695
53.140 7.795949
53.145 7.619692
53.150 7.889459
53.155 7.820467
53.160 7.614457
53.165 7.108251
53.170 6.859532
53.175 7.089115
53.180 7.355514
53.185 7.478048
53.190 7.212867
53.195 7.126801
53.200 7.582277
53.205 7.857485
53.210 8.002818
53.215 8.02667
53.220 7.794034
53.225 7.998115
53.230 8.388903
53.235 8.382565
53.240 8.522754
53.245 8.241247
53.250 8.376974
53.255 8.47234
53.260 8.072454
53.265 7.616955
53.270 7.657876
53.275 7.781235
53.280 7.656425
53.285 7.398148
53.290 7.408344
53.295 7.80794
53.300 7.829207
53.305 7.717328
53.310 7.878292
53.315 7.80818
53.320 7.856216
53.325 7.712509
53.330 8.232793
53.335 8.472009
53.340 8.186138
53.345 7.971684
53.350 7.871847
53.355 7.793175
53.360 7.5404
53.365 6.995161
53.370 7.068463
53.375 7.35271
53.380 7.581363
53.385 8.624166
53.390 9.000368
53.395 9.008564
53.400 9.422023
53.405 9.782887
53.410 10.169199
53.415 9.935546
53.420 9.440382
53.425 9.54291
53.430 9.618746
53.435 8.659736
53.440 8.068182
53.445 7.906566
53.450 8.280185
53.455 8.157301
53.460 8.247186
53.465 8.405077
53.470 8.769216
53.475 8.653546
53.480 8.533633
53.485 8.590766
53.490 9.017002
53.495 8.927518
53.500 8.669924
53.505 8.634239
53.510 8.864553
53.515 8.675606
53.520 7.870306
53.525 7.398286
53.530 7.104218
53.535 7.080451
53.540 7.115954
53.545 7.140938
53.550 6.956602
53.555 7.214537
53.560 7.918743
53.565 8.160119
53.570 8.125588
53.575 8.169394
53.580 8.05201
53.585 8.551919
53.590 8.415501
53.595 7.918656
53.600 7.983983
53.605 7.892997
53.610 8.11642
53.615 8.5952
53.620 8.525433
53.625 8.968044
53.630 9.112721
53.635 9.040403
53.640 9.535439
53.645 9.273015
53.650 8.945861
53.655 8.97979
53.660 8.797635
53.665 8.882383
53.670 8.920293
53.675 8.39868
53.680 8.558743
53.685 8.573533
53.690 8.623944
53.695 8.349836
53.700 8.394827
53.705 8.51517
53.710 8.641409
53.715 8.596416
53.720 8.76677
53.725 8.698052
53.730 8.841992
53.735 8.591778
53.740 8.705367
53.745 8.834949
53.750 8.938753
53.755 8.84667
53.760 8.777711
53.765 8.843282
53.770 9.014378
53.775 8.660104
53.780 8.29192
53.785 8.431925
53.790 8.644508
53.795 8.743851
53.800 9.210318
53.805 9.261342
53.810 9.464558
53.815 9.303949
53.820 9.027802
53.825 9.201369
53.830 8.627349
53.835 7.969276
53.840 8.38113
53.845 8.319139
53.850 8.046632
53.855 8.373926
53.860 8.450233
53.865 8.987223
53.870 9.273487
53.875 9.346365
53.880 9.524517
53.885 9.684931
53.890 9.379174
53.895 9.478656
53.900 9.444921
53.905 9.379525
53.910 9.323773
53.915 9.571671
53.920 9.445583
53.925 9.264013
53.930 8.987022
53.935 9.105919
53.940 9.230164
53.945 9.30987
53.950 9.463663
53.955 9.623636
53.960 10.111666
53.965 10.157125
53.970 9.977809
53.975 9.72898
53.980 9.172108
53.985 8.927786
53.990 8.803782
53.995 8.612026
54.000 8.684522
54.005 8.555208
54.010 8.352242
54.015 8.766645
54.020 9.024418
54.025 8.967783
54.030 8.817721
54.035 8.848918
54.040 9.174455
54.045 9.074263
54.050 8.911654
54.055 8.831544
54.060 9.632479
54.065 10.093103
54.070 10.152877
54.075 10.314454
54.080 10.656066
54.085 10.784214
54.090 10.43046
54.095 9.481914
54.100 8.909976
54.105 8.894216
54.110 8.916634
54.115 9.011698
54.120 8.790101
54.125 8.925557
54.130 8.963697
54.135 9.225385
54.140 8.859009
54.145 8.663851
54.150 8.935544
54.155 9.334729
54.160 9.135037
54.165 9.136576
54.170 9.144036
54.175 8.939531
54.180 8.701853
54.185 7.783256
54.190 7.413183
54.195 7.560743
54.200 7.644769
54.205 7.577986
54.210 7.851695
54.215 8.220925
54.220 8.9057
54.225 9.541524
54.230 9.743256
54.235 10.153851
54.240 10.480126
54.245 10.315423
54.250 10.158927
54.255 9.87237
54.260 9.353919
54.265 8.990176
54.270 8.64568
54.275 8.580128
54.280 8.575198
54.285 8.830878
54.290 9.018205
54.295 9.276548
54.300 9.144562
54.305 9.016406
54.310 9.196561
54.315 9.186475
54.320 8.717376
54.325 9.046841
54.330 9.011734
54.335 9.146407
54.340 9.235152
54.345 9.057236
54.350 9.260352
54.355 9.508622
54.360 9.227371
54.365 9.311468
54.370 9.318763
54.375 9.179365
54.380 8.856949
54.385 8.596671
54.390 8.540585
54.395 8.97569
54.400 8.998995
54.405 8.935996
54.410 8.888523
54.415 9.466648
54.420 9.855749
54.425 9.833372
54.430 10.009712
54.435 9.988979
54.440 10.113564
54.445 10.175595
54.450 10.040772
54.455 9.764643
54.460 9.327627
54.465 8.737109
54.470 8.999835
54.475 9.114282
54.480 9.366933
54.485 8.766516
54.490 8.812162
54.495 8.882108
54.500 9.012449
54.505 8.498771
54.510 8.849911
54.515 8.578629
54.520 8.604473
54.525 8.659571
54.530 8.615811
54.535 8.827182
54.540 8.80819
54.545 8.301441
54.550 8.601274
54.555 9.035193
54.560 9.247044
54.565 9.327928
54.570 9.141675
54.575 9.732841
54.580 9.678969
54.585 9.484833
54.590 9.364627
54.595 9.421066
54.600 9.484665
54.605 9.810909
54.610 9.930223
54.615 10.034749
54.620 9.986253
54.625 10.011828
54.630 9.898832
54.635 9.702671
54.640 8.996575
54.645 8.640445
54.650 9.039663
54.655 8.897811
54.660 9.19837
54.665 9.441498
54.670 9.514455
54.675 10.355828
54.680 10.570044
54.685 10.576657
54.690 10.314503
54.695 9.496891
54.700 9.352369
54.705 9.433825
54.710 9.214447
54.715 9.020516
54.720 8.912683
54.725 9.156664
54.730 9.346681
54.735 9.612419
54.740 9.503907
54.745 9.023049
54.750 9.456442
54.755 9.546848
54.760 9.664736
54.765 9.837345
54.770 9.728624
54.775 9.693962
54.780 9.939226
54.785 10.126795
54.790 10.053299
54.795 10.17389
54.800 9.88487
54.805 9.570942
54.810 9.80251
54.815 9.50049
54.820 9.094998
54.825 9.214138
54.830 9.306722
54.835 9.425475
54.840 9.622924
54.845 9.465187
54.850 9.776048
54.855 9.941781
54.860 10.116396
54.865 9.972349
54.870 9.856613
54.875 10.17793
54.880 10.276712
54.885 10.159175
54.890 10.091673
54.895 10.119591
54.900 10.618869
54.905 10.624222
54.910 10.276912
54.915 9.852771
54.920 9.738532
54.925 9.244066
54.930 8.62531
54.935 8.170132
54.940 8.559441
54.945 8.728185
54.950 8.834464
54.955 9.427953
54.960 9.833815
54.965 10.109274
54.970 10.17576
54.975 10.367717
54.980 10.366248
54.985 10.728018
54.990 10.351604
54.995 10.526814
55.000 10.787434
55.005 10.672282
55.010 10.521115
55.015 10.944714
55.020 10.749968
55.025 10.90743
55.030 10.905732
55.035 10.911418
55.040 11.018377
55.045 10.554238
55.050 10.686724
55.055 11.108732
55.060 11.356862
55.065 10.873147
55.070 10.898298
55.075 10.762091
55.080 10.888681
55.085 10.363857
55.090 9.652288
55.095 9.838531
55.100 9.965405
55.105 10.037403
55.110 9.922693
55.115 9.812242
55.120 10.194738
55.125 10.441914
55.130 10.34823
55.135 10.564189
55.140 10.39583
55.145 10.502899
55.150 10.634661
55.155 10.546168
55.160 10.296307
55.165 9.841535
55.170 9.105577
55.175 9.596221
55.180 9.874796
55.185 9.837562
55.190 9.918984
55.195 9.626317
55.200 9.868076
55.205 10.799747
55.210 10.620054
55.215 10.463385
55.220 10.211267
55.225 10.29737
55.230 11.039741
55.235 10.966907
55.240 10.637758
55.245 10.360732
55.250 10.293659
55.255 10.395702
55.260 9.645875
55.265 9.182735
55.270 9.230514
55.275 9.388324
55.280 9.392274
55.285 9.758328
55.290 9.917657
55.295 10.229621
55.300 10.377604
55.305 10.175167
55.310 10.05544
55.315 10.456748
55.320 10.538462
55.325 10.861004
55.330 11.346581
55.335 11.154086
55.340 10.88752
55.345 10.994812
55.350 11.172409
55.355 10.925225
55.360 10.178193
55.365 9.79369
55.370 9.834775
55.375 10.025954
55.380 9.987984
55.385 9.548197
55.390 9.513552
55.395 9.761118
55.400 10.060616
55.405 10.7945
55.410 11.09066
55.415 10.868178
55.420 10.886512
55.425 11.134457
55.430 11.436438
55.435 10.628438
55.440 9.86354
55.445 9.692539
55.450 9.788101
55.455 9.883501
55.460 9.715297
55.465 9.761861
55.470 10.144346
55.475 10.099575
55.480 10.05171
55.485 9.937727
55.490 9.974228
55.495 9.677066
55.500 9.817724
55.505 10.142453
55.510 10.250788
55.515 10.362005
55.520 10.703488
55.525 10.783117
55.530 10.873971
55.535 11.169009
55.540 11.108784
55.545 11.147738
55.550 10.988587
55.555 11.162859
55.560 11.021043
55.565 11.050849
55.570 10.634029
55.575 11.068934
55.580 11.05693
55.585 10.791178
55.590 10.291506
55.595 10.440997
55.600 10.451252
55.605 10.578372
55.610 10.708237
55.615 10.762061
55.620 10.583159
55.625 10.899819
55.630 10.988941
55.635 10.771211
55.640 10.663972
55.645 10.530098
55.650 10.364307
55.655 10.846242
55.660 10.714592
55.665 10.470677
55.670 10.038731
55.675 9.844187
55.680 10.087741
55.685 10.566058
55.690 10.498178
55.695 10.324732
55.700 10.947263
55.705 11.084092
55.710 10.704498
55.715 10.272263
55.720 9.838191
55.725 9.409643
55.730 9.594119
55.735 9.189567
55.740 9.349906
55.745 9.62966
55.750 9.828485
55.755 10.210474
55.760 10.582035
55.765 10.447584
55.770 10.888876
55.775 10.9047
55.780 10.814498
55.785 11.106691
55.790 11.190529
55.795 11.185232
55.800 11.345607
55.805 11.357053
55.810 11.42685
55.815 11.560081
55.820 11.394187
55.825 11.301551
55.830 11.324804
55.835 11.093997
55.840 11.730469
55.845 12.411761
55.850 12.603018
55.855 12.236159
55.860 12.153794
55.865 12.118048
55.870 12.11806
55.875 11.279101
55.880 10.711081
55.885 10.594788
55.890 10.910576
55.895 11.120322
55.900 10.725707
55.905 10.447849
55.910 10.609788
55.915 10.793217
55.920 11.112602
55.925 11.213255
55.930 11.304499
55.935 12.195281
55.940 13.049609
55.945 12.881961
55.950 13.200962
55.955 13.345153
55.960 13.525083
55.965 13.212267
55.970 12.611281
55.975 12.368595
55.980 12.366402
55.985 11.920883
55.990 11.595003
55.995 11.234317
56.000 11.634666
56.005 11.687588
56.010 11.734838
56.015 12.065899
56.020 11.729981
56.025 11.625772
56.030 11.519487
56.035 11.509857
56.040 11.672993
56.045 11.753899
56.050 11.420342
56.055 11.743245
56.060 12.003336
56.065 12.068767
56.070 11.981348
56.075 12.137379
56.080 11.839511
56.085 12.094708
56.090 11.846748
56.095 11.790842
56.100 11.58912
56.105 11.208091
56.110 10.623591
56.115 11.01985
56.120 10.758512
56.125 11.006346
56.130 10.629356
56.135 10.673041
56.140 10.826269
56.145 11.206811
56.150 10.670088
56.155 10.690937
56.160 10.562244
56.165 10.606912
56.170 10.961898
56.175 10.931061
56.180 10.536798
56.185 10.493512
56.190 10.142083
56.195 10.483919
56.200 10.834785
56.205 10.775549
56.210 10.874731
56.215 10.602904
56.220 11.487088
56.225 12.195258
56.230 12.607395
56.235 12.663898
56.240 12.586527
56.245 12.726696
56.250 13.05947
56.255 12.915056
56.260 12.709617
56.265 12.272292
56.270 12.009975
56.275 12.021871
56.280 11.826522
56.285 11.322077
56.290 11.091091
56.295 11.041742
56.300 11.348635
56.305 11.855549
56.310 11.816983
56.315 11.878839
56.320 11.855695
56.325 11.816529
56.330 11.497079
56.335 10.942575
56.340 10.936831
56.345 11.207051
56.350 11.447025
56.355 11.635202
56.360 11.599764
56.365 12.08702
56.370 12.225778
56.375 12.01604
56.380 11.793824
56.385 11.758178
56.390 11.534649
56.395 11.57841
56.400 11.433232
56.405 11.109488
56.410 10.986505
56.415 10.97368
56.420 11.091595
56.425 11.209608
56.430 11.145432
56.435 10.668889
56.440 11.12794
56.445 11.563717
56.450 11.439536
56.455 11.005203
56.460 11.183247
56.465 11.585195
56.470 11.67569
56.475 11.28308
56.480 10.962118
56.485 11.408038
56.490 11.816573
56.495 11.846712
56.500 11.206903
56.505 11.652024
56.510 11.644206
56.515 12.20131
56.520 12.366772
56.525 12.430135
56.530 13.09046
56.535 13.567453
56.540 13.413075
56.545 13.237629
56.550 12.906691
56.555 12.84536
56.560 12.546523
56.565 11.576775
56.570 11.658568
56.575 12.205998
56.580 12.585741
56.585 12.384758
56.590 12.054892
56.595 12.399736
56.600 12.843422
56.605 12.914032
56.610 12.419678
56.615 12.495121
56.620 12.754894
56.625 12.740638
56.630 12.484145
56.635 11.927849
56.640 11.917181
56.645 11.718721
56.650 11.190894
56.655 10.867691
56.660 10.624718
56.665 10.842518
56.670 10.900428
56.675 10.854958
56.680 11.113172
56.685 11.111205
56.690 11.506517
56.695 11.996048
56.700 12.239922
56.705 12.51611
56.710 12.380285
56.715 12.26081
56.720 12.383002
56.725 12.303972
56.730 12.138963
56.735 12.543903
56.740 12.709048
56.745 12.893503
56.750 13.568197
56.755 14.003427
56.760 14.45602
56.765 14.748737
56.770 14.397784
56.775 14.118414
56.780 13.368684
56.785 13.196455
56.790 13.531671
56.795 13.166883
56.800 12.769816
56.805 12.846183
56.810 13.413717
56.815 13.801282
56.820 13.293385
56.825 12.628618
56.830 12.542629
56.835 12.411482
56.840 12.709414
56.845 12.181787
56.850 12.117889
56.855 11.949187
56.860 11.760374
56.865 11.558799
56.870 11.458069
56.875 11.236866
56.880 11.275195
56.885 11.511115
56.890 11.964157
56.895 12.320208
56.900 13.104425
56.905 13.534717
56.910 13.307142
56.915 13.312042
56.920 13.117826
56.925 13.194263
56.930 13.367126
56.935 12.900388
56.940 12.4646
56.945 12.552032
56.950 12.524958
56.955 12.533202
56.960 12.399614
56.965 12.302439
56.970 12.32599
56.975 12.679289
56.980 12.891368
56.985 12.561275
56.990 12.464472
56.995 11.909522
57.000 11.42126
57.005 11.421382
57.010 10.840321
57.015 10.929195
57.020 11.358039
57.025 11.136004
57.030 11.271856
57.035 11.48104
57.040 11.369843
57.045 11.629886
57.050 11.330799
57.055 11.139359
57.060 11.508801
57.065 11.680083
57.070 11.847387
57.075 12.09577
57.080 11.921989
57.085 11.938571
57.090 12.040942
57.095 11.974002
57.100 12.115206
57.105 12.19237
57.110 12.313221
57.115 13.021543
57.120 13.264936
57.125 13.080133
57.130 12.867344
57.135 12.487224
57.140 12.619225
57.145 12.33857
57.150 11.949922
57.155 12.133579
57.160 12.323843
57.165 12.581877
57.170 12.596796
57.175 12.201845
57.180 12.041354
57.185 11.809998
57.190 11.955382
57.195 11.739978
57.200 11.978193
57.205 12.427193
57.210 13.112774
57.215 13.029356
57.220 13.590003
57.225 13.403527
57.230 13.509367
57.235 13.417555
57.240 13.241371
57.245 12.709961
57.250 12.681578
57.255 11.808008
57.260 11.793273
57.265 11.773853
57.270 11.36037
57.275 11.075243
57.280 10.972614
57.285 11.057899
57.290 11.764493
57.295 11.983458
57.300 12.095625
57.305 12.324814
57.310 12.491632
57.315 12.706284
57.320 13.153502
57.325 13.225311
57.330 13.450728
57.335 13.569861
57.340 13.856995
57.345 14.144757
57.350 14.891887
57.355 14.500834
57.360 13.967906
57.365 13.814088
57.370 13.746848
57.375 13.501377
57.380 13.035107
57.385 12.287578
57.390 12.234612
57.395 12.272243
57.400 12.481133
57.405 12.46284
57.410 12.56503
57.415 12.994446
57.420 13.205018
57.425 13.299866
57.430 12.922713
57.435 12.841918
57.440 13.242862
57.445 13.363699
57.450 12.808717
57.455 12.726945
57.460 12.750954
57.465 12.905229
57.470 12.570135
57.475 12.121259
57.480 12.027692
57.485 12.577574
57.490 12.985738
57.495 13.205544
57.500 13.306505
57.505 13.160682
57.510 13.587719
57.515 13.745522
57.520 13.648301
57.525 13.620901
57.530 13.529366
57.535 14.015097
57.540 14.27956
57.545 13.693897
57.550 13.541279
57.555 13.299977
57.560 12.750222
57.565 12.766184
57.570 12.506501
57.575 12.384767
57.580 12.885861
57.585 13.073392
57.590 13.413102
57.595 14.008492
57.600 14.297373
57.605 14.386942
57.610 14.868311
57.615 14.688304
57.620 14.597402
57.625 14.452461
57.630 13.981797
57.635 13.870267
57.640 13.914601
57.645 14.056576
57.650 13.983736
57.655 14.18
57.660 15.271065
57.665 15.439149
57.670 15.054762
57.675 14.430061
57.680 13.847761
57.685 14.150005
57.690 14.146652
57.695 13.399879
57.700 13.62827
57.705 13.536884
57.710 13.902006
57.715 13.92949
57.720 13.364736
57.725 12.789285
57.730 11.990163
57.735 11.84671
57.740 12.146622
57.745 12.34324
57.750 12.584491
57.755 13.099668
57.760 13.860603
57.765 13.832569
57.770 13.85098
57.775 13.293783
57.780 13.064952
57.785 12.971485
57.790 12.798255
57.795 12.363585
57.800 12.776886
57.805 13.655755
57.810 14.226214
57.815 14.37819
57.820 14.050567
57.825 13.946987
57.830 13.983799
57.835 14.232901
57.840 14.068377
57.845 13.797487
57.850 13.900441
57.855 13.916633
57.860 14.04509
57.865 14.376206
57.870 14.137856
57.875 14.184026
57.880 14.017215
57.885 13.510189
57.890 13.472493
57.895 13.429012
57.900 12.994953
57.905 12.67792
57.910 12.171915
57.915 12.530923
57.920 12.907447
57.925 12.995476
57.930 13.372558
57.935 13.729598
57.940 13.505177
57.945 13.308496
57.950 13.022626
57.955 12.775361
57.960 12.906692
57.965 12.429975
57.970 11.998442
57.975 12.374479
57.980 13.101192
57.985 13.489285
57.990 13.715361
57.995 13.465797
58.000 13.200857
58.005 13.163775
58.010 13.185887
58.015 12.881436
58.020 12.95807
58.025 12.935773
58.030 13.368916
58.035 13.506501
58.040 13.840278
58.045 14.387576
58.050 14.688635
58.055 14.868165
58.060 14.831064
58.065 14.519768
58.070 14.491828
58.075 14.237327
58.080 14.315039
58.085 14.280874
58.090 14.398539
58.095 14.67901
58.100 15.042422
58.105 14.921854
58.110 14.394385
58.115 13.363121
58.120 13.226005
58.125 12.849627
58.130 12.344305
58.135 13.004751
58.140 13.691343
58.145 14.02365
58.150 14.368271
58.155 14.171589
58.160 14.0998
58.165 14.146008
58.170 13.223193
58.175 12.592972
58.180 11.653383
58.185 11.438208
58.190 11.329136
58.195 11.203899
58.200 11.154193
58.205 11.609809
58.210 12.144075
58.215 13.028341
58.220 13.018161
58.225 12.580409
58.230 12.713373
58.235 13.213944
58.240 13.011875
58.245 13.130754
58.250 13.565653
58.255 14.140899
58.260 14.34969
58.265 13.628348
58.270 13.048192
58.275 12.610916
58.280 12.258315
58.285 12.014709
58.290 12.122105
58.295 12.935985
58.300 13.525031
58.305 13.916989
58.310 14.329619
58.315 14.866083
58.320 14.430345
58.325 14.231318
58.330 13.843477
58.335 14.363495
58.340 13.872149
58.345 13.982617
58.350 13.463834
58.355 13.941965
58.360 13.765126
58.365 13.826405
58.370 13.999959
58.375 14.293508
58.380 14.22728
58.385 14.533315
58.390 14.465684
58.395 14.711707
58.400 15.043363
58.405 14.927021
58.410 14.426105
58.415 14.265504
58.420 13.960396
58.425 13.347621
58.430 13.165145
58.435 12.722291
58.440 12.620892
58.445 12.813031
58.450 12.945737
58.455 13.128245
58.460 13.707869
58.465 13.651768
58.470 13.403123
58.475 13.94996
58.480 14.205931
58.485 14.846224
58.490 15.497866
58.495 15.488966
58.500 15.995872
58.505 16.064991
58.510 15.917006
58.515 16.071405
58.520 15.450717
58.525 15.361524
58.530 15.851242
58.535 15.542714
58.540 15.215925
58.545 15.012581
58.550 14.605976
58.555 14.634731
58.560 14.164836
58.565 13.766814
58.570 13.449983
58.575 13.304523
58.580 12.94233
58.585 12.970962
58.590 12.331496
58.595 12.278114
58.600 12.993916
58.605 13.915556
58.610 14.105692
58.615 14.120809
58.620 14.026626
58.625 14.719124
58.630 14.425209
58.635 13.746517
58.640 13.978408
58.645 14.058592
58.650 14.43177
58.655 14.7925
58.660 14.913876
58.665 14.455349
58.670 14.126278
58.675 13.364342
58.680 13.232514
58.685 12.999478
58.690 12.976025
58.695 13.765577
58.700 14.524475
58.705 14.744552
58.710 15.020704
58.715 15.33439
58.720 15.361153
58.725 15.340916
58.730 14.88801
58.735 14.666331
58.740 14.971518
58.745 15.100929
58.750 15.331396
58.755 15.298119
58.760 15.35051
58.765 15.011707
58.770 15.124875
58.775 14.572212
58.780 14.125844
58.785 14.044335
58.790 13.998306
58.795 13.968064
58.800 13.771935
58.805 13.901014
58.810 14.062388
58.815 14.306001
58.820 14.430153
58.825 14.530495
58.830 14.347549
58.835 14.140513
58.840 14.01537
58.845 14.169594
58.850 14.073148
58.855 13.630569
58.860 13.120254
58.865 13.253818
58.870 13.532793
58.875 14.041412
58.880 14.029036
58.885 14.311714
58.890 14.726023
58.895 15.646285
58.900 15.682176
58.905 16.013773
58.910 15.785759
58.915 15.777841
58.920 15.632935
58.925 15.59519
58.930 14.69177
58.935 14.624042
58.940 14.510659
58.945 14.49633
58.950 14.461178
58.955 14.40861
58.960 14.731956
58.965 15.044804
58.970 15.023273
58.975 14.952424
58.980 14.710887
58.985 14.346345
58.990 13.831926
58.995 13.603946
59.000 13.28371
59.005 13.218547
59.010 14.476406
59.015 14.717812
59.020 15.332616
59.025 15.912398
59.030 16.17318
59.035 16.600117
59.040 16.999109
59.045 16.341959
59.050 16.525
59.055 16.363991
59.060 15.988981
59.065 16.085838
59.070 16.443398
59.075 16.422235
59.080 16.375538
59.085 16.196333
59.090 16.717112
59.095 16.92428
59.100 16.863247
59.105 16.237869
59.110 16.047764
59.115 15.705442
59.120 15.622335
59.125 15.196779
59.130 15.195564
59.135 14.890416
59.140 14.834138
59.145 14.765356
59.150 14.860313
59.155 14.841328
59.160 15.000294
59.165 14.930378
59.170 14.645234
59.175 14.712838
59.180 14.606719
59.185 14.709221
59.190 15.221911
59.195 15.008289
59.200 15.105519
59.205 15.723351
59.210 15.844184
59.215 15.36191
59.220 14.860461
59.225 14.905499
59.230 15.184921
59.235 14.778743
59.240 14.355823
59.245 14.369555
59.250 14.893946
59.255 15.165847
59.260 14.666434
59.265 14.449667
59.270 14.657159
59.275 14.346014
59.280 13.973083
59.285 14.123551
59.290 14.243207
59.295 14.522945
59.300 15.432603
59.305 15.67395
59.310 16.130333
59.315 16.505323
59.320 15.835876
59.325 15.558303
59.330 15.148233
59.335 14.338656
59.340 14.883801
59.345 15.519807
59.350 16.244627
59.355 16.807308
59.360 17.593443
59.365 18.320843
59.370 18.634504
59.375 18.14259
59.380 17.551174
59.385 17.152502
59.390 17.741516
59.395 16.980383
59.400 16.576633
59.405 16.27581
59.410 16.415569
59.415 17.074928
59.420 17.184303
59.425 17.031153
59.430 17.069172
59.435 17.364151
59.440 17.509933
59.445 17.340643
59.450 17.089737
59.455 17.545092
59.460 17.826191
59.465 17.95883
59.470 18.311199
59.475 18.553558
59.480 18.251114
59.485 18.219151
59.490 18.182604
59.495 18.457926
59.500 17.955956
59.505 17.990278
59.510 18.541895
59.515 18.796724
59.520 18.752991
59.525 18.252285
59.530 17.80513
59.535 17.832941
59.540 17.501867
59.545 17.110237
59.550 17.615753
59.555 17.999794
59.560 18.150528
59.565 18.549164
59.570 18.898987
59.575 18.690451
59.580 18.872807
59.585 19.166798
59.590 18.757919
59.595 18.29166
59.600 17.981375
59.605 17.628092
59.610 17.672997
59.615 17.341978
59.620 16.68124
59.625 17.119394
59.630 18.068403
59.635 18.32617
59.640 19.060427
59.645 19.529249
59.650 20.198441
59.655 20.199623
59.660 19.66136
59.665 19.45904
59.670 19.340523
59.675 19.632896
59.680 19.366741
59.685 18.920462
59.690 19.52153
59.695 19.726292
59.700 20.467825
59.705 20.902428
59.710 20.842705
59.715 20.897486
59.720 21.24028
59.725 21.329178
59.730 20.897135
59.735 20.127234
59.740 19.923573
59.745 19.933495
59.750 19.997681
59.755 19.730433
59.760 19.893703
59.765 20.482512
59.770 20.935921
59.775 20.819958
59.780 20.954651
59.785 21.101387
59.790 21.046713
59.795 20.524052
59.800 20.656021
59.805 20.506205
59.810 20.378321
59.815 20.655258
59.820 20.792301
59.825 20.835672
59.830 21.146904
59.835 21.403067
59.840 21.056772
59.845 21.049805
59.850 20.557863
59.855 20.449778
59.860 20.423767
59.865 20.435295
59.870 20.238422
59.875 20.12233
59.880 20.026184
59.885 19.710854
59.890 19.437529
59.895 20.064333
59.900 20.316431
59.905 20.249399
59.910 20.460737
59.915 21.12266
59.920 21.516853
59.925 22.015715
59.930 21.38706
59.935 21.077322
59.940 21.288807
59.945 21.029194
59.950 20.616936
59.955 20.433867
59.960 20.466896
59.965 20.570654
59.970 20.61834
59.975 20.108921
59.980 20.932117
59.985 21.720173
59.990 22.379778
59.995 22.580746
60.000 22.83564
60.005 23.156546
60.010 23.728485
60.015 23.261642
60.020 22.881519
60.025 22.397022
60.030 22.092018
60.035 22.092007
60.040 21.783863
60.045 21.63283
60.050 21.911154
60.055 22.001093
60.060 22.12673
60.065 22.698544
60.070 22.373363
60.075 22.701712
60.080 22.889969
60.085 22.473757
60.090 22.198812
60.095 22.24795
60.100 22.40764
60.105 23.034517
60.110 22.663391
60.115 22.52146
60.120 22.582413
60.125 22.468449
60.130 22.150497
60.135 21.328751
60.140 21.473749
60.145 21.639488
60.150 22.140669
60.155 22.431671
60.160 22.776207
60.165 22.720694
60.170 22.795101
60.175 21.96137
60.180 21.695486
60.185 21.544252
60.190 21.294344
60.195 21.204037
60.200 21.286739
60.205 20.649021
60.210 20.904531
60.215 21.086939
60.220 21.479136
60.225 21.799179
60.230 21.445244
60.235 21.589823
60.240 22.401489
60.245 22.93936
60.250 22.556555
60.255 21.771652
60.260 21.392269
60.265 21.641466
60.270 21.276932
60.275 21.057035
60.280 20.71097
60.285 21.233227
60.290 20.542858
60.295 20.384684
60.300 19.764198
60.305 19.929678
60.310 19.57695
60.315 19.480391
60.320 19.322519
60.325 19.538132
60.330 19.04101
60.335 19.630413
60.340 19.499435
60.345 19.207506
60.350 19.223722
60.355 18.821074
60.360 18.647699
60.365 18.40867
60.370 18.298752
60.375 18.627604
60.380 18.951687
60.385 18.659966
60.390 19.041225
60.395 19.398054
60.400 19.40476
60.405 19.367731
60.410 19.07305
60.415 19.021526
60.420 18.635155
60.425 18.468409
60.430 18.49341
60.435 19.005796
60.440 18.685453
60.445 18.760469
60.450 18.858952
60.455 19.071148
60.460 19.054403
60.465 18.991472
60.470 19.312843
60.475 19.523754
60.480 19.07299
60.485 18.506979
60.490 18.329056
60.495 18.157076
60.500 18.047581
60.505 18.028332
60.510 17.858671
60.515 18.086685
60.520 18.549498
60.525 18.61311
60.530 18.553818
60.535 18.173723
60.540 17.578049
60.545 17.433249
60.550 17.279509
60.555 17.035276
60.560 17.324259
60.565 16.984615
60.570 16.699581
60.575 17.239658
60.580 17.718998
60.585 17.888315
60.590 17.745312
60.595 17.698584
60.600 18.479328
60.605 18.270023
60.610 18.087673
60.615 17.4617
60.620 17.380156
60.625 17.415354
60.630 17.611694
60.635 17.534548
60.640 17.92433
60.645 17.601568
60.650 17.347193
60.655 17.147621
60.660 17.26335
60.665 17.02557
60.670 16.941614
60.675 16.512827
60.680 16.75041
60.685 17.435623
60.690 17.244404
60.695 17.120121
60.700 17.284412
60.705 17.305761
60.710 17.525478
60.715 17.24579
60.720 16.811977
60.725 16.927179
60.730 16.690594
60.735 16.666857
60.740 16.605206
60.745 16.972462
60.750 17.289133
60.755 17.735388
60.760 17.880232
60.765 18.050091
60.770 17.537163
60.775 17.353981
60.780 17.011448
60.785 16.647251
60.790 16.479214
60.795 16.005962
60.800 15.810675
60.805 16.141491
60.810 16.4105
60.815 16.499376
60.820 16.706083
60.825 16.77931
60.830 17.301483
60.835 17.614109
60.840 17.379749
60.845 18.106251
60.850 19.067865
60.855 19.014975
60.860 18.597469
60.865 18.889114
60.870 19.267628
60.875 19.059557
60.880 17.557846
60.885 16.396915
60.890 16.049902
60.895 16.040592
60.900 15.36074
60.905 14.863458
60.910 15.172616
60.915 15.377324
60.920 15.537815
60.925 15.983472
60.930 16.342554
60.935 16.630936
60.940 16.661301
60.945 16.316294
60.950 16.320316
60.955 16.032175
60.960 15.831141
60.965 15.543123
60.970 15.763221
60.975 15.853121
60.980 16.306475
60.985 16.723604
60.990 17.228823
60.995 17.155779
61.000 17.421206
61.005 17.135895
61.010 17.551159
61.015 17.780935
61.020 17.384306
61.025 16.877851
61.030 16.580069
61.035 16.021921
61.040 15.987187
61.045 15.426703
61.050 15.446472
61.055 15.726458
61.060 16.18268
61.065 16.866339
61.070 17.307665
61.075 17.221333
61.080 17.127058
61.085 16.894951
61.090 16.816776
61.095 17.01668
61.100 16.67165
61.105 16.632751
61.110 16.588034
61.115 16.79425
61.120 16.900225
61.125 16.742659
61.130 16.867521
61.135 16.850012
61.140 16.934008
61.145 16.994787
61.150 16.589682
61.155 16.21216
61.160 15.89239
61.165 16.183571
61.170 16.62196
61.175 15.860188
61.180 15.785601
61.185 15.965863
61.190 16.423119
61.195 16.940395
61.200 16.432056
61.205 16.213404
61.210 16.575729
61.215 16.593088
61.220 16.933863
61.225 17.187992
61.230 17.111769
61.235 16.863159
61.240 16.967829
61.245 17.129992
61.250 17.333509
61.255 17.057642
61.260 16.565115
61.265 16.259699
61.270 16.307764
61.275 15.866728
61.280 16.234827
61.285 16.409676
61.290 16.53756
61.295 16.875629
61.300 17.27556
61.305 17.252394
61.310 17.260695
61.315 16.489508
61.320 15.826093
61.325 15.729573
61.330 15.585221
61.335 15.013624
61.340 15.361567
61.345 15.943319
61.350 16.457996
61.355 16.524511
61.360 16.732725
61.365 16.72776
61.370 17.083048
61.375 16.703661
61.380 16.148684
61.385 16.347305
61.390 16.579737
61.395 16.407724
61.400 16.048725
61.405 15.576465
61.410 15.135419
61.415 15.486655
61.420 15.617515
61.425 15.123894
61.430 14.835
61.435 14.802429
61.440 15.163509
61.445 16.259666
61.450 15.988745
61.455 15.994791
61.460 16.530964
61.465 16.648243
61.470 16.829796
61.475 17.021416
61.480 16.46007
61.485 16.383936
61.490 16.43347
61.495 16.468203
61.500 16.901846
61.505 16.745787
61.510 16.072445
61.515 16.255394
61.520 16.266108
61.525 16.171423
61.530 15.812568
61.535 15.379854
61.540 15.753336
61.545 16.943689
61.550 17.195696
61.555 17.979973
61.560 17.6728
61.565 17.832682
61.570 17.874271
61.575 17.545158
61.580 17.178688
61.585 16.704132
61.590 15.836216
61.595 15.932681
61.600 16.110518
61.605 15.989013
61.610 16.382744
61.615 15.908332
61.620 15.78213
61.625 15.918942
61.630 15.836208
61.635 15.931248
61.640 16.155725
61.645 16.256866
61.650 16.206976
61.655 16.583633
61.660 16.572483
61.665 16.673937
61.670 17.174301
61.675 17.564186
61.680 17.446106
61.685 17.616034
61.690 17.264679
61.695 17.077927
61.700 17.045879
61.705 16.324787
61.710 15.758924
61.715 15.98867
61.720 15.767129
61.725 16.152292
61.730 16.381332
61.735 16.127331
61.740 16.182819
61.745 16.698029
61.750 16.127058
61.755 16.304821
61.760 16.219645
61.765 15.976986
61.770 15.632851
61.775 15.260839
61.780 14.970424
61.785 14.804956
61.790 14.659421
61.795 14.824932
61.800 14.96071
61.805 15.463341
61.810 15.992232
61.815 15.704559
61.820 16.883659
61.825 17.788609
61.830 18.001665
61.835 18.017538
61.840 17.908815
61.845 18.138826
61.850 18.271683
61.855 17.409441
61.860 16.348827
61.865 16.24785
61.870 16.199224
61.875 15.884999
61.880 15.628229
61.885 16.121769
61.890 16.779604
61.895 16.91119
61.900 17.274773
61.905 16.916222
61.910 17.340641
61.915 17.145857
61.920 16.639894
61.925 15.915558
61.930 15.568331
61.935 14.698504
61.940 14.795845
61.945 14.86625
61.950 14.789627
61.955 14.985436
61.960 15.290306
61.965 15.827675
61.970 16.688404
61.975 16.892719
61.980 16.682005
61.985 16.675777
61.990 16.635395
61.995 16.861338
62.000 16.374424
62.005 16.142698
62.010 16.578766
62.015 16.46686
62.020 16.057749
62.025 15.654832
62.030 15.003078
62.035 15.324004
62.040 15.463856
62.045 15.7527
62.050 16.216537
62.055 16.73196
62.060 17.547035
62.065 18.048615
62.070 18.040028
62.075 17.365301
62.080 16.533964
62.085 16.463911
62.090 16.527472
62.095 16.339928
62.100 15.421707
62.105 15.216724
62.110 15.607234
62.115 15.648707
62.120 15.378676
62.125 15.178235
62.130 14.854343
62.135 14.947882
62.140 14.816586
62.145 14.62815
62.150 14.558792
62.155 14.577047
62.160 14.994901
62.165 15.634
62.170 16.403835
62.175 16.857094
62.180 16.748423
62.185 16.670998
62.190 16.735743
62.195 16.476242
62.200 16.455593
62.205 16.310965
62.210 16.089846
62.215 16.349506
62.220 15.83883
62.225 15.557093
62.230 15.555963
62.235 15.159711
62.240 14.708552
62.245 14.531336
62.250 14.2678
62.255 14.813636
62.260 14.812976
62.265 14.574495
62.270 14.707499
62.275 15.018498
62.280 15.159105
62.285 15.745628
62.290 16.227758
62.295 16.200733
62.300 16.507
62.305 17.018333
62.310 17.058887
62.315 16.765791
62.320 16.512331
62.325 16.382338
62.330 16.507593
62.335 16.404037
62.340 16.136124
62.345 16.580076
62.350 16.821831
62.355 16.795038
62.360 16.939121
62.365 17.313839
62.370 17.737051
62.375 17.786356
62.380 17.462645
62.385 17.418772
62.390 17.009001
62.395 16.822815
62.400 16.587585
62.405 16.220146
62.410 16.574013
62.415 16.575836
62.420 17.193562
62.425 17.658321
62.430 17.637354
62.435 17.630205
62.440 17.09487
62.445 16.695902
62.450 16.566475
62.455 16.445313
62.460 16.686115
62.465 17.135036
62.470 16.905661
62.475 17.167875
62.480 17.270603
62.485 17.466703
62.490 17.328463
62.495 16.943445
62.500 16.511791
62.505 16.656908
62.510 17.080238
62.515 16.908413
62.520 16.360456
62.525 16.189096
62.530 16.036852
62.535 16.267248
62.540 16.089382
62.545 15.749818
62.550 16.146015
62.555 16.51104
62.560 16.317646
62.565 16.499338
62.570 16.42412
62.575 16.715357
62.580 16.678074
62.585 16.256533
62.590 16.083694
62.595 16.085358
62.600 15.743023
62.605 15.226645
62.610 15.076263
62.615 14.811085
62.620 14.741375
62.625 15.307962
62.630 15.534804
62.635 16.048157
62.640 16.646563
62.645 17.092871
62.650 17.724283
62.655 17.354845
62.660 17.534348
62.665 18.068457
62.670 18.010557
62.675 17.89469
62.680 17.533588
62.685 17.321453
62.690 18.220196
62.695 17.855902
62.700 16.915937
62.705 16.647749
62.710 16.609159
62.715 16.830051
62.720 16.687994
62.725 16.389349
62.730 16.873491
62.735 17.741167
62.740 17.690971
62.745 17.927668
62.750 17.60784
62.755 17.364067
62.760 16.679659
62.765 15.876595
62.770 15.288345
62.775 15.556116
62.780 15.704213
62.785 15.610919
62.790 15.77031
62.795 16.563841
62.800 16.983511
62.805 17.374332
62.810 16.974142
62.815 16.789642
62.820 17.221754
62.825 17.417688
62.830 17.047562
62.835 17.10079
62.840 17.123728
62.845 16.796295
62.850 16.547304
62.855 16.658831
62.860 16.277296
62.865 15.935149
62.870 15.43983
62.875 15.350179
62.880 15.503215
62.885 15.69405
62.890 15.468462
62.895 16.113422
62.900 16.290976
62.905 16.312346
62.910 16.09691
62.915 16.331125
62.920 16.054541
62.925 15.572999
62.930 15.206321
62.935 15.916252
62.940 15.793498
62.945 16.131409
62.950 15.978157
62.955 15.94566
62.960 16.196163
62.965 16.410095
62.970 15.977906
62.975 16.424116
62.980 16.430603
62.985 16.893616
62.990 17.266897
62.995 17.290594
63.000 17.13575
63.005 17.35528
63.010 17.08692
63.015 16.450058
63.020 15.803847
63.025 15.54107
63.030 15.362876
63.035 15.747949
63.040 16.301241
63.045 15.969604
63.050 16.484991
63.055 16.774055
63.060 17.376209
63.065 17.898319
63.070 17.161394
63.075 16.318188
63.080 17.042137
63.085 16.917538
63.090 17.089203
63.095 16.445326
63.100 16.238781
63.105 16.648787
63.110 16.996603
63.115 17.204842
63.120 17.340986
63.125 17.373047
63.130 17.645054
63.135 17.560722
63.140 17.005363
63.145 16.390085
63.150 15.808383
63.155 16.078979
63.160 16.33753
63.165 16.377159
63.170 16.973242
63.175 17.680393
63.180 18.106064
63.185 17.807623
63.190 17.72217
63.195 17.435078
63.200 17.150908
63.205 16.340338
63.210 15.770529
63.215 15.810965
63.220 16.105371
63.225 15.8842
63.230 16.116611
63.235 16.460627
63.240 16.854502
63.245 16.955343
63.250 16.973108
63.255 17.86306
63.260 18.630085
63.265 18.521967
63.270 17.854782
63.275 17.584976
63.280 18.069416
63.285 18.243484
63.290 17.48786
63.295 16.815411
63.300 16.556873
63.305 17.270826
63.310 17.703842
63.315 18.106466
63.320 18.311357
63.325 18.241367
63.330 18.337404
63.335 18.294634
63.340 17.965614
63.345 17.551399
63.350 16.722355
63.355 16.227594
63.360 16.430803
63.365 16.547773
63.370 17.054321
63.375 17.357399
63.380 17.517096
63.385 17.61993
63.390 17.87048
63.395 17.58639
63.400 17.453178
63.405 17.620407
63.410 18.034973
63.415 17.57206
63.420 17.282932
63.425 16.970819
63.430 16.611485
63.435 16.452261
63.440 15.304121
63.445 14.800183
63.450 15.485958
63.455 15.79957
63.460 15.477283
63.465 15.970658
63.470 16.62253
63.475 17.24869
63.480 17.010086
63.485 17.051174
63.490 17.247717
63.495 17.644894
63.500 17.883362
63.505 17.59697
63.510 17.363153
63.515 17.757353
63.520 17.326305
63.525 16.912851
63.530 16.926144
63.535 16.663307
63.540 17.036049
63.545 17.256618
63.550 17.012897
63.555 16.969084
63.560 17.261843
63.565 17.381588
63.570 17.15785
63.575 17.010197
63.580 16.784489
63.585 16.655409
63.590 16.883863
63.595 17.052416
63.600 17.153646
63.605 17.327312
63.610 16.826595
63.615 16.810493
63.620 17.120367
63.625 17.231049
63.630 17.49456
63.635 17.56209
63.640 17.223005
63.645 17.593971
63.650 17.296911
63.655 16.921091
63.660 17.135349
63.665 16.715322
63.670 16.500193
63.675 16.43387
63.680 16.405529
63.685 16.592007
63.690 16.835741
63.695 16.74087
63.700 17.210796
63.705 17.728582
63.710 18.360193
63.715 18.236279
63.720 18.012014
63.725 17.625711
63.730 17.622429
63.735 17.395014
63.740 16.900108
63.745 16.095448
63.750 15.944901
63.755 15.997758
63.760 16.030846
63.765 15.741572
63.770 15.131559
63.775 15.008358
63.780 15.463567
63.785 16.42861
63.790 17.022577
63.795 17.265514
63.800 17.408554
63.805 17.322704
63.810 17.23378
63.815 16.779182
63.820 16.139921
63.825 15.721013
63.830 15.528946
63.835 15.620432
63.840 16.32725
63.845 16.484928
63.850 16.849386
63.855 17.163652
63.860 17.259583
63.865 16.992167
63.870 16.48888
63.875 16.272425
63.880 16.464022
63.885 16.553837
63.890 16.439514
63.895 16.611044
63.900 16.941084
63.905 17.3652
63.910 17.181374
63.915 17.058325
63.920 17.508894
63.925 17.674458
63.930 17.777372
63.935 17.734573
63.940 17.745565
63.945 18.503826
63.950 18.94611
63.955 18.158447
63.960 17.62993
63.965 17.422819
63.970 17.501038
63.975 17.728151
63.980 17.650288
63.985 17.548447
63.990 18.039097
63.995 18.565622
64.000 19.195646
64.005 19.427715
64.010 18.991287
64.015 19.025681
64.020 19.317251
64.025 20.304235
64.030 20.182434
64.035 19.621279
64.040 19.231945
64.045 19.357943
64.050 18.50103
64.055 17.469328
64.060 16.1894
64.065 16.070208
64.070 16.466366
64.075 16.797874
64.080 16.547173
64.085 16.920809
64.090 16.824371
64.095 16.862764
64.100 16.532928
64.105 15.992708
64.110 15.916715
64.115 16.53853
64.120 17.435511
64.125 17.975798
64.130 17.934736
64.135 18.117437
64.140 18.203573
64.145 18.089993
64.150 17.709501
64.155 16.723171
64.160 16.452978
64.165 16.296513
64.170 16.723352
64.175 16.806793
64.180 16.681772
64.185 16.363449
64.190 16.758617
64.195 17.094519
64.200 17.56953
64.205 17.244587
64.210 17.141785
64.215 17.575413
64.220 18.073906
64.225 18.065809
64.230 18.353783
64.235 18.121826
64.240 18.227264
64.245 17.769096
64.250 17.530983
64.255 17.242994
64.260 17.107887
64.265 17.258625
64.270 17.528364
64.275 17.434122
64.280 17.681467
64.285 17.576654
64.290 17.988289
64.295 18.144398
64.300 17.409197
64.305 17.36725
64.310 17.563908
64.315 17.534399
64.320 17.408527
64.325 17.399075
64.330 16.89645
64.335 17.298857
64.340 17.404135
64.345 17.58695
64.350 17.826376
64.355 18.515059
64.360 18.361368
64.365 19.010935
64.370 18.811152
64.375 18.649385
64.380 19.036486
64.385 19.254269
64.390 18.824194
64.395 18.661594
64.400 17.811657
64.405 17.901388
64.410 18.032223
64.415 17.694191
64.420 17.023037
64.425 17.254509
64.430 18.114004
64.435 18.627247
64.440 18.728901
64.445 18.705528
64.450 18.31369
64.455 18.152685
64.460 18.085518
64.465 17.973572
64.470 17.776167
64.475 17.36532
64.480 17.341848
64.485 18.06748
64.490 18.601799
64.495 18.645205
64.500 18.88003
64.505 19.036362
64.510 19.431976
64.515 19.621651
64.520 19.053066
64.525 18.750706
64.530 18.45586
64.535 17.788683
64.540 18.04143
64.545 18.230152
64.550 18.112118
64.555 18.457479
64.560 18.596367
64.565 18.825745
64.570 18.897003
64.575 18.518894
64.580 17.87343
64.585 18.115477
64.590 18.13719
64.595 17.884901
64.600 16.952663
64.605 16.77545
64.610 16.775993
64.615 17.070847
64.620 16.874834
64.625 16.922335
64.630 17.148563
64.635 17.772131
64.640 18.280054
64.645 18.009075
64.650 17.422459
64.655 17.125807
64.660 16.883369
64.665 16.86182
64.670 16.588118
64.675 16.271458
64.680 17.214235
64.685 18.079926
64.690 18.341528
64.695 18.802181
64.700 19.349957
64.705 19.79266
64.710 20.269911
64.715 20.625383
64.720 20.526745
64.725 20.639364
64.730 20.575474
64.735 20.374969
64.740 19.881725
64.745 19.122211
64.750 18.517433
64.755 18.917141
64.760 18.300205
64.765 18.23374
64.770 18.499748
64.775 19.195875
64.780 19.54376
64.785 19.570812
64.790 19.172918
64.795 19.844833
64.800 19.410103
64.805 19.325277
64.810 19.282173
64.815 19.453009
64.820 19.485373
64.825 19.45204
64.830 19.62529
64.835 20.405592
64.840 20.092325
64.845 20.111876
64.850 20.697746
64.855 20.810257
64.860 21.16647
64.865 20.745682
64.870 20.262468
64.875 20.682554
64.880 20.712168
64.885 19.820822
64.890 19.653772
64.895 19.714535
64.900 19.698149
64.905 19.763748
64.910 19.12174
64.915 18.834837
64.920 18.863941
64.925 18.542784
64.930 18.249134
64.935 18.605835
64.940 18.933975
64.945 19.006617
64.950 18.863306
64.955 18.822962
64.960 18.648991
64.965 18.644995
64.970 19.2822
64.975 19.437784
64.980 20.375662
64.985 21.514168
64.990 22.211676
64.995 22.872818
65.000 23.101484
65.005 22.023348
65.010 21.959688
65.015 22.037506
65.020 22.50839
65.025 22.759253
65.030 22.687408
65.035 22.984838
65.040 23.271149
65.045 22.987055
65.050 22.446877
65.055 21.630014
65.060 21.562963
65.065 21.564421
65.070 21.46003
65.075 21.700827
65.080 22.106333
65.085 22.593769
65.090 22.358505
65.095 22.475389
65.100 22.797785
65.105 22.988577
65.110 23.022188
65.115 22.698332
65.120 21.928593
65.125 22.008591
65.130 22.401705
65.135 22.051493
65.140 21.558954
65.145 21.179676
65.150 21.436464
65.155 21.606031
65.160 21.494091
65.165 21.127337
65.170 21.641844
65.175 22.50021
65.180 22.833576
65.185 23.251038
65.190 23.63689
65.195 23.930656
65.200 24.100576
65.205 23.760059
65.210 23.253218
65.215 22.569519
65.220 22.188059
65.225 22.187181
65.230 21.874449
65.235 21.354488
65.240 21.530186
65.245 22.018167
65.250 23.085827
65.255 23.291328
65.260 23.466822
65.265 23.556055
65.270 23.386261
65.275 23.099794
65.280 22.444288
65.285 22.560152
65.290 22.61731
65.295 22.355795
65.300 22.657181
65.305 22.97505
65.310 23.194542
65.315 23.657505
65.320 23.079323
65.325 22.683758
65.330 22.262238
65.335 21.137337
65.340 21.26911
65.345 21.214935
65.350 21.682354
65.355 21.783175
65.360 22.52146
65.365 23.51375
65.370 24.150314
65.375 23.79962
65.380 23.796741
65.385 23.104963
65.390 22.892366
65.395 22.224203
65.400 22.156099
65.405 22.68313
65.410 23.164749
65.415 23.941359
65.420 25.043638
65.425 25.126345
65.430 25.762211
65.435 25.832317
65.440 25.743776
65.445 26.129021
65.450 25.922318
65.455 24.927303
65.460 25.492464
65.465 25.579191
65.470 25.525574
65.475 25.546303
65.480 24.72735
65.485 25.270058
65.490 25.726011
65.495 25.859488
65.500 25.549187
65.505 25.335207
65.510 25.774067
65.515 25.774513
65.520 25.153282
65.525 25.134077
65.530 25.010361
65.535 25.333494
65.540 26.014683
65.545 26.355602
65.550 26.771563
65.555 26.469374
65.560 26.368507
65.565 26.488277
65.570 27.055471
65.575 26.984379
65.580 27.769112
65.585 28.048851
65.590 28.665255
65.595 28.921574
65.600 28.901117
65.605 28.822964
65.610 28.906279
65.615 29.092209
65.620 29.382362
65.625 30.208321
65.630 31.302818
65.635 31.506731
65.640 31.71628
65.645 32.639919
65.650 32.939285
65.655 32.768539
65.660 32.565826
65.665 31.908937
65.670 31.874741
65.675 32.095158
65.680 31.703588
65.685 31.430101
65.690 31.611586
65.695 31.410021
65.700 32.360615
65.705 32.949883
65.710 32.641243
65.715 32.369102
65.720 31.765585
65.725 32.443771
65.730 32.986
65.735 33.034748
65.740 33.724583
65.745 34.375126
65.750 35.096138
65.755 35.686005
65.760 35.405537
65.765 34.54409
65.770 34.147781
65.775 33.707386
65.780 33.996891
65.785 34.025112
65.790 34.144783
65.795 34.702038
65.800 35.759155
65.805 36.179283
65.810 36.127686
65.815 36.307182
65.820 36.560795
65.825 36.426762
65.830 36.243351
65.835 35.977619
65.840 35.843761
65.845 35.765961
65.850 35.316437
65.855 35.766754
65.860 37.413921
65.865 37.149006
65.870 36.782333
65.875 36.45327
65.880 36.671471
65.885 36.903309
65.890 36.657356
65.895 35.439068
65.900 35.052868
65.905 35.50531
65.910 35.999943
65.915 36.591255
65.920 36.799004
65.925 37.464855
65.930 38.326572
65.935 39.0256
65.940 39.532341
65.945 39.228226
65.950 38.373188
65.955 38.658932
65.960 38.575253
65.965 38.727005
65.970 38.876026
65.975 38.590046
65.980 39.680855
65.985 39.948215
65.990 40.391449
65.995 40.3046
66.000 39.963852
66.005 40.458515
66.010 40.039593
66.015 39.888542
66.020 39.611855
66.025 39.20105
66.030 39.04166
66.035 38.768703
66.040 38.375408
66.045 38.920113
66.050 38.616863
66.055 38.731522
66.060 38.726273
66.065 38.41711
66.070 38.477711
66.075 38.371719
66.080 38.013435
66.085 37.330902
66.090 37.184341
66.095 37.244839
66.100 37.838043
66.105 38.41951
66.110 39.130627
66.115 40.007751
66.120 40.26582
66.125 40.383865
66.130 40.149784
66.135 39.568745
66.140 39.182941
66.145 38.888268
66.150 38.486134
66.155 38.176903
66.160 37.880093
66.165 38.565205
66.170 38.287899
66.175 38.318535
66.180 37.437569
66.185 37.640888
66.190 38.203903
66.195 37.321079
66.200 36.435513
66.205 36.036407
66.210 36.49963
66.215 37.162395
66.220 36.690372
66.225 36.538849
66.230 37.429924
66.235 38.163898
66.240 38.673302
66.245 38.97702
66.250 38.852402
66.255 38.527466
66.260 39.131134
66.265 38.584324
66.270 37.767635
66.275 37.35862
66.280 36.766735
66.285 36.81419
66.290 36.981319
66.295 36.444397
66.300 36.640053
66.305 36.302078
66.310 35.971905
66.315 35.922962
66.320 35.362839
66.325 34.231865
66.330 33.630661
66.335 33.088268
66.340 31.621344
66.345 31.341818
66.350 30.668028
66.355 31.278107
66.360 32.323799
66.365 33.029682
66.370 33.668114
66.375 34.901093
66.380 35.07502
66.385 34.32642
66.390 33.41267
66.395 33.020332
66.400 32.834911
66.405 32.077045
66.410 31.794422
66.415 31.145891
66.420 31.564026
66.425 31.680182
66.430 30.966135
66.435 29.9202
66.440 30.276075
66.445 30.168997
66.450 29.766903
66.455 29.004471
66.460 28.552839
66.465 28.75465
66.470 28.86187
66.475 28.484804
66.480 28.420492
66.485 28.849218
66.490 28.457001
66.495 27.765757
66.500 27.517776
66.505 27.523878
66.510 27.131277
66.515 26.549622
66.520 25.524267
66.525 25.783257
66.530 25.903252
66.535 25.681665
66.540 26.05752
66.545 25.89661
66.550 26.193426
66.555 26.971037
66.560 27.303791
66.565 27.782915
66.570 27.3776
66.575 26.672575
66.580 26.634708
66.585 27.039793
66.590 26.797985
66.595 26.665449
66.600 26.543694
66.605 27.016655
66.610 26.669176
66.615 26.287441
66.620 25.566973
66.625 24.954969
66.630 24.618353
66.635 24.469294
66.640 24.433426
66.645 25.002289
66.650 24.417263
66.655 24.447924
66.660 24.687773
66.665 24.948725
66.670 24.126591
66.675 23.692377
66.680 23.838091
66.685 24.167164
66.690 24.72356
66.695 24.802425
66.700 24.296747
66.705 24.492485
66.710 24.097538
66.715 24.035236
66.720 23.586756
66.725 23.315338
66.730 23.401527
66.735 22.946522
66.740 22.879562
66.745 22.36865
66.750 22.354147
66.755 22.139591
66.760 21.654444
66.765 21.038765
66.770 21.324568
66.775 20.861279
66.780 21.300774
66.785 20.952656
66.790 21.334112
66.795 21.317919
66.800 21.370361
66.805 21.940231
66.810 22.33898
66.815 22.395906
66.820 22.294939
66.825 21.991961
66.830 21.920038
66.835 21.525007
66.840 20.998135
66.845 20.582745
66.850 20.297691
66.855 20.289043
66.860 20.432062
66.865 20.588955
66.870 20.68716
66.875 20.300354
66.880 20.391552
66.885 20.248472
66.890 20.081865
66.895 20.047506
66.900 20.343
66.905 20.634426
66.910 20.737696
66.915 20.22065
66.920 20.133169
66.925 20.38983
66.930 20.277412
66.935 20.416561
66.940 20.392183
66.945 20.408722
66.950 20.841516
66.955 21.238712
66.960 21.080309
66.965 21.521469
66.970 21.312815
66.975 21.967712
66.980 22.404972
66.985 23.062973
66.990 23.377024
66.995 23.492149
67.000 22.905136
67.005 22.287027
67.010 21.897734
67.015 21.935995
67.020 21.471638
67.025 21.359831
67.030 21.318878
67.035 21.17495
67.040 22.007681
67.045 21.730871
67.050 21.201832
67.055 20.936813
67.060 21.013021
67.065 21.079363
67.070 21.043537
67.075 20.739132
67.080 21.225679
67.085 21.964172
67.090 21.898642
67.095 21.751532
67.100 21.484795
67.105 21.667585
67.110 21.504976
67.115 21.5772
67.120 21.61401
67.125 21.912981
67.130 22.169525
67.135 22.069698
67.140 21.378653
67.145 21.490725
67.150 21.100645
67.155 20.823931
67.160 20.587954
67.165 20.950241
67.170 20.864048
67.175 20.895184
67.180 20.816658
67.185 21.409725
67.190 21.155819
67.195 20.64167
67.200 19.844181
67.205 20.771076
67.210 21.244658
67.215 21.432323
67.220 20.785418
67.225 20.703724
67.230 21.251886
67.235 21.371296
67.240 20.658129
67.245 20.389673
67.250 20.060549
67.255 19.83033
67.260 20.242485
67.265 20.307552
67.270 20.149881
67.275 20.325609
67.280 20.491447
67.285 20.509283
67.290 20.316357
67.295 19.557634
67.300 19.065348
67.305 18.84326
67.310 18.097717
67.315 18.413126
67.320 19.276821
67.325 19.92819
67.330 20.041101
67.335 20.483572
67.340 20.36838
67.345 21.003582
67.350 20.727631
67.355 20.1353
67.360 20.003008
67.365 19.904669
67.370 20.295424
67.375 21.40239
67.380 21.080292
67.385 21.409359
67.390 21.924528
67.395 22.122234
67.400 22.295921
67.405 21.684902
67.410 21.105703
67.415 20.540585
67.420 20.539051
67.425 19.62842
67.430 19.280468
67.435 19.065186
67.440 19.508972
67.445 20.063957
67.450 20.3557
67.455 19.978884
67.460 20.516382
67.465 20.869545
67.470 20.760698
67.475 20.241037
67.480 20.05722
67.485 20.616634
67.490 21.031242
67.495 21.100035
67.500 20.79047
67.505 20.913435
67.510 21.200636
67.515 20.830467
67.520 20.304737
67.525 19.892378
67.530 19.779814
67.535 19.952318
67.540 19.680189
67.545 19.131144
67.550 19.058449
67.555 18.565092
67.560 18.503981
67.565 18.813381
67.570 19.133169
67.575 19.259855
67.580 19.239943
67.585 19.338287
67.590 20.074139
67.595 20.474504
67.600 20.067307
67.605 19.754805
67.610 20.024683
67.615 19.826757
67.620 19.375845
67.625 19.159462
67.630 18.571388
67.635 18.595066
67.640 18.528181
67.645 18.499027
67.650 18.628126
67.655 19.299109
67.660 19.520575
67.665 19.398392
67.670 19.507599
67.675 20.146053
67.680 20.511856
67.685 20.591328
67.690 20.328737
67.695 20.749607
67.700 20.953676
67.705 21.426542
67.710 20.92835
67.715 20.624607
67.720 20.357607
67.725 20.082582
67.730 19.821602
67.735 19.415115
67.740 18.720654
67.745 18.299976
67.750 18.390383
67.755 18.440334
67.760 18.331831
67.765 18.198059
67.770 18.433798
67.775 18.697496
67.780 18.713448
67.785 18.573107
67.790 19.220997
67.795 19.416355
67.800 19.916924
67.805 20.077942
67.810 19.947342
67.815 20.212492
67.820 20.266403
67.825 19.918968
67.830 19.913538
67.835 19.562162
67.840 19.82605
67.845 19.473886
67.850 19.468231
67.855 19.488541
67.860 19.468891
67.865 18.601231
67.870 18.527868
67.875 17.864819
67.880 18.072432
67.885 18.099243
67.890 18.271358
67.895 18.895144
67.900 20.390333
67.905 20.481741
67.910 21.123964
67.915 21.602625
67.920 21.888908
67.925 21.537521
67.930 20.604914
67.935 20.13203
67.940 20.165703
67.945 20.179304
67.950 20.151525
67.955 19.778826
67.960 19.84408
67.965 19.72043
67.970 19.81282
67.975 19.719032
67.980 19.739693
67.985 19.527479
67.990 19.152481
67.995 18.835102
68.000 18.580309
68.005 18.424795
68.010 18.60972
68.015 18.550749
68.020 19.187494
68.025 20.231161
68.030 20.412769
68.035 20.663771
68.040 20.599821
68.045 20.509995
68.050 20.661425
68.055 20.487242
68.060 20.152935
68.065 20.236017
68.070 20.560659
68.075 20.433926
68.080 20.271008
68.085 20.321791
68.090 20.045767
68.095 20.499357
68.100 20.669849
68.105 20.775997
68.110 21.404421
68.115 21.97327
68.120 22.222605
68.125 22.310881
68.130 22.250597
68.135 22.328337
68.140 22.131252
68.145 21.915684
68.150 21.953175
68.155 21.498066
68.160 21.265804
68.165 21.581202
68.170 21.931784
68.175 22.214043
68.180 21.84869
68.185 21.356171
68.190 21.829954
68.195 21.840872
68.200 21.376436
68.205 20.815714
68.210 20.180502
68.215 20.39315
68.220 20.56361
68.225 20.286318
68.230 20.366575
68.235 20.591061
68.240 20.811134
68.245 20.758326
68.250 20.188856
68.255 19.618601
68.260 19.78837
68.265 19.965956
68.270 20.383068
68.275 20.199224
68.280 20.337173
68.285 21.062916
68.290 21.418024
68.295 20.305225
68.300 19.776876
68.305 18.909292
68.310 18.946991
68.315 18.673693
68.320 17.928089
68.325 17.305285
68.330 17.739534
68.335 17.796167
68.340 18.07633
68.345 18.656132
68.350 19.152657
68.355 19.53248
68.360 20.270409
68.365 20.577795
68.370 20.230545
68.375 20.122372
68.380 19.186264
68.385 19.321682
68.390 19.482496
68.395 19.237989
68.400 18.921745
68.405 19.135565
68.410 19.656874
68.415 20.111217
68.420 19.917635
68.425 19.991472
68.430 20.157732
68.435 19.812944
68.440 19.671474
68.445 19.56789
68.450 19.662909
68.455 19.529844
68.460 19.088934
68.465 18.860462
68.470 19.302021
68.475 19.56357
68.480 19.825985
68.485 20.63076
68.490 21.452499
68.495 21.809742
68.500 22.301487
68.505 22.282406
68.510 22.13855
68.515 21.812634
68.520 20.79113
68.525 20.63044
68.530 20.884201
68.535 20.498644
68.540 20.114311
68.545 19.322668
68.550 18.908365
68.555 19.171738
68.560 19.048328
68.565 19.113794
68.570 20.013607
68.575 20.376564
68.580 20.637556
68.585 21.048939
68.590 21.183331
68.595 21.171558
68.600 20.852287
68.605 20.463747
68.610 21.144876
68.615 21.384369
68.620 21.404068
68.625 21.572392
68.630 21.469036
68.635 21.919647
68.640 21.76548
68.645 21.858517
68.650 22.440304
68.655 22.486694
68.660 22.270182
68.665 22.245892
68.670 22.229382
68.675 22.589546
68.680 21.903566
68.685 21.281874
68.690 21.196337
68.695 21.084616
68.700 20.928995
68.705 21.254948
68.710 21.317894
68.715 21.837193
68.720 22.149445
68.725 22.731327
68.730 23.126905
68.735 23.063808
68.740 22.320007
68.745 21.931536
68.750 21.419657
68.755 21.507185
68.760 21.036518
68.765 20.79406
68.770 20.844398
68.775 20.944555
68.780 21.105888
68.785 21.160404
68.790 20.920616
68.795 21.192377
68.800 21.37356
68.805 21.274586
68.810 21.359074
68.815 21.206537
68.820 21.212923
68.825 21.076462
68.830 20.500282
68.835 21.345409
68.840 21.536177
68.845 21.220871
68.850 21.395603
68.855 21.894274
68.860 22.482552
68.865 22.954987
68.870 22.941954
68.875 23.199924
68.880 23.827173
68.885 23.909872
68.890 23.772791
68.895 23.010584
68.900 22.133104
68.905 21.688972
68.910 21.503119
68.915 21.749001
68.920 21.995857
68.925 21.858068
68.930 22.135571
68.935 22.214066
68.940 22.15291
68.945 21.97126
68.950 21.552576
68.955 21.714966
68.960 22.236879
68.965 22.625309
68.970 22.5613
68.975 22.823626
68.980 23.196413
68.985 23.24708
68.990 23.282265
68.995 23.144817
69.000 23.495638
69.005 23.827915
69.010 23.969225
69.015 23.256769
69.020 23.066061
69.025 23.055525
69.030 23.147026
69.035 22.915573
69.040 22.746532
69.045 23.637688
69.050 24.592293
69.055 25.068794
69.060 25.117565
69.065 24.922232
69.070 25.573187
69.075 25.585152
69.080 24.650764
69.085 24.558867
69.090 24.352875
69.095 24.040266
69.100 24.059298
69.105 23.187513
69.110 23.132906
69.115 23.530949
69.120 23.431427
69.125 23.758129
69.130 24.501211
69.135 24.54657
69.140 25.528278
69.145 25.854389
69.150 25.582825
69.155 25.336018
69.160 24.837753
69.165 24.63625
69.170 24.58486
69.175 23.969561
69.180 24.418474
69.185 25.120064
69.190 25.633156
69.195 25.710493
69.200 26.068686
69.205 26.469679
69.210 27.113987
69.215 26.868706
69.220 26.284241
69.225 26.307539
69.230 26.556269
69.235 26.516392
69.240 26.297226
69.245 26.365498
69.250 25.663769
69.255 25.526812
69.260 25.037449
69.265 25.139278
69.270 26.155855
69.275 26.529818
69.280 27.403002
69.285 28.211672
69.290 28.33996
69.295 28.846195
69.300 28.365437
69.305 27.272766
69.310 27.737659
69.315 27.603622
69.320 27.668648
69.325 27.517084
69.330 27.81941
69.335 29.421625
69.340 30.182903
69.345 30.067686
69.350 30.719412
69.355 31.565605
69.360 32.47493
69.365 31.958622
69.370 31.154005
69.375 31.145836
69.380 30.981524
69.385 29.889742
69.390 29.724356
69.395 29.260256
69.400 28.902893
69.405 28.139124
69.410 27.928804
69.415 28.01334
69.420 29.09161
69.425 29.745699
69.430 30.905762
69.435 31.798283
69.440 32.463428
69.445 32.807308
69.450 33.023258
69.455 32.876579
69.460 32.302841
69.465 31.874039
69.470 31.77597
69.475 31.316032
69.480 31.456606
69.485 31.460632
69.490 30.907177
69.495 30.868908
69.500 31.522909
69.505 31.551849
69.510 31.328398
69.515 31.169241
69.520 30.760099
69.525 31.032036
69.530 30.313276
69.535 29.233784
69.540 29.561684
69.545 29.210445
69.550 28.496637
69.555 28.970053
69.560 29.170835
69.565 29.82902
69.570 29.515696
69.575 29.492144
69.580 30.171101
69.585 30.455723
69.590 29.889746
69.595 29.53393
69.600 29.293781
69.605 28.856201
69.610 28.483957
69.615 28.664736
69.620 28.984533
69.625 28.996244
69.630 29.471905
69.635 29.57546
69.640 29.913939
69.645 29.409628
69.650 28.383636
69.655 27.878183
69.660 27.383823
69.665 26.486691
69.670 26.790421
69.675 27.194361
69.680 27.954504
69.685 29.110867
69.690 29.579052
69.695 29.78689
69.700 30.146194
69.705 29.582966
69.710 29.372787
69.715 28.668308
69.720 28.14889
69.725 27.780283
69.730 27.859066
69.735 28.575794
69.740 28.552462
69.745 28.229918
69.750 28.710543
69.755 28.908894
69.760 29.879004
69.765 29.888538
69.770 29.395861
69.775 29.871977
69.780 29.603832
69.785 29.951769
69.790 29.454084
69.795 29.45282
69.800 29.720949
69.805 29.584517
69.810 29.420046
69.815 29.737701
69.820 29.310957
69.825 28.985945
69.830 28.526728
69.835 28.53561
69.840 28.393303
69.845 28.229506
69.850 27.400463
69.855 27.58749
69.860 26.912651
69.865 26.420568
69.870 26.124138
69.875 26.685827
69.880 26.859787
69.885 26.527344
69.890 25.605587
69.895 25.489277
69.900 24.783337
69.905 24.100363
69.910 23.72016
69.915 23.810753
69.920 23.877026
69.925 23.586311
69.930 23.882078
69.935 24.828243
69.940 24.737036
69.945 24.013237
69.950 23.495392
69.955 23.070047
69.960 22.521711
69.965 22.38212
69.970 21.870777
69.975 22.284578
69.980 22.48094
69.985 22.324852
69.990 22.207855
69.995 22.682089
70.000 22.207998
70.005 21.360186
70.010 20.620537
70.015 20.393538
70.020 20.828709
70.025 21.0536
70.030 21.177639
70.035 21.550167
70.040 21.470842
70.045 21.917849
70.050 21.980669
70.055 21.857931
70.060 21.985456
70.065 21.760969
70.070 21.862848
70.075 21.892689
70.080 21.408083
70.085 21.354521
70.090 21.250563
70.095 21.088747
70.100 20.722574
70.105 20.230463
70.110 20.101517
70.115 20.073114
70.120 20.270508
70.125 20.1996
70.130 20.219027
70.135 20.554178
70.140 21.77356
70.145 21.905212
70.150 21.939426
70.155 21.843393
70.160 21.976875
70.165 21.771759
70.170 21.013327
70.175 20.304613
70.180 20.387623
70.185 20.630276
70.190 20.218655
70.195 20.643635
70.200 21.071638
70.205 20.563351
70.210 20.353733
70.215 20.654165
70.220 20.582911
70.225 20.797466
70.230 19.752485
70.235 19.81382
70.240 20.402876
70.245 20.701725
70.250 19.971289
70.255 20.069002
70.260 20.204155
70.265 20.755444
70.270 20.800526
70.275 20.946606
70.280 21.060522
70.285 21.526867
70.290 21.287464
70.295 20.992052
70.300 20.908594
70.305 20.696522
70.310 21.2995
70.315 21.423664
70.320 21.082829
70.325 21.567432
70.330 21.400774
70.335 21.310717
70.340 20.720387
70.345 19.746756
70.350 19.983633
70.355 19.83979
70.360 19.629951
70.365 19.540468
70.370 20.052025
70.375 20.401945
70.380 20.548475
70.385 20.348099
70.390 20.28603
70.395 20.592947
70.400 21.026674
70.405 20.922564
70.410 21.341675
70.415 21.418737
70.420 21.366709
70.425 21.403221
70.430 21.054083
70.435 20.603596
70.440 19.871891
70.445 19.107861
70.450 19.052322
70.455 19.020977
70.460 19.077686
70.465 19.366251
70.470 19.725012
70.475 20.030951
70.480 20.531199
70.485 20.34495
70.490 20.474663
70.495 20.078392
70.500 20.0891
70.505 19.513042
70.510 19.11832
70.515 18.708677
70.520 19.132702
70.525 19.13463
70.530 19.362312
70.535 19.009293
70.540 19.084692
70.545 19.036182
70.550 18.8557
70.555 18.591162
70.560 19.009542
70.565 18.570978
70.570 18.828465
70.575 19.401434
70.580 19.559286
70.585 19.461426
70.590 19.212475
70.595 18.944708
70.600 19.494114
70.605 19.643469
70.610 19.955107
70.615 19.803164
70.620 19.521461
70.625 19.448406
70.630 19.08091
70.635 18.82093
70.640 18.658726
70.645 18.679419
70.650 18.230518
70.655 18.791195
70.660 18.992296
70.665 19.357704
70.670 19.618048
70.675 19.874939
70.680 19.37499
70.685 19.566092
70.690 19.175945
70.695 19.024996
70.700 18.398151
70.705 18.235258
70.710 18.284983
70.715 19.105646
70.720 19.156216
70.725 19.050339
70.730 19.316458
70.735 19.432962
70.740 19.302643
70.745 18.854555
70.750 18.430065
70.755 18.697523
70.760 18.598097
70.765 18.681322
70.770 18.288595
70.775 17.943464
70.780 17.954212
70.785 17.923046
70.790 17.532202
70.795 17.262163
70.800 17.038029
70.805 16.914228
70.810 16.755903
70.815 16.486515
70.820 16.632414
70.825 16.826534
70.830 16.991486
70.835 17.231821
70.840 17.421555
70.845 17.71982
70.850 18.249477
70.855 17.935207
70.860 17.666103
70.865 17.651396
70.870 17.954048
70.875 18.507105
70.880 18.795601
70.885 19.10434
70.890 19.49542
70.895 19.474281
70.900 19.446041
70.905 19.079887
70.910 18.814365
70.915 18.53245
70.920 18.363207
70.925 19.034525
70.930 19.687365
70.935 20.410578
70.940 20.742764
70.945 20.558111
70.950 19.98546
70.955 19.788521
70.960 19.116398
70.965 18.786266
70.970 18.313604
70.975 18.442881
70.980 18.639868
70.985 18.243069
70.990 18.636595
70.995 19.145437
71.000 18.684517
71.005 18.887278
71.010 18.855862
71.015 18.970594
71.020 19.19836
71.025 18.928471
71.030 19.208443
71.035 19.662088
71.040 19.23889
71.045 18.732435
71.050 19.269556
71.055 19.453962
71.060 19.04887
71.065 18.136753
71.070 17.935574
71.075 18.159485
71.080 18.757267
71.085 18.730095
71.090 18.144226
71.095 18.26173
71.100 18.210514
71.105 18.598799
71.110 18.734016
71.115 18.301092
71.120 18.77729
71.125 19.412838
71.130 19.691095
71.135 19.805027
71.140 19.371769
71.145 18.987413
71.150 18.86356
71.155 17.7341
71.160 17.628227
71.165 17.936825
71.170 18.318804
71.175 18.442173
71.180 18.174294
71.185 18.096487
71.190 18.337524
71.195 18.289194
71.200 17.574856
71.205 17.605833
71.210 17.678923
71.215 17.680925
71.220 17.882923
71.225 17.399136
71.230 17.420128
71.235 17.577988
71.240 17.874544
71.245 17.462503
71.250 17.041756
71.255 17.395742
71.260 17.874765
71.265 18.566668
71.270 18.405058
71.275 18.44523
71.280 18.294521
71.285 18.633556
71.290 18.478567
71.295 18.296516
71.300 17.761021
71.305 17.85898
71.310 18.224899
71.315 18.715559
71.320 18.630346
71.325 18.70225
71.330 18.659412
71.335 18.964617
71.340 18.9333
71.345 19.016859
71.350 19.181313
71.355 19.627865
71.360 19.717007
71.365 19.625446
71.370 19.578041
71.375 19.189888
71.380 18.745922
71.385 18.596035
71.390 18.323496
71.395 18.232481
71.400 18.140091
71.405 18.340788
71.410 18.322386
71.415 17.959389
71.420 17.775549
71.425 17.524858
71.430 17.418427
71.435 17.163033
71.440 16.773689
71.445 17.239742
71.450 17.830353
71.455 17.32559
71.460 17.897842
71.465 18.218731
71.470 18.425119
71.475 18.283012
71.480 17.94186
71.485 18.200752
71.490 18.109123
71.495 17.66943
71.500 16.92576
71.505 17.105434
71.510 17.442606
71.515 17.277658
71.520 17.075506
71.525 17.817112
71.530 18.374441
71.535 18.889902
71.540 18.907652
71.545 18.816593
71.550 19.283968
71.555 19.161423
71.560 18.213957
71.565 18.151382
71.570 18.65741
71.575 17.675938
71.580 17.536259
71.585 17.707748
71.590 18.008295
71.595 18.444016
71.600 18.162373
71.605 17.77112
71.610 18.640808
71.615 18.85367
71.620 18.268755
71.625 17.943863
71.630 17.853216
71.635 17.455612
71.640 17.180555
71.645 17.054882
71.650 17.103462
71.655 17.273314
71.660 17.122898
71.665 17.214003
71.670 17.643009
71.675 17.656923
71.680 17.030668
71.685 17.166683
71.690 17.536407
71.695 18.018728
71.700 18.272041
71.705 19.325079
71.710 19.956612
71.715 20.43692
71.720 19.921345
71.725 19.184525
71.730 19.11331
71.735 19.27668
71.740 18.592688
71.745 18.014042
71.750 17.904631
71.755 18.544247
71.760 18.526121
71.765 18.408934
71.770 17.616623
71.775 17.656376
71.780 17.954592
71.785 17.959375
71.790 17.677359
71.795 17.284908
71.800 16.851034
71.805 16.988016
71.810 16.762053
71.815 16.511641
71.820 16.539566
71.825 16.766407
71.830 17.183426
71.835 17.63323
71.840 17.958572
71.845 18.076679
71.850 18.283459
71.855 18.59688
71.860 18.911489
71.865 18.93536
71.870 18.877924
71.875 19.070492
71.880 18.954811
71.885 18.710896
71.890 18.534393
71.895 18.580523
71.900 18.24021
71.905 17.923891
71.910 17.899155
71.915 18.114658
71.920 18.503769
71.925 18.316519
71.930 18.103392
71.935 18.301828
71.940 18.44845
71.945 18.036972
71.950 18.056892
71.955 18.29397
71.960 18.615828
71.965 18.831507
71.970 18.999218
71.975 18.52553
71.980 18.930239
71.985 18.852697
71.990 18.272537
71.995 17.991127
72.000 17.662615
72.005 17.605755
72.010 17.948139
72.015 17.879192
72.020 18.085691
72.025 18.382099
72.030 18.865028
72.035 19.071768
72.040 19.30228
72.045 19.694046
72.050 19.553648
72.055 19.368195
72.060 18.845369
72.065 18.435289
72.070 18.08214
72.075 17.878845
72.080 17.213964
72.085 16.950191
72.090 16.713692
72.095 17.006411
72.100 17.156454
72.105 17.269045
72.110 17.539194
72.115 17.796141
72.120 17.148735
72.125 17.524199
72.130 17.670368
72.135 17.598862
72.140 18.086315
72.145 17.947968
72.150 18.161263
72.155 18.9893
72.160 18.745604
72.165 18.905888
72.170 18.728325
72.175 18.355604
72.180 17.808485
72.185 17.849108
72.190 17.276623
72.195 17.47735
72.200 17.180492
72.205 17.312685
72.210 17.806734
72.215 18.405266
72.220 18.147072
72.225 17.953928
72.230 17.651987
72.235 18.512285
72.240 18.637133
72.245 18.315424
72.250 18.385281
72.255 18.624256
72.260 19.175428
72.265 19.628242
72.270 19.351755
72.275 19.283119
72.280 18.993618
72.285 18.861099
72.290 19.125141
72.295 19.708584
72.300 19.615767
72.305 19.469418
72.310 19.533676
72.315 20.017305
72.320 19.505997
72.325 19.155912
72.330 19.349356
72.335 19.539063
72.340 19.462011
72.345 19.323868
72.350 19.416344
72.355 20.46096
72.360 20.243814
72.365 19.294746
72.370 19.078266
72.375 19.422129
72.380 19.955818
72.385 20.451315
72.390 20.35298
72.395 20.324907
72.400 20.441252
72.405 20.65641
72.410 20.527868
72.415 19.828779
72.420 19.05031
72.425 19.0644
72.430 19.029249
72.435 18.491287
72.440 18.081945
72.445 17.944494
72.450 17.973963
72.455 17.504078
72.460 17.069016
72.465 17.276373
72.470 17.587793
72.475 17.089357
72.480 16.786125
72.485 17.166561
72.490 17.018965
72.495 16.918388
72.500 16.623577
72.505 16.555256
72.510 16.601639
72.515 16.473858
72.520 16.489689
72.525 16.374744
72.530 16.398413
72.535 16.460047
72.540 16.11706
72.545 15.923
72.550 16.440962
72.555 16.317099
72.560 17.010178
72.565 17.016685
72.570 17.3209
72.575 18.486326
72.580 18.806204
72.585 19.008001
72.590 19.18544
72.595 19.272573
72.600 18.99464
72.605 18.790644
72.610 18.30798
72.615 18.161724
72.620 18.09417
72.625 18.154545
72.630 18.685179
72.635 19.072407
72.640 19.100264
72.645 19.076227
72.650 18.375772
72.655 17.621004
72.660 16.844007
72.665 16.344198
72.670 16.081829
72.675 15.811275
72.680 16.175447
72.685 16.403339
72.690 16.863096
72.695 16.898451
72.700 16.895241
72.705 17.232231
72.710 16.886015
72.715 16.447006
72.720 17.076035
72.725 17.882738
72.730 18.004438
72.735 17.79948
72.740 17.988024
72.745 18.551161
72.750 18.907904
72.755 17.837627
72.760 17.501459
72.765 17.241177
72.770 16.66198
72.775 16.280272
72.780 15.980862
72.785 16.017998
72.790 15.96129
72.795 16.211857
72.800 16.711731
72.805 16.895258
72.810 16.7827
72.815 16.735777
72.820 16.775869
72.825 17.521442
72.830 17.209263
72.835 17.301004
72.840 17.218365
72.845 17.043699
72.850 17.297649
72.855 16.676712
72.860 16.088564
72.865 16.260691
72.870 16.64749
72.875 17.285261
72.880 17.48735
72.885 17.66276
72.890 18.310232
72.895 18.359243
72.900 18.57036
72.905 18.579962
72.910 18.004972
72.915 18.058189
72.920 17.970181
72.925 17.380692
72.930 17.185593
72.935 16.339445
72.940 16.165756
72.945 16.188999
72.950 16.24564
72.955 16.271767
72.960 16.520489
72.965 16.475546
72.970 16.211645
72.975 16.499237
72.980 16.571331
72.985 16.144669
72.990 16.439743
72.995 16.880514
73.000 17.561384
