!@!!GADDS PLOTSO FILE: Chi integration type
!@!!Title/SampleName: map-126
!@!!Comment: ?
!@!!User: Bruker Instrument Administrator
!@!!Site: University of Illinois Chicago
!@!!Frame: map-126_01_000.gfrm
!@!!Wavelengths    1.54184   1.54056   1.54439
!@!!Frame angles: 2Theta: 63.000 Omega: 50.000 Phi: 0.000 Chi: 90.000
!@!!Integration range: 2Theta: 53.000 to 73.000  Gamma: -105.000 to -75.000
!@!!Integration method: bin normalized
!@!N
!@!SS
!@!M
!@!L 0.0 0.0 0.0 0.0
!@!XDegrees
!@!YCounts
53.000 5.818763
53.005 5.438035
53.010 5.447562
53.015 5.186158
53.020 4.900029
53.025 4.709412
53.030 4.362936
53.035 4.30338
53.040 4.406644
53.045 4.539428
53.050 4.637559
53.055 4.42653
53.060 4.33005
53.065 4.414719
53.070 4.29808
53.075 4.531629
53.080 4.753624
53.085 4.973094
53.090 5.20701
53.095 5.114713
53.100 4.9963
53.105 4.810271
53.110 4.56197
53.115 4.779315
53.120 4.571258
53.125 4.623321
53.130 4.462561
53.135 4.268215
53.140 4.337737
53.145 4.260438
53.150 4.181835
53.155 4.585088
53.160 4.590245
53.165 5.027308
53.170 5.336844
53.175 5.500108
53.180 5.243206
53.185 4.958724
53.190 5.077218
53.195 5.189054
53.200 5.039831
53.205 4.917018
53.210 4.635325
53.215 4.741681
53.220 4.692727
53.225 4.414855
53.230 4.368304
53.235 4.465644
53.240 4.813083
53.245 5.190985
53.250 5.334295
53.255 5.577114
53.260 5.522857
53.265 5.529197
53.270 5.467563
53.275 5.317271
53.280 5.250601
53.285 4.877063
53.290 4.60866
53.295 4.838065
53.300 5.005144
53.305 5.091142
53.310 5.005608
53.315 5.08772
53.320 5.195216
53.325 4.856004
53.330 4.558405
53.335 4.504022
53.340 4.318073
53.345 4.187468
53.350 4.410173
53.355 4.925359
53.360 4.979981
53.365 5.075244
53.370 5.167149
53.375 5.215831
53.380 5.180902
53.385 4.861921
53.390 4.731176
53.395 5.126554
53.400 5.197698
53.405 4.959167
53.410 5.183009
53.415 5.399104
53.420 5.726084
53.425 5.813188
53.430 5.795254
53.435 5.706655
53.440 5.723078
53.445 5.698006
53.450 5.492753
53.455 5.466452
53.460 5.528298
53.465 5.100475
53.470 5.144342
53.475 5.20703
53.480 5.298991
53.485 5.715093
53.490 5.745064
53.495 5.663939
53.500 5.927997
53.505 5.775206
53.510 5.458714
53.515 5.427689
53.520 4.98496
53.525 4.662041
53.530 4.53593
53.535 4.705894
53.540 5.221023
53.545 5.23762
53.550 5.195524
53.555 5.272566
53.560 5.714566
53.565 6.031852
53.570 5.862239
53.575 5.848597
53.580 5.965796
53.585 6.023479
53.590 5.923837
53.595 5.450476
53.600 5.266664
53.605 4.764791
53.610 4.308786
53.615 4.228533
53.620 4.406839
53.625 4.445547
53.630 4.534388
53.635 4.796293
53.640 5.189182
53.645 5.574227
53.650 5.652564
53.655 5.072062
53.660 5.222543
53.665 5.519176
53.670 5.471524
53.675 5.490262
53.680 5.507675
53.685 5.475697
53.690 5.666282
53.695 5.709141
53.700 5.564032
53.705 5.532586
53.710 5.124258
53.715 4.933888
53.720 5.035316
53.725 5.139594
53.730 4.770995
53.735 4.629727
53.740 4.964958
53.745 5.263789
53.750 5.403616
53.755 5.360053
53.760 4.945579
53.765 5.443264
53.770 5.273258
53.775 5.271024
53.780 4.999384
53.785 4.943323
53.790 5.490923
53.795 5.845876
53.800 5.446128
53.805 5.484377
53.810 5.214717
53.815 5.608417
53.820 5.821434
53.825 5.447631
53.830 5.455272
53.835 5.465959
53.840 5.264104
53.845 5.590253
53.850 5.370496
53.855 5.185615
53.860 5.250798
53.865 5.234521
53.870 5.572946
53.875 5.717459
53.880 5.403412
53.885 5.196939
53.890 5.259399
53.895 5.488313
53.900 5.568488
53.905 5.670875
53.910 6.065035
53.915 6.721102
53.920 6.704226
53.925 6.4746
53.930 6.488456
53.935 5.963151
53.940 5.54717
53.945 5.098783
53.950 4.529597
53.955 4.273219
53.960 4.023074
53.965 4.289308
53.970 4.576769
53.975 4.538624
53.980 4.671584
53.985 5.15043
53.990 5.475
53.995 5.655154
54.000 5.353986
54.005 5.485681
54.010 5.352362
54.015 5.173144
54.020 4.91027
54.025 4.690978
54.030 4.513075
54.035 4.34309
54.040 4.354394
54.045 4.35777
54.050 4.642824
54.055 4.675882
54.060 4.554287
54.065 4.675669
54.070 4.839119
54.075 5.076145
54.080 5.278364
54.085 5.238434
54.090 5.69016
54.095 5.921959
54.100 6.133653
54.105 6.009725
54.110 6.094492
54.115 5.877006
54.120 5.594936
54.125 5.524535
54.130 5.704463
54.135 5.419393
54.140 5.717437
54.145 5.608843
54.150 5.580027
54.155 5.792102
54.160 5.64762
54.165 5.591283
54.170 5.754595
54.175 5.764584
54.180 6.000489
54.185 6.196848
54.190 6.216226
54.195 5.935769
54.200 6.230086
54.205 6.280872
54.210 5.995687
54.215 6.028273
54.220 6.039916
54.225 5.951188
54.230 6.17429
54.235 6.34553
54.240 6.017572
54.245 5.977468
54.250 5.688519
54.255 5.574135
54.260 5.800064
54.265 5.157176
54.270 5.130942
54.275 5.126189
54.280 5.236777
54.285 5.38855
54.290 5.249694
54.295 5.149282
54.300 5.466174
54.305 5.27287
54.310 5.347704
54.315 5.271461
54.320 5.163158
54.325 5.180351
54.330 5.499676
54.335 5.579949
54.340 5.703722
54.345 5.870628
54.350 5.842041
54.355 6.174653
54.360 6.134603
54.365 5.969124
54.370 6.290489
54.375 6.164079
54.380 5.965317
54.385 5.80095
54.390 5.310266
54.395 5.339046
54.400 5.344305
54.405 4.862479
54.410 4.981979
54.415 5.217113
54.420 5.56188
54.425 5.8443
54.430 5.876966
54.435 5.766472
54.440 5.746905
54.445 5.648326
54.450 5.618893
54.455 5.644736
54.460 5.764658
54.465 5.411465
54.470 5.759371
54.475 6.126318
54.480 6.377855
54.485 6.28475
54.490 6.370608
54.495 6.609849
54.500 6.419933
54.505 6.037366
54.510 5.942637
54.515 5.991778
54.520 6.027281
54.525 5.648089
54.530 5.928849
54.535 6.380639
54.540 6.301934
54.545 6.046029
54.550 6.144436
54.555 6.149841
54.560 6.061264
54.565 5.71788
54.570 5.80242
54.575 6.261046
54.580 6.455208
54.585 6.097596
54.590 6.389942
54.595 6.74859
54.600 6.853577
54.605 6.761995
54.610 6.766729
54.615 6.637995
54.620 6.772258
54.625 6.68714
54.630 6.457497
54.635 6.215888
54.640 5.967731
54.645 5.922975
54.650 6.093401
54.655 5.827534
54.660 5.709489
54.665 5.599393
54.670 5.598976
54.675 5.524932
54.680 5.808399
54.685 5.920238
54.690 5.984013
54.695 5.908082
54.700 5.997106
54.705 5.934357
54.710 5.865109
54.715 5.274121
54.720 5.292098
54.725 5.281867
54.730 5.273996
54.735 5.354718
54.740 5.865821
54.745 6.27102
54.750 6.230695
54.755 6.052166
54.760 6.023088
54.765 6.155418
54.770 6.039497
54.775 5.747932
54.780 5.379336
54.785 5.543643
54.790 5.733901
54.795 5.986835
54.800 6.062181
54.805 5.908764
54.810 5.950358
54.815 6.090426
54.820 5.719742
54.825 5.555876
54.830 5.558041
54.835 5.626184
54.840 5.779552
54.845 5.544075
54.850 5.421563
54.855 5.56751
54.860 5.691559
54.865 5.628064
54.870 5.420933
54.875 5.613736
54.880 5.851105
54.885 5.862153
54.890 5.622595
54.895 5.268382
54.900 5.398909
54.905 5.458369
54.910 5.312706
54.915 5.294418
54.920 5.561237
54.925 5.885346
54.930 6.02196
54.935 6.312271
54.940 6.268904
54.945 5.968032
54.950 6.165698
54.955 5.934943
54.960 5.656116
54.965 5.439397
54.970 4.799403
54.975 4.956119
54.980 5.041565
54.985 5.138779
54.990 5.671181
54.995 5.649582
55.000 5.824952
55.005 5.811197
55.010 5.449445
55.015 5.321423
55.020 5.040358
55.025 4.895535
55.030 5.526977
55.035 5.73079
55.040 5.930977
55.045 6.257729
55.050 6.519587
55.055 6.435964
55.060 6.11417
55.065 5.580886
55.070 5.360909
55.075 5.197716
55.080 4.959989
55.085 4.810276
55.090 4.715602
55.095 5.046649
55.100 5.28695
55.105 5.466056
55.110 5.608258
55.115 5.558685
55.120 5.790444
55.125 5.994592
55.130 5.991726
55.135 5.664261
55.140 5.61254
55.145 5.44262
55.150 5.258269
55.155 5.043284
55.160 4.808772
55.165 5.037421
55.170 5.242563
55.175 5.419095
55.180 5.895408
55.185 6.285546
55.190 7.226162
55.195 7.462646
55.200 7.621763
55.205 7.712578
55.210 7.500431
55.215 7.204571
55.220 6.913806
55.225 6.579614
55.230 6.542276
55.235 6.485739
55.240 6.564314
55.245 6.722035
55.250 6.61833
55.255 6.739045
55.260 6.438164
55.265 6.461352
55.270 6.703732
55.275 6.647256
55.280 6.714796
55.285 6.824377
55.290 6.554258
55.295 6.704168
55.300 6.695323
55.305 6.325121
55.310 6.166475
55.315 6.170423
55.320 6.100992
55.325 6.122449
55.330 6.213711
55.335 5.865811
55.340 5.560797
55.345 5.460833
55.350 5.520501
55.355 5.995805
55.360 5.860902
55.365 5.496644
55.370 5.812243
55.375 5.825648
55.380 5.811833
55.385 5.759795
55.390 5.296152
55.395 5.278777
55.400 5.302606
55.405 5.151198
55.410 5.898994
55.415 6.143672
55.420 6.248952
55.425 6.541583
55.430 6.621223
55.435 6.699347
55.440 6.415231
55.445 6.010562
55.450 5.737318
55.455 5.426822
55.460 4.951199
55.465 4.79755
55.470 5.193685
55.475 5.369107
55.480 5.21719
55.485 5.556888
55.490 5.854314
55.495 6.708358
55.500 6.909281
55.505 6.804622
55.510 6.907494
55.515 6.852595
55.520 6.776731
55.525 6.507946
55.530 5.740871
55.535 5.772061
55.540 5.928007
55.545 6.04231
55.550 6.222851
55.555 6.480411
55.560 6.615162
55.565 6.62095
55.570 6.546844
55.575 6.509762
55.580 6.769888
55.585 6.531027
55.590 6.131137
55.595 6.415862
55.600 6.685408
55.605 6.21683
55.610 6.187796
55.615 6.389783
55.620 6.510333
55.625 6.692744
55.630 6.443543
55.635 6.508765
55.640 6.952816
55.645 6.98545
55.650 6.7943
55.655 6.714813
55.660 6.56135
55.665 6.723254
55.670 6.935752
55.675 6.904011
55.680 6.608193
55.685 6.436976
55.690 6.567378
55.695 6.960841
55.700 6.708881
55.705 6.642154
55.710 6.569843
55.715 6.491897
55.720 6.753771
55.725 6.894775
55.730 6.838767
55.735 7.191163
55.740 6.819242
55.745 6.723197
55.750 6.728531
55.755 6.376079
55.760 5.862894
55.765 5.667143
55.770 5.523649
55.775 5.747689
55.780 5.756164
55.785 5.525571
55.790 5.593175
55.795 5.731852
55.800 5.67904
55.805 5.871331
55.810 5.519555
55.815 5.692445
55.820 6.114713
55.825 6.362362
55.830 6.590474
55.835 6.541836
55.840 6.097063
55.845 6.530945
55.850 6.481268
55.855 6.177919
55.860 5.94417
55.865 5.735945
55.870 5.755938
55.875 6.115102
55.880 5.696408
55.885 5.576375
55.890 5.808937
55.895 5.936712
55.900 6.077035
55.905 6.087464
55.910 5.885695
55.915 6.048505
55.920 5.925694
55.925 5.949414
55.930 6.005482
55.935 5.743479
55.940 5.534542
55.945 5.846143
55.950 6.196043
55.955 6.294485
55.960 6.130952
55.965 6.045399
55.970 6.208758
55.975 6.218854
55.980 6.009409
55.985 5.826016
55.990 5.989189
55.995 5.957434
56.000 6.226656
56.005 6.385048
56.010 6.805465
56.015 6.707035
56.020 6.891555
56.025 7.015167
56.030 7.27481
56.035 7.276364
56.040 7.113748
56.045 7.031833
56.050 7.057867
56.055 7.135501
56.060 6.897752
56.065 6.998664
56.070 6.917522
56.075 7.103135
56.080 7.306579
56.085 7.106458
56.090 6.899152
56.095 6.689041
56.100 6.319866
56.105 6.445117
56.110 6.373309
56.115 6.544007
56.120 6.314682
56.125 6.134069
56.130 6.281519
56.135 6.593774
56.140 6.491497
56.145 5.679416
56.150 5.249457
56.155 5.611999
56.160 5.803991
56.165 5.8998
56.170 6.251706
56.175 6.524124
56.180 7.552687
56.185 8.006651
56.190 7.755388
56.195 7.630992
56.200 7.405796
56.205 7.22256
56.210 6.974576
56.215 6.222218
56.220 5.642242
56.225 5.947316
56.230 6.494932
56.235 6.614979
56.240 6.522065
56.245 6.675971
56.250 7.121837
56.255 7.447875
56.260 7.1181
56.265 6.620391
56.270 6.585931
56.275 6.495306
56.280 6.446739
56.285 6.720163
56.290 6.83234
56.295 7.344354
56.300 7.593833
56.305 7.335528
56.310 7.425995
56.315 7.562206
56.320 7.645066
56.325 7.707363
56.330 7.54712
56.335 7.685545
56.340 7.39704
56.345 7.138468
56.350 6.704959
56.355 6.355398
56.360 6.084246
56.365 5.606176
56.370 5.371109
56.375 5.533754
56.380 5.533001
56.385 5.580859
56.390 5.432855
56.395 5.823249
56.400 6.09598
56.405 6.602798
56.410 6.82814
56.415 6.849959
56.420 6.970919
56.425 6.97763
56.430 6.544667
56.435 6.429555
56.440 6.294079
56.445 6.103165
56.450 6.184416
56.455 6.37376
56.460 6.623472
56.465 6.380369
56.470 6.533279
56.475 6.626203
56.480 6.76598
56.485 6.595286
56.490 6.803541
56.495 6.924581
56.500 7.616196
56.505 7.256598
56.510 7.136665
56.515 6.933268
56.520 6.943009
56.525 6.994133
56.530 7.153097
56.535 6.967412
56.540 7.298748
56.545 7.544799
56.550 8.060609
56.555 8.131719
56.560 7.830923
56.565 7.75536
56.570 7.476806
56.575 7.191176
56.580 6.80197
56.585 6.586102
56.590 6.501369
56.595 6.389534
56.600 6.313179
56.605 6.710824
56.610 6.988791
56.615 7.301014
56.620 7.172761
56.625 7.077092
56.630 6.623483
56.635 6.261395
56.640 5.909343
56.645 5.701439
56.650 5.630069
56.655 5.455005
56.660 5.73281
56.665 6.247583
56.670 6.438914
56.675 6.491519
56.680 6.589747
56.685 6.70534
56.690 6.80287
56.695 6.957003
56.700 7.026071
56.705 7.167842
56.710 7.25715
56.715 7.346684
56.720 7.360363
56.725 7.169895
56.730 7.225436
56.735 7.438251
56.740 7.826174
56.745 8.050036
56.750 8.054351
56.755 8.164615
56.760 8.41922
56.765 8.190274
56.770 7.925304
56.775 7.522296
56.780 7.484193
56.785 7.675507
56.790 7.796215
56.795 7.722138
56.800 7.856818
56.805 7.925798
56.810 7.96257
56.815 7.626985
56.820 7.301244
56.825 7.006011
56.830 6.927367
56.835 7.059983
56.840 7.273759
56.845 7.002399
56.850 7.030878
56.855 7.110675
56.860 7.239735
56.865 7.265457
56.870 6.837303
56.875 6.520078
56.880 6.63651
56.885 6.501793
56.890 6.278105
56.895 6.183327
56.900 5.980339
56.905 6.112763
56.910 6.699393
56.915 7.112852
56.920 7.249102
56.925 7.323287
56.930 7.553276
56.935 7.829885
56.940 7.79803
56.945 7.490505
56.950 7.500435
56.955 7.93256
56.960 8.014177
56.965 7.635038
56.970 7.747421
56.975 7.771995
56.980 7.967128
56.985 7.591467
56.990 7.747897
56.995 7.963581
57.000 8.177959
57.005 7.932474
57.010 7.630814
57.015 7.346892
57.020 7.352856
57.025 7.111618
57.030 7.287106
57.035 7.350747
57.040 7.256169
57.045 7.445888
57.050 7.641041
57.055 7.538226
57.060 7.329775
57.065 7.16547
57.070 7.676661
57.075 7.617918
57.080 7.759289
57.085 7.798463
57.090 7.511094
57.095 7.499104
57.100 7.048027
57.105 6.910359
57.110 7.329476
57.115 7.301964
57.120 7.57881
57.125 7.81768
57.130 7.817018
57.135 8.196729
57.140 8.071482
57.145 7.964516
57.150 7.664369
57.155 7.558985
57.160 8.146821
57.165 7.981747
57.170 7.615809
57.175 7.494327
57.180 7.251171
57.185 7.255435
57.190 7.214097
57.195 7.21575
57.200 7.810969
57.205 7.901778
57.210 7.79115
57.215 8.155642
57.220 8.468204
57.225 8.615941
57.230 8.427711
57.235 8.032182
57.240 8.02382
57.245 8.292765
57.250 8.079022
57.255 8.02295
57.260 8.130738
57.265 8.409191
57.270 8.627884
57.275 9.261185
57.280 8.936757
57.285 9.073498
57.290 8.912264
57.295 8.489807
57.300 8.032878
57.305 8.031328
57.310 7.693416
57.315 8.076377
57.320 8.079092
57.325 8.340389
57.330 8.869501
57.335 9.170599
57.340 8.895133
57.345 8.406417
57.350 7.646323
57.355 7.162863
57.360 6.843359
57.365 6.729027
57.370 6.631875
57.375 6.753124
57.380 6.981132
57.385 7.078659
57.390 7.544497
57.395 7.870593
57.400 7.560935
57.405 7.270214
57.410 7.241828
57.415 7.394936
57.420 7.788517
57.425 7.30336
57.430 7.107421
57.435 7.088905
57.440 7.164185
57.445 7.582749
57.450 7.359856
57.455 6.88343
57.460 7.094676
57.465 7.208885
57.470 7.565145
57.475 7.948546
57.480 7.621894
57.485 7.87462
57.490 8.389454
57.495 8.691618
57.500 8.94768
57.505 8.408889
57.510 8.319688
57.515 8.616796
57.520 8.556354
57.525 8.544001
57.530 7.887534
57.535 7.467091
57.540 7.654055
57.545 7.596326
57.550 7.462486
57.555 7.604032
57.560 7.504817
57.565 7.592766
57.570 7.844873
57.575 7.431524
57.580 7.161664
57.585 7.277806
57.590 6.71827
57.595 6.806411
57.600 6.790654
57.605 6.639264
57.610 7.325619
57.615 7.781308
57.620 7.58278
57.625 8.01805
57.630 7.985196
57.635 7.660872
57.640 7.6783
57.645 7.322618
57.650 6.99616
57.655 6.97413
57.660 6.673669
57.665 6.785391
57.670 7.495407
57.675 7.1882
57.680 7.346213
57.685 7.704298
57.690 8.068735
57.695 7.978571
57.700 7.69119
57.705 7.692548
57.710 8.086611
57.715 8.050581
57.720 8.135368
57.725 8.439037
57.730 9.004745
57.735 9.081759
57.740 8.943727
57.745 8.960469
57.750 9.310477
57.755 9.261434
57.760 8.758492
57.765 8.687356
57.770 8.487064
57.775 8.792679
57.780 8.873018
57.785 8.630713
57.790 8.236184
57.795 8.282431
57.800 8.431935
57.805 8.879467
57.810 8.723536
57.815 8.613419
57.820 8.427714
57.825 8.757944
57.830 9.019783
57.835 8.732006
57.840 8.357871
57.845 8.210507
57.850 8.404671
57.855 8.457531
57.860 8.638625
57.865 8.721073
57.870 8.599854
57.875 8.580139
57.880 8.564826
57.885 8.238911
57.890 8.193565
57.895 8.074342
57.900 7.970377
57.905 8.255404
57.910 8.310912
57.915 8.281924
57.920 8.437503
57.925 8.39605
57.930 8.124534
57.935 7.960646
57.940 8.008109
57.945 8.043022
57.950 8.001915
57.955 7.982066
57.960 8.23114
57.965 8.134667
57.970 8.491074
57.975 8.500302
57.980 8.425175
57.985 8.036321
57.990 7.670844
57.995 7.901506
58.000 7.93034
58.005 7.733566
58.010 7.434642
58.015 7.902816
58.020 8.370554
58.025 8.314538
58.030 7.950615
58.035 8.05302
58.040 7.966756
58.045 7.960554
58.050 7.864442
58.055 7.938993
58.060 8.360602
58.065 8.4106
58.070 8.555768
58.075 8.749261
58.080 8.976867
58.085 9.18383
58.090 9.640506
58.095 9.618467
58.100 9.86723
58.105 9.816949
58.110 10.036618
58.115 9.80207
58.120 9.824423
58.125 9.666479
58.130 9.704165
58.135 9.96041
58.140 10.10042
58.145 9.967377
58.150 10.15698
58.155 9.844776
58.160 9.786628
58.165 10.118538
58.170 10.033413
58.175 10.039764
58.180 10.307012
58.185 10.311044
58.190 10.161098
58.195 10.34592
58.200 10.044624
58.205 9.983641
58.210 9.917841
58.215 9.881079
58.220 10.127477
58.225 10.579546
58.230 9.95313
58.235 9.724571
58.240 9.692948
58.245 9.933826
58.250 10.043925
58.255 9.666543
58.260 8.954423
58.265 9.137251
58.270 9.340567
58.275 9.353739
58.280 9.205054
58.285 9.052996
58.290 9.087328
58.295 9.401139
58.300 9.390849
58.305 9.489313
58.310 10.09537
58.315 10.133754
58.320 10.315778
58.325 10.73682
58.330 10.682765
58.335 10.966141
58.340 10.733921
58.345 10.346944
58.350 10.453421
58.355 10.43741
58.360 10.230159
58.365 10.709344
58.370 10.542409
58.375 10.449291
58.380 10.373821
58.385 10.673778
58.390 10.813395
58.395 11.488893
58.400 12.073261
58.405 12.468862
58.410 12.457144
58.415 12.616138
58.420 12.449839
58.425 12.474736
58.430 11.87072
58.435 11.046917
58.440 11.151505
58.445 11.181737
58.450 11.555699
58.455 12.020812
58.460 12.046878
58.465 12.697515
58.470 13.19428
58.475 13.261695
58.480 13.403718
58.485 13.161391
58.490 13.514367
58.495 13.626433
58.500 13.259279
58.505 13.685145
58.510 13.933835
58.515 14.586169
58.520 14.717669
58.525 14.254693
58.530 14.608542
58.535 14.941107
58.540 14.767864
58.545 15.047594
58.550 14.775492
58.555 15.42902
58.560 16.27021
58.565 16.634125
58.570 17.390177
58.575 18.238188
58.580 18.545029
58.585 18.817898
58.590 18.287121
58.595 18.604084
58.600 18.804338
58.605 18.514448
58.610 18.077766
58.615 18.306492
58.620 18.823473
58.625 18.678478
58.630 18.537786
58.635 18.329254
58.640 18.325701
58.645 18.84882
58.650 18.524275
58.655 18.26889
58.660 18.856676
58.665 19.023722
58.670 18.703386
58.675 19.134878
58.680 18.435987
58.685 18.099277
58.690 17.880028
58.695 17.838207
58.700 17.397421
58.705 17.538815
58.710 17.152884
58.715 16.954294
58.720 17.409052
58.725 17.454044
58.730 17.151522
58.735 17.324682
58.740 17.452688
58.745 17.78413
58.750 18.097191
58.755 17.783661
58.760 17.665092
58.765 17.574158
58.770 16.899191
58.775 16.783257
58.780 16.309528
58.785 16.165043
58.790 16.113075
58.795 16.201403
58.800 15.854277
58.805 15.748024
58.810 15.04797
58.815 14.753629
58.820 14.597983
58.825 14.471758
58.830 14.285172
58.835 14.499159
58.840 14.285398
58.845 14.124803
58.850 13.763701
58.855 13.841049
58.860 13.391095
58.865 13.275411
58.870 13.440083
58.875 13.64152
58.880 13.49572
58.885 13.815011
58.890 13.69519
58.895 13.634647
58.900 13.465604
58.905 13.464246
58.910 13.358523
58.915 13.557209
58.920 13.092163
58.925 13.034635
58.930 13.154789
58.935 12.796666
58.940 11.930863
58.945 11.919382
58.950 11.919045
58.955 11.704989
58.960 11.483842
58.965 11.41309
58.970 11.70814
58.975 11.563954
58.980 11.278794
58.985 11.001429
58.990 10.984101
58.995 11.057525
59.000 11.008222
59.005 10.957554
59.010 11.224378
59.015 11.642802
59.020 11.592969
59.025 11.448497
59.030 10.834591
59.035 10.471168
59.040 10.694389
59.045 11.14328
59.050 11.028951
59.055 11.267859
59.060 11.47998
59.065 11.872926
59.070 11.920019
59.075 11.069394
59.080 10.452884
59.085 10.067772
59.090 9.821423
59.095 9.735098
59.100 9.480932
59.105 9.754813
59.110 10.006858
59.115 9.858116
59.120 9.522109
59.125 9.508852
59.130 9.76056
59.135 9.6073
59.140 9.19349
59.145 9.175072
59.150 9.153912
59.155 9.503401
59.160 9.574325
59.165 9.127759
59.170 9.226836
59.175 9.357232
59.180 9.537401
59.185 9.860875
59.190 9.847288
59.195 9.76728
59.200 9.918518
59.205 10.275665
59.210 10.224114
59.215 9.827518
59.220 9.498723
59.225 9.111055
59.230 9.007162
59.235 8.741734
59.240 8.297208
59.245 8.315733
59.250 8.059839
59.255 8.281832
59.260 8.677109
59.265 8.588534
59.270 8.750149
59.275 9.073335
59.280 8.984718
59.285 9.455022
59.290 9.689324
59.295 9.516096
59.300 9.87921
59.305 10.119361
59.310 9.738018
59.315 9.8419
59.320 9.215508
59.325 9.432244
59.330 9.561954
59.335 9.341402
59.340 8.820485
59.345 8.769268
59.350 8.514619
59.355 8.598145
59.360 8.43789
59.365 8.435764
59.370 8.436313
59.375 8.938404
59.380 9.204179
59.385 9.373699
59.390 9.79946
59.395 9.710886
59.400 9.676577
59.405 9.534385
59.410 9.656238
59.415 9.793158
59.420 10.035078
59.425 9.989902
59.430 10.37941
59.435 10.700098
59.440 10.965665
59.445 10.644666
59.450 10.285805
59.455 10.213594
59.460 9.869761
59.465 9.760635
59.470 9.487308
59.475 9.093184
59.480 9.290905
59.485 9.474934
59.490 9.451777
59.495 9.230134
59.500 8.645986
59.505 8.551175
59.510 8.548863
59.515 8.480565
59.520 8.46157
59.525 8.840169
59.530 9.191312
59.535 9.515759
59.540 9.576503
59.545 9.644496
59.550 9.396641
59.555 9.294028
59.560 9.118267
59.565 9.204165
59.570 9.138749
59.575 9.764309
59.580 10.162814
59.585 10.279516
59.590 10.427271
59.595 10.246709
59.600 9.891518
59.605 9.931869
59.610 9.362003
59.615 8.930909
59.620 8.374352
59.625 8.097983
59.630 8.498125
59.635 8.877106
59.640 8.701675
59.645 8.80594
59.650 9.136753
59.655 9.45593
59.660 9.156675
59.665 8.670331
59.670 8.054017
59.675 8.146336
59.680 8.064304
59.685 7.971159
59.690 8.327791
59.695 8.200521
59.700 8.739569
59.705 9.06548
59.710 8.929179
59.715 9.135004
59.720 9.252934
59.725 9.248693
59.730 9.4796
59.735 9.192817
59.740 9.755248
59.745 9.87046
59.750 9.735394
59.755 9.745697
59.760 9.724079
59.765 9.826417
59.770 9.547086
59.775 9.157956
59.780 9.269044
59.785 9.312812
59.790 9.230857
59.795 8.881458
59.800 8.803427
59.805 9.153673
59.810 8.955329
59.815 8.50367
59.820 8.387817
59.825 8.715894
59.830 8.883759
59.835 8.740548
59.840 8.563835
59.845 9.018984
59.850 9.41151
59.855 9.395654
59.860 9.43015
59.865 9.972564
59.870 10.228574
59.875 10.593218
59.880 10.461278
59.885 10.218413
59.890 10.141358
59.895 9.79282
59.900 9.254535
59.905 8.854369
59.910 8.185097
59.915 7.549062
59.920 7.685174
59.925 7.957359
59.930 8.144798
59.935 7.891901
59.940 8.125313
59.945 8.734972
59.950 9.165888
59.955 8.961483
59.960 8.844948
59.965 8.6655
59.970 8.907765
59.975 9.145019
59.980 8.793693
59.985 8.693018
59.990 8.831264
59.995 9.143418
60.000 9.53586
60.005 9.31672
60.010 9.435441
60.015 9.847387
60.020 9.728629
60.025 9.493512
60.030 8.981988
60.035 8.501384
60.040 8.514253
60.045 8.741422
60.050 9.271786
60.055 9.721624
60.060 9.537092
60.065 9.599828
60.070 9.653207
60.075 9.430946
60.080 8.704659
60.085 7.977445
60.090 7.762272
60.095 8.122426
60.100 8.46032
60.105 8.936462
60.110 9.171288
60.115 9.152913
60.120 8.960852
60.125 9.019098
60.130 8.89497
60.135 8.762148
60.140 8.781612
60.145 8.864647
60.150 9.360868
60.155 9.943652
60.160 9.927301
60.165 10.110941
60.170 10.1037
60.175 9.898662
60.180 9.841928
60.185 9.392985
60.190 9.202939
60.195 9.182816
60.200 9.339067
60.205 9.537675
60.210 9.659198
60.215 9.512143
60.220 9.348722
60.225 9.35708
60.230 9.370014
60.235 9.163795
60.240 8.540352
60.245 8.264979
60.250 8.233541
60.255 8.138165
60.260 7.958311
60.265 7.872642
60.270 7.84642
60.275 8.511426
60.280 8.911246
60.285 8.977177
60.290 9.11657
60.295 8.94592
60.300 9.07042
60.305 9.13963
60.310 8.924436
60.315 8.891665
60.320 8.444151
60.325 8.112942
60.330 8.054592
60.335 8.074561
60.340 8.105639
60.345 7.794549
60.350 7.575581
60.355 7.877163
60.360 8.320724
60.365 8.343834
60.370 7.946723
60.375 7.950356
60.380 8.458694
60.385 8.558651
60.390 8.604813
60.395 8.704904
60.400 9.116774
60.405 9.336999
60.410 9.020197
60.415 8.686231
60.420 8.911422
60.425 9.085518
60.430 9.420375
60.435 9.434214
60.440 9.603292
60.445 9.59368
60.450 9.454813
60.455 9.30315
60.460 9.155542
60.465 9.249535
60.470 8.993761
60.475 8.935933
60.480 8.954841
60.485 9.136482
60.490 9.38864
60.495 9.575994
60.500 9.765059
60.505 10.175749
60.510 10.2181
60.515 10.670071
60.520 11.013889
60.525 10.794336
60.530 10.316636
60.535 9.329162
60.540 8.955059
60.545 8.563057
60.550 8.295807
60.555 7.448963
60.560 7.408682
60.565 7.61935
60.570 7.754878
60.575 8.177033
60.580 8.621904
60.585 8.948849
60.590 9.406392
60.595 9.523441
60.600 9.687551
60.605 10.125637
60.610 10.074501
60.615 10.308022
60.620 10.27784
60.625 10.358194
60.630 10.624487
60.635 10.49122
60.640 10.400686
60.645 9.997848
60.650 9.874086
60.655 9.902384
60.660 9.816443
60.665 9.516901
60.670 9.712087
60.675 9.580111
60.680 9.783802
60.685 9.496921
60.690 9.361492
60.695 9.413241
60.700 9.602691
60.705 9.567796
60.710 9.953922
60.715 10.092484
60.720 10.26948
60.725 10.230375
60.730 9.999577
60.735 9.992958
60.740 10.009045
60.745 9.959967
60.750 9.936702
60.755 9.942936
60.760 9.8358
60.765 10.098413
60.770 10.029769
60.775 9.607815
60.780 8.968556
60.785 8.806094
60.790 8.737687
60.795 8.776543
60.800 8.529929
60.805 8.472964
60.810 8.934731
60.815 9.215805
60.820 9.24669
60.825 9.214138
60.830 9.337243
60.835 9.39928
60.840 9.707801
60.845 9.962265
60.850 10.522054
60.855 10.644128
60.860 10.744478
60.865 10.853959
60.870 11.116714
60.875 11.033631
60.880 10.684041
60.885 10.217509
60.890 10.052547
60.895 9.962838
60.900 9.720363
60.905 9.245827
60.910 8.756546
60.915 8.80556
60.920 8.994858
60.925 9.075048
60.930 9.002968
60.935 8.755019
60.940 8.60118
60.945 8.953215
60.950 8.782375
60.955 8.833151
60.960 8.888453
60.965 9.069558
60.970 9.551932
60.975 9.766013
60.980 9.719027
60.985 9.681023
60.990 9.005748
60.995 8.80049
61.000 8.797439
61.005 8.619016
61.010 8.783928
61.015 8.730723
61.020 8.976091
61.025 9.357755
61.030 9.117992
61.035 8.816006
61.040 8.767358
61.045 8.446033
61.050 8.392904
61.055 8.407819
61.060 8.727825
61.065 9.391445
61.070 10.041698
61.075 10.208454
61.080 10.572562
61.085 10.752374
61.090 10.412914
61.095 10.430305
61.100 10.69858
61.105 10.34649
61.110 9.770993
61.115 9.681699
61.120 9.786467
61.125 10.041567
61.130 9.763138
61.135 8.980951
61.140 9.0782
61.145 9.792072
61.150 9.646153
61.155 9.276035
61.160 9.198432
61.165 9.425591
61.170 9.568647
61.175 9.394302
61.180 9.106693
61.185 9.094236
61.190 9.233119
61.195 9.766171
61.200 9.961503
61.205 10.297409
61.210 10.646126
61.215 10.690776
61.220 11.14539
61.225 11.450623
61.230 11.095829
61.235 10.847631
61.240 10.567777
61.245 10.374604
61.250 10.534781
61.255 10.352919
61.260 10.35222
61.265 10.125312
61.270 9.851977
61.275 9.820422
61.280 9.634858
61.285 9.488713
61.290 9.617599
61.295 9.216263
61.300 9.410436
61.305 10.033048
61.310 10.363495
61.315 10.810056
61.320 10.760654
61.325 10.522941
61.330 10.65587
61.335 10.350648
61.340 10.012294
61.345 9.806009
61.350 9.550603
61.355 9.689095
61.360 9.842723
61.365 9.853788
61.370 10.089397
61.375 9.823018
61.380 9.922027
61.385 10.058674
61.390 10.046341
61.395 10.086766
61.400 10.227014
61.405 9.865883
61.410 10.272811
61.415 10.008715
61.420 9.757146
61.425 9.243653
61.430 9.057847
61.435 9.301343
61.440 9.507966
61.445 9.3583
61.450 9.576217
61.455 10.161335
61.460 10.788755
61.465 10.544955
61.470 10.177876
61.475 10.112442
61.480 9.973635
61.485 10.070676
61.490 10.114999
61.495 9.91831
61.500 10.076402
61.505 9.938379
61.510 9.649157
61.515 9.406221
61.520 8.92132
61.525 8.705346
61.530 9.027868
61.535 8.914892
61.540 9.097436
61.545 9.548836
61.550 10.036242
61.555 10.244897
61.560 10.05429
61.565 10.156347
61.570 10.381969
61.575 10.506602
61.580 10.69101
61.585 10.224127
61.590 9.921056
61.595 9.859801
61.600 9.805575
61.605 9.632671
61.610 9.788033
61.615 9.675436
61.620 10.07548
61.625 10.501496
61.630 10.502285
61.635 10.305827
61.640 10.499997
61.645 10.439339
61.650 10.46863
61.655 10.415224
61.660 10.286457
61.665 10.083405
61.670 10.248672
61.675 10.637069
61.680 10.789374
61.685 10.891788
61.690 10.877617
61.695 11.488936
61.700 11.757577
61.705 11.56851
61.710 11.120063
61.715 11.124588
61.720 11.049898
61.725 10.977736
61.730 10.444387
61.735 10.286944
61.740 10.234426
61.745 10.111176
61.750 9.652851
61.755 9.173636
61.760 9.524391
61.765 9.684349
61.770 9.697698
61.775 10.128204
61.780 10.044446
61.785 9.965243
61.790 10.477723
61.795 10.181509
61.800 10.089155
61.805 10.230248
61.810 10.004427
61.815 10.43159
61.820 11.095913
61.825 10.704924
61.830 10.34103
61.835 10.254393
61.840 10.152098
61.845 9.981827
61.850 9.756083
61.855 9.847424
61.860 10.527343
61.865 11.154511
61.870 11.330096
61.875 10.995
61.880 11.209077
61.885 11.35519
61.890 10.764196
61.895 10.586275
61.900 10.253635
61.905 9.831607
61.910 10.230121
61.915 10.115915
61.920 10.04598
61.925 10.224687
61.930 9.982634
61.935 10.207196
61.940 10.307943
61.945 10.013133
61.950 9.942088
61.955 10.073735
61.960 10.237438
61.965 10.324858
61.970 10.208192
61.975 10.294053
61.980 10.636502
61.985 10.609307
61.990 10.235937
61.995 9.948875
62.000 9.75886
62.005 9.423716
62.010 9.392028
62.015 9.110778
62.020 8.813546
62.025 8.719201
62.030 8.221911
62.035 8.125851
62.040 7.973663
62.045 7.987945
62.050 8.249198
62.055 8.488375
62.060 8.771795
62.065 9.349562
62.070 9.507812
62.075 9.811182
62.080 9.699327
62.085 9.481848
62.090 9.640612
62.095 9.608433
62.100 9.484883
62.105 9.539823
62.110 9.401069
62.115 9.352356
62.120 10.000689
62.125 10.10278
62.130 10.329035
62.135 10.469369
62.140 10.352521
62.145 10.670968
62.150 10.718337
62.155 10.637178
62.160 10.375912
62.165 10.343102
62.170 10.492952
62.175 10.65449
62.180 10.875539
62.185 10.828999
62.190 10.316545
62.195 10.133655
62.200 9.518741
62.205 9.56671
62.210 10.238234
62.215 9.823398
62.220 9.43242
62.225 9.265037
62.230 9.661947
62.235 10.092801
62.240 9.668565
62.245 9.214172
62.250 9.119976
62.255 9.167347
62.260 9.324634
62.265 9.264315
62.270 9.80237
62.275 10.05925
62.280 9.965399
62.285 10.584529
62.290 11.358139
62.295 11.93552
62.300 11.884945
62.305 11.093019
62.310 10.687952
62.315 10.329869
62.320 9.67409
62.325 9.009347
62.330 8.669169
62.335 8.531058
62.340 8.262963
62.345 8.505157
62.350 8.447801
62.355 9.138416
62.360 9.46618
62.365 9.615899
62.370 10.112235
62.375 10.928907
62.380 11.23744
62.385 11.676567
62.390 11.197288
62.395 11.201877
62.400 11.191293
62.405 11.207306
62.410 11.43125
62.415 11.672971
62.420 11.402574
62.425 11.098076
62.430 11.165708
62.435 11.291946
62.440 11.17212
62.445 10.717286
62.450 10.8372
62.455 11.346434
62.460 11.254375
62.465 11.261024
62.470 10.803815
62.475 10.703197
62.480 10.759414
62.485 10.352219
62.490 9.940196
62.495 10.191593
62.500 9.741324
62.505 9.765305
62.510 9.65641
62.515 9.231176
62.520 9.433315
62.525 9.568929
62.530 9.633155
62.535 9.811428
62.540 9.621249
62.545 9.548289
62.550 9.827343
62.555 9.540492
62.560 9.571812
62.565 9.4262
62.570 9.715841
62.575 10.179926
62.580 10.125825
62.585 9.738688
62.590 9.721238
62.595 9.667989
62.600 9.738216
62.605 9.494628
62.610 9.13147
62.615 8.917359
62.620 9.082247
62.625 9.417569
62.630 9.185481
62.635 9.261129
62.640 9.09143
62.645 9.373293
62.650 9.800867
62.655 9.910397
62.660 10.245909
62.665 10.733104
62.670 10.965837
62.675 11.010016
62.680 10.82395
62.685 10.765329
62.690 11.025137
62.695 10.80775
62.700 10.394793
62.705 10.348589
62.710 11.000279
62.715 11.584266
62.720 11.641851
62.725 11.619838
62.730 11.585211
62.735 11.930027
62.740 11.949106
62.745 11.744407
62.750 11.4323
62.755 11.532093
62.760 11.119994
62.765 11.104437
62.770 11.058497
62.775 10.859183
62.780 10.633613
62.785 10.166939
62.790 10.079192
62.795 10.502861
62.800 10.711287
62.805 10.689798
62.810 10.598574
62.815 10.368524
62.820 10.77072
62.825 11.175919
62.830 11.291273
62.835 11.375601
62.840 11.786938
62.845 12.234845
62.850 12.925677
62.855 12.693366
62.860 12.218828
62.865 11.660335
62.870 11.334539
62.875 11.288951
62.880 11.097232
62.885 10.691742
62.890 10.504838
62.895 10.193843
62.900 10.217515
62.905 10.108078
62.910 9.726298
62.915 9.725844
62.920 10.002012
62.925 10.139714
62.930 10.371597
62.935 10.350843
62.940 10.657585
62.945 11.030169
62.950 11.064351
62.955 10.960335
62.960 10.537737
62.965 10.307141
62.970 10.702571
62.975 10.353085
62.980 10.227648
62.985 9.93683
62.990 9.884382
62.995 10.210735
63.000 10.290169
63.005 10.300394
63.010 10.602528
63.015 10.473209
63.020 10.671843
63.025 10.984024
63.030 10.884547
63.035 10.849675
63.040 10.543644
63.045 10.654275
63.050 10.648048
63.055 10.603893
63.060 10.557421
63.065 10.738019
63.070 11.023966
63.075 11.175862
63.080 10.841233
63.085 10.930991
63.090 10.80295
63.095 10.540792
63.100 10.337174
63.105 10.159299
63.110 9.988708
63.115 10.241795
63.120 10.64376
63.125 10.645593
63.130 10.706905
63.135 10.619781
63.140 10.346927
63.145 10.112234
63.150 10.088695
63.155 10.204174
63.160 10.235406
63.165 10.64342
63.170 11.073361
63.175 11.426717
63.180 11.141756
63.185 10.496703
63.190 9.706453
63.195 10.144521
63.200 10.181693
63.205 10.267078
63.210 10.484233
63.215 11.278429
63.220 12.051414
63.225 12.317813
63.230 11.897476
63.235 11.772587
63.240 11.74911
63.245 11.542319
63.250 10.911077
63.255 10.437377
63.260 10.270899
63.265 10.319871
63.270 10.372962
63.275 10.090971
63.280 9.963346
63.285 10.568271
63.290 10.700107
63.295 10.659893
63.300 10.769059
63.305 10.696457
63.310 11.074309
63.315 11.679733
63.320 11.61419
63.325 11.61327
63.330 11.4394
63.335 11.292406
63.340 11.131158
63.345 10.634038
63.350 10.051105
63.355 9.94954
63.360 10.265999
63.365 10.206491
63.370 10.060988
63.375 10.199885
63.380 10.36905
63.385 10.356036
63.390 10.533052
63.395 10.360858
63.400 10.597049
63.405 10.637831
63.410 10.375336
63.415 10.227223
63.420 10.357652
63.425 10.49976
63.430 10.724452
63.435 11.215322
63.440 11.557255
63.445 11.88469
63.450 12.08267
63.455 12.156321
63.460 12.124015
63.465 11.825988
63.470 11.827294
63.475 12.056888
63.480 12.286841
63.485 12.103581
63.490 12.649197
63.495 12.681786
63.500 12.746452
63.505 12.459095
63.510 11.988161
63.515 11.47999
63.520 11.193608
63.525 10.545028
63.530 10.641282
63.535 10.823339
63.540 10.866539
63.545 10.787448
63.550 11.152431
63.555 11.702847
63.560 11.660013
63.565 11.598285
63.570 12.077301
63.575 12.306299
63.580 12.943232
63.585 12.815812
63.590 12.543165
63.595 12.575982
63.600 12.371198
63.605 11.477753
63.610 10.885297
63.615 10.498539
63.620 10.755778
63.625 10.944265
63.630 10.691303
63.635 10.377192
63.640 10.267426
63.645 10.190842
63.650 10.070088
63.655 10.424089
63.660 10.975557
63.665 11.285026
63.670 11.409948
63.675 11.591299
63.680 11.897128
63.685 11.774595
63.690 10.978175
63.695 10.501137
63.700 10.374716
63.705 10.663318
63.710 10.659648
63.715 10.630667
63.720 10.88325
63.725 11.31813
63.730 11.529556
63.735 11.886692
63.740 11.838768
63.745 12.270082
63.750 12.37734
63.755 11.824675
63.760 11.35397
63.765 11.138159
63.770 11.151514
63.775 11.065181
63.780 10.908739
63.785 11.215723
63.790 11.922947
63.795 12.288507
63.800 12.606391
63.805 12.633859
63.810 12.489713
63.815 12.16991
63.820 12.150537
63.825 11.970516
63.830 12.132259
63.835 12.765573
63.840 13.154679
63.845 13.272875
63.850 13.282496
63.855 13.215446
63.860 13.066901
63.865 12.821981
63.870 12.073276
63.875 11.783178
63.880 12.392082
63.885 12.662184
63.890 12.660021
63.895 12.476434
63.900 12.383619
63.905 12.424238
63.910 11.784135
63.915 11.56262
63.920 11.411205
63.925 11.70514
63.930 12.494807
63.935 12.957542
63.940 13.156038
63.945 13.754506
63.950 13.873388
63.955 13.811601
63.960 13.413181
63.965 13.04262
63.970 12.129299
63.975 11.264122
63.980 10.973984
63.985 10.913407
63.990 11.341635
63.995 12.07185
64.000 12.442777
64.005 13.193694
64.010 13.93618
64.015 14.388599
64.020 14.722136
64.025 14.485347
64.030 14.123349
64.035 14.035366
64.040 14.304646
64.045 14.38723
64.050 13.933057
64.055 13.687275
64.060 13.652512
64.065 13.321611
64.070 13.077394
64.075 13.241448
64.080 13.649204
64.085 14.224805
64.090 14.510299
64.095 15.134187
64.100 15.742796
64.105 16.072119
64.110 16.278297
64.115 16.227566
64.120 16.240843
64.125 16.28672
64.130 16.381207
64.135 16.523394
64.140 16.961237
64.145 16.613945
64.150 15.959846
64.155 15.958511
64.160 16.366486
64.165 15.807104
64.170 15.887172
64.175 16.096584
64.180 16.514429
64.185 18.235657
64.190 18.798567
64.195 18.873461
64.200 19.317358
64.205 19.606792
64.210 19.674244
64.215 19.774679
64.220 19.288242
64.225 18.914846
64.230 19.252319
64.235 19.292324
64.240 18.760073
64.245 18.928001
64.250 18.790859
64.255 19.216997
64.260 19.867771
64.265 19.999344
64.270 20.572636
64.275 21.287817
64.280 21.236618
64.285 21.421194
64.290 21.816631
64.295 21.72682
64.300 21.789186
64.305 22.278143
64.310 22.158525
64.315 22.284206
64.320 22.729475
64.325 22.941391
64.330 23.406376
64.335 23.734985
64.340 24.18816
64.345 25.284555
64.350 26.061506
64.355 26.579128
64.360 26.565161
64.365 26.832691
64.370 26.821325
64.375 26.729519
64.380 26.78503
64.385 27.029072
64.390 26.860472
64.395 27.863821
64.400 28.15769
64.405 28.680038
64.410 28.890125
64.415 28.251526
64.420 27.682384
64.425 27.52812
64.430 26.7967
64.435 26.383154
64.440 25.699652
64.445 25.372356
64.450 25.949974
64.455 26.541124
64.460 26.787714
64.465 27.164993
64.470 28.111084
64.475 28.971903
64.480 29.10877
64.485 28.582611
64.490 28.461302
64.495 28.337101
64.500 28.383305
64.505 28.147596
64.510 27.521343
64.515 27.320589
64.520 27.72117
64.525 27.114197
64.530 26.789364
64.535 26.685644
64.540 25.922548
64.545 25.714432
64.550 25.229347
64.555 24.125435
64.560 23.649508
64.565 22.83441
64.570 21.799067
64.575 21.461002
64.580 20.679102
64.585 20.702375
64.590 21.153631
64.595 21.448814
64.600 21.692133
64.605 21.685802
64.610 21.865015
64.615 22.284071
64.620 22.239742
64.625 21.903219
64.630 21.357534
64.635 21.522358
64.640 21.369848
64.645 20.800777
64.650 19.714251
64.655 18.881449
64.660 18.454626
64.665 18.181665
64.670 17.541733
64.675 17.574844
64.680 17.815964
64.685 18.017811
64.690 18.17428
64.695 18.54475
64.700 18.424547
64.705 18.104851
64.710 17.135094
64.715 16.862288
64.720 17.023092
64.725 16.843607
64.730 16.617155
64.735 16.667648
64.740 16.406435
64.745 16.238577
64.750 16.28754
64.755 16.70808
64.760 16.815813
64.765 17.090502
64.770 17.331415
64.775 17.391087
64.780 17.790058
64.785 17.785398
64.790 17.221788
64.795 16.812393
64.800 16.129234
64.805 15.725508
64.810 15.834663
64.815 15.161479
64.820 14.325021
64.825 14.303411
64.830 14.329669
64.835 14.528944
64.840 15.18494
64.845 14.985286
64.850 14.798146
64.855 14.856856
64.860 14.739456
64.865 14.824534
64.870 14.601561
64.875 14.164673
64.880 14.644022
64.885 15.111341
64.890 15.220894
64.895 15.395777
64.900 15.604068
64.905 15.745818
64.910 15.748265
64.915 15.2494
64.920 15.071738
64.925 14.382466
64.930 14.166401
64.935 14.00461
64.940 13.834178
64.945 13.512626
64.950 13.306417
64.955 14.006577
64.960 14.70036
64.965 14.837142
64.970 15.292974
64.975 15.277987
64.980 15.445866
64.985 16.400999
64.990 16.704485
64.995 17.114475
65.000 17.229813
65.005 17.15934
65.010 17.957907
65.015 18.24877
65.020 18.543381
65.025 18.661047
65.030 18.553829
65.035 18.929159
65.040 19.2507
65.045 19.170528
65.050 18.848982
65.055 17.998003
65.060 17.592405
65.065 17.898714
65.070 17.998037
65.075 17.715364
65.080 17.644405
65.085 17.725304
65.090 18.322264
65.095 18.731915
65.100 18.750368
65.105 18.585348
65.110 18.535425
65.115 19.021933
65.120 19.808701
65.125 20.086674
65.130 20.086418
65.135 20.217779
65.140 20.728712
65.145 21.079014
65.150 21.073759
65.155 21.158724
65.160 21.176651
65.165 21.264784
65.170 20.850321
65.175 20.536274
65.180 20.625145
65.185 20.565071
65.190 19.9977
65.195 19.9417
65.200 20.336081
65.205 20.73241
65.210 21.417173
65.215 21.762554
65.220 21.603788
65.225 21.954813
65.230 21.933365
65.235 21.848843
65.240 21.862831
65.245 21.735788
65.250 21.769508
65.255 22.386597
65.260 22.526848
65.265 22.603456
65.270 22.529564
65.275 22.23336
65.280 22.143749
65.285 21.806919
65.290 21.552311
65.295 21.814335
65.300 21.763809
65.305 21.79649
65.310 22.044565
65.315 22.042164
65.320 22.09338
65.325 21.923365
65.330 21.320253
65.335 21.432854
65.340 21.547918
65.345 21.809687
65.350 21.297379
65.355 21.161007
65.360 20.937412
65.365 21.269455
65.370 21.61858
65.375 21.655998
65.380 21.498089
65.385 21.682777
65.390 21.763781
65.395 21.960289
65.400 21.960135
65.405 21.34417
65.410 21.099873
65.415 20.633732
65.420 21.059921
65.425 21.417503
65.430 21.37746
65.435 21.659529
65.440 22.08074
65.445 21.773289
65.450 21.678379
65.455 20.740452
65.460 20.241756
65.465 20.721535
65.470 19.980356
65.475 19.311163
65.480 20.161453
65.485 20.444221
65.490 20.797808
65.495 21.049719
65.500 21.011108
65.505 21.553505
65.510 21.621393
65.515 21.123257
65.520 21.244408
65.525 21.440022
65.530 20.72348
65.535 20.253191
65.540 20.126276
65.545 20.065952
65.550 20.193502
65.555 20.270262
65.560 20.072071
65.565 20.488657
65.570 20.987253
65.575 21.145231
65.580 21.738466
65.585 21.829266
65.590 21.977196
65.595 21.87401
65.600 22.096523
65.605 22.324585
65.610 23.173809
65.615 23.165621
65.620 23.402832
65.625 23.41725
65.630 23.473658
65.635 22.989866
65.640 22.338709
65.645 22.045204
65.650 21.849993
65.655 21.242489
65.660 20.70405
65.665 20.028994
65.670 20.386675
65.675 20.377562
65.680 20.173929
65.685 20.57395
65.690 20.036312
65.695 20.202034
65.700 20.784521
65.705 20.34911
65.710 20.407486
65.715 20.292036
65.720 20.165846
65.725 20.529575
65.730 20.505184
65.735 20.174061
65.740 20.561209
65.745 20.554756
65.750 20.013935
65.755 19.579712
65.760 19.377455
65.765 19.257704
65.770 19.265598
65.775 18.925995
65.780 18.200212
65.785 17.816759
65.790 17.837107
65.795 17.388008
65.800 17.689196
65.805 17.869581
65.810 17.989571
65.815 18.512787
65.820 18.941216
65.825 18.739429
65.830 19.09198
65.835 18.958221
65.840 18.57876
65.845 18.924585
65.850 19.105946
65.855 19.08231
65.860 19.616632
65.865 19.971977
65.870 19.995945
65.875 20.214821
65.880 19.934364
65.885 19.768858
65.890 19.559937
65.895 19.829395
65.900 19.954847
65.905 20.440624
65.910 20.373909
65.915 20.087145
65.920 20.180178
65.925 19.547184
65.930 18.609648
65.935 17.83539
65.940 17.293602
65.945 17.147879
65.950 16.990093
65.955 16.731962
65.960 16.56735
65.965 16.82011
65.970 17.735788
65.975 17.937883
65.980 18.022831
65.985 17.826548
65.990 17.9848
65.995 17.811956
66.000 17.961411
66.005 17.587372
66.010 17.356262
66.015 17.119804
66.020 17.216003
66.025 17.520597
66.030 17.582314
66.035 17.146374
66.040 16.28932
66.045 16.133577
66.050 16.065287
66.055 15.925118
66.060 15.437852
66.065 15.442205
66.070 15.54134
66.075 16.009674
66.080 15.981826
66.085 15.975044
66.090 16.011105
66.095 15.769159
66.100 15.815875
66.105 15.044482
66.110 14.406113
66.115 14.41341
66.120 14.066217
66.125 13.641356
66.130 13.474745
66.135 13.167761
66.140 13.808803
66.145 13.657257
66.150 13.258618
66.155 13.48091
66.160 13.786018
66.165 14.039751
66.170 14.326286
66.175 13.823154
66.180 14.029988
66.185 14.298451
66.190 14.264064
66.195 14.032386
66.200 14.087919
66.205 13.690434
66.210 13.693501
66.215 13.589577
66.220 13.813268
66.225 13.996196
66.230 14.122584
66.235 13.834038
66.240 13.922519
66.245 13.855284
66.250 13.440069
66.255 12.821379
66.260 13.136083
66.265 13.31904
66.270 13.750745
66.275 13.409227
66.280 13.362493
66.285 13.520879
66.290 13.703599
66.295 13.086658
66.300 12.799548
66.305 12.764296
66.310 13.341166
66.315 13.703064
66.320 13.908813
66.325 13.700448
66.330 13.557401
66.335 13.611556
66.340 13.350944
66.345 12.936786
66.350 12.890948
66.355 12.61842
66.360 12.918386
66.365 12.632417
66.370 11.914363
66.375 11.539813
66.380 11.373353
66.385 11.123337
66.390 11.156616
66.395 10.837544
66.400 11.537679
66.405 11.90024
66.410 12.479061
66.415 12.781754
66.420 12.564306
66.425 12.550869
66.430 12.305882
66.435 11.887538
66.440 11.851125
66.445 11.63588
66.450 11.334725
66.455 11.548341
66.460 11.660397
66.465 11.813135
66.470 12.316819
66.475 12.618976
66.480 12.509553
66.485 12.281624
66.490 12.704827
66.495 12.996857
66.500 12.768615
66.505 12.378113
66.510 12.205587
66.515 11.951146
66.520 11.993391
66.525 11.263103
66.530 11.084842
66.535 11.95654
66.540 11.650831
66.545 11.723701
66.550 12.140406
66.555 12.445068
66.560 12.893674
66.565 12.818898
66.570 12.622648
66.575 12.880663
66.580 12.700489
66.585 12.720709
66.590 12.755372
66.595 12.859751
66.600 12.599846
66.605 12.578398
66.610 12.352523
66.615 11.878084
66.620 12.424898
66.625 12.596004
66.630 12.177776
66.635 12.308933
66.640 12.514389
66.645 12.49614
66.650 12.771968
66.655 12.011128
66.660 11.781598
66.665 11.937634
66.670 11.827849
66.675 11.25233
66.680 11.557318
66.685 12.011539
66.690 12.460263
66.695 12.671913
66.700 13.005673
66.705 13.092918
66.710 13.148191
66.715 12.5709
66.720 12.241547
66.725 11.880938
66.730 11.710215
66.735 11.724482
66.740 11.744981
66.745 12.299836
66.750 12.704223
66.755 12.779305
66.760 13.071269
66.765 12.442112
66.770 11.935568
66.775 12.122106
66.780 11.647494
66.785 11.31902
66.790 11.03518
66.795 11.049211
66.800 11.555625
66.805 11.56386
66.810 11.104925
66.815 11.445313
66.820 11.883903
66.825 12.450131
66.830 12.129976
66.835 12.251329
66.840 12.479143
66.845 12.390637
66.850 12.140123
66.855 11.811569
66.860 11.69793
66.865 11.290064
66.870 10.917713
66.875 10.845665
66.880 11.103398
66.885 11.049107
66.890 11.177424
66.895 11.569953
66.900 12.122826
66.905 12.474126
66.910 12.095928
66.915 11.9548
66.920 11.639811
66.925 11.350612
66.930 11.400903
66.935 10.765516
66.940 10.824052
66.945 11.534215
66.950 11.540027
66.955 11.989602
66.960 11.610826
66.965 11.617188
66.970 12.323017
66.975 12.690711
66.980 12.755836
66.985 12.369014
66.990 12.04094
66.995 12.464506
67.000 12.159963
67.005 11.552501
67.010 10.918755
67.015 10.640693
67.020 10.90075
67.025 11.397236
67.030 11.296325
67.035 11.10548
67.040 11.495128
67.045 11.756508
67.050 11.916214
67.055 11.903545
67.060 11.747455
67.065 11.51265
67.070 12.02908
67.075 12.163099
67.080 11.993161
67.085 11.880772
67.090 12.026388
67.095 12.230645
67.100 12.495617
67.105 12.171319
67.110 11.711584
67.115 11.824873
67.120 12.151443
67.125 12.601814
67.130 13.085485
67.135 12.972848
67.140 13.140843
67.145 13.217831
67.150 13.28054
67.155 12.871201
67.160 12.261216
67.165 11.755689
67.170 12.20685
67.175 12.370801
67.180 12.451871
67.185 12.053267
67.190 12.399763
67.195 12.347815
67.200 12.4613
67.205 11.880225
67.210 12.10251
67.215 12.327195
67.220 12.443618
67.225 12.437149
67.230 12.415374
67.235 12.069489
67.240 12.101575
67.245 11.69419
67.250 11.984915
67.255 12.394568
67.260 12.490278
67.265 12.536946
67.270 12.748819
67.275 12.958407
67.280 13.06995
67.285 12.42099
67.290 11.875518
67.295 11.789577
67.300 11.77289
67.305 11.677528
67.310 11.293483
67.315 11.426544
67.320 12.146733
67.325 12.231589
67.330 12.136437
67.335 12.159329
67.340 12.132315
67.345 12.120314
67.350 11.530572
67.355 11.304636
67.360 11.388948
67.365 11.348009
67.370 11.583883
67.375 11.767224
67.380 12.182688
67.385 12.61462
67.390 12.754647
67.395 13.288426
67.400 13.377924
67.405 13.191572
67.410 13.359664
67.415 13.268987
67.420 12.917827
67.425 12.396799
67.430 12.036316
67.435 12.121909
67.440 12.021132
67.445 11.866277
67.450 12.021047
67.455 12.190438
67.460 12.549866
67.465 12.518151
67.470 12.165552
67.475 12.316363
67.480 12.264387
67.485 12.053528
67.490 12.274613
67.495 12.527483
67.500 12.55312
67.505 13.126564
67.510 12.813866
67.515 13.017845
67.520 12.971787
67.525 12.640208
67.530 12.377915
67.535 12.438266
67.540 12.246782
67.545 12.172708
67.550 12.160476
67.555 12.493482
67.560 12.718558
67.565 13.006365
67.570 12.45015
67.575 12.268797
67.580 11.987519
67.585 11.721662
67.590 11.925557
67.595 11.709201
67.600 11.908116
67.605 12.333742
67.610 12.589904
67.615 13.199523
67.620 13.302502
67.625 13.00127
67.630 12.927234
67.635 13.136329
67.640 13.048079
67.645 12.930603
67.650 12.675389
67.655 12.65029
67.660 12.841011
67.665 12.762344
67.670 12.614083
67.675 12.622814
67.680 12.237276
67.685 12.544389
67.690 12.735605
67.695 12.583238
67.700 12.7768
67.705 12.655209
67.710 12.915641
67.715 12.781862
67.720 12.145431
67.725 11.918743
67.730 11.958612
67.735 11.836049
67.740 12.119611
67.745 11.993911
67.750 12.737502
67.755 12.954389
67.760 12.895553
67.765 12.674802
67.770 12.595799
67.775 12.499198
67.780 12.599069
67.785 12.368708
67.790 12.230087
67.795 12.173804
67.800 12.391953
67.805 12.683443
67.810 12.711354
67.815 12.585508
67.820 12.635023
67.825 12.924862
67.830 13.349302
67.835 13.29256
67.840 12.58257
67.845 12.394141
67.850 12.360717
67.855 12.271216
67.860 12.033649
67.865 11.220714
67.870 10.259588
67.875 10.120034
67.880 9.937263
67.885 10.032117
67.890 9.621544
67.895 9.492325
67.900 10.463531
67.905 11.430712
67.910 11.972149
67.915 12.068998
67.920 12.135884
67.925 12.648181
67.930 12.606778
67.935 12.232048
67.940 11.976571
67.945 12.124559
67.950 12.514093
67.955 12.285844
67.960 12.183991
67.965 12.270458
67.970 12.557543
67.975 12.65
67.980 12.356839
67.985 11.880655
67.990 11.559845
67.995 11.36674
68.000 11.397325
68.005 11.223927
68.010 10.872288
68.015 10.760138
68.020 11.306857
68.025 12.308775
68.030 12.645555
68.035 12.895034
68.040 13.576624
68.045 13.895272
68.050 14.493272
68.055 14.2405
68.060 13.752403
68.065 13.610213
68.070 13.317316
68.075 13.26728
68.080 12.854708
68.085 12.637557
68.090 12.84499
68.095 12.867599
68.100 12.676428
68.105 12.802067
68.110 12.91572
68.115 13.346847
68.120 13.845714
68.125 14.089454
68.130 14.228411
68.135 14.429989
68.140 13.638
68.145 13.143053
68.150 13.170487
68.155 12.93065
68.160 12.881362
68.165 12.888312
68.170 12.942778
68.175 13.191801
68.180 13.454734
68.185 13.265874
68.190 13.260988
68.195 13.296075
68.200 13.233699
68.205 13.664527
68.210 14.004256
68.215 14.16491
68.220 13.970774
68.225 13.883763
68.230 14.081141
68.235 13.949916
68.240 13.667516
68.245 13.826647
68.250 13.74825
68.255 14.117975
68.260 13.722094
68.265 13.776422
68.270 14.331249
68.275 14.557071
68.280 14.303382
68.285 14.931211
68.290 14.955985
68.295 14.880793
68.300 15.013513
68.305 14.808539
68.310 15.512063
68.315 15.737806
68.320 15.376396
68.325 15.644049
68.330 15.620046
68.335 15.894438
68.340 15.401236
68.345 15.195679
68.350 15.566441
68.355 15.851177
68.360 16.106598
68.365 16.372385
68.370 16.500666
68.375 16.898638
68.380 16.981337
68.385 17.06246
68.390 16.849455
68.395 16.809702
68.400 16.587494
68.405 16.804893
68.410 17.34601
68.415 17.423115
68.420 17.643351
68.425 17.728142
68.430 18.370178
68.435 18.39101
68.440 18.027376
68.445 17.891392
68.450 18.698746
68.455 18.993389
68.460 19.421593
68.465 19.798243
68.470 20.340195
68.475 20.434134
68.480 20.014872
68.485 19.602583
68.490 19.577307
68.495 19.16032
68.500 18.461275
68.505 18.366238
68.510 18.814837
68.515 19.038509
68.520 18.743677
68.525 19.161776
68.530 20.181667
68.535 20.598663
68.540 20.407604
68.545 20.083767
68.550 20.052492
68.555 20.065533
68.560 19.708942
68.565 19.155333
68.570 19.268623
68.575 19.284573
68.580 19.50388
68.585 19.667868
68.590 20.496254
68.595 20.668777
68.600 20.446238
68.605 20.519199
68.610 21.435942
68.615 21.629595
68.620 21.794357
68.625 21.632118
68.630 21.678602
68.635 22.038437
68.640 22.090252
68.645 21.492088
68.650 21.705589
68.655 21.522223
68.660 21.693327
68.665 21.046459
68.670 20.214985
68.675 19.690533
68.680 19.634575
68.685 19.185135
68.690 18.83852
68.695 18.340227
68.700 18.30727
68.705 18.740456
68.710 18.725117
68.715 18.711679
68.720 18.777288
68.725 18.50952
68.730 18.734917
68.735 18.68297
68.740 18.476448
68.745 18.914495
68.750 18.738104
68.755 19.139517
68.760 19.303398
68.765 18.880466
68.770 19.34627
68.775 19.406956
68.780 19.131453
68.785 19.318462
68.790 20.051382
68.795 20.781982
68.800 21.300589
68.805 20.942968
68.810 21.272091
68.815 21.58675
68.820 21.214613
68.825 20.65888
68.830 20.48929
68.835 20.383833
68.840 20.504723
68.845 20.504591
68.850 20.355286
68.855 20.361111
68.860 19.915522
68.865 19.988737
68.870 20.23011
68.875 20.058315
68.880 19.727362
68.885 20.131691
68.890 20.098732
68.895 20.60635
68.900 20.404192
68.905 20.308542
68.910 20.163656
68.915 20.10137
68.920 19.562338
68.925 19.643812
68.930 19.30974
68.935 19.120335
68.940 19.437653
68.945 19.439709
68.950 19.15295
68.955 19.428402
68.960 19.57308
68.965 19.569599
68.970 19.558331
68.975 19.826874
68.980 20.077354
68.985 20.33383
68.990 20.196383
68.995 19.852776
69.000 19.401226
69.005 19.371681
69.010 19.047119
69.015 18.800587
69.020 18.732826
69.025 18.460424
69.030 18.298222
69.035 18.368967
69.040 18.215158
69.045 18.190071
69.050 17.878355
69.055 17.738832
69.060 17.78635
69.065 18.066444
69.070 18.575411
69.075 18.642879
69.080 18.773802
69.085 18.900303
69.090 18.875914
69.095 18.705618
69.100 18.726748
69.105 18.26454
69.110 18.532475
69.115 18.847
69.120 19.178169
69.125 19.384619
69.130 19.62137
69.135 19.001884
69.140 18.478342
69.145 17.68499
69.150 17.165543
69.155 17.077705
69.160 16.821861
69.165 16.406105
69.170 16.332264
69.175 16.810204
69.180 16.801741
69.185 16.384481
69.190 16.037832
69.195 15.803926
69.200 15.978396
69.205 16.029926
69.210 15.374699
69.215 15.273226
69.220 16.021738
69.225 16.368267
69.230 16.77277
69.235 16.759514
69.240 16.813473
69.245 16.96096
69.250 16.036924
69.255 15.271976
69.260 15.142046
69.265 14.66214
69.270 14.402526
69.275 14.617628
69.280 14.899302
69.285 15.790928
69.290 15.848526
69.295 15.773754
69.300 16.014751
69.305 15.852027
69.310 15.394596
69.315 15.04161
69.320 14.390932
69.325 14.112661
69.330 14.445272
69.335 14.685794
69.340 14.584512
69.345 14.214533
69.350 14.37761
69.355 14.793206
69.360 14.779222
69.365 14.442505
69.370 14.330626
69.375 14.792279
69.380 15.278442
69.385 15.158843
69.390 15.056129
69.395 14.802781
69.400 14.420492
69.405 13.802613
69.410 13.510111
69.415 13.246546
69.420 13.753839
69.425 13.753209
69.430 13.844
69.435 14.520915
69.440 14.437324
69.445 14.63168
69.450 14.839333
69.455 13.991948
69.460 13.577609
69.465 13.400973
69.470 13.07288
69.475 13.204345
69.480 13.052446
69.485 12.436519
69.490 12.769653
69.495 13.503073
69.500 13.277125
69.505 12.825182
69.510 12.578184
69.515 12.618321
69.520 12.468644
69.525 12.299622
69.530 12.016126
69.535 12.198257
69.540 12.410675
69.545 12.614518
69.550 12.888811
69.555 13.545033
69.560 13.593442
69.565 14.059821
69.570 14.374141
69.575 14.639952
69.580 14.390917
69.585 14.345995
69.590 14.161664
69.595 13.975658
69.600 13.431946
69.605 13.471887
69.610 13.671185
69.615 13.604611
69.620 13.419332
69.625 13.413206
69.630 13.511649
69.635 13.725727
69.640 13.304626
69.645 13.177658
69.650 13.514057
69.655 13.238579
69.660 13.157594
69.665 12.834631
69.670 12.054878
69.675 11.983961
69.680 11.799761
69.685 11.949215
69.690 12.33188
69.695 12.304267
69.700 13.049844
69.705 13.233943
69.710 13.144938
69.715 12.95131
69.720 12.714317
69.725 12.504002
69.730 11.99463
69.735 11.156791
69.740 11.517411
69.745 11.668677
69.750 11.572478
69.755 11.307673
69.760 11.767437
69.765 12.026415
69.770 12.334056
69.775 12.064884
69.780 12.250823
69.785 12.779081
69.790 12.399881
69.795 12.254367
69.800 12.248961
69.805 12.112195
69.810 12.407169
69.815 12.529411
69.820 12.857709
69.825 13.557982
69.830 13.913877
69.835 13.827998
69.840 14.353658
69.845 14.521606
69.850 14.439496
69.855 13.967752
69.860 13.202515
69.865 12.894074
69.870 13.242793
69.875 13.386343
69.880 12.594707
69.885 12.48671
69.890 12.599401
69.895 12.881528
69.900 12.797447
69.905 12.235209
69.910 11.97842
69.915 12.456901
69.920 12.557132
69.925 12.50863
69.930 11.856456
69.935 12.144425
69.940 12.263094
69.945 12.542715
69.950 12.587852
69.955 12.22069
69.960 12.735909
69.965 13.582508
69.970 13.190579
69.975 13.256755
69.980 13.438747
69.985 13.225655
69.990 13.210998
69.995 12.649087
70.000 12.645046
70.005 12.787044
70.010 12.3382
70.015 11.817704
70.020 11.931885
70.025 12.423996
70.030 12.668411
70.035 12.542003
70.040 12.346696
70.045 12.233151
70.050 12.084954
70.055 12.172703
70.060 11.948115
70.065 11.806891
70.070 11.782676
70.075 12.444207
70.080 12.814137
70.085 12.739544
70.090 12.676921
70.095 12.568179
70.100 12.646822
70.105 12.676619
70.110 12.205971
70.115 11.910295
70.120 11.910715
70.125 11.80365
70.130 12.053281
70.135 12.535857
70.140 11.991867
70.145 11.815419
70.150 11.71379
70.155 12.436775
70.160 12.377392
70.165 11.824905
70.170 11.482504
70.175 11.708765
70.180 11.868958
70.185 11.841579
70.190 11.607498
70.195 11.194534
70.200 11.561033
70.205 11.778442
70.210 12.187563
70.215 12.3285
70.220 12.552341
70.225 12.53928
70.230 12.753255
70.235 12.647837
70.240 12.276293
70.245 11.852746
70.250 12.14646
70.255 12.057557
70.260 12.238425
70.265 12.278497
70.270 12.225307
70.275 12.232186
70.280 12.42622
70.285 12.414277
70.290 12.382216
70.295 12.55719
70.300 12.843118
70.305 12.932101
70.310 13.41172
70.315 13.27738
70.320 13.08001
70.325 12.76034
70.330 12.44055
70.335 12.229109
70.340 11.859393
70.345 11.431268
70.350 11.306616
70.355 11.219381
70.360 11.691958
70.365 11.934384
70.370 12.004016
70.375 12.185621
70.380 12.663597
70.385 13.200833
70.390 13.382798
70.395 13.329634
70.400 12.782693
70.405 12.883461
70.410 12.855134
70.415 12.035029
70.420 11.671501
70.425 12.007676
70.430 12.160083
70.435 12.381208
70.440 12.054915
70.445 12.417089
70.450 12.898319
70.455 12.533195
70.460 12.244308
70.465 11.943172
70.470 11.709839
70.475 11.743509
70.480 11.142106
70.485 11.122957
70.490 11.077307
70.495 10.728621
70.500 10.865355
70.505 11.040934
70.510 11.426598
70.515 11.428924
70.520 11.539639
70.525 11.642156
70.530 11.979862
70.535 12.450657
70.540 12.529119
70.545 12.769309
70.550 12.839032
70.555 12.882915
70.560 12.996428
70.565 12.580789
70.570 11.98962
70.575 11.975226
70.580 11.908236
70.585 11.907763
70.590 11.842737
70.595 12.011343
70.600 12.44258
70.605 12.848968
70.610 12.847592
70.615 13.047058
70.620 13.299491
70.625 13.28051
70.630 13.371883
70.635 13.460993
70.640 13.205367
70.645 13.067136
70.650 12.772334
70.655 12.587057
70.660 12.473204
70.665 12.30842
70.670 11.76265
70.675 12.042757
70.680 12.267126
70.685 12.456161
70.690 12.210917
70.695 12.311914
70.700 12.401575
70.705 12.81579
70.710 12.664231
70.715 12.837808
70.720 12.970585
70.725 13.248637
70.730 12.763122
70.735 12.496461
70.740 12.077193
70.745 11.658053
70.750 11.698384
70.755 11.488817
70.760 11.706111
70.765 11.77789
70.770 11.851669
70.775 12.276042
70.780 12.463587
70.785 12.36759
70.790 12.368218
70.795 12.18154
70.800 12.786208
70.805 12.957857
70.810 12.879354
70.815 12.602162
70.820 12.758579
70.825 13.111563
70.830 13.427086
70.835 12.649141
70.840 12.001473
70.845 12.038601
70.850 11.799726
70.855 10.942769
70.860 10.192168
70.865 10.468578
70.870 10.669994
70.875 10.888613
70.880 10.90486
70.885 11.36254
70.890 11.721021
70.895 11.881398
70.900 11.704291
70.905 11.736851
70.910 11.213775
70.915 10.883142
70.920 10.735197
70.925 10.467861
70.930 10.428132
70.935 10.186657
70.940 10.487053
70.945 11.479906
70.950 11.778895
70.955 12.1145
70.960 12.220765
70.965 12.408778
70.970 12.497865
70.975 12.26926
70.980 12.25104
70.985 12.478052
70.990 12.537441
70.995 12.790846
71.000 12.761575
71.005 12.81813
71.010 13.006256
71.015 13.483868
71.020 13.90051
71.025 13.337332
71.030 13.159089
71.035 12.941972
71.040 13.179753
71.045 13.096786
71.050 12.338769
71.055 11.7448
71.060 11.447647
71.065 11.253341
71.070 11.03734
71.075 10.952395
71.080 10.587934
71.085 10.879739
71.090 11.500698
71.095 11.629354
71.100 12.238245
71.105 12.182229
71.110 11.976582
71.115 12.011792
71.120 11.876838
71.125 11.840779
71.130 12.028419
71.135 11.865893
71.140 11.900906
71.145 11.886686
71.150 11.642478
71.155 11.923372
71.160 11.957903
71.165 12.2805
71.170 12.819638
71.175 12.927407
71.180 12.976384
71.185 12.583068
71.190 12.432215
71.195 11.951632
71.200 11.580562
71.205 11.007281
71.210 11.534831
71.215 12.366061
71.220 12.831834
71.225 12.35277
71.230 12.516586
71.235 12.422662
71.240 12.570245
71.245 12.456601
71.250 11.752743
71.255 11.674384
71.260 12.328238
71.265 13.593168
71.270 14.202535
71.275 14.378047
71.280 13.969655
71.285 14.210366
71.290 14.074337
71.295 13.566107
71.300 12.610244
71.305 12.424998
71.310 12.087382
71.315 11.865593
71.320 11.687895
71.325 12.045179
71.330 12.150083
71.335 11.994125
71.340 11.612453
71.345 11.639767
71.350 11.778675
71.355 11.784872
71.360 11.459148
71.365 11.344481
71.370 11.287584
71.375 11.491723
71.380 11.651135
71.385 11.50115
71.390 11.323599
71.395 11.657418
71.400 12.211562
71.405 12.260542
71.410 12.388756
71.415 12.254758
71.420 12.596126
71.425 12.657299
71.430 12.500099
71.435 12.624959
71.440 12.182487
71.445 11.847137
71.450 11.682648
71.455 11.668865
71.460 11.705584
71.465 11.593241
71.470 11.551757
71.475 11.843694
71.480 12.073882
71.485 12.494936
71.490 12.631094
71.495 12.670465
71.500 12.24041
71.505 11.962513
71.510 12.232758
71.515 12.475385
71.520 12.23361
71.525 12.151124
71.530 11.995256
71.535 12.645809
71.540 12.773886
71.545 12.823692
71.550 12.990936
71.555 12.94266
71.560 12.616582
71.565 12.492682
71.570 12.453639
71.575 12.568974
71.580 12.246006
71.585 12.250403
71.590 12.088593
71.595 12.637008
71.600 12.646056
71.605 12.401338
71.610 11.837761
71.615 11.833878
71.620 11.752745
71.625 11.660581
71.630 11.101146
71.635 10.593186
71.640 10.960131
71.645 11.162089
71.650 11.003517
71.655 11.203561
71.660 11.542093
71.665 11.833885
71.670 11.468751
71.675 11.28153
71.680 11.549431
71.685 11.602051
71.690 11.582957
71.695 11.167584
71.700 11.219755
71.705 11.709867
71.710 11.452497
71.715 11.122659
71.720 11.135862
71.725 11.019661
71.730 11.461039
71.735 11.492831
71.740 11.824173
71.745 12.207959
71.750 12.388078
71.755 12.204691
71.760 12.333286
71.765 12.611009
71.770 12.527624
71.775 12.602215
71.780 13.074727
71.785 12.943029
71.790 13.012498
71.795 12.702424
71.800 12.708514
71.805 12.881315
71.810 12.472453
71.815 12.543169
71.820 12.631995
71.825 12.745552
71.830 12.534883
71.835 12.493953
71.840 13.019233
71.845 12.954796
71.850 13.106204
71.855 13.281723
71.860 13.594752
71.865 13.937818
71.870 13.587494
71.875 13.391134
71.880 13.086351
71.885 12.60775
71.890 12.397374
71.895 12.05416
71.900 11.980793
71.905 12.264859
71.910 12.44886
71.915 12.661112
71.920 12.62285
71.925 12.845346
71.930 12.637782
71.935 12.603507
71.940 12.012971
71.945 11.434041
71.950 11.110278
71.955 11.256068
71.960 10.933067
71.965 10.914511
71.970 10.697213
71.975 10.803778
71.980 10.51349
71.985 10.684844
71.990 10.908683
71.995 11.044462
72.000 11.333959
72.005 11.743401
72.010 11.66848
72.015 11.991585
72.020 12.304757
72.025 12.184502
72.030 12.065124
72.035 11.737678
72.040 11.541013
72.045 11.613975
72.050 11.771485
72.055 11.13997
72.060 11.341355
72.065 11.600138
72.070 11.951701
72.075 11.765103
72.080 11.711714
72.085 11.854963
72.090 12.322927
72.095 12.237034
72.100 12.139798
72.105 12.43016
72.110 12.831573
72.115 12.571439
72.120 12.138893
72.125 12.025291
72.130 12.23356
72.135 12.346277
72.140 11.9885
72.145 11.869581
72.150 12.132738
72.155 11.942976
72.160 11.992402
72.165 12.529468
72.170 12.570858
72.175 12.931381
72.180 13.400346
72.185 13.965192
72.190 14.05887
72.195 13.63966
72.200 13.132275
72.205 13.272007
72.210 13.238359
72.215 12.732852
72.220 12.75946
72.225 12.787018
72.230 13.211389
72.235 13.257686
72.240 13.129726
72.245 13.206543
72.250 13.203996
72.255 13.047215
72.260 12.910781
72.265 12.525469
72.270 12.888209
72.275 13.00747
72.280 13.55524
72.285 13.704129
72.290 13.729419
72.295 13.784616
72.300 13.49792
72.305 13.19368
72.310 13.081825
72.315 12.1784
72.320 12.780225
72.325 13.138223
72.330 13.403782
72.335 13.442694
72.340 13.118923
72.345 13.003576
72.350 13.082421
72.355 12.0954
72.360 11.84446
72.365 11.564308
72.370 11.732633
72.375 11.552823
72.380 11.627522
72.385 11.952435
72.390 12.264534
72.395 12.208935
72.400 12.054725
72.405 11.98671
72.410 11.88893
72.415 12.009603
72.420 12.08757
72.425 11.776778
72.430 12.049653
72.435 12.075621
72.440 12.100951
72.445 12.313764
72.450 12.547448
72.455 12.593174
72.460 13.027554
72.465 12.936666
72.470 12.558176
72.475 12.737307
72.480 12.731312
72.485 12.173931
72.490 12.174287
72.495 12.142695
72.500 11.856672
72.505 12.489525
72.510 12.313334
72.515 12.489095
72.520 12.178157
72.525 11.527425
72.530 11.350293
72.535 11.771326
72.540 11.67619
72.545 11.281498
72.550 11.169535
72.555 11.940851
72.560 12.799308
72.565 13.264536
72.570 13.059584
72.575 13.244115
72.580 13.477331
72.585 13.739719
72.590 13.60642
72.595 13.324226
72.600 13.452162
72.605 13.092989
72.610 12.872313
72.615 13.196015
72.620 13.301286
72.625 13.131975
72.630 12.55014
72.635 12.186511
72.640 12.152575
72.645 11.889788
72.650 11.276559
72.655 10.691364
72.660 10.697937
72.665 10.842001
72.670 10.961624
72.675 11.564636
72.680 11.681242
72.685 11.945892
72.690 12.624166
72.695 13.193882
72.700 13.664508
72.705 13.501348
72.710 13.180279
72.715 12.800285
72.720 12.438663
72.725 12.133642
72.730 12.079345
72.735 11.971713
72.740 11.963026
72.745 11.923132
72.750 11.769062
72.755 11.72366
72.760 11.320431
72.765 10.857374
72.770 10.89411
72.775 11.163249
72.780 11.529402
72.785 11.409372
72.790 11.183386
72.795 11.572993
72.800 11.977508
72.805 11.765301
72.810 11.75846
72.815 11.739614
72.820 12.085829
72.825 11.810042
72.830 10.71321
72.835 10.551875
72.840 10.326519
72.845 9.966547
72.850 9.841017
72.855 9.953234
72.860 10.311105
72.865 11.061069
72.870 11.196804
72.875 11.800091
72.880 12.052545
72.885 12.358831
72.890 12.495006
72.895 12.672239
72.900 12.210565
72.905 12.169514
72.910 11.965179
72.915 11.927694
72.920 11.621691
72.925 11.507409
72.930 11.386218
72.935 11.383999
72.940 11.346891
72.945 11.30528
72.950 11.206413
72.955 10.884742
72.960 10.881897
72.965 10.749141
72.970 10.743351
72.975 10.834778
72.980 10.918883
72.985 10.974814
72.990 11.460061
72.995 11.886071
73.000 12.14782
