!@!!GADDS PLOTSO FILE: Chi integration type
!@!!Title/SampleName: map-c9
!@!!Comment: ?
!@!!User: Bruker Instrument Administrator
!@!!Site: University of Illinois Chicago
!@!!Frame: map-c9_01_000.gfrm
!@!!Wavelengths    1.54184   1.54056   1.54439
!@!!Frame angles: 2Theta: 63.000 Omega: 50.000 Phi: 0.000 Chi: 90.000
!@!!Integration range: 2Theta: 53.000 to 73.000  Gamma: -105.000 to -75.000
!@!!Integration method: bin normalized
!@!N
!@!SS
!@!M
!@!L 0.0 0.0 0.0 0.0
!@!XDegrees
!@!YCounts
53.000 7.854208
53.005 8.175854
53.010 8.305963
53.015 8.639999
53.020 8.749252
53.025 8.738527
53.030 8.568796
53.035 8.285169
53.040 7.9936
53.045 7.700727
53.050 7.148115
53.055 7.106182
53.060 7.360186
53.065 7.529929
53.070 7.547382
53.075 8.300691
53.080 8.423116
53.085 8.608438
53.090 8.372455
53.095 8.207509
53.100 8.135343
53.105 8.043961
53.110 7.904985
53.115 7.791143
53.120 7.827337
53.125 7.733653
53.130 7.802495
53.135 8.082839
53.140 8.117131
53.145 8.006209
53.150 7.619339
53.155 7.54754
53.160 7.411176
53.165 7.26406
53.170 7.316746
53.175 7.261497
53.180 8.040106
53.185 8.61898
53.190 8.585503
53.195 8.287331
53.200 8.247592
53.205 8.134439
53.210 8.044373
53.215 7.348284
53.220 7.193577
53.225 7.203214
53.230 7.552184
53.235 7.348651
53.240 7.354893
53.245 7.619106
53.250 8.555429
53.255 9.100346
53.260 9.568469
53.265 9.621372
53.270 9.531288
53.275 9.572378
53.280 9.43746
53.285 8.871199
53.290 8.878281
53.295 8.65022
53.300 8.836637
53.305 9.112094
53.310 9.333126
53.315 9.233492
53.320 9.443506
53.325 9.614491
53.330 9.582368
53.335 9.171696
53.340 8.722497
53.345 8.180922
53.350 8.551869
53.355 8.171536
53.360 7.672668
53.365 7.991433
53.370 7.880274
53.375 8.085252
53.380 8.519174
53.385 8.338234
53.390 8.591093
53.395 8.530929
53.400 8.601902
53.405 9.128981
53.410 9.1674
53.415 8.657773
53.420 8.195639
53.425 8.116419
53.430 8.263595
53.435 8.358489
53.440 7.924563
53.445 7.624894
53.450 7.818332
53.455 8.017157
53.460 7.949104
53.465 7.589359
53.470 7.49891
53.475 7.92644
53.480 8.319351
53.485 8.422341
53.490 8.183033
53.495 8.377605
53.500 8.727338
53.505 8.932416
53.510 8.774308
53.515 8.803404
53.520 9.115322
53.525 9.623812
53.530 9.462559
53.535 9.280505
53.540 9.555084
53.545 9.874599
53.550 10.265046
53.555 10.036308
53.560 9.729634
53.565 9.569538
53.570 9.660118
53.575 9.313287
53.580 8.803191
53.585 8.433253
53.590 8.26604
53.595 8.426497
53.600 8.584306
53.605 8.418792
53.610 8.412085
53.615 8.368415
53.620 8.264466
53.625 8.306547
53.630 8.36941
53.635 8.444541
53.640 8.600502
53.645 8.43562
53.650 8.536366
53.655 9.11961
53.660 9.286974
53.665 9.036405
53.670 9.084553
53.675 8.619002
53.680 8.940786
53.685 8.917957
53.690 8.72783
53.695 8.82204
53.700 8.792882
53.705 8.696191
53.710 8.743519
53.715 8.758816
53.720 8.594739
53.725 8.12664
53.730 7.814015
53.735 7.642203
53.740 8.038209
53.745 8.29137
53.750 8.309315
53.755 8.418399
53.760 8.021846
53.765 8.181046
53.770 8.155239
53.775 7.476618
53.780 7.457707
53.785 7.300451
53.790 7.727836
53.795 8.090661
53.800 8.31317
53.805 8.605723
53.810 9.045259
53.815 9.255233
53.820 9.367144
53.825 9.197933
53.830 9.181377
53.835 9.161603
53.840 9.140121
53.845 8.78697
53.850 8.721628
53.855 9.022154
53.860 9.522805
53.865 9.774214
53.870 10.271921
53.875 10.235982
53.880 9.997293
53.885 9.665402
53.890 9.306746
53.895 9.016595
53.900 8.942555
53.905 8.522861
53.910 8.959143
53.915 9.635838
53.920 9.833846
53.925 9.903646
53.930 10.168036
53.935 9.963542
53.940 9.998089
53.945 9.993426
53.950 9.555871
53.955 9.294453
53.960 9.385493
53.965 9.129934
53.970 8.960269
53.975 8.745305
53.980 8.382409
53.985 8.454603
53.990 8.558634
53.995 8.532614
54.000 8.43785
54.005 8.739569
54.010 9.071233
54.015 9.230248
54.020 9.138268
54.025 8.805921
54.030 8.780673
54.035 9.120936
54.040 8.899512
54.045 8.711418
54.050 8.927329
54.055 8.807083
54.060 9.010306
54.065 9.185041
54.070 9.276423
54.075 9.26337
54.080 9.323725
54.085 9.546308
54.090 9.888328
54.095 10.238706
54.100 10.125777
54.105 10.133691
54.110 10.088309
54.115 9.928078
54.120 9.837765
54.125 9.764946
54.130 9.336386
54.135 9.343137
54.140 9.906543
54.145 10.432201
54.150 10.544007
54.155 10.682214
54.160 10.628849
54.165 10.311081
54.170 9.777199
54.175 9.189952
54.180 8.977966
54.185 9.063944
54.190 9.200265
54.195 9.416926
54.200 9.500172
54.205 9.694015
54.210 10.07776
54.215 10.377012
54.220 10.440672
54.225 10.666228
54.230 10.623006
54.235 10.878479
54.240 11.25639
54.245 10.617649
54.250 10.181712
54.255 9.844803
54.260 9.448981
54.265 9.585494
54.270 9.735637
54.275 9.274696
54.280 9.191607
54.285 9.057912
54.290 9.100653
54.295 9.235991
54.300 9.386769
54.305 9.27429
54.310 9.538514
54.315 9.952486
54.320 9.762012
54.325 10.012515
54.330 10.216744
54.335 10.041813
54.340 10.017135
54.345 9.914917
54.350 10.173203
54.355 10.532883
54.360 9.844695
54.365 9.522975
54.370 9.488477
54.375 9.741791
54.380 9.572429
54.385 9.202676
54.390 9.514011
54.395 10.042481
54.400 10.052117
54.405 9.949796
54.410 9.793693
54.415 10.02123
54.420 10.226415
54.425 10.033996
54.430 9.991901
54.435 10.18109
54.440 10.169529
54.445 10.183653
54.450 9.762016
54.455 9.384739
54.460 9.407022
54.465 9.254659
54.470 9.486224
54.475 9.415989
54.480 9.275236
54.485 9.151043
54.490 9.036881
54.495 8.996072
54.500 8.69322
54.505 8.26257
54.510 8.543734
54.515 8.741426
54.520 8.933517
54.525 9.084513
54.530 8.887278
54.535 9.2356
54.540 9.062089
54.545 8.952046
54.550 9.186906
54.555 9.174527
54.560 9.114669
54.565 9.375695
54.570 9.69854
54.575 10.581498
54.580 10.77754
54.585 10.444945
54.590 10.349704
54.595 10.085696
54.600 9.867579
54.605 9.46366
54.610 9.266899
54.615 9.544063
54.620 10.032348
54.625 10.136948
54.630 10.572818
54.635 10.638277
54.640 10.575122
54.645 10.218425
54.650 10.071712
54.655 9.771052
54.660 9.434397
54.665 9.052247
54.670 8.921414
54.675 8.644465
54.680 8.674148
54.685 9.259653
54.690 9.793141
54.695 10.258997
54.700 10.242025
54.705 10.616627
54.710 10.990236
54.715 11.240913
54.720 10.590878
54.725 10.677237
54.730 10.868608
54.735 11.165098
54.740 11.354766
54.745 10.403947
54.750 9.442075
54.755 9.403127
54.760 9.034483
54.765 9.123439
54.770 8.792036
54.775 8.819908
54.780 9.602674
54.785 10.091281
54.790 9.882692
54.795 10.023913
54.800 10.23544
54.805 10.20108
54.810 10.129814
54.815 10.038578
54.820 10.127721
54.825 10.557938
54.830 10.418074
54.835 10.616605
54.840 10.859596
54.845 10.995601
54.850 10.825805
54.855 11.052098
54.860 10.76239
54.865 10.377053
54.870 9.955798
54.875 9.921047
54.880 9.567971
54.885 9.446319
54.890 9.191405
54.895 9.541143
54.900 9.692724
54.905 9.690225
54.910 9.527443
54.915 9.967045
54.920 10.008453
54.925 10.156875
54.930 9.94008
54.935 10.265216
54.940 10.620931
54.945 10.530053
54.950 10.226648
54.955 10.674268
54.960 10.382273
54.965 10.333795
54.970 10.287233
54.975 10.112469
54.980 9.893054
54.985 9.560046
54.990 9.405229
54.995 9.798488
55.000 9.601108
55.005 9.609765
55.010 10.051615
55.015 10.260667
55.020 10.630143
55.025 10.791517
55.030 10.602271
55.035 10.700409
55.040 10.557972
55.045 10.282739
55.050 9.946094
55.055 9.745526
55.060 9.706561
55.065 9.538965
55.070 9.261457
55.075 9.518104
55.080 9.834356
55.085 10.301027
55.090 10.337882
55.095 10.150547
55.100 10.696979
55.105 11.244699
55.110 11.079552
55.115 11.076619
55.120 10.622113
55.125 10.389059
55.130 10.385448
55.135 9.722493
55.140 9.184933
55.145 8.893955
55.150 8.800242
55.155 9.292603
55.160 9.207444
55.165 9.537707
55.170 9.997229
55.175 10.322713
55.180 10.5638
55.185 10.800852
55.190 11.137524
55.195 11.371778
55.200 11.504253
55.205 11.119074
55.210 11.032807
55.215 11.0657
55.220 10.827785
55.225 10.729733
55.230 10.430052
55.235 10.184997
55.240 10.426316
55.245 10.994514
55.250 11.227121
55.255 11.024511
55.260 10.891345
55.265 10.616624
55.270 10.620974
55.275 10.491351
55.280 10.083694
55.285 9.674395
55.290 9.896948
55.295 10.277765
55.300 10.667994
55.305 10.612047
55.310 10.710418
55.315 10.693302
55.320 10.860514
55.325 10.777006
55.330 10.760005
55.335 11.169502
55.340 11.761504
55.345 11.748955
55.350 11.660624
55.355 12.061797
55.360 12.136516
55.365 12.400126
55.370 12.1665
55.375 11.771182
55.380 11.716624
55.385 11.798634
55.390 11.691152
55.395 11.763041
55.400 11.304748
55.405 10.971566
55.410 10.8327
55.415 10.652025
55.420 10.378459
55.425 9.424156
55.430 9.313657
55.435 8.997544
55.440 9.034884
55.445 9.308825
55.450 9.262591
55.455 9.387077
55.460 10.248382
55.465 10.638254
55.470 11.26015
55.475 11.232522
55.480 11.083418
55.485 11.28745
55.490 11.103287
55.495 10.201576
55.500 9.679057
55.505 10.055774
55.510 10.093482
55.515 9.984651
55.520 9.898909
55.525 10.048335
55.530 10.117878
55.535 10.004757
55.540 9.542381
55.545 9.694965
55.550 9.876066
55.555 10.009562
55.560 10.14401
55.565 10.452779
55.570 10.408927
55.575 10.455775
55.580 10.665073
55.585 10.650351
55.590 10.683935
55.595 10.82875
55.600 11.075356
55.605 11.079775
55.610 11.221168
55.615 11.033611
55.620 10.854361
55.625 10.893117
55.630 10.199257
55.635 9.694841
55.640 9.796645
55.645 9.858069
55.650 10.17952
55.655 10.342743
55.660 10.600791
55.665 11.332913
55.670 11.741751
55.675 11.255484
55.680 11.163248
55.685 10.961383
55.690 10.929508
55.695 10.544553
55.700 10.56512
55.705 10.629057
55.710 10.919068
55.715 10.781831
55.720 10.871498
55.725 10.601229
55.730 10.887545
55.735 11.094541
55.740 11.098671
55.745 11.113327
55.750 10.878651
55.755 10.668949
55.760 10.564363
55.765 10.469914
55.770 10.128085
55.775 10.167945
55.780 10.118345
55.785 10.052125
55.790 10.476714
55.795 10.684993
55.800 10.774453
55.805 10.830076
55.810 11.194078
55.815 11.524486
55.820 12.122417
55.825 12.081747
55.830 12.333013
55.835 12.575891
55.840 12.10782
55.845 12.006238
55.850 12.284183
55.855 11.966285
55.860 12.06271
55.865 12.290174
55.870 12.539559
55.875 13.301043
55.880 13.242537
55.885 12.930883
55.890 12.870299
55.895 12.601435
55.900 11.640879
55.905 11.029203
55.910 10.676017
55.915 11.103245
55.920 11.396764
55.925 11.53886
55.930 11.7323
55.935 12.126843
55.940 12.101014
55.945 11.980749
55.950 12.016974
55.955 11.767542
55.960 11.92898
55.965 11.650059
55.970 11.767764
55.975 11.542237
55.980 12.00465
55.985 11.776557
55.990 11.626348
55.995 11.361859
56.000 11.592945
56.005 11.473978
56.010 11.471954
56.015 10.940661
56.020 10.427526
56.025 10.240482
56.030 10.341509
56.035 10.523672
56.040 10.568484
56.045 10.862423
56.050 10.792522
56.055 11.05725
56.060 10.768983
56.065 10.754306
56.070 10.762881
56.075 10.098659
56.080 9.638429
56.085 9.795005
56.090 9.879478
56.095 9.880335
56.100 9.638935
56.105 9.352746
56.110 9.970005
56.115 10.212621
56.120 10.634104
56.125 10.742724
56.130 10.942897
56.135 11.195117
56.140 11.491865
56.145 11.413651
56.150 11.166998
56.155 10.908981
56.160 10.899642
56.165 10.760493
56.170 11.269923
56.175 11.207355
56.180 11.222681
56.185 11.212399
56.190 11.437483
56.195 11.829464
56.200 11.949592
56.205 11.440817
56.210 11.579898
56.215 11.763638
56.220 11.900819
56.225 11.487392
56.230 11.436922
56.235 11.845493
56.240 12.425923
56.245 12.471258
56.250 12.707925
56.255 12.339749
56.260 12.358993
56.265 12.488482
56.270 12.147131
56.275 11.929524
56.280 12.089987
56.285 11.902303
56.290 12.172087
56.295 12.14081
56.300 12.191117
56.305 12.473258
56.310 12.148284
56.315 11.972449
56.320 11.839534
56.325 12.263586
56.330 12.184879
56.335 11.571703
56.340 11.24859
56.345 11.517913
56.350 11.449388
56.355 11.878482
56.360 11.690857
56.365 11.670789
56.370 11.879366
56.375 12.115265
56.380 11.949235
56.385 12.597223
56.390 12.409304
56.395 12.334575
56.400 12.78173
56.405 12.768278
56.410 12.5655
56.415 12.129521
56.420 11.570357
56.425 11.651208
56.430 11.789453
56.435 11.500282
56.440 11.01029
56.445 10.731139
56.450 10.878693
56.455 11.013562
56.460 10.519355
56.465 10.620891
56.470 10.985931
56.475 11.293487
56.480 11.753889
56.485 12.242054
56.490 12.914177
56.495 13.67289
56.500 13.633858
56.505 13.572945
56.510 13.411987
56.515 13.28357
56.520 12.580376
56.525 12.309697
56.530 12.042851
56.535 12.254551
56.540 12.477955
56.545 12.226203
56.550 11.95076
56.555 11.783823
56.560 11.038397
56.565 10.957334
56.570 10.478144
56.575 10.5183
56.580 10.668932
56.585 10.874638
56.590 11.12103
56.595 12.074149
56.600 11.70642
56.605 11.35613
56.610 11.07921
56.615 11.379765
56.620 11.675416
56.625 11.496078
56.630 11.2301
56.635 11.514331
56.640 11.811279
56.645 12.332313
56.650 12.571376
56.655 12.568063
56.660 12.418793
56.665 12.32141
56.670 12.302453
56.675 12.273478
56.680 12.344532
56.685 12.596294
56.690 12.640188
56.695 12.997979
56.700 12.855327
56.705 13.236249
56.710 13.85409
56.715 13.845973
56.720 13.666683
56.725 13.666967
56.730 13.777946
56.735 14.410361
56.740 14.343595
56.745 13.847166
56.750 13.385633
56.755 13.39252
56.760 13.650969
56.765 13.698588
56.770 13.315111
56.775 13.333709
56.780 13.584421
56.785 13.778328
56.790 13.54864
56.795 13.333396
56.800 12.956547
56.805 12.752161
56.810 12.604689
56.815 12.503187
56.820 12.812892
56.825 13.038615
56.830 13.072035
56.835 13.249574
56.840 13.162075
56.845 12.808343
56.850 12.763602
56.855 12.672779
56.860 12.329368
56.865 12.213963
56.870 12.183082
56.875 12.46453
56.880 12.604196
56.885 12.220511
56.890 11.917268
56.895 11.751801
56.900 11.698315
56.905 11.773398
56.910 11.198838
56.915 11.112529
56.920 10.903637
56.925 10.798818
56.930 11.140108
56.935 11.082188
56.940 11.11844
56.945 11.334837
56.950 11.453586
56.955 11.956976
56.960 12.189182
56.965 12.085601
56.970 12.157471
56.975 12.169665
56.980 12.607056
56.985 13.033119
56.990 12.741024
56.995 12.735583
57.000 12.709966
57.005 12.774967
57.010 12.735925
57.015 12.800916
57.020 12.649062
57.025 13.403417
57.030 13.511408
57.035 13.371215
57.040 13.38787
57.045 13.429879
57.050 13.106334
57.055 13.17574
57.060 12.752364
57.065 12.50835
57.070 12.818048
57.075 13.125895
57.080 13.072106
57.085 13.317336
57.090 13.613001
57.095 13.744473
57.100 14.024091
57.105 14.098207
57.110 13.814944
57.115 13.511336
57.120 13.438594
57.125 12.992505
57.130 13.212364
57.135 13.316022
57.140 12.716648
57.145 12.288171
57.150 12.896674
57.155 12.256303
57.160 11.96423
57.165 11.70578
57.170 11.813578
57.175 12.688863
57.180 13.396754
57.185 13.08173
57.190 13.619164
57.195 14.388342
57.200 14.451653
57.205 14.213663
57.210 13.561294
57.215 13.283023
57.220 13.401201
57.225 13.237948
57.230 12.427781
57.235 12.285783
57.240 12.438663
57.245 12.692723
57.250 12.191321
57.255 12.29185
57.260 12.323049
57.265 12.674803
57.270 12.58842
57.275 12.477652
57.280 12.59654
57.285 12.946301
57.290 12.772532
57.295 12.356091
57.300 11.929931
57.305 11.622419
57.310 11.61107
57.315 11.458899
57.320 11.622861
57.325 11.901259
57.330 12.581233
57.335 13.116481
57.340 13.40729
57.345 13.480452
57.350 13.367356
57.355 13.31274
57.360 13.235985
57.365 12.880226
57.370 12.923527
57.375 13.001735
57.380 12.932798
57.385 13.349654
57.390 14.149132
57.395 14.204797
57.400 14.730635
57.405 14.416746
57.410 13.662331
57.415 13.666636
57.420 13.232312
57.425 12.855935
57.430 13.014496
57.435 12.89417
57.440 13.172831
57.445 13.84886
57.450 14.289108
57.455 14.757412
57.460 14.343423
57.465 14.458201
57.470 14.275325
57.475 14.468527
57.480 14.384501
57.485 14.361906
57.490 13.971157
57.495 14.133132
57.500 13.671421
57.505 13.217585
57.510 12.550132
57.515 12.347884
57.520 12.005837
57.525 11.935714
57.530 12.096086
57.535 12.760453
57.540 13.204116
57.545 13.631133
57.550 13.877472
57.555 13.72342
57.560 13.500341
57.565 13.911031
57.570 13.374816
57.575 12.844022
57.580 13.149741
57.585 13.260128
57.590 13.657589
57.595 13.769667
57.600 13.56462
57.605 14.089971
57.610 14.488466
57.615 13.716282
57.620 13.421292
57.625 13.484061
57.630 13.270248
57.635 12.755898
57.640 12.353561
57.645 11.98769
57.650 12.020181
57.655 11.879765
57.660 11.385621
57.665 11.426088
57.670 11.406341
57.675 11.999016
57.680 12.261534
57.685 12.507126
57.690 12.404484
57.695 12.411478
57.700 12.597749
57.705 13.000737
57.710 12.6206
57.715 13.005914
57.720 13.467523
57.725 13.943893
57.730 14.682447
57.735 15.212947
57.740 15.152258
57.745 15.128838
57.750 15.115354
57.755 14.911273
57.760 15.138867
57.765 15.049665
57.770 14.430688
57.775 14.262215
57.780 14.485188
57.785 14.716311
57.790 15.040233
57.795 14.760582
57.800 14.125892
57.805 14.22754
57.810 14.793312
57.815 14.931337
57.820 14.836134
57.825 14.878244
57.830 14.938714
57.835 15.513448
57.840 15.934354
57.845 15.888408
57.850 15.87792
57.855 16.17919
57.860 15.905301
57.865 15.473457
57.870 14.874729
57.875 14.561898
57.880 15.031155
57.885 14.91905
57.890 14.780627
57.895 14.862665
57.900 15.319918
57.905 16.0161
57.910 15.887957
57.915 15.056245
57.920 15.396712
57.925 15.270181
57.930 15.086954
57.935 14.367697
57.940 13.815318
57.945 13.852921
57.950 14.167815
57.955 14.203065
57.960 14.37365
57.965 14.634941
57.970 14.805979
57.975 15.139862
57.980 15.272301
57.985 14.833471
57.990 14.707411
57.995 14.459345
58.000 14.619626
58.005 15.383265
58.010 15.371249
58.015 15.155015
58.020 14.892506
58.025 14.855376
58.030 15.58567
58.035 15.782046
58.040 15.248596
58.045 15.282037
58.050 15.24708
58.055 15.687682
58.060 15.691726
58.065 15.365957
58.070 15.183908
58.075 15.168262
58.080 14.914812
58.085 15.482409
58.090 15.718801
58.095 15.974743
58.100 16.321663
58.105 16.243063
58.110 16.722658
58.115 16.736357
58.120 16.898643
58.125 16.715353
58.130 16.15316
58.135 16.482569
58.140 17.039381
58.145 17.358774
58.150 17.303741
58.155 16.684509
58.160 16.646692
58.165 17.229523
58.170 17.455196
58.175 17.006287
58.180 16.655552
58.185 16.164612
58.190 16.570286
58.195 16.62491
58.200 16.024939
58.205 15.5069
58.210 15.626282
58.215 15.659019
58.220 16.145119
58.225 15.721941
58.230 15.602217
58.235 15.59611
58.240 15.16863
58.245 14.987791
58.250 15.641064
58.255 16.247068
58.260 16.42757
58.265 16.469442
58.270 16.385262
58.275 16.789669
58.280 17.048635
58.285 16.782557
58.290 16.247019
58.295 16.763332
58.300 17.506821
58.305 18.352058
58.310 18.547216
58.315 18.893528
58.320 18.923483
58.325 19.062336
58.330 18.659948
58.335 18.861082
58.340 18.686672
58.345 18.77137
58.350 18.612501
58.355 18.716564
58.360 19.050203
58.365 19.035379
58.370 18.673328
58.375 19.0289
58.380 19.198277
58.385 19.578785
58.390 20.191236
58.395 20.894741
58.400 21.347109
58.405 21.131676
58.410 20.965305
58.415 21.060001
58.420 21.004951
58.425 20.702675
58.430 20.500177
58.435 20.487547
58.440 20.761028
58.445 20.591425
58.450 20.743427
58.455 20.390034
58.460 20.306154
58.465 20.380005
58.470 21.077768
58.475 21.679783
58.480 21.77195
58.485 21.924196
58.490 23.079155
58.495 24.298449
58.500 24.506205
58.505 24.933064
58.510 25.061436
58.515 26.071556
58.520 27.32766
58.525 28.529474
58.530 28.844337
58.535 29.141254
58.540 28.889364
58.545 30.030678
58.550 30.343596
58.555 29.967312
58.560 30.095104
58.565 30.246561
58.570 30.803093
58.575 31.330721
58.580 30.864426
58.585 31.42683
58.590 31.410954
58.595 31.225138
58.600 30.983652
58.605 31.120321
58.610 31.123741
58.615 30.544748
58.620 30.169092
58.625 30.567635
58.630 31.575521
58.635 32.105431
58.640 32.021542
58.645 32.283913
58.650 32.960266
58.655 33.353897
58.660 33.10799
58.665 32.043213
58.670 31.953365
58.675 32.359879
58.680 32.050789
58.685 31.68442
58.690 31.944275
58.695 32.554367
58.700 33.491447
58.705 33.690067
58.710 33.325554
58.715 33.335667
58.720 32.4702
58.725 32.335995
58.730 31.985689
58.735 31.07695
58.740 30.379957
58.745 30.374071
58.750 30.418592
58.755 31.015862
58.760 30.124252
58.765 29.511055
58.770 28.968029
58.775 28.672495
58.780 28.535631
58.785 28.394396
58.790 28.08959
58.795 28.069708
58.800 27.154755
58.805 26.660288
58.810 26.257099
58.815 25.419497
58.820 24.427
58.825 23.866346
58.830 22.962519
58.835 22.538546
58.840 22.652412
58.845 22.423326
58.850 22.471975
58.855 22.455296
58.860 22.628422
58.865 22.476095
58.870 22.929874
58.875 23.19902
58.880 23.77751
58.885 23.650881
58.890 24.231735
58.895 23.950613
58.900 23.763992
58.905 22.46043
58.910 21.890682
58.915 21.288088
58.920 21.162571
58.925 20.345028
58.930 20.423233
58.935 20.952629
58.940 21.902367
58.945 21.368647
58.950 20.827028
58.955 20.120546
58.960 20.218489
58.965 20.186262
58.970 19.217218
58.975 18.828897
58.980 19.094801
58.985 18.880217
58.990 19.074024
58.995 18.692949
59.000 18.326973
59.005 18.182816
59.010 17.787819
59.015 17.853912
59.020 17.9734
59.025 17.632153
59.030 17.395414
59.035 17.234262
59.040 17.943138
59.045 17.815067
59.050 17.518827
59.055 17.571665
59.060 17.852476
59.065 18.023327
59.070 17.722458
59.075 17.240677
59.080 17.5149
59.085 17.089146
59.090 17.066481
59.095 16.599199
59.100 16.34738
59.105 16.390553
59.110 16.196533
59.115 15.541091
59.120 15.694874
59.125 15.947062
59.130 16.40534
59.135 16.416107
59.140 16.244879
59.145 16.216429
59.150 16.232098
59.155 16.462685
59.160 16.466593
59.165 15.812089
59.170 15.783034
59.175 15.666797
59.180 15.412419
59.185 15.579
59.190 15.190776
59.195 14.91601
59.200 14.921562
59.205 14.964478
59.210 14.761317
59.215 14.884602
59.220 14.596427
59.225 14.178121
59.230 14.176849
59.235 14.463596
59.240 14.496245
59.245 14.689131
59.250 14.985887
59.255 15.245541
59.260 15.608494
59.265 15.271045
59.270 14.99579
59.275 15.347381
59.280 15.167582
59.285 14.618594
59.290 14.182475
59.295 13.914398
59.300 13.887577
59.305 13.762628
59.310 13.49847
59.315 13.151153
59.320 12.94487
59.325 13.216246
59.330 13.172722
59.335 13.362997
59.340 13.05463
59.345 12.982834
59.350 13.451782
59.355 13.921371
59.360 14.154689
59.365 14.30084
59.370 14.358236
59.375 14.626513
59.380 15.188513
59.385 15.279957
59.390 15.334736
59.395 15.287073
59.400 15.726443
59.405 15.817977
59.410 16.178633
59.415 15.779422
59.420 15.963668
59.425 16.19759
59.430 16.435587
59.435 16.421978
59.440 16.474335
59.445 16.376423
59.450 16.507339
59.455 16.432178
59.460 16.751303
59.465 16.843105
59.470 16.592537
59.475 16.325275
59.480 16.213097
59.485 16.398714
59.490 16.635649
59.495 16.183945
59.500 15.781785
59.505 15.79925
59.510 15.557303
59.515 15.183411
59.520 14.741815
59.525 14.494288
59.530 14.382201
59.535 14.176812
59.540 13.965099
59.545 14.276955
59.550 14.950695
59.555 15.461647
59.560 15.352122
59.565 14.708413
59.570 14.747413
59.575 15.086932
59.580 14.628381
59.585 13.852346
59.590 13.633836
59.595 13.461928
59.600 13.878365
59.605 13.935703
59.610 13.911014
59.615 14.634405
59.620 14.779382
59.625 14.998948
59.630 15.662414
59.635 15.941209
59.640 15.879931
59.645 15.829091
59.650 15.761216
59.655 15.788791
59.660 15.825052
59.665 15.225261
59.670 14.799014
59.675 14.68841
59.680 14.769035
59.685 14.550802
59.690 14.787994
59.695 14.556117
59.700 14.952081
59.705 15.260641
59.710 15.669953
59.715 15.660063
59.720 16.149027
59.725 15.861955
59.730 15.590263
59.735 15.508692
59.740 15.788151
59.745 15.424855
59.750 15.061598
59.755 14.867495
59.760 14.862357
59.765 15.16679
59.770 14.908764
59.775 14.655914
59.780 14.444907
59.785 14.318555
59.790 13.643882
59.795 13.389183
59.800 12.859161
59.805 12.530086
59.810 12.435734
59.815 12.508417
59.820 12.723496
59.825 13.432007
59.830 14.202627
59.835 14.526333
59.840 14.216763
59.845 14.522828
59.850 15.108938
59.855 15.408471
59.860 15.040066
59.865 14.911139
59.870 15.586545
59.875 16.142126
59.880 15.934196
59.885 15.440865
59.890 15.707482
59.895 15.483411
59.900 15.055024
59.905 14.540636
59.910 14.917583
59.915 15.200119
59.920 15.368618
59.925 14.972453
59.930 15.562304
59.935 15.967378
59.940 15.413324
59.945 14.705866
59.950 14.812248
59.955 15.137248
59.960 15.321393
59.965 14.908612
59.970 14.225543
59.975 13.930807
59.980 13.733843
59.985 13.254764
59.990 12.622719
59.995 12.431751
60.000 12.984176
60.005 13.484767
60.010 14.713026
60.015 15.047244
60.020 15.1569
60.025 14.803959
60.030 14.600608
60.035 14.181616
60.040 14.248653
60.045 14.092462
60.050 14.027972
60.055 14.247046
60.060 14.63457
60.065 14.59584
60.070 14.948298
60.075 15.038751
60.080 14.556917
60.085 14.899743
60.090 15.30407
60.095 15.390245
60.100 15.389644
60.105 15.278764
60.110 14.999236
60.115 15.44526
60.120 15.501522
60.125 15.511682
60.130 15.683559
60.135 15.877906
60.140 15.744416
60.145 15.81294
60.150 15.539842
60.155 15.054763
60.160 14.953624
60.165 14.635162
60.170 14.489891
60.175 14.704027
60.180 14.730189
60.185 14.54065
60.190 13.917413
60.195 13.720004
60.200 14.077712
60.205 14.122982
60.210 13.516496
60.215 13.406389
60.220 12.974682
60.225 13.04998
60.230 12.907404
60.235 12.707015
60.240 12.609468
60.245 12.387453
60.250 12.784965
60.255 13.338292
60.260 13.854384
60.265 14.112077
60.270 14.444852
60.275 14.93749
60.280 15.276508
60.285 15.100116
60.290 15.131329
60.295 14.822384
60.300 14.340103
60.305 13.959876
60.310 13.455731
60.315 13.672954
60.320 13.411851
60.325 13.347781
60.330 13.504471
60.335 14.045367
60.340 14.715617
60.345 14.960904
60.350 15.227637
60.355 15.535831
60.360 15.94414
60.365 16.509083
60.370 16.160244
60.375 15.536621
60.380 15.558495
60.385 15.103063
60.390 14.832014
60.395 14.328388
60.400 13.93252
60.405 14.035066
60.410 14.485663
60.415 13.890969
60.420 14.287663
60.425 14.821843
60.430 14.847802
60.435 14.928703
60.440 14.449088
60.445 14.245313
60.450 14.422034
60.455 14.511497
60.460 14.74894
60.465 15.148329
60.470 15.514615
60.475 15.597028
60.480 15.564276
60.485 15.791316
60.490 14.946414
60.495 14.353667
60.500 13.995795
60.505 14.293358
60.510 14.420728
60.515 14.927326
60.520 14.56552
60.525 14.84052
60.530 14.662975
60.535 14.272503
60.540 13.540588
60.545 13.414354
60.550 13.216769
60.555 13.846522
60.560 14.110478
60.565 14.09772
60.570 14.322297
60.575 14.599695
60.580 14.751673
60.585 14.950248
60.590 15.176383
60.595 15.297801
60.600 15.725651
60.605 16.198009
60.610 16.224833
60.615 15.875338
60.620 15.510135
60.625 15.302675
60.630 15.270807
60.635 15.019963
60.640 14.192672
60.645 14.360804
60.650 14.821291
60.655 15.001576
60.660 14.86203
60.665 15.124057
60.670 15.044506
60.675 15.586241
60.680 15.600121
60.685 14.867666
60.690 14.566273
60.695 14.349495
60.700 13.886407
60.705 14.410119
60.710 15.020535
60.715 15.180249
60.720 15.918248
60.725 16.254868
60.730 16.382431
60.735 16.600166
60.740 16.010511
60.745 15.391583
60.750 15.009698
60.755 14.978641
60.760 15.319687
60.765 15.395829
60.770 15.584112
60.775 15.658795
60.780 15.631391
60.785 16.079819
60.790 16.031631
60.795 15.793189
60.800 16.091705
60.805 15.468611
60.810 15.115749
60.815 15.213552
60.820 14.959332
60.825 14.630531
60.830 14.284048
60.835 14.482129
60.840 14.715621
60.845 15.311334
60.850 15.306124
60.855 15.58336
60.860 15.838797
60.865 16.045904
60.870 15.945073
60.875 15.749631
60.880 14.959442
60.885 15.39079
60.890 15.769338
60.895 15.41422
60.900 15.299807
60.905 15.197857
60.910 15.645709
60.915 16.267532
60.920 15.634365
60.925 15.041368
60.930 15.496921
60.935 15.865551
60.940 16.044525
60.945 15.720304
60.950 15.777777
60.955 15.797104
60.960 16.196404
60.965 16.212423
60.970 16.126579
60.975 15.773745
60.980 15.78296
60.985 15.748364
60.990 15.889269
60.995 15.342617
61.000 15.07477
61.005 14.754048
61.010 14.881015
61.015 15.046949
61.020 14.565152
61.025 14.291192
61.030 14.946549
61.035 14.955544
61.040 14.79461
61.045 14.514504
61.050 14.167989
61.055 14.114717
61.060 14.038834
61.065 13.740892
61.070 14.008606
61.075 14.516793
61.080 15.132024
61.085 15.662003
61.090 16.072672
61.095 15.942447
61.100 15.498534
61.105 15.30055
61.110 15.110918
61.115 14.810852
61.120 15.445432
61.125 15.242687
61.130 15.292636
61.135 15.581434
61.140 15.612288
61.145 15.800821
61.150 15.965341
61.155 15.114593
61.160 15.438358
61.165 15.673276
61.170 15.757277
61.175 15.474848
61.180 15.533916
61.185 15.729462
61.190 15.466632
61.195 14.675868
61.200 14.676328
61.205 15.091805
61.210 15.533143
61.215 15.008438
61.220 14.744693
61.225 15.816901
61.230 16.616516
61.235 16.460979
61.240 15.904922
61.245 15.89852
61.250 15.905498
61.255 15.762321
61.260 15.232839
61.265 15.220663
61.270 15.553515
61.275 15.352967
61.280 15.063644
61.285 14.974651
61.290 15.085512
61.295 15.198812
61.300 15.099646
61.305 14.889774
61.310 15.010619
61.315 15.061768
61.320 14.989798
61.325 15.171099
61.330 14.980638
61.335 14.877346
61.340 14.904203
61.345 14.417069
61.350 14.616542
61.355 14.91975
61.360 14.654897
61.365 14.809981
61.370 15.270198
61.375 15.60918
61.380 16.065886
61.385 15.565495
61.390 15.816847
61.395 15.877485
61.400 15.677986
61.405 15.266218
61.410 15.53259
61.415 15.939155
61.420 16.088936
61.425 15.947129
61.430 15.435756
61.435 15.227434
61.440 14.976257
61.445 14.478001
61.450 13.974302
61.455 14.575291
61.460 14.123816
61.465 14.665378
61.470 15.130063
61.475 15.580298
61.480 15.508459
61.485 15.860445
61.490 15.365445
61.495 15.166379
61.500 14.996636
61.505 15.013549
61.510 15.211512
61.515 15.896441
61.520 16.092371
61.525 16.281771
61.530 16.657612
61.535 16.655867
61.540 16.605379
61.545 16.359871
61.550 16.34704
61.555 16.451256
61.560 16.500603
61.565 16.720047
61.570 16.785778
61.575 16.674114
61.580 16.775143
61.585 16.621403
61.590 16.509327
61.595 16.47296
61.600 16.824215
61.605 17.33712
61.610 17.620401
61.615 17.757719
61.620 17.789698
61.625 17.273693
61.630 17.285959
61.635 17.204355
61.640 16.497408
61.645 16.259218
61.650 15.59691
61.655 15.198628
61.660 15.593948
61.665 15.564342
61.670 15.448706
61.675 15.770294
61.680 15.431803
61.685 15.605885
61.690 15.509329
61.695 15.343192
61.700 15.382991
61.705 15.310741
61.710 15.171279
61.715 15.574812
61.720 15.214316
61.725 15.159728
61.730 14.975406
61.735 15.285024
61.740 15.07778
61.745 14.983557
61.750 14.411427
61.755 14.356591
61.760 14.181736
61.765 13.954915
61.770 13.760628
61.775 14.026052
61.780 13.93459
61.785 13.943725
61.790 14.210762
61.795 14.974654
61.800 15.648428
61.805 15.680225
61.810 15.639495
61.815 16.17869
61.820 16.378094
61.825 17.190975
61.830 17.208124
61.835 16.613979
61.840 16.064642
61.845 15.702332
61.850 15.453225
61.855 15.267325
61.860 14.763673
61.865 14.849786
61.870 14.928778
61.875 15.202453
61.880 15.93211
61.885 16.455601
61.890 17.159529
61.895 17.119761
61.900 17.349962
61.905 17.326405
61.910 17.472231
61.915 16.820328
61.920 16.468683
61.925 16.342945
61.930 16.418634
61.935 16.264425
61.940 16.356625
61.945 16.175695
61.950 16.473078
61.955 16.886641
61.960 16.687445
61.965 16.007648
61.970 15.574345
61.975 15.908226
61.980 16.246683
61.985 16.16205
61.990 16.028179
61.995 16.220924
62.000 16.210041
62.005 16.090425
62.010 15.794121
62.015 15.424832
62.020 14.861165
62.025 14.512013
62.030 14.800687
62.035 15.154857
62.040 15.187734
62.045 15.603193
62.050 15.644502
62.055 15.944974
62.060 16.323326
62.065 16.405928
62.070 16.474936
62.075 16.264894
62.080 15.790662
62.085 15.656475
62.090 15.813045
62.095 15.769238
62.100 15.287139
62.105 15.439439
62.110 15.629714
62.115 15.790033
62.120 15.951763
62.125 15.649081
62.130 15.274287
62.135 15.416392
62.140 15.123986
62.145 15.161964
62.150 15.669982
62.155 16.687607
62.160 17.400112
62.165 17.748997
62.170 18.713587
62.175 18.932903
62.180 19.020138
62.185 18.817064
62.190 18.149958
62.195 17.46508
62.200 17.050695
62.205 16.318445
62.210 16.715179
62.215 16.744127
62.220 16.362101
62.225 16.821075
62.230 16.781189
62.235 17.274591
62.240 17.250313
62.245 16.943108
62.250 17.031273
62.255 17.051785
62.260 16.225176
62.265 16.157528
62.270 15.428803
62.275 15.365628
62.280 15.647006
62.285 15.823741
62.290 16.059504
62.295 16.275293
62.300 16.542679
62.305 16.320457
62.310 15.802223
62.315 14.88341
62.320 14.533689
62.325 14.144734
62.330 13.917749
62.335 13.99402
62.340 14.930023
62.345 16.087948
62.350 16.56596
62.355 16.870581
62.360 17.162895
62.365 17.206038
62.370 17.10309
62.375 17.02302
62.380 16.417534
62.385 16.483875
62.390 16.597595
62.395 16.524618
62.400 17.283241
62.405 16.961382
62.410 16.335722
62.415 16.300379
62.420 16.312498
62.425 16.142527
62.430 16.572479
62.435 16.158876
62.440 16.645367
62.445 17.050787
62.450 17.243048
62.455 16.844028
62.460 15.951355
62.465 15.491005
62.470 15.583337
62.475 15.175322
62.480 14.861934
62.485 14.230946
62.490 14.228118
62.495 14.938535
62.500 14.704099
62.505 14.388398
62.510 14.815661
62.515 14.826503
62.520 15.454098
62.525 15.478243
62.530 14.992841
62.535 15.095061
62.540 15.327793
62.545 15.505691
62.550 15.83244
62.555 16.325157
62.560 16.438818
62.565 16.69846
62.570 16.493225
62.575 16.244904
62.580 15.88013
62.585 15.931946
62.590 15.933525
62.595 16.281746
62.600 16.44359
62.605 16.802967
62.610 17.330774
62.615 17.151506
62.620 16.345812
62.625 15.657579
62.630 15.6123
62.635 15.305326
62.640 15.096967
62.645 15.002128
62.650 15.646851
62.655 16.206123
62.660 16.078135
62.665 16.072676
62.670 16.344303
62.675 16.308111
62.680 15.777978
62.685 15.409757
62.690 16.155308
62.695 16.843687
62.700 16.894392
62.705 17.479353
62.710 17.908211
62.715 18.440502
62.720 18.844137
62.725 18.56426
62.730 18.335537
62.735 18.203476
62.740 17.388266
62.745 17.144377
62.750 17.140873
62.755 16.972153
62.760 16.77088
62.765 16.948921
62.770 16.968573
62.775 16.906301
62.780 16.480749
62.785 16.039515
62.790 15.980007
62.795 16.169119
62.800 15.888165
62.805 16.053633
62.810 15.947505
62.815 16.417822
62.820 16.440237
62.825 16.243786
62.830 15.550745
62.835 15.090483
62.840 15.251409
62.845 15.690342
62.850 15.656984
62.855 15.778461
62.860 16.089588
62.865 16.127781
62.870 16.736324
62.875 17.403545
62.880 17.303396
62.885 17.114073
62.890 17.321367
62.895 17.032003
62.900 17.097212
62.905 16.749353
62.910 16.05854
62.915 16.009609
62.920 15.524549
62.925 14.974307
62.930 14.875354
62.935 14.695178
62.940 14.460481
62.945 14.098796
62.950 14.190898
62.955 14.376813
62.960 14.255422
62.965 13.999075
62.970 14.049679
62.975 14.205957
62.980 14.328568
62.985 13.874248
62.990 14.362425
62.995 15.269558
63.000 15.746733
63.005 16.823608
63.010 17.300982
63.015 17.606115
63.020 18.516581
63.025 18.117691
63.030 17.543171
63.035 18.095144
63.040 17.570774
63.045 17.491852
63.050 17.943378
63.055 18.274612
63.060 18.755205
63.065 19.079056
63.070 18.223043
63.075 17.966827
63.080 17.740913
63.085 17.092978
63.090 16.527794
63.095 16.251118
63.100 16.19022
63.105 16.169825
63.110 15.631676
63.115 15.268635
63.120 15.712313
63.125 15.977745
63.130 15.882685
63.135 15.697821
63.140 16.204561
63.145 16.932676
63.150 16.629587
63.155 15.547814
63.160 14.877425
63.165 15.076211
63.170 15.382228
63.175 14.882695
63.180 14.639464
63.185 15.25928
63.190 15.997421
63.195 16.152153
63.200 15.804149
63.205 15.240614
63.210 15.59993
63.215 15.432705
63.220 15.493279
63.225 15.834224
63.230 16.77355
63.235 17.048199
63.240 17.05298
63.245 17.213289
63.250 17.788342
63.255 18.173248
63.260 17.892424
63.265 17.539345
63.270 17.90024
63.275 17.929098
63.280 17.634657
63.285 18.017994
63.290 17.934214
63.295 17.879906
63.300 17.852859
63.305 17.881371
63.310 18.134165
63.315 18.111107
63.320 17.663212
63.325 17.474054
63.330 16.988243
63.335 16.792599
63.340 16.702936
63.345 16.809999
63.350 16.918486
63.355 16.304031
63.360 16.113255
63.365 16.508287
63.370 16.312601
63.375 16.005884
63.380 15.772028
63.385 15.47812
63.390 16.062447
63.395 16.353619
63.400 16.433092
63.405 16.581736
63.410 16.196337
63.415 15.861044
63.420 16.198647
63.425 16.840378
63.430 16.745132
63.435 16.891972
63.440 17.111307
63.445 17.378855
63.450 17.801868
63.455 17.736452
63.460 17.092665
63.465 17.29558
63.470 17.178463
63.475 17.001198
63.480 17.404076
63.485 17.399263
63.490 16.684633
63.495 16.83045
63.500 17.138184
63.505 17.634954
63.510 17.989922
63.515 17.834061
63.520 18.278872
63.525 18.799036
63.530 18.31184
63.535 17.718811
63.540 17.412319
63.545 17.387026
63.550 17.988335
63.555 17.878958
63.560 17.776922
63.565 17.66124
63.570 17.520555
63.575 17.603998
63.580 17.294739
63.585 16.596542
63.590 16.285843
63.595 16.437498
63.600 16.623604
63.605 16.72443
63.610 16.165909
63.615 15.576209
63.620 15.403788
63.625 15.585017
63.630 15.897398
63.635 15.694695
63.640 15.917221
63.645 16.416531
63.650 17.059759
63.655 17.244831
63.660 17.212996
63.665 17.467875
63.670 17.839109
63.675 17.55666
63.680 17.629553
63.685 17.530632
63.690 17.571703
63.695 17.547007
63.700 17.185024
63.705 17.441469
63.710 17.801346
63.715 18.553722
63.720 18.832188
63.725 19.023567
63.730 18.842983
63.735 18.914724
63.740 18.482058
63.745 18.635656
63.750 17.88979
63.755 17.395872
63.760 17.400894
63.765 17.451403
63.770 17.516054
63.775 17.882618
63.780 17.405012
63.785 17.437757
63.790 17.800676
63.795 16.924276
63.800 16.898737
63.805 16.877466
63.810 16.490664
63.815 16.150787
63.820 16.061615
63.825 15.640854
63.830 16.282555
63.835 16.892754
63.840 17.616413
63.845 18.141821
63.850 18.513174
63.855 18.794426
63.860 19.903183
63.865 20.157825
63.870 19.241199
63.875 18.612162
63.880 18.528788
63.885 18.597565
63.890 18.551809
63.895 18.245293
63.900 17.985214
63.905 18.418568
63.910 18.397356
63.915 18.210518
63.920 18.495218
63.925 18.39336
63.930 18.256376
63.935 18.291468
63.940 18.564703
63.945 19.003448
63.950 19.217539
63.955 19.410931
63.960 19.615898
63.965 19.731785
63.970 20.010675
63.975 20.090876
63.980 19.856173
63.985 19.64706
63.990 19.436289
63.995 19.556791
64.000 19.270359
64.005 19.197962
64.010 19.171938
64.015 19.644062
64.020 20.814243
64.025 21.07996
64.030 21.458052
64.035 22.396513
64.040 22.999891
64.045 23.682854
64.050 24.175209
64.055 23.767982
64.060 23.919401
64.065 24.002382
64.070 23.882608
64.075 24.20056
64.080 24.242029
64.085 24.102669
64.090 24.055088
64.095 24.58112
64.100 23.958504
64.105 23.783531
64.110 24.042343
64.115 24.155764
64.120 24.574991
64.125 24.744951
64.130 24.943584
64.135 25.761549
64.140 26.357767
64.145 25.897964
64.150 26.746656
64.155 27.207039
64.160 28.231035
64.165 28.559704
64.170 29.964222
64.175 30.425095
64.180 31.166079
64.185 31.021011
64.190 31.478891
64.195 31.51326
64.200 31.69626
64.205 31.223415
64.210 31.391571
64.215 32.329227
64.220 33.225319
64.225 33.876347
64.230 33.83271
64.235 34.411434
64.240 35.309963
64.245 35.789299
64.250 35.820328
64.255 36.242886
64.260 36.971775
64.265 37.806507
64.270 38.372482
64.275 38.511993
64.280 38.40094
64.285 38.209061
64.290 38.444157
64.295 39.019333
64.300 39.471153
64.305 39.292862
64.310 38.838226
64.315 38.980598
64.320 39.370728
64.325 39.628155
64.330 39.072769
64.335 38.8573
64.340 39.265694
64.345 39.862991
64.350 40.064816
64.355 40.802059
64.360 41.853695
64.365 43.045971
64.370 43.419003
64.375 43.50386
64.380 44.593185
64.385 45.491871
64.390 44.838009
64.395 44.850384
64.400 44.881851
64.405 45.145195
64.410 45.333767
64.415 45.486862
64.420 45.41217
64.425 45.756317
64.430 46.007565
64.435 45.880081
64.440 46.234859
64.445 46.225449
64.450 45.318787
64.455 44.639187
64.460 44.490288
64.465 43.368973
64.470 43.100929
64.475 42.962341
64.480 42.460571
64.485 42.521572
64.490 43.887367
64.495 44.468136
64.500 44.19714
64.505 43.278759
64.510 42.338604
64.515 42.197727
64.520 42.598103
64.525 41.704967
64.530 40.854454
64.535 40.993198
64.540 40.87048
64.545 40.836666
64.550 40.235229
64.555 39.369644
64.560 39.094398
64.565 38.44434
64.570 38.036278
64.575 37.962147
64.580 37.55891
64.585 37.600739
64.590 37.047939
64.595 35.874935
64.600 35.147297
64.605 34.943417
64.610 34.543442
64.615 34.192371
64.620 33.897572
64.625 33.099541
64.630 32.469505
64.635 32.032406
64.640 30.684662
64.645 29.773462
64.650 29.421057
64.655 28.398874
64.660 28.351873
64.665 28.550167
64.670 28.110609
64.675 28.00544
64.680 28.571405
64.685 28.617687
64.690 28.850935
64.695 28.12812
64.700 28.047878
64.705 28.016708
64.710 28.177942
64.715 27.599455
64.720 27.110296
64.725 26.988087
64.730 27.012276
64.735 26.56073
64.740 26.292656
64.745 25.609661
64.750 25.410948
64.755 24.978725
64.760 24.636568
64.765 24.385847
64.770 24.331923
64.775 24.076712
64.780 24.20063
64.785 24.377941
64.790 24.14546
64.795 23.844313
64.800 23.843706
64.805 23.411697
64.810 22.767954
64.815 22.25736
64.820 21.878672
64.825 21.563452
64.830 21.814634
64.835 21.763515
64.840 22.101181
64.845 22.401245
64.850 21.594183
64.855 21.073196
64.860 21.174465
64.865 21.496855
64.870 21.471523
64.875 21.297834
64.880 21.197248
64.885 21.462227
64.890 21.554832
64.895 21.844114
64.900 21.349466
64.905 21.757986
64.910 22.299475
64.915 22.416298
64.920 22.504154
64.925 22.07387
64.930 21.793465
64.935 21.778614
64.940 22.141668
64.945 21.816082
64.950 21.664991
64.955 21.692383
64.960 22.398113
64.965 22.400984
64.970 22.734077
64.975 22.694534
64.980 23.227032
64.985 23.723078
64.990 24.23455
64.995 25.091532
65.000 25.311644
65.005 25.285652
65.010 25.542229
65.015 25.786293
65.020 26.382639
65.025 26.448645
65.030 25.79513
65.035 26.385851
65.040 26.327038
65.045 26.023191
65.050 25.522177
65.055 25.443924
65.060 25.993095
65.065 26.405254
65.070 26.232491
65.075 26.413889
65.080 26.916943
65.085 27.62483
65.090 27.874783
65.095 27.414396
65.100 27.357609
65.105 27.561504
65.110 27.887667
65.115 27.66464
65.120 27.610413
65.125 27.823713
65.130 28.669073
65.135 28.956125
65.140 28.781139
65.145 28.616734
65.150 29.031338
65.155 29.44548
65.160 29.600166
65.165 29.285505
65.170 30.05673
65.175 30.768063
65.180 31.452579
65.185 31.406225
65.190 31.215637
65.195 31.752556
65.200 32.363327
65.205 31.528645
65.210 30.828115
65.215 31.217609
65.220 32.174015
65.225 32.406006
65.230 31.971388
65.235 31.586384
65.240 32.226738
65.245 32.929962
65.250 32.35585
65.255 31.583731
65.260 31.735277
65.265 32.536583
65.270 32.279366
65.275 31.797504
65.280 30.974295
65.285 30.973232
65.290 31.82465
65.295 32.182331
65.300 32.802555
65.305 33.423077
65.310 34.225689
65.315 35.150639
65.320 35.258533
65.325 34.245678
65.330 33.806374
65.335 33.525936
65.340 34.492928
65.345 34.903946
65.350 35.376564
65.355 35.698708
65.360 36.528057
65.365 36.858276
65.370 36.466312
65.375 35.867775
65.380 35.544678
65.385 35.232578
65.390 35.097328
65.395 34.813072
65.400 34.818192
65.405 34.698051
65.410 34.736454
65.415 34.784531
65.420 35.160088
65.425 35.330959
65.430 35.378658
65.435 35.811802
65.440 36.068005
65.445 35.563267
65.450 35.793575
65.455 36.196735
65.460 36.241066
65.465 36.407932
65.470 36.38916
65.475 36.64378
65.480 37.027901
65.485 37.176205
65.490 37.058643
65.495 37.081448
65.500 36.49234
65.505 35.487717
65.510 35.631237
65.515 35.629444
65.520 35.247982
65.525 34.709755
65.530 34.892326
65.535 35.613678
65.540 37.191509
65.545 37.728077
65.550 37.73064
65.555 37.775372
65.560 37.607552
65.565 37.001099
65.570 36.39431
65.575 36.203876
65.580 36.625126
65.585 37.124474
65.590 37.496754
65.595 38.183659
65.600 38.840721
65.605 39.339993
65.610 39.038181
65.615 38.901279
65.620 39.057056
65.625 39.128242
65.630 39.30587
65.635 39.091988
65.640 38.855885
65.645 39.084419
65.650 38.812614
65.655 38.424911
65.660 37.753826
65.665 37.340073
65.670 37.714699
65.675 38.178452
65.680 38.348305
65.685 38.373127
65.690 37.956711
65.695 37.767925
65.700 38.123173
65.705 38.054581
65.710 38.177704
65.715 37.518364
65.720 36.445263
65.725 37.014629
65.730 38.29248
65.735 38.638302
65.740 38.817406
65.745 38.060219
65.750 38.272923
65.755 38.977245
65.760 38.296631
65.765 37.169319
65.770 35.74551
65.775 35.01173
65.780 34.366066
65.785 34.300892
65.790 33.927898
65.795 33.648933
65.800 34.174091
65.805 34.90741
65.810 35.418602
65.815 35.589024
65.820 35.549744
65.825 35.574654
65.830 35.98233
65.835 35.759007
65.840 35.226276
65.845 34.52343
65.850 33.873226
65.855 32.919655
65.860 32.829025
65.865 32.445053
65.870 32.228207
65.875 31.997442
65.880 32.265835
65.885 32.557144
65.890 31.96908
65.895 31.274664
65.900 30.524046
65.905 29.873503
65.910 28.87079
65.915 28.083824
65.920 27.553097
65.925 27.331112
65.930 26.899584
65.935 26.918793
65.940 26.23242
65.945 26.445597
65.950 26.760105
65.955 26.973476
65.960 26.734201
65.965 26.94595
65.970 26.676479
65.975 27.146448
65.980 27.04944
65.985 27.096476
65.990 26.889566
65.995 27.097736
66.000 26.790195
66.005 26.747215
66.010 26.978466
66.015 26.29468
66.020 25.346886
66.025 24.902294
66.030 24.278372
66.035 24.521896
66.040 24.000938
66.045 22.997473
66.050 23.126347
66.055 22.948286
66.060 22.765751
66.065 22.910061
66.070 21.888748
66.075 21.719557
66.080 21.800552
66.085 21.868496
66.090 22.342556
66.095 22.489798
66.100 21.581377
66.105 20.878942
66.110 20.869616
66.115 21.022825
66.120 20.424519
66.125 20.027637
66.130 19.358671
66.135 19.009424
66.140 19.631742
66.145 19.516144
66.150 19.85815
66.155 20.014803
66.160 19.754858
66.165 19.586241
66.170 19.589037
66.175 19.232607
66.180 18.604181
66.185 18.196566
66.190 18.107922
66.195 18.360098
66.200 18.868454
66.205 19.281004
66.210 19.034311
66.215 18.93199
66.220 19.109112
66.225 19.277819
66.230 19.257126
66.235 19.338974
66.240 18.50584
66.245 18.690769
66.250 18.943102
66.255 19.01511
66.260 19.149317
66.265 19.091631
66.270 18.297987
66.275 18.654478
66.280 18.832685
66.285 18.90152
66.290 18.899471
66.295 18.428226
66.300 17.659636
66.305 17.678829
66.310 17.605289
66.315 17.588425
66.320 17.529867
66.325 17.492895
66.330 17.76494
66.335 18.583105
66.340 19.428598
66.345 20.060093
66.350 19.907509
66.355 19.678394
66.360 19.866123
66.365 20.077829
66.370 19.936689
66.375 19.272133
66.380 19.031366
66.385 19.130341
66.390 19.317894
66.395 19.123045
66.400 18.939175
66.405 19.316776
66.410 20.069759
66.415 19.884794
66.420 19.926386
66.425 19.953651
66.430 19.881218
66.435 19.48329
66.440 18.557854
66.445 17.839672
66.450 18.004457
66.455 17.406746
66.460 16.989141
66.465 17.389238
66.470 18.253595
66.475 18.808975
66.480 18.311497
66.485 17.562349
66.490 18.084703
66.495 17.945267
66.500 17.352779
66.505 16.881998
66.510 16.826601
66.515 17.659142
66.520 18.470974
66.525 18.077269
66.530 18.447309
66.535 18.651047
66.540 18.339527
66.545 18.043365
66.550 17.71401
66.555 17.926027
66.560 17.87233
66.565 16.980972
66.570 17.522385
66.575 18.007318
66.580 18.460991
66.585 18.438684
66.590 18.149948
66.595 18.654976
66.600 18.651785
66.605 17.876846
66.610 17.414684
66.615 17.083822
66.620 16.866169
66.625 17.011761
66.630 16.809031
66.635 17.376091
66.640 17.65304
66.645 17.861475
66.650 17.824102
66.655 18.211716
66.660 18.018883
66.665 17.85087
66.670 17.799376
66.675 17.939787
66.680 17.889177
66.685 18.111509
66.690 17.21323
66.695 17.064825
66.700 16.899166
66.705 17.131933
66.710 17.100193
66.715 17.305233
66.720 17.329807
66.725 18.062706
66.730 18.064625
66.735 18.727707
66.740 18.636097
66.745 18.750757
66.750 18.946066
66.755 19.026316
66.760 19.296646
66.765 19.819162
66.770 19.00219
66.775 18.842825
66.780 18.29043
66.785 17.825752
66.790 17.633417
66.795 17.752806
66.800 17.764853
66.805 18.174595
66.810 18.421598
66.815 18.594772
66.820 18.908455
66.825 19.094452
66.830 18.363152
66.835 18.208172
66.840 18.225103
66.845 18.400745
66.850 18.442911
66.855 18.510426
66.860 18.029186
66.865 18.249014
66.870 18.794456
66.875 18.517532
66.880 17.805618
66.885 17.669195
66.890 17.401901
66.895 17.730982
66.900 17.455622
66.905 16.96413
66.910 16.775389
66.915 17.27268
66.920 17.449793
66.925 17.417446
66.930 17.978188
66.935 18.470539
66.940 19.010483
66.945 19.262114
66.950 19.253994
66.955 19.352156
66.960 19.359707
66.965 18.907124
66.970 18.420965
66.975 17.461866
66.980 17.752998
66.985 17.849659
66.990 17.509226
66.995 17.251333
67.000 17.233374
67.005 17.338177
67.010 17.993748
67.015 17.693062
67.020 17.695974
67.025 17.671684
67.030 17.702692
67.035 18.709328
67.040 19.148336
67.045 18.690838
67.050 18.812042
67.055 18.924873
67.060 19.074934
67.065 19.017851
67.070 17.705662
67.075 17.098146
67.080 16.977816
67.085 16.849155
67.090 16.362459
67.095 16.174484
67.100 16.045013
67.105 16.994268
67.110 17.486305
67.115 17.344378
67.120 17.24856
67.125 17.624382
67.130 17.85623
67.135 18.162413
67.140 18.653975
67.145 18.651381
67.150 18.788105
67.155 19.31094
67.160 19.382797
67.165 19.671061
67.170 19.32592
67.175 18.672291
67.180 18.83176
67.185 18.778915
67.190 18.548649
67.195 18.544664
67.200 18.217396
67.205 18.292561
67.210 18.052633
67.215 17.990654
67.220 18.011766
67.225 18.50495
67.230 18.641409
67.235 18.704966
67.240 18.306185
67.245 18.10428
67.250 18.083067
67.255 18.336849
67.260 18.063471
67.265 17.521706
67.270 17.74226
67.275 18.664211
67.280 18.85198
67.285 19.315138
67.290 18.481535
67.295 18.095402
67.300 18.172913
67.305 17.490183
67.310 17.238546
67.315 17.456263
67.320 17.239082
67.325 18.018223
67.330 18.112581
67.335 18.645412
67.340 19.009878
67.345 18.667427
67.350 18.440825
67.355 18.397844
67.360 18.185305
67.365 18.095705
67.370 17.344542
67.375 16.934635
67.380 16.419024
67.385 16.573503
67.390 16.540802
67.395 16.366528
67.400 16.508011
67.405 16.75062
67.410 16.914625
67.415 16.844654
67.420 16.445219
67.425 16.478048
67.430 16.653351
67.435 17.308798
67.440 17.196257
67.445 17.899347
67.450 18.495832
67.455 18.277437
67.460 17.803091
67.465 17.374134
67.470 16.812979
67.475 17.040497
67.480 16.504234
67.485 16.228092
67.490 16.488214
67.495 16.896702
67.500 17.149799
67.505 17.449213
67.510 17.128046
67.515 16.758846
67.520 16.814474
67.525 16.656473
67.530 16.890965
67.535 16.710077
67.540 16.431955
67.545 16.886152
67.550 17.109205
67.555 17.179802
67.560 17.635033
67.565 17.389866
67.570 17.332169
67.575 16.954161
67.580 17.16186
67.585 17.078266
67.590 17.919466
67.595 17.939833
67.600 17.756821
67.605 18.496389
67.610 19.410236
67.615 19.553329
67.620 19.549862
67.625 19.300915
67.630 19.155987
67.635 19.419146
67.640 19.298378
67.645 18.777967
67.650 18.763592
67.655 19.052092
67.660 18.77503
67.665 18.55525
67.670 18.318144
67.675 18.030346
67.680 18.17794
67.685 18.748785
67.690 18.171555
67.695 17.765089
67.700 17.595446
67.705 17.254345
67.710 17.218021
67.715 17.272284
67.720 16.541452
67.725 16.899271
67.730 17.688221
67.735 17.965055
67.740 18.421906
67.745 18.597477
67.750 18.318359
67.755 18.781368
67.760 18.814949
67.765 18.754343
67.770 18.923067
67.775 19.157587
67.780 19.241747
67.785 18.907135
67.790 18.172836
67.795 18.196842
67.800 17.740017
67.805 17.461378
67.810 16.976343
67.815 16.700867
67.820 16.859589
67.825 17.179468
67.830 17.086967
67.835 17.34524
67.840 17.555786
67.845 17.328899
67.850 17.309511
67.855 17.553585
67.860 17.918814
67.865 17.619251
67.870 17.629919
67.875 18.003799
67.880 18.336868
67.885 18.895414
67.890 18.586166
67.895 18.300291
67.900 18.703922
67.905 18.821291
67.910 18.529003
67.915 18.465412
67.920 18.58746
67.925 18.865326
67.930 18.863794
67.935 19.012138
67.940 19.023968
67.945 19.549227
67.950 19.065971
67.955 18.566553
67.960 18.36751
67.965 17.909283
67.970 17.674582
67.975 17.512039
67.980 17.405611
67.985 17.809694
67.990 17.460672
67.995 17.304701
68.000 17.99477
68.005 17.799904
68.010 17.292257
68.015 16.987288
68.020 16.890789
68.025 17.11426
68.030 17.215677
68.035 17.185373
68.040 17.326962
68.045 18.019608
68.050 18.428888
68.055 18.587341
68.060 19.012848
68.065 19.606274
68.070 19.756771
68.075 19.528936
68.080 19.321594
68.085 19.162518
68.090 19.155285
68.095 18.978342
68.100 18.425819
68.105 18.267498
68.110 18.8216
68.115 18.675917
68.120 19.254538
68.125 19.964851
68.130 20.686138
68.135 21.399973
68.140 21.451723
68.145 21.130421
68.150 21.959452
68.155 21.453432
68.160 20.875879
68.165 20.032711
68.170 19.692495
68.175 19.553604
68.180 19.074739
68.185 18.771374
68.190 18.833504
68.195 18.603779
68.200 18.524633
68.205 18.346718
68.210 18.902287
68.215 19.228176
68.220 19.42771
68.225 19.29287
68.230 19.34292
68.235 19.057198
68.240 19.431067
68.245 19.917812
68.250 20.225182
68.255 19.934221
68.260 20.209126
68.265 20.512318
68.270 20.736916
68.275 20.641827
68.280 19.603395
68.285 19.123896
68.290 19.857721
68.295 20.319023
68.300 20.354645
68.305 20.343159
68.310 20.281204
68.315 20.84824
68.320 20.869219
68.325 20.507244
68.330 20.600473
68.335 20.803867
68.340 21.454491
68.345 22.465065
68.350 22.850637
68.355 23.703926
68.360 23.833902
68.365 24.07189
68.370 24.367382
68.375 24.151052
68.380 24.318373
68.385 25.016478
68.390 25.143059
68.395 25.520651
68.400 25.839275
68.405 26.334085
68.410 26.62466
68.415 26.139162
68.420 25.576214
68.425 26.337059
68.430 26.503508
68.435 26.763021
68.440 26.790684
68.445 26.457134
68.450 27.141333
68.455 27.619942
68.460 26.77713
68.465 26.623632
68.470 26.210728
68.475 26.119135
68.480 26.526997
68.485 27.274736
68.490 27.97604
68.495 28.245546
68.500 28.362022
68.505 29.026836
68.510 29.562767
68.515 29.328312
68.520 28.248882
68.525 28.413488
68.530 28.551867
68.535 28.581663
68.540 28.259331
68.545 28.288288
68.550 29.203671
68.555 30.17263
68.560 30.689745
68.565 30.921774
68.570 30.385107
68.575 30.465677
68.580 30.860636
68.585 30.466713
68.590 30.478472
68.595 30.153725
68.600 29.991003
68.605 30.364492
68.610 30.82143
68.615 30.807426
68.620 31.001169
68.625 30.682652
68.630 30.487595
68.635 31.46027
68.640 31.778269
68.645 31.578152
68.650 31.233656
68.655 30.759487
68.660 30.539127
68.665 30.588436
68.670 30.520945
68.675 30.595196
68.680 30.921942
68.685 31.545202
68.690 32.653748
68.695 33.333679
68.700 33.393673
68.705 33.238968
68.710 33.448742
68.715 32.88163
68.720 32.504372
68.725 32.087215
68.730 32.4519
68.735 32.290665
68.740 32.234314
68.745 31.85816
68.750 32.752464
68.755 33.416599
68.760 33.254765
68.765 32.828285
68.770 33.277737
68.775 33.182796
68.780 33.720634
68.785 33.142624
68.790 32.642265
68.795 32.47501
68.800 33.010246
68.805 32.337868
68.810 32.028267
68.815 31.362438
68.820 31.046124
68.825 31.87714
68.830 32.768867
68.835 33.687958
68.840 34.76881
68.845 35.520607
68.850 36.240982
68.855 35.497089
68.860 34.521679
68.865 33.056335
68.870 32.803612
68.875 33.15007
68.880 33.137508
68.885 33.43137
68.890 33.909904
68.895 35.137707
68.900 36.763374
68.905 36.407028
68.910 35.996658
68.915 36.146076
68.920 36.372013
68.925 36.989399
68.930 36.537487
68.935 36.383907
68.940 36.765793
68.945 36.321522
68.950 35.827229
68.955 35.429619
68.960 35.038185
68.965 34.907181
68.970 34.337368
68.975 33.718681
68.980 33.662872
68.985 33.507359
68.990 33.878685
68.995 33.679462
69.000 33.23642
69.005 32.719181
69.010 32.205269
69.015 31.677496
69.020 31.467861
69.025 30.831707
69.030 30.366518
69.035 30.526377
69.040 30.796465
69.045 30.74367
69.050 31.130978
69.055 31.091272
69.060 31.111591
69.065 31.124367
69.070 30.891579
69.075 30.018921
69.080 30.168123
69.085 29.81953
69.090 29.364889
69.095 29.162558
69.100 29.156858
69.105 28.452158
69.110 28.823507
69.115 28.644381
69.120 28.153486
69.125 28.396574
69.130 27.889408
69.135 27.563078
69.140 27.449783
69.145 27.108492
69.150 27.064144
69.155 27.040554
69.160 26.720287
69.165 26.985615
69.170 26.820913
69.175 26.898577
69.180 25.989388
69.185 25.432386
69.190 25.105154
69.195 25.159779
69.200 24.715437
69.205 23.886494
69.210 23.545101
69.215 24.633791
69.220 24.878407
69.225 25.144609
69.230 25.434479
69.235 25.936398
69.240 26.222208
69.245 26.202049
69.250 25.52397
69.255 25.398579
69.260 25.230017
69.265 25.198601
69.270 24.645498
69.275 24.678719
69.280 24.571218
69.285 24.414116
69.290 24.35597
69.295 23.890118
69.300 23.74435
69.305 24.072954
69.310 24.042448
69.315 23.775969
69.320 23.17617
69.325 22.955029
69.330 22.968023
69.335 22.862984
69.340 22.060331
69.345 20.913343
69.350 20.396881
69.355 20.912861
69.360 20.847345
69.365 20.237629
69.370 19.603662
69.375 19.599306
69.380 20.032637
69.385 19.890104
69.390 19.588074
69.395 19.267649
69.400 19.645506
69.405 19.528656
69.410 19.42309
69.415 19.622063
69.420 19.490311
69.425 18.735722
69.430 18.608595
69.435 18.8417
69.440 19.44651
69.445 19.805279
69.450 19.273708
69.455 19.377394
69.460 19.36698
69.465 19.113726
69.470 18.819897
69.475 18.700922
69.480 19.123909
69.485 18.853178
69.490 18.79582
69.495 18.666891
69.500 17.976246
69.505 17.722454
69.510 17.56851
69.515 17.343361
69.520 17.569878
69.525 17.771839
69.530 18.131573
69.535 18.523996
69.540 18.323214
69.545 18.189253
69.550 18.226845
69.555 18.800043
69.560 18.789042
69.565 18.896179
69.570 19.58749
69.575 19.598366
69.580 19.056679
69.585 18.322168
69.590 18.037466
69.595 18.153238
69.600 18.2038
69.605 18.406532
69.610 18.65913
69.615 19.062042
69.620 18.938629
69.625 18.752844
69.630 18.928118
69.635 18.934999
69.640 18.698969
69.645 18.496536
69.650 18.605
69.655 18.697029
69.660 18.049822
69.665 18.088263
69.670 18.019213
69.675 17.650517
69.680 17.902811
69.685 17.899673
69.690 18.311127
69.695 18.541603
69.700 18.248827
69.705 17.560251
69.710 17.347471
69.715 17.688959
69.720 17.80378
69.725 17.939039
69.730 17.272715
69.735 17.41156
69.740 17.764372
69.745 17.808372
69.750 17.54253
69.755 17.379499
69.760 17.382498
69.765 17.730267
69.770 17.431637
69.775 17.600693
69.780 17.129662
69.785 16.651423
69.790 16.61499
69.795 16.8871
69.800 17.058741
69.805 16.798595
69.810 16.860834
69.815 17.14216
69.820 17.073435
69.825 17.434206
69.830 17.382233
69.835 17.89399
69.840 18.663013
69.845 18.782867
69.850 18.972652
69.855 19.196014
69.860 19.146992
69.865 19.429243
69.870 19.188879
69.875 19.235449
69.880 18.941216
69.885 19.083118
69.890 18.924202
69.895 18.269278
69.900 17.941536
69.905 17.880058
69.910 17.726896
69.915 17.847296
69.920 17.803955
69.925 17.3797
69.930 16.868404
69.935 17.251678
69.940 17.315926
69.945 17.271835
69.950 16.726805
69.955 16.743979
69.960 17.010637
69.965 17.388475
69.970 17.303074
69.975 17.290005
69.980 17.024622
69.985 17.236639
69.990 17.667191
69.995 18.250681
70.000 18.275068
70.005 17.930164
70.010 17.755213
70.015 18.636597
70.020 18.911633
70.025 18.670462
70.030 18.191166
70.035 18.430046
70.040 18.813747
70.045 18.991224
70.050 18.63591
70.055 18.853323
70.060 18.994648
70.065 19.650196
70.070 19.635967
70.075 19.54871
70.080 19.074493
70.085 18.606026
70.090 18.127968
70.095 18.09856
70.100 16.837107
70.105 16.296122
70.110 16.247015
70.115 16.159668
70.120 16.214142
70.125 16.219046
70.130 16.424385
70.135 17.39357
70.140 17.71401
70.145 17.825123
70.150 18.368664
70.155 18.575415
70.160 18.457403
70.165 18.004545
70.170 17.559235
70.175 17.360075
70.180 16.870451
70.185 16.748323
70.190 17.151592
70.195 17.409182
70.200 18.011082
70.205 18.535845
70.210 18.896479
70.215 19.382999
70.220 19.985769
70.225 19.828304
70.230 20.106567
70.235 20.460705
70.240 20.574091
70.245 20.7512
70.250 20.18733
70.255 19.814177
70.260 19.314192
70.265 18.231871
70.270 17.013397
70.275 16.646238
70.280 16.906841
70.285 17.244221
70.290 16.723145
70.295 17.489395
70.300 18.295107
70.305 18.720106
70.310 18.805569
70.315 18.460278
70.320 18.655441
70.325 18.934757
70.330 18.962278
70.335 19.19426
70.340 19.23596
70.345 18.929102
70.350 19.439585
70.355 19.223736
70.360 19.406834
70.365 19.264217
70.370 18.999422
70.375 19.26354
70.380 19.178436
70.385 19.283476
70.390 19.375334
70.395 19.266191
70.400 18.836399
70.405 18.877464
70.410 19.088238
70.415 19.091948
70.420 18.77018
70.425 18.370441
70.430 18.228075
70.435 18.186155
70.440 17.747686
70.445 16.962513
70.450 16.722593
70.455 16.41316
70.460 16.649595
70.465 16.658365
70.470 16.823742
70.475 17.196371
70.480 17.963821
70.485 18.06465
70.490 18.401373
70.495 17.870222
70.500 17.730574
70.505 18.099249
70.510 18.231085
70.515 17.785219
70.520 17.839193
70.525 17.879845
70.530 18.371204
70.535 18.660185
70.540 17.968058
70.545 17.465536
70.550 17.37677
70.555 17.26001
70.560 17.189953
70.565 17.138439
70.570 17.341829
70.575 17.234093
70.580 17.027147
70.585 17.14529
70.590 17.012253
70.595 17.015949
70.600 16.656221
70.605 15.889175
70.610 15.898652
70.615 16.747423
70.620 17.148855
70.625 17.195704
70.630 16.842918
70.635 17.065716
70.640 18.091505
70.645 18.29546
70.650 17.729107
70.655 17.576481
70.660 17.839958
70.665 18.256384
70.670 18.128654
70.675 17.956749
70.680 17.631231
70.685 17.571163
70.690 17.935169
70.695 17.763996
70.700 17.936527
70.705 17.794874
70.710 17.172478
70.715 17.353916
70.720 17.187416
70.725 16.951647
70.730 16.928482
70.735 17.009972
70.740 17.312572
70.745 18.058914
70.750 18.095808
70.755 17.705929
70.760 17.535027
70.765 17.522282
70.770 17.634466
70.775 17.816261
70.780 17.665869
70.785 17.385946
70.790 17.743889
70.795 17.603165
70.800 17.362099
70.805 16.818533
70.810 16.914444
70.815 17.064056
70.820 18.309259
70.825 18.604897
70.830 18.542814
70.835 18.546858
70.840 18.4755
70.845 18.359137
70.850 18.345961
70.855 17.283667
70.860 16.591557
70.865 16.550913
70.870 16.783211
70.875 16.784651
70.880 16.479317
70.885 16.809891
70.890 17.947283
70.895 18.739594
70.900 19.245184
70.905 18.880224
70.910 19.349159
70.915 19.342724
70.920 18.432575
70.925 17.823767
70.930 17.711176
70.935 17.673166
70.940 17.47683
70.945 17.114042
70.950 17.080248
70.955 17.102282
70.960 16.716249
70.965 16.239197
70.970 16.740532
70.975 17.246752
70.980 17.537422
70.985 18.068615
70.990 18.133059
70.995 17.878881
71.000 18.036282
71.005 17.851591
71.010 17.627401
71.015 17.432091
71.020 17.280243
71.025 17.523426
71.030 17.162077
71.035 16.707533
71.040 16.611326
71.045 16.864546
71.050 16.948311
71.055 16.820303
71.060 17.392839
71.065 17.808493
71.070 18.112413
71.075 17.985416
71.080 17.971375
71.085 18.196424
71.090 18.447525
71.095 18.286945
71.100 17.994156
71.105 18.044706
71.110 17.986332
71.115 17.518503
71.120 17.056772
71.125 16.71562
71.130 17.644629
71.135 17.338617
71.140 16.849077
71.145 17.32501
71.150 17.401358
71.155 17.264952
71.160 17.786631
71.165 17.612175
71.170 17.940874
71.175 18.095137
71.180 18.00629
71.185 18.281599
71.190 18.574324
71.195 18.215105
71.200 18.184233
71.205 18.466442
71.210 18.462822
71.215 18.93272
71.220 18.873508
71.225 18.759096
71.230 19.251396
71.235 19.407234
71.240 19.777042
71.245 19.651438
71.250 19.126699
71.255 19.025875
71.260 18.932604
71.265 19.383801
71.270 18.971134
71.275 18.553638
71.280 17.960596
71.285 17.839365
71.290 18.218515
71.295 17.709061
71.300 17.010292
71.305 16.90863
71.310 17.726152
71.315 18.033936
71.320 17.634066
71.325 16.956985
71.330 16.845312
71.335 17.137856
71.340 16.906477
71.345 16.706772
71.350 16.991917
71.355 17.386477
71.360 17.586834
71.365 17.022221
71.370 17.103819
71.375 17.446068
71.380 17.66213
71.385 17.370975
71.390 17.930151
71.395 18.264381
71.400 18.795773
71.405 18.514059
71.410 18.592913
71.415 18.556036
71.420 18.189146
71.425 17.811211
71.430 17.576828
71.435 17.154758
71.440 16.92927
71.445 16.196609
71.450 16.311682
71.455 16.909328
71.460 17.260963
71.465 17.721327
71.470 18.161829
71.475 18.864864
71.480 18.762177
71.485 18.981529
71.490 18.833027
71.495 18.674061
71.500 18.843672
71.505 18.477959
71.510 18.260323
71.515 18.422796
71.520 18.216002
71.525 17.782572
71.530 17.668596
71.535 17.73592
71.540 18.351677
71.545 18.779228
71.550 18.92532
71.555 18.563271
71.560 18.622389
71.565 18.416527
71.570 18.223568
71.575 17.455231
71.580 16.588154
71.585 16.477261
71.590 16.413206
71.595 16.576256
71.600 16.505518
71.605 16.723238
71.610 17.041153
71.615 16.948235
71.620 17.024076
71.625 17.268513
71.630 17.176924
71.635 17.160452
71.640 16.399115
71.645 16.091764
71.650 16.609699
71.655 16.399975
71.660 16.564507
71.665 16.534227
71.670 16.948296
71.675 17.355032
71.680 17.500605
71.685 17.159519
71.690 17.066748
71.695 17.338726
71.700 17.384186
71.705 17.685196
71.710 18.260853
71.715 18.803631
71.720 18.710346
71.725 18.267153
71.730 17.579397
71.735 17.144642
71.740 16.341999
71.745 15.974951
71.750 16.007902
71.755 16.632591
71.760 17.035915
71.765 17.642298
71.770 17.727171
71.775 17.977365
71.780 18.171047
71.785 18.593138
71.790 18.346087
71.795 17.546751
71.800 17.447557
71.805 17.313435
71.810 16.948627
71.815 16.520472
71.820 16.088346
71.825 16.286795
71.830 16.714048
71.835 17.019222
71.840 17.722837
71.845 18.284941
71.850 17.726406
71.855 17.337343
71.860 17.695772
71.865 17.861551
71.870 17.14127
71.875 16.786716
71.880 16.846027
71.885 17.247173
71.890 17.47957
71.895 17.040133
71.900 17.744671
71.905 18.165274
71.910 18.690289
71.915 18.578571
71.920 18.533339
71.925 18.778229
71.930 18.438089
71.935 17.94743
71.940 17.642305
71.945 17.547049
71.950 17.795834
71.955 17.78532
71.960 17.775629
71.965 17.915514
71.970 17.451738
71.975 17.633924
71.980 17.214396
71.985 16.873426
71.990 16.939058
71.995 16.603168
72.000 16.355917
72.005 16.419455
72.010 15.81209
72.015 15.727578
72.020 15.699334
72.025 15.530169
72.030 16.198818
72.035 16.989048
72.040 17.142265
72.045 17.766121
72.050 17.85137
72.055 17.644176
72.060 18.023539
72.065 17.952682
72.070 17.664827
72.075 17.68771
72.080 18.103569
72.085 18.536142
72.090 18.739992
72.095 18.073271
72.100 17.70159
72.105 17.757803
72.110 17.552319
72.115 17.260071
72.120 17.021727
72.125 17.138628
72.130 17.397692
72.135 17.425581
72.140 17.155756
72.145 16.913141
72.150 16.553967
72.155 16.786026
72.160 17.023893
72.165 17.53105
72.170 17.759277
72.175 18.192043
72.180 17.990225
72.185 17.78087
72.190 17.646931
72.195 17.417105
72.200 17.024384
72.205 16.915731
72.210 16.987488
72.215 17.024479
72.220 17.439373
72.225 18.203226
72.230 17.789289
72.235 18.471388
72.240 18.461941
72.245 18.145485
72.250 18.736698
72.255 17.820293
72.260 17.668535
72.265 18.060894
72.270 17.679956
72.275 18.149624
72.280 18.193233
72.285 17.549627
72.290 17.422396
72.295 17.053265
72.300 17.253836
72.305 17.532627
72.310 17.016962
72.315 16.664141
72.320 16.911396
72.325 17.056877
72.330 17.035183
72.335 16.935886
72.340 17.453709
72.345 18.140196
72.350 18.628674
72.355 18.687595
72.360 18.514227
72.365 18.574316
72.370 18.404137
72.375 18.321344
72.380 18.115177
72.385 18.130638
72.390 17.904524
72.395 17.948915
72.400 17.757509
72.405 17.557699
72.410 17.970709
72.415 17.887539
72.420 18.122795
72.425 18.139397
72.430 17.887848
72.435 18.122627
72.440 17.631769
72.445 17.143055
72.450 17.116985
72.455 17.131559
72.460 17.746424
72.465 17.667551
72.470 17.440231
72.475 17.471134
72.480 17.577597
72.485 17.571138
72.490 17.582748
72.495 17.460732
72.500 18.06275
72.505 17.658894
72.510 17.74725
72.515 17.729679
72.520 17.77475
72.525 17.79599
72.530 17.093752
72.535 17.004
72.540 17.503998
72.545 17.447069
72.550 17.263052
72.555 17.369856
72.560 17.75676
72.565 18.105986
72.570 17.604261
72.575 17.209085
72.580 17.121771
72.585 17.654963
72.590 17.634159
72.595 17.151421
72.600 17.159323
72.605 17.802418
72.610 18.036242
72.615 17.919666
72.620 17.43527
72.625 17.513149
72.630 17.182371
72.635 16.561731
72.640 16.173683
72.645 15.694148
72.650 15.519974
72.655 15.539022
72.660 15.670288
72.665 15.949331
72.670 16.565083
72.675 16.608158
72.680 16.400282
72.685 16.373644
72.690 16.827007
72.695 16.795881
72.700 16.774385
72.705 16.622498
72.710 16.61129
72.715 16.640287
72.720 16.638128
72.725 16.521162
72.730 17.291325
72.735 17.397394
72.740 17.088402
72.745 17.407164
72.750 17.651331
72.755 17.635374
72.760 17.465302
72.765 16.801807
72.770 17.095865
72.775 17.14316
72.780 16.755447
72.785 17.007158
72.790 16.974974
72.795 16.577003
72.800 16.718807
72.805 16.407728
72.810 16.397919
72.815 16.736464
72.820 16.250898
72.825 16.074814
72.830 15.638474
72.835 15.179984
72.840 14.631324
72.845 14.958524
72.850 15.516926
72.855 15.516841
72.860 16.240995
72.865 16.348993
72.870 16.758694
72.875 17.369173
72.880 17.187889
72.885 17.155552
72.890 16.532423
72.895 15.790383
72.900 16.234833
72.905 16.112209
72.910 15.787114
72.915 15.478303
72.920 15.575182
72.925 15.960437
72.930 16.841398
72.935 16.581963
72.940 16.814848
72.945 16.854372
72.950 16.611931
72.955 16.604797
72.960 16.018475
72.965 16.045019
72.970 15.964048
72.975 15.575297
72.980 16.232037
72.985 16.550373
72.990 16.943764
72.995 17.578148
73.000 16.962486
