!@!!GADDS PLOTSO FILE: Chi integration type
!@!!Title/SampleName: map-b9
!@!!Comment: ?
!@!!User: Bruker Instrument Administrator
!@!!Site: University of Illinois Chicago
!@!!Frame: map-b9_01_000.gfrm
!@!!Wavelengths    1.54184   1.54056   1.54439
!@!!Frame angles: 2Theta: 63.000 Omega: 50.000 Phi: 0.000 Chi: 90.000
!@!!Integration range: 2Theta: 53.000 to 73.000  Gamma: -105.000 to -75.000
!@!!Integration method: bin normalized
!@!N
!@!SS
!@!M
!@!L 0.0 0.0 0.0 0.0
!@!XDegrees
!@!YCounts
53.000 6.496609
53.005 6.58754
53.010 6.557945
53.015 6.507955
53.020 6.784967
53.025 7.04564
53.030 6.834824
53.035 6.965841
53.040 7.223758
53.045 7.401033
53.050 7.161423
53.055 7.007972
53.060 7.509774
53.065 7.703513
53.070 7.419458
53.075 7.315141
53.080 7.637064
53.085 8.485253
53.090 8.726927
53.095 8.064663
53.100 8.357081
53.105 8.496552
53.110 8.379097
53.115 7.756167
53.120 7.196104
53.125 7.462758
53.130 7.911099
53.135 7.691476
53.140 7.601933
53.145 7.629506
53.150 7.962892
53.155 8.08554
53.160 7.998751
53.165 7.753595
53.170 7.675988
53.175 8.096105
53.180 8.06164
53.185 7.477057
53.190 7.31413
53.195 7.283042
53.200 7.37001
53.205 7.1813
53.210 6.836469
53.215 6.830326
53.220 6.857448
53.225 6.325216
53.230 5.950912
53.235 5.758517
53.240 5.453187
53.245 5.092868
53.250 5.120032
53.255 5.46119
53.260 5.611412
53.265 6.160654
53.270 6.222378
53.275 6.531692
53.280 6.796388
53.285 7.005782
53.290 7.213675
53.295 7.210903
53.300 6.986103
53.305 7.417922
53.310 7.332799
53.315 7.172191
53.320 7.069813
53.325 7.077707
53.330 7.45983
53.335 7.528025
53.340 7.238531
53.345 7.172927
53.350 7.441901
53.355 7.514527
53.360 7.525746
53.365 7.165186
53.370 6.822536
53.375 6.876364
53.380 6.880072
53.385 6.394808
53.390 6.158214
53.395 6.256226
53.400 6.235988
53.405 6.399961
53.410 6.679069
53.415 7.064454
53.420 7.711889
53.425 7.560456
53.430 7.374619
53.435 7.527055
53.440 7.548723
53.445 7.478693
53.450 7.254481
53.455 7.407492
53.460 7.766462
53.465 7.917865
53.470 8.228426
53.475 7.968225
53.480 7.817254
53.485 7.642792
53.490 7.229898
53.495 7.085701
53.500 6.864403
53.505 6.738448
53.510 6.794806
53.515 6.912342
53.520 6.869144
53.525 7.211449
53.530 7.232172
53.535 7.322335
53.540 7.606907
53.545 7.880051
53.550 8.082809
53.555 8.025222
53.560 7.804739
53.565 7.821458
53.570 7.397357
53.575 7.240709
53.580 7.269732
53.585 7.12355
53.590 6.639009
53.595 6.441516
53.600 6.4814
53.605 6.845483
53.610 6.863099
53.615 7.01506
53.620 7.271597
53.625 7.569318
53.630 8.012094
53.635 8.184949
53.640 8.067782
53.645 7.780069
53.650 7.530559
53.655 7.460758
53.660 7.665578
53.665 7.89785
53.670 7.530875
53.675 7.512934
53.680 7.909695
53.685 7.980106
53.690 8.251137
53.695 8.115432
53.700 7.85241
53.705 8.120731
53.710 8.380177
53.715 8.463453
53.720 8.384917
53.725 8.080503
53.730 8.151086
53.735 8.434978
53.740 7.994063
53.745 7.778926
53.750 7.649611
53.755 7.270048
53.760 7.840895
53.765 7.916676
53.770 7.707891
53.775 7.90618
53.780 8.002241
53.785 8.00653
53.790 8.145529
53.795 8.193149
53.800 8.393519
53.805 8.756876
53.810 8.808151
53.815 8.511753
53.820 8.507849
53.825 8.185675
53.830 8.015064
53.835 7.899551
53.840 7.942987
53.845 8.230825
53.850 8.717003
53.855 8.721627
53.860 8.95984
53.865 8.867562
53.870 8.676406
53.875 8.606559
53.880 8.204704
53.885 8.152123
53.890 7.716585
53.895 7.421245
53.900 7.216641
53.905 7.306611
53.910 7.137393
53.915 6.887413
53.920 6.882502
53.925 7.12458
53.930 7.428143
53.935 7.31814
53.940 7.184407
53.945 7.33612
53.950 7.503726
53.955 7.688683
53.960 7.885786
53.965 7.708441
53.970 7.746135
53.975 8.02781
53.980 8.296953
53.985 8.482381
53.990 8.383731
53.995 8.747017
54.000 9.264318
54.005 9.412413
54.010 9.433196
54.015 9.308145
54.020 9.087454
54.025 8.763133
54.030 8.164802
54.035 8.252338
54.040 8.127413
54.045 8.144874
54.050 8.300132
54.055 8.609168
54.060 8.745485
54.065 8.629632
54.070 8.819377
54.075 8.790896
54.080 9.033545
54.085 9.102422
54.090 9.02045
54.095 9.212109
54.100 9.341652
54.105 9.234467
54.110 9.370584
54.115 9.853137
54.120 9.750601
54.125 9.750855
54.130 9.715002
54.135 9.674476
54.140 9.484787
54.145 8.768833
54.150 8.016496
54.155 7.855741
54.160 7.840993
54.165 7.940016
54.170 8.184739
54.175 8.294244
54.180 8.473045
54.185 8.565797
54.190 8.781087
54.195 8.840321
54.200 8.507684
54.205 8.129994
54.210 7.94147
54.215 7.75953
54.220 7.615843
54.225 7.42541
54.230 7.312805
54.235 7.223067
54.240 7.642998
54.245 7.680407
54.250 7.75999
54.255 8.306302
54.260 8.920815
54.265 8.916874
54.270 9.477267
54.275 9.312258
54.280 9.389899
54.285 9.444328
54.290 8.826073
54.295 8.396251
54.300 8.769176
54.305 8.431919
54.310 8.425723
54.315 8.643029
54.320 8.761415
54.325 8.881484
54.330 8.703607
54.335 8.290648
54.340 7.996993
54.345 8.136908
54.350 8.155074
54.355 8.327501
54.360 8.403129
54.365 8.581296
54.370 9.079013
54.375 9.428901
54.380 9.342795
54.385 9.239267
54.390 9.095243
54.395 9.367541
54.400 9.870122
54.405 9.856695
54.410 9.751987
54.415 9.468259
54.420 9.286035
54.425 9.558094
54.430 9.219211
54.435 8.627905
54.440 8.737643
54.445 8.786255
54.450 8.877385
54.455 8.950974
54.460 8.615112
54.465 8.533763
54.470 8.517913
54.475 8.148107
54.480 8.415933
54.485 8.905852
54.490 8.932368
54.495 9.415024
54.500 9.508703
54.505 9.353178
54.510 9.196913
54.515 9.072802
54.520 8.956653
54.525 8.532796
54.530 8.247852
54.535 8.262369
54.540 8.365615
54.545 8.529201
54.550 8.185545
54.555 8.071409
54.560 8.111916
54.565 8.218574
54.570 8.312682
54.575 8.293182
54.580 7.906398
54.585 7.808473
54.590 7.81154
54.595 7.609118
54.600 7.690029
54.605 7.903188
54.610 8.210557
54.615 8.320651
54.620 8.331221
54.625 8.016825
54.630 8.19058
54.635 8.424239
54.640 8.413107
54.645 8.343979
54.650 8.384295
54.655 8.74899
54.660 9.478311
54.665 9.472727
54.670 9.02694
54.675 9.317639
54.680 9.154983
54.685 9.131657
54.690 9.365191
54.695 8.925309
54.700 8.886882
54.705 8.915407
54.710 8.350413
54.715 8.277534
54.720 8.307352
54.725 8.226707
54.730 8.368037
54.735 8.268662
54.740 8.395217
54.745 9.114174
54.750 9.236228
54.755 9.111191
54.760 9.219636
54.765 9.151141
54.770 9.249413
54.775 9.274726
54.780 9.113094
54.785 9.298129
54.790 9.29644
54.795 8.921306
54.800 8.962655
54.805 9.068556
54.810 9.011031
54.815 9.362545
54.820 9.267577
54.825 9.096958
54.830 9.4496
54.835 9.578279
54.840 9.149594
54.845 8.848877
54.850 8.296913
54.855 7.824259
54.860 7.493571
54.865 6.990038
54.870 7.082552
54.875 7.344456
54.880 7.488399
54.885 7.952609
54.890 8.6141
54.895 9.176376
54.900 9.442035
54.905 9.230319
54.910 9.248942
54.915 9.263945
54.920 9.068851
54.925 8.952188
54.930 8.981455
54.935 9.119468
54.940 9.528987
54.945 9.229307
54.950 9.195212
54.955 9.720149
54.960 10.092615
54.965 9.831752
54.970 9.762058
54.975 9.817578
54.980 9.728727
54.985 9.54597
54.990 9.360703
54.995 9.025535
55.000 9.189283
55.005 9.146427
55.010 9.164046
55.015 9.219792
55.020 8.933759
55.025 8.669685
55.030 8.758454
55.035 8.803782
55.040 8.945471
55.045 8.934499
55.050 9.056984
55.055 9.36318
55.060 9.443806
55.065 9.65567
55.070 9.763981
55.075 9.400878
55.080 9.507961
55.085 9.527703
55.090 9.883117
55.095 9.620249
55.100 9.173416
55.105 9.122311
55.110 9.496342
55.115 9.289977
55.120 9.649214
55.125 9.432756
55.130 9.762579
55.135 10.068423
55.140 9.995109
55.145 9.812516
55.150 9.96204
55.155 9.533173
55.160 9.636129
55.165 9.619064
55.170 9.66347
55.175 9.95822
55.180 10.065849
55.185 9.902349
55.190 9.902567
55.195 9.989121
55.200 9.984831
55.205 9.670802
55.210 9.302317
55.215 9.380936
55.220 9.458099
55.225 9.420906
55.230 9.271696
55.235 9.49266
55.240 9.603539
55.245 9.785054
55.250 10.06917
55.255 10.508348
55.260 10.386235
55.265 10.465864
55.270 10.667992
55.275 10.57792
55.280 10.269638
55.285 9.869472
55.290 9.382596
55.295 9.184726
55.300 8.641013
55.305 8.227179
55.310 8.214996
55.315 8.419948
55.320 8.715397
55.325 9.412435
55.330 9.61027
55.335 9.856319
55.340 10.233551
55.345 10.433905
55.350 10.51426
55.355 10.696916
55.360 10.685946
55.365 11.149238
55.370 11.744872
55.375 11.688686
55.380 11.851742
55.385 11.430138
55.390 11.195933
55.395 11.369571
55.400 10.519124
55.405 10.042776
55.410 9.978118
55.415 9.755031
55.420 9.875057
55.425 9.478541
55.430 9.436747
55.435 9.686805
55.440 9.368279
55.445 9.422811
55.450 9.82521
55.455 9.943599
55.460 9.881501
55.465 9.581871
55.470 9.781904
55.475 10.172965
55.480 9.773012
55.485 9.406884
55.490 9.354102
55.495 9.408572
55.500 9.049828
55.505 8.886903
55.510 8.763866
55.515 8.60533
55.520 8.790023
55.525 8.769341
55.530 9.409332
55.535 9.859377
55.540 10.046312
55.545 10.303053
55.550 10.250853
55.555 10.029276
55.560 9.956732
55.565 9.787898
55.570 9.382585
55.575 9.083394
55.580 9.470328
55.585 9.760015
55.590 10.014578
55.595 10.206779
55.600 10.082505
55.605 10.743489
55.610 11.050933
55.615 11.194333
55.620 11.473908
55.625 11.289594
55.630 11.11913
55.635 11.060531
55.640 10.792213
55.645 10.491227
55.650 10.058736
55.655 9.974007
55.660 10.268576
55.665 10.227051
55.670 10.316179
55.675 10.012749
55.680 9.906654
55.685 9.616796
55.690 9.941171
55.695 9.992832
55.700 10.140072
55.705 10.105124
55.710 10.516358
55.715 10.679536
55.720 11.046971
55.725 10.740606
55.730 10.72479
55.735 11.169241
55.740 11.021539
55.745 10.884564
55.750 10.837454
55.755 10.589028
55.760 10.499533
55.765 10.147809
55.770 10.095844
55.775 10.117074
55.780 10.120473
55.785 9.860349
55.790 10.011423
55.795 10.192492
55.800 10.50846
55.805 10.147692
55.810 10.041376
55.815 10.411425
55.820 10.732974
55.825 10.119167
55.830 9.686928
55.835 9.692624
55.840 10.083408
55.845 10.284348
55.850 10.517264
55.855 10.332114
55.860 10.641963
55.865 10.248659
55.870 9.859481
55.875 9.942364
55.880 10.097935
55.885 9.765758
55.890 9.874498
55.895 10.142281
55.900 10.764438
55.905 10.451859
55.910 10.470715
55.915 10.033175
55.920 10.488447
55.925 10.626917
55.930 10.835314
55.935 11.001987
55.940 11.106625
55.945 11.633131
55.950 11.646619
55.955 11.013173
55.960 10.84798
55.965 10.684305
55.970 11.014899
55.975 11.163278
55.980 10.877469
55.985 11.288371
55.990 11.711872
55.995 12.19688
56.000 12.051242
56.005 11.672367
56.010 11.353007
56.015 10.899945
56.020 10.217976
56.025 9.646233
56.030 8.94171
56.035 8.86929
56.040 9.200176
56.045 9.060689
56.050 9.485953
56.055 9.831498
56.060 10.295782
56.065 10.534338
56.070 10.166309
56.075 9.868932
56.080 9.573919
56.085 9.126053
56.090 9.016862
56.095 8.837456
56.100 8.995114
56.105 9.207309
56.110 9.562344
56.115 9.809742
56.120 9.94486
56.125 9.710828
56.130 9.742073
56.135 10.010283
56.140 10.18378
56.145 10.079135
56.150 9.660786
56.155 9.599248
56.160 9.38029
56.165 9.183844
56.170 9.289692
56.175 9.040992
56.180 9.189247
56.185 9.554688
56.190 10.14785
56.195 10.942987
56.200 10.981726
56.205 10.259665
56.210 10.053017
56.215 10.273754
56.220 10.195795
56.225 10.06506
56.230 10.125111
56.235 10.247618
56.240 11.010666
56.245 11.054839
56.250 10.553723
56.255 10.461061
56.260 10.399803
56.265 9.930452
56.270 9.400782
56.275 9.067053
56.280 9.091806
56.285 9.614159
56.290 10.071672
56.295 9.833196
56.300 10.429849
56.305 10.997044
56.310 11.070492
56.315 11.427275
56.320 11.455673
56.325 11.135047
56.330 11.110553
56.335 10.839812
56.340 11.365463
56.345 11.585721
56.350 11.219869
56.355 10.983808
56.360 10.900807
56.365 11.164195
56.370 10.882746
56.375 10.225446
56.380 9.679021
56.385 9.706966
56.390 9.621217
56.395 9.524386
56.400 9.146606
56.405 8.825308
56.410 8.836613
56.415 9.002753
56.420 9.491296
56.425 9.290649
56.430 9.064423
56.435 9.501051
56.440 9.870918
56.445 9.963123
56.450 9.861904
56.455 9.640954
56.460 10.364271
56.465 10.857198
56.470 10.872271
56.475 10.678424
56.480 10.766964
56.485 10.824837
56.490 11.242721
56.495 11.065843
56.500 11.102668
56.505 11.314163
56.510 11.269849
56.515 11.1985
56.520 11.380258
56.525 10.866293
56.530 10.572767
56.535 10.583242
56.540 10.893801
56.545 11.117867
56.550 11.048306
56.555 10.94395
56.560 11.437641
56.565 11.464249
56.570 11.296134
56.575 11.30223
56.580 11.192548
56.585 11.347323
56.590 11.347389
56.595 11.461687
56.600 11.904202
56.605 11.955718
56.610 11.587916
56.615 11.447712
56.620 11.427382
56.625 11.236165
56.630 10.543929
56.635 10.554972
56.640 10.671244
56.645 11.164723
56.650 11.306828
56.655 11.207476
56.660 11.320611
56.665 11.543062
56.670 11.337582
56.675 10.880232
56.680 10.49631
56.685 10.837813
56.690 10.958424
56.695 11.243107
56.700 11.547853
56.705 11.636672
56.710 11.853998
56.715 12.240769
56.720 11.943478
56.725 12.00555
56.730 11.760351
56.735 10.920692
56.740 10.829094
56.745 11.057666
56.750 10.770275
56.755 10.742648
56.760 10.869263
56.765 10.926502
56.770 11.293041
56.775 11.442135
56.780 11.707053
56.785 11.98024
56.790 11.987521
56.795 11.744943
56.800 11.844689
56.805 11.905629
56.810 11.816514
56.815 11.686573
56.820 11.369701
56.825 11.256962
56.830 11.089948
56.835 11.771405
56.840 11.479917
56.845 11.289542
56.850 11.640265
56.855 12.070775
56.860 12.148755
56.865 12.194252
56.870 12.203419
56.875 12.145362
56.880 11.941397
56.885 11.644774
56.890 11.358787
56.895 11.531315
56.900 11.022115
56.905 11.093275
56.910 11.264986
56.915 11.189837
56.920 11.196317
56.925 11.237656
56.930 11.145713
56.935 10.873809
56.940 10.323973
56.945 10.516652
56.950 10.757552
56.955 10.552149
56.960 10.456704
56.965 10.651943
56.970 10.905557
56.975 11.190447
56.980 11.210481
56.985 11.4964
56.990 11.969097
56.995 12.367734
57.000 12.457534
57.005 12.789599
57.010 12.995961
57.015 13.122215
57.020 12.874755
57.025 12.671612
57.030 12.226321
57.035 12.216886
57.040 11.820704
57.045 11.314097
57.050 11.040156
57.055 11.128278
57.060 11.114626
57.065 11.127658
57.070 10.884617
57.075 10.987154
57.080 11.127294
57.085 11.43213
57.090 11.280283
57.095 11.120916
57.100 11.261217
57.105 11.528686
57.110 11.53683
57.115 10.991274
57.120 10.102569
57.125 9.913781
57.130 10.434702
57.135 10.73539
57.140 10.686331
57.145 11.144825
57.150 11.462279
57.155 11.905179
57.160 11.950919
57.165 11.262187
57.170 11.014032
57.175 10.720421
57.180 10.443655
57.185 10.76382
57.190 10.805099
57.195 10.951521
57.200 11.042607
57.205 10.81356
57.210 10.997933
57.215 11.92261
57.220 11.542058
57.225 11.234752
57.230 10.96366
57.235 11.110742
57.240 11.697123
57.245 11.861694
57.250 11.213899
57.255 11.501596
57.260 11.888043
57.265 12.731396
57.270 12.945658
57.275 12.820414
57.280 12.719358
57.285 12.739108
57.290 12.828585
57.295 12.491174
57.300 12.247204
57.305 12.316784
57.310 12.174748
57.315 12.179946
57.320 12.536967
57.325 12.746426
57.330 12.868244
57.335 12.621639
57.340 12.576014
57.345 12.625983
57.350 12.400831
57.355 12.666544
57.360 12.632521
57.365 12.809664
57.370 12.923096
57.375 12.918638
57.380 13.528504
57.385 13.885226
57.390 12.870201
57.395 12.684899
57.400 12.787304
57.405 12.916368
57.410 12.73435
57.415 11.961548
57.420 11.689638
57.425 12.094687
57.430 12.21887
57.435 11.619018
57.440 11.431123
57.445 11.48794
57.450 11.357301
57.455 11.295965
57.460 11.201357
57.465 11.587836
57.470 12.041485
57.475 11.747404
57.480 11.9533
57.485 12.828143
57.490 12.818877
57.495 13.128281
57.500 13.276885
57.505 13.321385
57.510 13.559654
57.515 13.339444
57.520 13.002053
57.525 12.945243
57.530 12.097075
57.535 11.678622
57.540 11.531819
57.545 11.334432
57.550 11.461501
57.555 11.54358
57.560 11.647933
57.565 12.123358
57.570 12.057063
57.575 12.414946
57.580 12.75516
57.585 12.795516
57.590 13.498409
57.595 14.096959
57.600 14.545043
57.605 14.7794
57.610 14.851103
57.615 14.56726
57.620 14.462098
57.625 13.969214
57.630 13.66013
57.635 13.391864
57.640 13.135935
57.645 13.229928
57.650 13.169086
57.655 12.969848
57.660 12.968178
57.665 13.142712
57.670 13.010889
57.675 12.784955
57.680 12.500573
57.685 12.324611
57.690 12.21679
57.695 11.763473
57.700 11.486674
57.705 11.778408
57.710 11.915431
57.715 12.023633
57.720 12.485375
57.725 12.907887
57.730 13.317611
57.735 13.323668
57.740 13.465005
57.745 13.682931
57.750 13.965796
57.755 14.054521
57.760 14.023787
57.765 14.463629
57.770 14.53162
57.775 14.566544
57.780 15.048847
57.785 15.062877
57.790 15.147849
57.795 14.973094
57.800 14.122661
57.805 13.871862
57.810 13.4695
57.815 13.141632
57.820 13.367609
57.825 13.330713
57.830 13.860573
57.835 14.153865
57.840 14.562352
57.845 15.042366
57.850 14.891374
57.855 14.225635
57.860 13.754328
57.865 13.141052
57.870 12.913591
57.875 12.341943
57.880 12.391195
57.885 12.549059
57.890 12.877029
57.895 13.246849
57.900 13.359135
57.905 13.455027
57.910 13.721946
57.915 13.754081
57.920 13.695886
57.925 13.444508
57.930 13.397891
57.935 13.722595
57.940 13.968729
57.945 13.792588
57.950 13.642742
57.955 13.328136
57.960 13.584213
57.965 13.598585
57.970 13.70697
57.975 13.791491
57.980 13.453265
57.985 13.359779
57.990 13.614986
57.995 13.901514
58.000 13.635798
58.005 13.594255
58.010 13.354953
58.015 13.823583
58.020 14.314006
58.025 14.269845
58.030 13.803811
58.035 14.270959
58.040 14.835294
58.045 14.770862
58.050 14.323965
58.055 14.297787
58.060 14.339595
58.065 14.53062
58.070 14.589371
58.075 14.30566
58.080 14.889798
58.085 15.416247
58.090 15.073264
58.095 14.975354
58.100 14.812504
58.105 14.505419
58.110 14.479365
58.115 14.274694
58.120 14.096738
58.125 14.248189
58.130 14.059834
58.135 13.92358
58.140 13.850518
58.145 13.798017
58.150 13.69931
58.155 13.3951
58.160 13.831738
58.165 14.086055
58.170 14.067114
58.175 14.366335
58.180 14.636459
58.185 14.973843
58.190 15.557207
58.195 15.585479
58.200 15.845832
58.205 15.522815
58.210 15.347849
58.215 15.6092
58.220 15.878539
58.225 15.63692
58.230 15.565141
58.235 16.388071
58.240 16.952297
58.245 17.022282
58.250 17.233843
58.255 17.360561
58.260 17.425976
58.265 17.029568
58.270 16.769659
58.275 17.330841
58.280 17.34137
58.285 16.916651
58.290 16.728477
58.295 17.371502
58.300 17.849567
58.305 17.977613
58.310 17.760109
58.315 17.643648
58.320 17.405397
58.325 17.407869
58.330 17.103817
58.335 16.94696
58.340 16.476793
58.345 16.304161
58.350 17.011463
58.355 17.656479
58.360 17.897633
58.365 18.255491
58.370 18.80229
58.375 19.214777
58.380 19.171225
58.385 19.47477
58.390 19.947004
58.395 19.92802
58.400 19.570232
58.405 19.345291
58.410 19.968601
58.415 20.866508
58.420 20.646286
58.425 19.995602
58.430 20.259493
58.435 20.213522
58.440 20.150499
58.445 19.715107
58.450 19.214376
58.455 19.657543
58.460 20.205648
58.465 20.115314
58.470 21.088472
58.475 21.713282
58.480 22.01173
58.485 22.378328
58.490 22.198771
58.495 22.715219
58.500 23.830376
58.505 23.790596
58.510 23.963434
58.515 24.632898
58.520 25.060207
58.525 25.971712
58.530 26.127796
58.535 26.357124
58.540 26.613459
58.545 26.766691
58.550 26.750597
58.555 26.785328
58.560 27.452717
58.565 27.86598
58.570 27.827694
58.575 28.272165
58.580 29.048567
58.585 29.574957
58.590 30.000107
58.595 30.296864
58.600 30.396296
58.605 31.180231
58.610 31.377262
58.615 31.094166
58.620 31.536695
58.625 31.427671
58.630 31.84425
58.635 32.480057
58.640 32.289974
58.645 32.946522
58.650 33.349056
58.655 34.079868
58.660 35.150322
58.665 34.770954
58.670 34.497787
58.675 34.045414
58.680 33.729244
58.685 32.979523
58.690 31.965147
58.695 30.81451
58.700 30.366207
58.705 30.839729
58.710 30.321957
58.715 29.960058
58.720 30.272305
58.725 30.157026
58.730 30.25774
58.735 29.435951
58.740 28.294855
58.745 28.260374
58.750 28.714539
58.755 28.500057
58.760 28.222555
58.765 27.35708
58.770 27.345955
58.775 26.698271
58.780 26.358366
58.785 25.692734
58.790 24.645807
58.795 24.502487
58.800 24.148289
58.805 23.35955
58.810 23.495468
58.815 22.806911
58.820 22.558384
58.825 22.712517
58.830 21.95188
58.835 22.167377
58.840 22.863899
58.845 22.341852
58.850 22.796921
58.855 22.671034
58.860 23.146744
58.865 22.908863
58.870 22.678902
58.875 22.512581
58.880 22.769089
58.885 22.402407
58.890 22.089035
58.895 21.208998
58.900 21.03298
58.905 20.144405
58.910 19.712708
58.915 19.076
58.920 18.306814
58.925 17.914526
58.930 17.836359
58.935 17.990889
58.940 18.304098
58.945 18.175268
58.950 18.407492
58.955 18.400976
58.960 18.257586
58.965 18.198242
58.970 17.576731
58.975 17.427231
58.980 16.941517
58.985 16.281124
58.990 15.824307
58.995 15.102563
59.000 14.892618
59.005 15.25597
59.010 15.61873
59.015 16.099152
59.020 16.466125
59.025 16.826258
59.030 17.352596
59.035 17.778484
59.040 18.20883
59.045 17.640295
59.050 16.951414
59.055 16.671543
59.060 16.965178
59.065 16.756653
59.070 16.030409
59.075 14.776593
59.080 14.940924
59.085 15.326034
59.090 14.995535
59.095 14.102041
59.100 13.948886
59.105 14.150275
59.110 14.584037
59.115 13.904796
59.120 14.076175
59.125 14.153535
59.130 14.452517
59.135 14.66507
59.140 14.685237
59.145 14.163031
59.150 13.934199
59.155 13.911673
59.160 14.087499
59.165 14.224198
59.170 14.494862
59.175 15.013724
59.180 15.111919
59.185 15.738807
59.190 15.890653
59.195 16.153208
59.200 16.218121
59.205 15.691257
59.210 15.443594
59.215 15.731889
59.220 14.991822
59.225 14.4006
59.230 14.083863
59.235 14.38753
59.240 14.862284
59.245 14.805014
59.250 14.997208
59.255 15.238776
59.260 15.511615
59.265 15.42887
59.270 14.458726
59.275 13.64959
59.280 13.571642
59.285 13.184956
59.290 12.921864
59.295 12.72959
59.300 12.699414
59.305 12.613535
59.310 12.630773
59.315 12.668256
59.320 12.941013
59.325 13.396375
59.330 13.809924
59.335 13.910804
59.340 13.878063
59.345 14.041943
59.350 13.582565
59.355 12.716139
59.360 12.672895
59.365 12.529726
59.370 12.834759
59.375 13.224695
59.380 13.120496
59.385 14.047835
59.390 14.754523
59.395 14.592328
59.400 14.906507
59.405 14.68801
59.410 14.46037
59.415 14.665122
59.420 14.148335
59.425 13.967267
59.430 13.973797
59.435 13.817734
59.440 13.978956
59.445 14.404831
59.450 14.15193
59.455 14.031945
59.460 14.439735
59.465 14.281722
59.470 13.675932
59.475 14.085725
59.480 14.264499
59.485 14.765365
59.490 15.494916
59.495 15.434065
59.500 15.205231
59.505 15.632095
59.510 15.083881
59.515 14.92893
59.520 14.700106
59.525 13.898639
59.530 13.816322
59.535 13.757376
59.540 13.473795
59.545 13.620067
59.550 12.772237
59.555 12.47682
59.560 12.878708
59.565 13.234698
59.570 13.351528
59.575 12.949412
59.580 12.972681
59.585 13.397635
59.590 13.399156
59.595 13.197704
59.600 12.663824
59.605 12.914113
59.610 13.416682
59.615 13.726625
59.620 13.996301
59.625 13.820678
59.630 13.636704
59.635 13.257398
59.640 12.99544
59.645 12.979807
59.650 12.709614
59.655 12.925123
59.660 13.21873
59.665 13.798964
59.670 14.296581
59.675 14.645916
59.680 14.322369
59.685 14.564282
59.690 14.464878
59.695 14.415558
59.700 13.959531
59.705 14.162802
59.710 14.015804
59.715 13.882517
59.720 13.949382
59.725 13.681477
59.730 13.603241
59.735 13.753892
59.740 13.541907
59.745 13.809476
59.750 14.3337
59.755 14.258229
59.760 14.51857
59.765 14.753736
59.770 14.592164
59.775 14.601052
59.780 14.334699
59.785 14.627806
59.790 14.59924
59.795 14.628589
59.800 14.720328
59.805 14.958493
59.810 15.121915
59.815 15.66698
59.820 15.304145
59.825 15.600965
59.830 15.268031
59.835 15.302485
59.840 15.69133
59.845 15.287928
59.850 14.310573
59.855 13.830853
59.860 13.185382
59.865 13.275919
59.870 13.20815
59.875 13.303476
59.880 13.022406
59.885 13.210828
59.890 13.214325
59.895 13.751393
59.900 13.492125
59.905 13.329511
59.910 13.562921
59.915 14.683053
59.920 15.03765
59.925 15.202648
59.930 15.571345
59.935 15.72177
59.940 15.022013
59.945 14.533232
59.950 14.084128
59.955 14.113643
59.960 14.134151
59.965 13.942328
59.970 13.862268
59.975 14.251144
59.980 14.006054
59.985 14.278924
59.990 14.120519
59.995 13.825471
60.000 13.529133
60.005 13.846791
60.010 14.379384
60.015 13.839194
60.020 13.83976
60.025 14.176579
60.030 14.024956
60.035 14.104164
60.040 13.997207
60.045 14.053025
60.050 14.814562
60.055 15.04679
60.060 14.695902
60.065 14.677168
60.070 14.984788
60.075 14.820401
60.080 14.668241
60.085 14.592627
60.090 14.673831
60.095 15.042502
60.100 15.461013
60.105 15.705894
60.110 15.779703
60.115 15.672262
60.120 15.005242
60.125 14.288889
60.130 14.348844
60.135 14.533775
60.140 14.435956
60.145 14.436171
60.150 14.302644
60.155 14.713864
60.160 14.82686
60.165 14.975718
60.170 14.887259
60.175 14.491186
60.180 14.655447
60.185 14.984961
60.190 14.999092
60.195 15.060128
60.200 14.689511
60.205 14.222793
60.210 14.026719
60.215 14.015045
60.220 13.780027
60.225 13.792405
60.230 13.386226
60.235 13.037176
60.240 12.89852
60.245 12.931308
60.250 12.780342
60.255 12.59063
60.260 12.413851
60.265 12.570463
60.270 12.779213
60.275 12.835704
60.280 12.993751
60.285 12.899713
60.290 13.508452
60.295 14.017361
60.300 14.556737
60.305 14.761607
60.310 14.807243
60.315 14.812327
60.320 14.561787
60.325 13.708916
60.330 13.201815
60.335 12.892377
60.340 12.949679
60.345 13.378276
60.350 13.430027
60.355 13.604778
60.360 14.177394
60.365 13.963363
60.370 14.250742
60.375 14.748643
60.380 15.036629
60.385 14.927208
60.390 15.137418
60.395 14.965372
60.400 15.297819
60.405 15.199959
60.410 13.980395
60.415 13.642467
60.420 13.893227
60.425 14.143163
60.430 14.286131
60.435 14.055154
60.440 14.055329
60.445 14.459545
60.450 14.241063
60.455 13.991334
60.460 13.61415
60.465 13.652769
60.470 14.584998
60.475 14.193851
60.480 13.790559
60.485 13.72744
60.490 13.807937
60.495 14.129241
60.500 13.642136
60.505 13.245239
60.510 13.932746
60.515 14.623562
60.520 14.931219
60.525 14.973744
60.530 14.950276
60.535 15.224786
60.540 14.803627
60.545 14.519674
60.550 13.96024
60.555 13.672029
60.560 13.495301
60.565 13.229827
60.570 12.756565
60.575 12.891466
60.580 13.126544
60.585 13.677404
60.590 13.986162
60.595 14.367809
60.600 14.245857
60.605 15.288198
60.610 15.44036
60.615 15.531154
60.620 15.540486
60.625 15.621719
60.630 15.583822
60.635 15.826747
60.640 15.255838
60.645 15.438856
60.650 15.295538
60.655 14.934227
60.660 14.842434
60.665 14.725892
60.670 14.673374
60.675 14.364398
60.680 14.222784
60.685 13.946482
60.690 13.980228
60.695 14.164223
60.700 14.307774
60.705 14.571042
60.710 14.515628
60.715 14.760592
60.720 15.33388
60.725 15.580397
60.730 15.166141
60.735 15.059414
60.740 14.910218
60.745 15.117772
60.750 14.921813
60.755 14.696929
60.760 14.49322
60.765 14.7323
60.770 14.711775
60.775 14.626678
60.780 14.812092
60.785 14.858287
60.790 14.805926
60.795 15.053312
60.800 14.872416
60.805 14.856137
60.810 14.699203
60.815 14.216627
60.820 14.235769
60.825 13.654977
60.830 13.565715
60.835 13.941994
60.840 13.58361
60.845 14.22485
60.850 14.987249
60.855 15.510535
60.860 16.330736
60.865 16.375826
60.870 16.029158
60.875 16.706553
60.880 16.216795
60.885 15.434669
60.890 14.86473
60.895 14.909795
60.900 15.212095
60.905 14.71753
60.910 14.445101
60.915 14.810039
60.920 15.249637
60.925 15.045714
60.930 14.879006
60.935 14.479144
60.940 14.700031
60.945 14.461797
60.950 13.882815
60.955 13.574697
60.960 13.416726
60.965 13.264689
60.970 13.693151
60.975 14.160498
60.980 14.184635
60.985 14.851664
60.990 15.56046
60.995 15.515546
61.000 15.350303
61.005 14.719604
61.010 14.1371
61.015 14.206431
61.020 14.028337
61.025 13.6717
61.030 14.189048
61.035 14.423644
61.040 15.113143
61.045 15.583822
61.050 16.035484
61.055 15.588815
61.060 15.801124
61.065 15.599114
61.070 15.545033
61.075 15.528039
61.080 15.291059
61.085 15.163843
61.090 14.93161
61.095 15.037824
61.100 15.157264
61.105 14.985514
61.110 14.774062
61.115 14.931859
61.120 14.850868
61.125 15.239934
61.130 15.073972
61.135 15.172018
61.140 15.282708
61.145 15.493896
61.150 15.490245
61.155 15.476218
61.160 14.943715
61.165 14.599737
61.170 14.355237
61.175 14.478096
61.180 14.174516
61.185 13.997628
61.190 13.963421
61.195 13.84056
61.200 13.964144
61.205 13.890038
61.210 13.412203
61.215 13.344543
61.220 13.298267
61.225 13.93879
61.230 14.409412
61.235 13.851659
61.240 14.165345
61.245 14.338164
61.250 14.784099
61.255 14.871146
61.260 14.475998
61.265 14.484037
61.270 14.806696
61.275 14.197572
61.280 13.983238
61.285 13.612518
61.290 13.621031
61.295 13.528419
61.300 14.060599
61.305 14.060081
61.310 14.299071
61.315 14.419894
61.320 14.622484
61.325 14.62512
61.330 14.633296
61.335 14.020745
61.340 13.738805
61.345 14.021194
61.350 14.295445
61.355 14.066622
61.360 14.090613
61.365 14.31154
61.370 14.459965
61.375 14.71024
61.380 14.681208
61.385 14.789711
61.390 14.621029
61.395 13.941978
61.400 14.058465
61.405 14.35802
61.410 14.093561
61.415 14.23975
61.420 13.749933
61.425 13.636155
61.430 14.242105
61.435 14.055311
61.440 13.941521
61.445 13.815797
61.450 13.656196
61.455 14.429057
61.460 14.822487
61.465 15.00136
61.470 15.071737
61.475 15.754787
61.480 16.520222
61.485 16.464909
61.490 16.012424
61.495 15.603151
61.500 15.562399
61.505 15.307445
61.510 15.07397
61.515 15.694013
61.520 15.777495
61.525 16.011267
61.530 16.346821
61.535 15.974187
61.540 15.689235
61.545 15.369202
61.550 14.903213
61.555 15.209188
61.560 15.513865
61.565 15.38621
61.570 15.717299
61.575 16.572216
61.580 17.088594
61.585 17.204231
61.590 16.625978
61.595 15.906169
61.600 16.443657
61.605 16.482918
61.610 16.313786
61.615 15.525278
61.620 14.858997
61.625 15.570736
61.630 16.167065
61.635 15.993866
61.640 16.243938
61.645 15.737537
61.650 15.77074
61.655 16.285189
61.660 16.134661
61.665 15.50054
61.670 15.149817
61.675 15.088302
61.680 14.984518
61.685 14.819928
61.690 14.386191
61.695 14.093619
61.700 13.997691
61.705 13.829728
61.710 13.261757
61.715 13.940768
61.720 14.250652
61.725 14.453873
61.730 14.638592
61.735 15.485106
61.740 15.626976
61.745 15.866141
61.750 15.188507
61.755 15.547184
61.760 15.425756
61.765 15.034397
61.770 14.826017
61.775 14.701591
61.780 14.604659
61.785 14.774931
61.790 14.583295
61.795 14.546659
61.800 14.704629
61.805 14.495595
61.810 14.802916
61.815 15.29809
61.820 15.129969
61.825 15.277637
61.830 15.106362
61.835 15.027039
61.840 15.122318
61.845 15.268016
61.850 15.226039
61.855 15.371047
61.860 14.977181
61.865 15.109982
61.870 15.246024
61.875 14.909191
61.880 14.318416
61.885 14.458084
61.890 14.840113
61.895 15.116815
61.900 15.353778
61.905 15.828547
61.910 16.333498
61.915 16.272778
61.920 15.896448
61.925 15.487559
61.930 15.287518
61.935 15.172351
61.940 14.457363
61.945 14.090699
61.950 14.439018
61.955 14.652479
61.960 14.884604
61.965 14.985314
61.970 14.98106
61.975 15.422348
61.980 15.629647
61.985 15.295918
61.990 15.262117
61.995 15.462737
62.000 15.73367
62.005 15.86413
62.010 16.048477
62.015 15.745706
62.020 15.654872
62.025 15.597666
62.030 14.743649
62.035 14.311287
62.040 13.700129
62.045 13.551503
62.050 13.918396
62.055 13.695304
62.060 13.352753
62.065 13.831405
62.070 14.265782
62.075 14.791483
62.080 14.701505
62.085 14.731631
62.090 14.942799
62.095 14.890152
62.100 14.776775
62.105 14.571115
62.110 14.657076
62.115 14.895354
62.120 14.833976
62.125 15.174163
62.130 15.954573
62.135 16.466732
62.140 16.61459
62.145 16.027651
62.150 15.801882
62.155 16.171419
62.160 16.424162
62.165 16.591017
62.170 16.13751
62.175 16.22187
62.180 16.717192
62.185 16.526814
62.190 15.785464
62.195 15.03113
62.200 14.463394
62.205 14.086854
62.210 13.562327
62.215 13.462418
62.220 13.654527
62.225 13.947489
62.230 14.098826
62.235 14.32967
62.240 14.879613
62.245 15.411632
62.250 15.335202
62.255 15.408091
62.260 15.763925
62.265 16.223162
62.270 16.21232
62.275 16.608313
62.280 16.655022
62.285 16.781904
62.290 16.558699
62.295 16.364477
62.300 15.543885
62.305 15.332774
62.310 15.011531
62.315 14.901452
62.320 14.895749
62.325 15.200651
62.330 15.210999
62.335 15.693087
62.340 15.74931
62.345 15.646986
62.350 15.784738
62.355 15.873356
62.360 15.970919
62.365 16.136002
62.370 16.652336
62.375 16.983122
62.380 16.694
62.385 16.191765
62.390 16.164433
62.395 15.77606
62.400 15.699638
62.405 15.054277
62.410 15.298895
62.415 15.981836
62.420 15.95371
62.425 15.999755
62.430 16.77474
62.435 16.892023
62.440 16.640301
62.445 15.99121
62.450 16.250496
62.455 16.915228
62.460 16.926212
62.465 16.355446
62.470 16.225853
62.475 16.817913
62.480 17.123419
62.485 17.0179
62.490 16.788839
62.495 16.705305
62.500 17.030441
62.505 17.360134
62.510 17.107203
62.515 17.357883
62.520 17.213148
62.525 17.641996
62.530 17.377594
62.535 16.790493
62.540 16.435667
62.545 16.554005
62.550 15.536969
62.555 14.892432
62.560 14.622455
62.565 15.104023
62.570 15.402607
62.575 15.093425
62.580 14.69937
62.585 14.836896
62.590 14.799901
62.595 14.196944
62.600 13.636365
62.605 13.752615
62.610 14.171471
62.615 14.34052
62.620 14.366899
62.625 14.703261
62.630 14.929821
62.635 15.040528
62.640 15.001237
62.645 15.2167
62.650 15.252067
62.655 15.338001
62.660 15.596301
62.665 15.609098
62.670 16.160971
62.675 16.533054
62.680 16.236263
62.685 16.109901
62.690 16.661058
62.695 16.770605
62.700 16.713385
62.705 15.989758
62.710 15.896056
62.715 16.027578
62.720 16.346319
62.725 16.359976
62.730 16.528461
62.735 16.885975
62.740 16.947693
62.745 16.802773
62.750 17.117826
62.755 17.486103
62.760 17.941725
62.765 17.687298
62.770 17.30401
62.775 17.307219
62.780 17.209589
62.785 16.615396
62.790 15.662084
62.795 15.043063
62.800 15.072548
62.805 15.291802
62.810 15.195661
62.815 15.223326
62.820 15.357018
62.825 15.765913
62.830 15.60325
62.835 15.127203
62.840 15.159959
62.845 15.620042
62.850 15.473632
62.855 15.467196
62.860 15.191568
62.865 14.651746
62.870 14.886551
62.875 15.171104
62.880 14.740751
62.885 15.087395
62.890 15.077954
62.895 15.250343
62.900 15.434625
62.905 15.488827
62.910 15.117753
62.915 14.963956
62.920 14.899464
62.925 15.305306
62.930 15.786123
62.935 16.268318
62.940 16.430616
62.945 16.264595
62.950 16.323887
62.955 15.991566
62.960 15.676506
62.965 15.147823
62.970 14.795366
62.975 14.159331
62.980 14.146884
62.985 14.247041
62.990 14.87942
62.995 15.406726
63.000 15.782556
63.005 15.891361
63.010 16.251322
63.015 16.281809
63.020 16.184658
63.025 15.978781
63.030 15.551876
63.035 15.122402
63.040 15.08806
63.045 15.216763
63.050 15.919784
63.055 15.83579
63.060 15.645756
63.065 15.297699
63.070 15.525528
63.075 15.710395
63.080 15.761481
63.085 15.063025
63.090 14.988103
63.095 15.150465
63.100 15.390463
63.105 15.600255
63.110 15.93615
63.115 16.419216
63.120 16.748281
63.125 16.811556
63.130 16.711866
63.135 17.035648
63.140 17.009588
63.145 16.624519
63.150 16.449776
63.155 16.495306
63.160 16.449881
63.165 16.60441
63.170 16.316896
63.175 16.060965
63.180 15.961704
63.185 15.549747
63.190 15.853475
63.195 15.999936
63.200 15.994681
63.205 15.909889
63.210 16.308447
63.215 17.309477
63.220 17.411764
63.225 17.300129
63.230 17.636459
63.235 17.685308
63.240 18.089882
63.245 17.614599
63.250 16.885752
63.255 17.080343
63.260 17.326109
63.265 16.777618
63.270 16.400837
63.275 16.211594
63.280 16.588087
63.285 17.362221
63.290 17.441687
63.295 16.58103
63.300 17.414089
63.305 18.025761
63.310 18.141953
63.315 17.95129
63.320 17.688999
63.325 17.911573
63.330 18.455259
63.335 17.510494
63.340 16.947769
63.345 17.298254
63.350 16.318018
63.355 15.722104
63.360 15.22507
63.365 15.362267
63.370 15.64671
63.375 15.943143
63.380 15.699498
63.385 16.494184
63.390 16.220472
63.395 16.240877
63.400 16.202879
63.405 16.486193
63.410 16.34729
63.415 15.890725
63.420 15.718225
63.425 16.419718
63.430 16.204151
63.435 15.981231
63.440 15.743165
63.445 16.246916
63.450 16.653854
63.455 16.986544
63.460 16.759977
63.465 17.46368
63.470 17.519127
63.475 17.552488
63.480 17.053875
63.485 17.344854
63.490 17.623573
63.495 17.554409
63.500 17.296122
63.505 17.423447
63.510 17.202143
63.515 17.118502
63.520 16.45653
63.525 16.772972
63.530 17.237198
63.535 17.587778
63.540 17.5891
63.545 17.340942
63.550 17.345436
63.555 17.578192
63.560 17.367554
63.565 17.067522
63.570 16.460075
63.575 16.790951
63.580 17.163782
63.585 16.964161
63.590 17.139328
63.595 17.240053
63.600 16.9515
63.605 16.753561
63.610 16.50359
63.615 16.423897
63.620 16.824617
63.625 16.724716
63.630 16.358616
63.635 16.641474
63.640 17.166611
63.645 17.411364
63.650 16.759993
63.655 16.506828
63.660 16.654562
63.665 17.226789
63.670 17.116291
63.675 16.61459
63.680 16.282179
63.685 17.033754
63.690 16.957359
63.695 16.723251
63.700 15.99003
63.705 16.108074
63.710 16.497507
63.715 16.496347
63.720 16.402035
63.725 16.643124
63.730 16.805256
63.735 16.997229
63.740 16.664867
63.745 16.683979
63.750 17.268137
63.755 17.076809
63.760 16.697886
63.765 17.047459
63.770 17.625019
63.775 17.836908
63.780 18.390203
63.785 18.39065
63.790 18.643562
63.795 18.45393
63.800 17.910353
63.805 17.788837
63.810 18.089891
63.815 17.859409
63.820 17.80023
63.825 18.17395
63.830 18.906981
63.835 18.860508
63.840 18.624844
63.845 18.372334
63.850 18.288656
63.855 18.015364
63.860 17.656878
63.865 17.346207
63.870 17.638748
63.875 18.240427
63.880 18.512012
63.885 18.834465
63.890 19.269608
63.895 19.391777
63.900 19.46483
63.905 19.292929
63.910 18.888569
63.915 18.880344
63.920 18.898556
63.925 19.237352
63.930 19.686739
63.935 19.684277
63.940 19.43158
63.945 19.101404
63.950 19.167377
63.955 18.866274
63.960 18.775665
63.965 18.887367
63.970 19.536955
63.975 20.079206
63.980 20.364126
63.985 20.577589
63.990 20.919331
63.995 21.247902
64.000 21.530441
64.005 21.71829
64.010 21.979542
64.015 22.915777
64.020 23.582962
64.025 23.083685
64.030 22.596117
64.035 22.310867
64.040 22.1283
64.045 22.635036
64.050 22.611263
64.055 22.683834
64.060 22.814497
64.065 23.280249
64.070 23.975344
64.075 23.916824
64.080 23.631849
64.085 23.441381
64.090 23.77449
64.095 24.611931
64.100 24.898829
64.105 24.923088
64.110 25.188841
64.115 25.285769
64.120 25.469706
64.125 25.38406
64.130 25.152206
64.135 25.787016
64.140 25.621723
64.145 26.296955
64.150 27.0168
64.155 27.631721
64.160 28.290319
64.165 29.375145
64.170 29.333643
64.175 29.864248
64.180 29.952831
64.185 30.359182
64.190 30.162348
64.195 30.033924
64.200 30.060715
64.205 30.989223
64.210 31.048115
64.215 30.813881
64.220 31.852858
64.225 33.423313
64.230 34.296406
64.235 34.003044
64.240 34.121937
64.245 34.458164
64.250 35.504822
64.255 35.082291
64.260 34.85881
64.265 34.931614
64.270 35.313927
64.275 35.281128
64.280 36.288803
64.285 36.897785
64.290 36.661903
64.295 36.907978
64.300 36.897873
64.305 36.574314
64.310 36.571198
64.315 36.356529
64.320 36.317696
64.325 37.227764
64.330 37.647984
64.335 38.910137
64.340 39.942604
64.345 40.675987
64.350 41.350403
64.355 42.045769
64.360 43.671425
64.365 44.876518
64.370 45.821648
64.375 46.970303
64.380 47.049129
64.385 46.740704
64.390 45.950268
64.395 44.961617
64.400 44.527489
64.405 42.967381
64.410 42.368633
64.415 42.126274
64.420 42.732502
64.425 42.751278
64.430 42.988491
64.435 42.669407
64.440 43.001415
64.445 42.747181
64.450 42.747425
64.455 41.900742
64.460 42.503033
64.465 42.81913
64.470 42.922779
64.475 42.82505
64.480 42.736217
64.485 43.227371
64.490 43.533768
64.495 43.221062
64.500 42.04533
64.505 41.686863
64.510 42.195499
64.515 42.188175
64.520 41.707314
64.525 41.376366
64.530 40.403324
64.535 39.892845
64.540 39.579655
64.545 38.853008
64.550 38.089855
64.555 36.521374
64.560 35.900349
64.565 36.18626
64.570 35.300549
64.575 34.441441
64.580 34.132492
64.585 33.902248
64.590 33.890434
64.595 33.495617
64.600 32.980766
64.605 32.317829
64.610 31.815151
64.615 32.114105
64.620 31.904142
64.625 31.566221
64.630 31.377472
64.635 30.856905
64.640 31.413923
64.645 31.125368
64.650 29.811852
64.655 29.816706
64.660 29.56782
64.665 28.535139
64.670 27.455168
64.675 26.564558
64.680 25.854362
64.685 25.35416
64.690 24.818249
64.695 24.684393
64.700 24.613907
64.705 24.65152
64.710 24.384319
64.715 24.103769
64.720 23.619026
64.725 23.271896
64.730 23.737185
64.735 24.267515
64.740 23.948261
64.745 24.182127
64.750 24.812328
64.755 25.344229
64.760 25.756634
64.765 25.107922
64.770 24.558252
64.775 24.291832
64.780 23.336035
64.785 22.726034
64.790 22.699821
64.795 22.385672
64.800 22.19425
64.805 22.149948
64.810 22.590647
64.815 22.570417
64.820 22.213499
64.825 21.825062
64.830 21.643637
64.835 21.071556
64.840 21.471682
64.845 20.647888
64.850 20.761774
64.855 20.622551
64.860 20.846004
64.865 21.326645
64.870 22.19779
64.875 22.145185
64.880 22.161674
64.885 22.336475
64.890 22.459845
64.895 21.430004
64.900 21.050873
64.905 20.746073
64.910 21.006302
64.915 21.549044
64.920 20.87686
64.925 20.502806
64.930 21.015408
64.935 21.032503
64.940 20.709845
64.945 20.729401
64.950 20.974039
64.955 21.942568
64.960 22.228327
64.965 22.330231
64.970 22.170868
64.975 22.539368
64.980 22.327681
64.985 22.552423
64.990 22.826756
64.995 23.118523
65.000 23.633707
65.005 23.688625
65.010 24.34581
65.015 24.61797
65.020 24.670752
65.025 24.513441
65.030 24.518644
65.035 24.487833
65.040 24.733374
65.045 24.71698
65.050 24.856449
65.055 24.309597
65.060 24.18564
65.065 23.92658
65.070 23.787786
65.075 24.117121
65.080 23.440197
65.085 23.74637
65.090 24.569624
65.095 25.083742
65.100 25.577848
65.105 25.570633
65.110 25.718231
65.115 26.842964
65.120 27.568546
65.125 27.833029
65.130 28.83696
65.135 29.616295
65.140 30.48679
65.145 30.945599
65.150 31.062275
65.155 31.131918
65.160 30.700056
65.165 30.14205
65.170 29.631647
65.175 29.668131
65.180 29.566597
65.185 29.680492
65.190 30.060921
65.195 30.840218
65.200 30.761805
65.205 30.989454
65.210 31.749273
65.215 31.711044
65.220 30.991373
65.225 30.665937
65.230 31.079699
65.235 31.764929
65.240 32.61702
65.245 31.802074
65.250 32.115284
65.255 32.049973
65.260 31.999928
65.265 31.318819
65.270 31.163286
65.275 31.083973
65.280 32.033726
65.285 32.473324
65.290 33.110275
65.295 33.27179
65.300 34.365768
65.305 34.627487
65.310 34.696098
65.315 34.3521
65.320 34.291245
65.325 34.681206
65.330 34.524445
65.335 33.830963
65.340 34.331032
65.345 34.492268
65.350 35.026531
65.355 35.59473
65.360 35.761726
65.365 36.615871
65.370 36.350609
65.375 36.021488
65.380 36.196823
65.385 35.918934
65.390 35.590885
65.395 35.77779
65.400 35.758778
65.405 36.640453
65.410 36.211067
65.415 36.050583
65.420 36.122166
65.425 36.003441
65.430 35.764755
65.435 35.330257
65.440 35.137077
65.445 35.122829
65.450 34.957035
65.455 34.586151
65.460 34.353466
65.465 34.102383
65.470 33.678848
65.475 33.352619
65.480 34.195934
65.485 34.186531
65.490 34.545433
65.495 34.90181
65.500 35.048527
65.505 35.705505
65.510 35.96006
65.515 35.411171
65.520 35.445007
65.525 35.575779
65.530 35.886379
65.535 35.491909
65.540 35.119297
65.545 34.840115
65.550 35.77742
65.555 36.29995
65.560 35.319748
65.565 35.395409
65.570 35.949734
65.575 36.745087
65.580 37.316357
65.585 36.629009
65.590 35.626953
65.595 35.91964
65.600 36.072567
65.605 36.722935
65.610 36.985928
65.615 36.587032
65.620 36.779694
65.625 36.324604
65.630 35.570263
65.635 34.969555
65.640 35.454914
65.645 35.542568
65.650 34.721504
65.655 34.355797
65.660 35.523663
65.665 36.685066
65.670 36.471539
65.675 34.975178
65.680 34.498131
65.685 35.125214
65.690 35.550934
65.695 35.977146
65.700 35.867809
65.705 36.323853
65.710 36.664642
65.715 36.907234
65.720 36.850201
65.725 37.103703
65.730 36.965805
65.735 36.285358
65.740 35.501301
65.745 35.131992
65.750 34.941826
65.755 34.973415
65.760 34.959999
65.765 34.922134
65.770 35.52771
65.775 35.762039
65.780 36.059994
65.785 35.34679
65.790 34.671738
65.795 33.755241
65.800 32.341026
65.805 31.646513
65.810 31.680079
65.815 31.598564
65.820 31.367506
65.825 30.395058
65.830 30.171169
65.835 30.750328
65.840 31.209423
65.845 30.254322
65.850 29.708368
65.855 30.495905
65.860 31.535212
65.865 31.67445
65.870 31.685143
65.875 31.370275
65.880 30.95174
65.885 30.335892
65.890 28.681978
65.895 27.170639
65.900 26.277599
65.905 25.523239
65.910 24.393078
65.915 24.834866
65.920 24.474285
65.925 24.446711
65.930 25.076788
65.935 25.201105
65.940 25.3477
65.945 25.634035
65.950 25.634575
65.955 26.081079
65.960 27.243849
65.965 27.214745
65.970 27.543129
65.975 26.899471
65.980 26.509501
65.985 26.452442
65.990 26.165693
65.995 25.175564
66.000 24.70438
66.005 23.853329
66.010 24.190287
66.015 23.887432
66.020 23.117739
66.025 22.383654
66.030 22.287331
66.035 21.776337
66.040 21.444706
66.045 20.740791
66.050 20.651289
66.055 20.773663
66.060 20.718372
66.065 19.833363
66.070 19.506048
66.075 19.612709
66.080 19.888607
66.085 19.874668
66.090 19.713816
66.095 19.706812
66.100 20.232708
66.105 19.887192
66.110 19.386637
66.115 19.121651
66.120 19.060835
66.125 19.287281
66.130 18.851549
66.135 18.542425
66.140 19.301031
66.145 19.653101
66.150 19.678879
66.155 19.821381
66.160 19.455538
66.165 19.886549
66.170 20.010159
66.175 19.442209
66.180 19.102198
66.185 18.699585
66.190 18.37266
66.195 18.002655
66.200 17.472322
66.205 18.015533
66.210 18.047375
66.215 18.210127
66.220 18.365009
66.225 18.310938
66.230 18.618725
66.235 18.707438
66.240 18.241283
66.245 17.99394
66.250 18.285246
66.255 18.408611
66.260 18.60276
66.265 18.752481
66.270 19.178463
66.275 19.264341
66.280 19.246365
66.285 19.059103
66.290 18.855558
66.295 18.688814
66.300 18.858446
66.305 18.250837
66.310 17.983423
66.315 17.97262
66.320 17.76232
66.325 17.849405
66.330 17.686491
66.335 17.05809
66.340 17.304914
66.345 17.31361
66.350 17.498756
66.355 17.54644
66.360 17.131748
66.365 17.3043
66.370 17.713535
66.375 17.438663
66.380 17.137657
66.385 17.375885
66.390 17.572693
66.395 18.176592
66.400 18.597183
66.405 18.860199
66.410 19.229662
66.415 19.490459
66.420 19.61326
66.425 19.704201
66.430 19.726969
66.435 19.581205
66.440 19.046835
66.445 18.425089
66.450 18.471224
66.455 18.09174
66.460 17.744169
66.465 17.333775
66.470 17.614069
66.475 17.764074
66.480 17.992661
66.485 18.16408
66.490 18.384357
66.495 19.053883
66.500 19.501764
66.505 18.65789
66.510 18.730824
66.515 18.991199
66.520 18.870768
66.525 18.270342
66.530 17.578682
66.535 17.348799
66.540 17.978464
66.545 18.11739
66.550 17.727205
66.555 17.982903
66.560 18.888657
66.565 18.945715
66.570 18.981287
66.575 18.988834
66.580 18.535973
66.585 18.920856
66.590 18.751335
66.595 18.826294
66.600 19.051991
66.605 18.872179
66.610 18.715242
66.615 18.933912
66.620 18.387672
66.625 18.041092
66.630 17.807842
66.635 17.860394
66.640 17.96619
66.645 18.124739
66.650 18.09956
66.655 18.601431
66.660 19.014565
66.665 19.142828
66.670 18.988951
66.675 19.269667
66.680 19.567144
66.685 19.456921
66.690 19.463409
66.695 18.989744
66.700 18.857065
66.705 18.908934
66.710 18.548405
66.715 17.891768
66.720 18.26226
66.725 18.215603
66.730 18.245901
66.735 17.838345
66.740 17.837721
66.745 17.729307
66.750 17.997252
66.755 17.923307
66.760 18.054523
66.765 18.180857
66.770 18.280462
66.775 18.312887
66.780 17.943066
66.785 17.525272
66.790 17.354864
66.795 16.991426
66.800 17.181906
66.805 17.517694
66.810 17.634418
66.815 17.670635
66.820 17.284197
66.825 16.800455
66.830 16.412334
66.835 15.90894
66.840 15.209189
66.845 14.530418
66.850 14.954647
66.855 15.576056
66.860 15.752857
66.865 16.123749
66.870 16.188038
66.875 16.633562
66.880 17.014435
66.885 17.258827
66.890 17.116077
66.895 17.440855
66.900 17.412233
66.905 17.317385
66.910 17.293304
66.915 16.956942
66.920 16.961353
66.925 17.378466
66.930 17.745337
66.935 17.386749
66.940 17.672617
66.945 18.081596
66.950 18.275658
66.955 17.716068
66.960 17.361166
66.965 16.903933
66.970 17.454588
66.975 16.832975
66.980 16.480343
66.985 16.967001
66.990 17.491545
66.995 17.605312
67.000 17.980015
67.005 17.605251
67.010 17.767424
67.015 17.872374
67.020 17.985794
67.025 17.458908
67.030 17.673567
67.035 17.572014
67.040 18.018587
67.045 18.282278
67.050 18.007261
67.055 18.030621
67.060 17.810818
67.065 17.762903
67.070 17.698162
67.075 17.8316
67.080 18.220285
67.085 17.974602
67.090 18.038568
67.095 18.345755
67.100 17.72934
67.105 16.923935
67.110 15.96267
67.115 16.137474
67.120 16.370455
67.125 16.233242
67.130 16.197788
67.135 16.315905
67.140 16.824856
67.145 17.120264
67.150 16.99996
67.155 16.948172
67.160 16.810583
67.165 16.84675
67.170 17.332333
67.175 17.765699
67.180 17.58132
67.185 17.443623
67.190 17.438931
67.195 17.802193
67.200 18.079222
67.205 18.218519
67.210 17.830519
67.215 17.895958
67.220 17.877291
67.225 17.697149
67.230 17.717533
67.235 18.001896
67.240 18.028957
67.245 18.591267
67.250 18.8158
67.255 18.16221
67.260 18.301062
67.265 18.095442
67.270 17.94739
67.275 18.004906
67.280 17.972353
67.285 18.03668
67.290 18.356327
67.295 17.807867
67.300 17.512606
67.305 16.755787
67.310 16.138397
67.315 15.607808
67.320 15.487352
67.325 15.695808
67.330 15.669974
67.335 15.777855
67.340 15.568699
67.345 15.500002
67.350 15.98222
67.355 15.842095
67.360 16.764282
67.365 17.220924
67.370 18.14665
67.375 18.511068
67.380 18.845736
67.385 18.68819
67.390 18.507376
67.395 18.163023
67.400 18.195185
67.405 17.491819
67.410 17.012905
67.415 16.431221
67.420 16.391104
67.425 16.432474
67.430 16.10605
67.435 15.678452
67.440 15.63333
67.445 16.411268
67.450 16.849918
67.455 17.175039
67.460 17.659794
67.465 17.248661
67.470 17.479755
67.475 17.559013
67.480 17.604969
67.485 17.751192
67.490 17.583776
67.495 17.620773
67.500 17.885046
67.505 17.814989
67.510 18.140108
67.515 18.534754
67.520 18.90593
67.525 18.432762
67.530 17.916119
67.535 17.848303
67.540 17.494135
67.545 17.354225
67.550 16.863298
67.555 16.583138
67.560 17.046108
67.565 17.128159
67.570 17.342836
67.575 17.311924
67.580 17.089348
67.585 17.169577
67.590 16.991917
67.595 17.330593
67.600 17.246014
67.605 17.000513
67.610 17.492355
67.615 17.429209
67.620 17.782402
67.625 17.875757
67.630 17.651205
67.635 18.199375
67.640 18.437853
67.645 18.444048
67.650 18.39399
67.655 17.547049
67.660 17.160202
67.665 16.67194
67.670 15.918215
67.675 15.617144
67.680 15.619386
67.685 15.459398
67.690 15.954978
67.695 16.199276
67.700 16.67956
67.705 17.48497
67.710 18.125542
67.715 18.717367
67.720 18.943901
67.725 18.605333
67.730 18.771078
67.735 18.277996
67.740 17.721577
67.745 17.165886
67.750 16.589924
67.755 16.569769
67.760 16.680468
67.765 16.655228
67.770 16.857903
67.775 16.999763
67.780 17.001221
67.785 17.120691
67.790 17.287741
67.795 16.966219
67.800 16.847168
67.805 16.968937
67.810 16.616442
67.815 16.750229
67.820 16.930567
67.825 17.409931
67.830 17.844584
67.835 18.123974
67.840 18.654963
67.845 19.067034
67.850 18.944138
67.855 19.062777
67.860 19.030994
67.865 19.699776
67.870 19.236599
67.875 18.373499
67.880 18.237621
67.885 18.193071
67.890 18.012175
67.895 17.74048
67.900 17.387562
67.905 17.689379
67.910 17.708988
67.915 17.768049
67.920 17.956915
67.925 17.583441
67.930 17.767254
67.935 17.946918
67.940 18.124651
67.945 18.27879
67.950 18.12014
67.955 17.56995
67.960 17.759699
67.965 17.28277
67.970 17.759274
67.975 18.059956
67.980 17.851397
67.985 18.16404
67.990 18.610706
67.995 18.783199
68.000 18.737457
68.005 17.898315
68.010 17.768042
68.015 18.06284
68.020 18.240858
68.025 18.668337
68.030 18.817257
68.035 18.6343
68.040 18.221155
68.045 18.372355
68.050 18.57115
68.055 18.24807
68.060 18.276043
68.065 18.011187
68.070 18.484751
68.075 18.850098
68.080 18.799923
68.085 18.736813
68.090 18.561184
68.095 18.280842
68.100 18.209938
68.105 18.155979
68.110 18.01198
68.115 18.170326
68.120 18.340317
68.125 18.453087
68.130 18.751354
68.135 18.853046
68.140 19.022799
68.145 19.192894
68.150 19.073004
68.155 19.196409
68.160 19.458389
68.165 19.592808
68.170 19.755209
68.175 20.002592
68.180 19.977045
68.185 19.621578
68.190 19.656942
68.195 19.731485
68.200 19.415024
68.205 19.312805
68.210 19.377369
68.215 20.001356
68.220 20.125227
68.225 19.815914
68.230 20.358099
68.235 20.517153
68.240 20.403099
68.245 20.112497
68.250 20.289413
68.255 20.816525
68.260 21.108719
68.265 20.734329
68.270 20.699579
68.275 20.525349
68.280 20.695686
68.285 20.474781
68.290 20.960161
68.295 20.821894
68.300 21.34585
68.305 21.930397
68.310 21.849594
68.315 22.26759
68.320 22.396664
68.325 22.248569
68.330 22.399775
68.335 21.722134
68.340 21.763182
68.345 22.220312
68.350 22.591007
68.355 22.779751
68.360 22.859818
68.365 23.314465
68.370 24.088484
68.375 24.365253
68.380 24.349031
68.385 24.122419
68.390 23.895756
68.395 24.674189
68.400 24.667101
68.405 24.216719
68.410 24.631769
68.415 25.129066
68.420 25.930334
68.425 26.288231
68.430 25.724516
68.435 26.423103
68.440 26.712015
68.445 27.067003
68.450 26.639376
68.455 26.735796
68.460 26.8627
68.465 27.682713
68.470 27.868229
68.475 27.992374
68.480 27.622389
68.485 28.020084
68.490 27.735165
68.495 27.89517
68.500 27.003029
68.505 26.22908
68.510 26.324476
68.515 26.362768
68.520 26.434072
68.525 26.749565
68.530 26.860903
68.535 27.429106
68.540 28.479776
68.545 28.701538
68.550 29.064848
68.555 28.79837
68.560 29.256872
68.565 29.252363
68.570 28.64006
68.575 28.829372
68.580 29.193581
68.585 29.406582
68.590 29.640862
68.595 29.008591
68.600 28.978184
68.605 29.057981
68.610 28.933861
68.615 29.581284
68.620 29.944555
68.625 30.496861
68.630 30.59819
68.635 30.85285
68.640 31.436832
68.645 31.530787
68.650 31.539381
68.655 31.555023
68.660 31.826817
68.665 32.36438
68.670 32.844376
68.675 33.622849
68.680 34.051571
68.685 34.095295
68.690 34.777046
68.695 35.567226
68.700 35.786396
68.705 35.618092
68.710 34.866875
68.715 33.753975
68.720 33.673512
68.725 34.215534
68.730 33.652721
68.735 33.566109
68.740 33.264881
68.745 33.249466
68.750 33.510498
68.755 32.918034
68.760 32.224174
68.765 33.519173
68.770 34.333088
68.775 33.656418
68.780 33.9883
68.785 33.639198
68.790 33.619289
68.795 33.535233
68.800 32.025265
68.805 32.37252
68.810 32.974281
68.815 33.366798
68.820 34.053738
68.825 34.130531
68.830 34.199089
68.835 34.258427
68.840 34.385979
68.845 34.776642
68.850 34.374832
68.855 35.08094
68.860 35.287296
68.865 35.076687
68.870 35.463734
68.875 35.006298
68.880 34.540401
68.885 34.101505
68.890 33.630405
68.895 33.996513
68.900 34.564453
68.905 34.299397
68.910 33.874599
68.915 34.006073
68.920 34.504608
68.925 34.361374
68.930 33.592411
68.935 32.798653
68.940 32.116066
68.945 31.661758
68.950 31.381836
68.955 31.186171
68.960 31.24914
68.965 31.245022
68.970 31.550461
68.975 31.510698
68.980 31.599876
68.985 31.44228
68.990 31.124527
68.995 30.773764
69.000 30.515982
69.005 30.729061
69.010 31.553852
69.015 31.335443
69.020 30.939072
69.025 30.55327
69.030 30.482254
69.035 30.498194
69.040 30.7432
69.045 30.979425
69.050 31.470186
69.055 32.199844
69.060 32.24646
69.065 32.29961
69.070 30.933584
69.075 29.820978
69.080 29.057371
69.085 28.715429
69.090 28.542374
69.095 28.247189
69.100 28.422695
69.105 29.123493
69.110 29.203363
69.115 29.585287
69.120 29.229395
69.125 28.957956
69.130 28.75749
69.135 27.971552
69.140 27.404491
69.145 26.998819
69.150 26.2213
69.155 26.083286
69.160 25.484978
69.165 25.136784
69.170 25.023741
69.175 24.392252
69.180 24.251047
69.185 24.351189
69.190 23.918251
69.195 23.780903
69.200 23.933247
69.205 24.088091
69.210 23.802923
69.215 24.048325
69.220 24.287691
69.225 24.572773
69.230 24.855955
69.235 24.536644
69.240 24.448198
69.245 24.411945
69.250 23.64385
69.255 23.118547
69.260 22.87005
69.265 22.02562
69.270 21.659349
69.275 21.339039
69.280 21.436846
69.285 21.095482
69.290 20.662052
69.295 20.460369
69.300 20.727432
69.305 20.800825
69.310 21.104469
69.315 20.291693
69.320 20.279829
69.325 20.549566
69.330 20.411133
69.335 19.993538
69.340 20.277912
69.345 20.036621
69.350 20.60177
69.355 20.271093
69.360 20.209986
69.365 20.616636
69.370 20.816689
69.375 20.514338
69.380 20.049509
69.385 19.590494
69.390 19.499378
69.395 19.233871
69.400 19.485058
69.405 19.764589
69.410 19.708239
69.415 19.848085
69.420 19.646313
69.425 20.059744
69.430 19.996332
69.435 19.689199
69.440 19.38839
69.445 19.980127
69.450 20.456329
69.455 20.610468
69.460 19.833443
69.465 19.228924
69.470 18.645618
69.475 18.729465
69.480 18.558718
69.485 17.710297
69.490 17.663687
69.495 18.139328
69.500 18.426081
69.505 18.1471
69.510 17.863575
69.515 17.718821
69.520 18.156
69.525 18.004608
69.530 17.631639
69.535 18.072651
69.540 18.27202
69.545 18.253309
69.550 18.275089
69.555 18.287764
69.560 18.43469
69.565 18.243607
69.570 18.912407
69.575 19.076685
69.580 18.557838
69.585 18.319036
69.590 17.75029
69.595 17.460867
69.600 17.189333
69.605 15.908503
69.610 15.629742
69.615 15.742255
69.620 16.252733
69.625 16.725403
69.630 17.129442
69.635 17.70586
69.640 18.392523
69.645 18.761488
69.650 18.999222
69.655 18.419941
69.660 18.679708
69.665 18.928474
69.670 18.64048
69.675 18.424471
69.680 18.189886
69.685 18.353916
69.690 18.218361
69.695 17.877062
69.700 18.019396
69.705 17.995218
69.710 17.922037
69.715 17.963213
69.720 18.00849
69.725 18.311636
69.730 18.415157
69.735 18.350031
69.740 17.798155
69.745 17.978786
69.750 17.718353
69.755 17.622856
69.760 17.560505
69.765 17.644991
69.770 17.980042
69.775 18.389471
69.780 18.036837
69.785 18.247538
69.790 18.235722
69.795 18.207977
69.800 18.079451
69.805 17.468847
69.810 17.772249
69.815 17.845173
69.820 17.741034
69.825 18.142675
69.830 18.173
69.835 17.942701
69.840 18.120651
69.845 17.675406
69.850 16.905584
69.855 16.840384
69.860 16.698324
69.865 16.578552
69.870 16.33477
69.875 16.592127
69.880 17.238098
69.885 17.534302
69.890 17.983446
69.895 17.902679
69.900 18.518522
69.905 19.618252
69.910 19.532324
69.915 19.129206
69.920 18.973558
69.925 18.348627
69.930 18.425211
69.935 18.487238
69.940 18.280115
69.945 18.431898
69.950 18.280079
69.955 18.211851
69.960 18.57551
69.965 18.248365
69.970 17.60733
69.975 16.830088
69.980 16.643141
69.985 17.560738
69.990 17.856157
69.995 17.560932
70.000 17.441025
70.005 17.052116
70.010 17.59548
70.015 17.824257
70.020 17.305168
70.025 17.415985
70.030 17.394176
70.035 17.366053
70.040 16.68232
70.045 16.871273
70.050 16.919456
70.055 16.965321
70.060 16.416374
70.065 16.530506
70.070 16.844767
70.075 17.971989
70.080 17.81004
70.085 17.294365
70.090 17.219416
70.095 17.493614
70.100 17.63579
70.105 17.380281
70.110 16.958563
70.115 16.843725
70.120 17.26417
70.125 17.782684
70.130 17.854221
70.135 17.770838
70.140 17.31076
70.145 17.443691
70.150 17.383066
70.155 17.327705
70.160 16.996136
70.165 16.717537
70.170 16.863588
70.175 17.095213
70.180 16.924139
70.185 16.924116
70.190 16.523195
70.195 16.876381
70.200 17.172777
70.205 17.314291
70.210 17.307152
70.215 17.495447
70.220 17.481668
70.225 17.344189
70.230 16.967617
70.235 16.774597
70.240 16.581436
70.245 16.616289
70.250 16.649925
70.255 16.668739
70.260 16.385775
70.265 16.216295
70.270 16.449131
70.275 16.636141
70.280 16.45578
70.285 15.912602
70.290 16.011711
70.295 16.223852
70.300 16.327143
70.305 16.289755
70.310 15.824857
70.315 15.822021
70.320 15.90435
70.325 15.879167
70.330 15.933901
70.335 15.818953
70.340 16.197559
70.345 16.425619
70.350 16.90568
70.355 17.302307
70.360 17.567774
70.365 17.458923
70.370 16.952616
70.375 16.919672
70.380 17.304262
70.385 17.358301
70.390 16.98922
70.395 17.113037
70.400 17.285379
70.405 17.268143
70.410 17.046282
70.415 17.245293
70.420 17.663862
70.425 17.540676
70.430 17.023836
70.435 17.1917
70.440 17.605247
70.445 17.455044
70.450 16.883543
70.455 16.285421
70.460 16.607092
70.465 17.07637
70.470 17.072046
70.475 16.920757
70.480 17.975065
70.485 18.146906
70.490 18.36302
70.495 18.203259
70.500 18.059582
70.505 17.647806
70.510 17.227201
70.515 16.530933
70.520 16.298912
70.525 16.751205
70.530 16.947081
70.535 17.152937
70.540 17.606997
70.545 17.240389
70.550 16.656992
70.555 16.691574
70.560 16.446388
70.565 16.314783
70.570 16.105196
70.575 15.814075
70.580 16.4932
70.585 16.675028
70.590 16.792082
70.595 17.07782
70.600 16.945448
70.605 16.838808
70.610 16.975908
70.615 17.01507
70.620 16.855017
70.625 16.748468
70.630 16.314245
70.635 16.64382
70.640 16.808455
70.645 17.088865
70.650 17.014208
70.655 17.522612
70.660 17.739101
70.665 17.708864
70.670 17.907749
70.675 17.658514
70.680 17.870653
70.685 17.533905
70.690 17.676777
70.695 17.691692
70.700 17.771252
70.705 17.647167
70.710 17.687105
70.715 17.058418
70.720 16.949064
70.725 16.218475
70.730 16.175129
70.735 16.710503
70.740 16.781033
70.745 17.150797
70.750 17.585819
70.755 18.43384
70.760 18.888943
70.765 19.385658
70.770 19.574524
70.775 19.494972
70.780 19.22014
70.785 19.112272
70.790 18.587725
70.795 18.125175
70.800 17.575525
70.805 17.79007
70.810 17.30373
70.815 17.521032
70.820 17.634665
70.825 17.361916
70.830 17.328335
70.835 17.352745
70.840 17.0259
70.845 17.835659
70.850 17.567095
70.855 17.377581
70.860 17.539299
70.865 17.752069
70.870 17.315199
70.875 17.021664
70.880 16.484035
70.885 16.381145
70.890 16.280283
70.895 16.127398
70.900 16.294249
70.905 16.377005
70.910 16.82266
70.915 16.937748
70.920 17.257265
70.925 17.796907
70.930 17.93947
70.935 17.873419
70.940 17.579987
70.945 17.313328
70.950 17.0711
70.955 16.649603
70.960 16.571638
70.965 16.317247
70.970 16.326641
70.975 16.771723
70.980 17.025393
70.985 17.164848
70.990 16.867704
70.995 16.632858
71.000 16.593107
71.005 16.683744
71.010 16.490675
71.015 16.466829
71.020 16.647243
71.025 16.296036
71.030 16.518154
71.035 17.296846
71.040 17.696747
71.045 17.829403
71.050 17.867369
71.055 17.669102
71.060 17.58926
71.065 17.472061
71.070 16.610807
71.075 16.271442
71.080 15.847814
71.085 15.613168
71.090 16.478384
71.095 17.552828
71.100 17.753733
71.105 17.993811
71.110 17.805029
71.115 17.888031
71.120 18.187489
71.125 17.764091
71.130 17.360579
71.135 16.923244
71.140 16.573433
71.145 16.294834
71.150 16.511805
71.155 16.471006
71.160 16.358946
71.165 16.571173
71.170 16.190681
71.175 16.24682
71.180 16.381607
71.185 16.27187
71.190 16.606211
71.195 16.873461
71.200 16.665461
71.205 17.269211
71.210 18.201159
71.215 18.391739
71.220 17.919275
71.225 17.179359
71.230 16.997181
71.235 17.210871
71.240 16.743185
71.245 16.241222
71.250 16.614017
71.255 16.769125
71.260 16.873301
71.265 17.194187
71.270 17.234632
71.275 17.773588
71.280 17.230335
71.285 17.104702
71.290 17.523958
71.295 17.859791
71.300 18.009777
71.305 17.936052
71.310 17.691422
71.315 18.603741
71.320 18.643629
71.325 18.83354
71.330 18.054033
71.335 17.860247
71.340 17.63833
71.345 17.291039
71.350 16.911964
71.355 16.604733
71.360 16.405079
71.365 16.593655
71.370 16.668249
71.375 16.729942
71.380 16.326889
71.385 16.170853
71.390 16.05127
71.395 15.973643
71.400 15.802427
71.405 16.062374
71.410 16.389927
71.415 16.870893
71.420 17.074148
71.425 16.655279
71.430 16.528833
71.435 17.140142
71.440 17.170759
71.445 17.429419
71.450 17.852428
71.455 17.920668
71.460 18.873466
71.465 19.100309
71.470 19.367483
71.475 19.238039
71.480 18.996628
71.485 18.674931
71.490 18.458492
71.495 17.821663
71.500 17.573061
71.505 17.265005
71.510 16.998899
71.515 16.813196
71.520 17.120096
71.525 17.610113
71.530 17.750664
71.535 17.519962
71.540 17.357775
71.545 17.708675
71.550 17.786602
71.555 17.619024
71.560 17.821472
71.565 17.744431
71.570 17.8738
71.575 17.960716
71.580 17.415428
71.585 17.491653
71.590 16.626356
71.595 16.547382
71.600 16.407179
71.605 16.383064
71.610 16.380646
71.615 16.112362
71.620 15.827278
71.625 16.37529
71.630 16.457256
71.635 16.294992
71.640 15.982276
71.645 16.132874
71.650 16.625584
71.655 16.880953
71.660 16.234955
71.665 15.755365
71.670 15.809818
71.675 15.418654
71.680 15.041594
71.685 15.380494
71.690 15.419355
71.695 16.000391
71.700 16.672417
71.705 17.497578
71.710 18.343718
71.715 18.458338
71.720 18.417629
71.725 18.24349
71.730 18.220985
71.735 18.216757
71.740 17.868126
71.745 17.626091
71.750 17.6961
71.755 17.389322
71.760 18.002459
71.765 17.738243
71.770 17.224678
71.775 17.390875
71.780 17.421801
71.785 17.484943
71.790 16.958891
71.795 16.464752
71.800 16.646404
71.805 17.127865
71.810 18.021849
71.815 18.36813
71.820 18.483971
71.825 18.545179
71.830 18.299498
71.835 18.648245
71.840 18.489544
71.845 18.314617
71.850 18.576618
71.855 18.752356
71.860 18.928869
71.865 19.161051
71.870 19.082479
71.875 18.569767
71.880 18.055782
71.885 17.345158
71.890 16.781799
71.895 16.389473
71.900 15.630244
71.905 15.312688
71.910 15.997589
71.915 15.731671
71.920 16.132833
71.925 16.553591
71.930 17.299252
71.935 17.529369
71.940 17.124815
71.945 16.576767
71.950 16.412056
71.955 16.223951
71.960 15.876372
71.965 15.923708
71.970 16.030951
71.975 15.869859
71.980 15.784907
71.985 15.9991
71.990 16.769886
71.995 16.596542
72.000 16.776203
72.005 17.062546
72.010 17.342907
72.015 18.076366
72.020 17.881941
72.025 17.624865
72.030 17.820717
72.035 17.496817
72.040 17.591305
72.045 17.144239
72.050 17.202774
72.055 17.030262
72.060 17.200756
72.065 17.235119
72.070 17.49209
72.075 17.74308
72.080 18.325197
72.085 18.480692
72.090 18.238684
72.095 18.139708
72.100 18.461393
72.105 18.634966
72.110 18.385412
72.115 17.913589
72.120 17.388449
72.125 17.776829
72.130 18.043013
72.135 17.873972
72.140 17.25507
72.145 17.041388
72.150 17.23443
72.155 18.093781
72.160 18.09223
72.165 18.545118
72.170 18.849876
72.175 19.33462
72.180 18.864212
72.185 18.359632
72.190 17.919321
72.195 17.40148
72.200 16.722914
72.205 16.217487
72.210 15.792001
72.215 16.144707
72.220 15.572363
72.225 15.788599
72.230 15.628316
72.235 15.563367
72.240 15.702642
72.245 15.573159
72.250 16.136759
72.255 16.292341
72.260 16.439054
72.265 15.966855
72.270 16.086586
72.275 16.975018
72.280 17.172729
72.285 16.620171
72.290 16.58152
72.295 16.572325
72.300 17.236034
72.305 17.113882
72.310 16.510334
72.315 16.608135
72.320 17.290665
72.325 17.423334
72.330 17.534075
72.335 17.003942
72.340 16.701357
72.345 17.188437
72.350 17.152796
72.355 16.390213
72.360 16.523458
72.365 17.211872
72.370 16.775864
72.375 16.924953
72.380 16.938286
72.385 17.865543
72.390 17.902687
72.395 17.001453
72.400 16.675737
72.405 17.020065
72.410 16.775009
72.415 16.081545
72.420 15.782014
72.425 16.40097
72.430 16.740387
72.435 17.188942
72.440 17.695751
72.445 17.839523
72.450 17.756384
72.455 17.548462
72.460 17.265015
72.465 17.525057
72.470 17.12834
72.475 17.352417
72.480 17.236927
72.485 17.276646
72.490 18.138302
72.495 18.317852
72.500 18.386946
72.505 18.307806
72.510 18.115252
72.515 18.518698
72.520 18.450708
72.525 17.801876
72.530 17.359118
72.535 17.037987
72.540 16.86953
72.545 17.068975
72.550 17.329697
72.555 17.547171
72.560 17.914539
72.565 18.072701
72.570 18.106859
72.575 17.578133
72.580 17.334696
72.585 17.594872
72.590 17.190735
72.595 17.049126
72.600 17.318806
72.605 17.151024
72.610 17.409962
72.615 16.914701
72.620 16.495028
72.625 16.795601
72.630 16.572994
72.635 16.576347
72.640 16.753698
72.645 16.876959
72.650 16.483294
72.655 16.315676
72.660 16.701117
72.665 16.36009
72.670 16.096315
72.675 15.695128
72.680 15.852921
72.685 16.27248
72.690 16.009211
72.695 15.682266
72.700 16.329676
72.705 16.501095
72.710 16.886005
72.715 16.817291
72.720 16.808079
72.725 17.121351
72.730 17.118921
72.735 16.881994
72.740 17.024187
72.745 16.595236
72.750 16.691916
72.755 16.616001
72.760 16.680672
72.765 17.030241
72.770 16.904602
72.775 16.860893
72.780 16.860628
72.785 16.154995
72.790 16.477448
72.795 15.61352
72.800 15.463821
72.805 15.453499
72.810 15.080378
72.815 15.308191
72.820 15.728197
72.825 15.1234
72.830 15.590737
72.835 15.564032
72.840 15.52479
72.845 15.558105
72.850 15.816976
72.855 15.826956
72.860 16.101122
72.865 15.843256
72.870 16.101599
72.875 16.483984
72.880 16.54059
72.885 16.393314
72.890 16.33045
72.895 15.853189
72.900 15.489801
72.905 15.248918
72.910 14.625051
72.915 14.405302
72.920 14.309221
72.925 14.654201
72.930 14.925406
72.935 15.233012
72.940 15.704322
72.945 16.586243
72.950 16.615042
72.955 16.751644
72.960 16.376719
72.965 16.556337
72.970 16.5821
72.975 16.431131
72.980 16.50835
72.985 16.874487
72.990 16.27076
72.995 16.391283
73.000 15.802021
