!@!!GADDS PLOTSO FILE: Chi integration type
!@!!Title/SampleName: map-5c
!@!!Comment: ?
!@!!User: Bruker Instrument Administrator
!@!!Site: University of Illinois Chicago
!@!!Frame: map-5c_01_000.gfrm
!@!!Wavelengths    1.54184   1.54056   1.54439
!@!!Frame angles: 2Theta: 63.000 Omega: 50.000 Phi: 0.000 Chi: 90.000
!@!!Integration range: 2Theta: 53.000 to 73.000  Gamma: -105.000 to -75.000
!@!!Integration method: bin normalized
!@!N
!@!SS
!@!M
!@!L 0.0 0.0 0.0 0.0
!@!XDegrees
!@!YCounts
53.000 8.138677
53.005 7.998334
53.010 8.456157
53.015 8.741019
53.020 8.50228
53.025 8.501126
53.030 8.517093
53.035 8.109294
53.040 7.991868
53.045 8.071494
53.050 8.015877
53.055 8.566206
53.060 8.917677
53.065 8.872089
53.070 9.355405
53.075 9.57667
53.080 9.364758
53.085 9.582877
53.090 9.635496
53.095 9.251412
53.100 9.047527
53.105 8.920902
53.110 8.964627
53.115 9.054686
53.120 8.8321
53.125 8.494543
53.130 9.331837
53.135 9.54313
53.140 9.417792
53.145 9.333097
53.150 9.498075
53.155 9.665033
53.160 9.607754
53.165 9.045618
53.170 9.104163
53.175 9.474091
53.180 9.518775
53.185 9.726973
53.190 9.564002
53.195 9.445375
53.200 9.572024
53.205 9.7094
53.210 9.475861
53.215 8.874322
53.220 8.583687
53.225 9.046817
53.230 9.418034
53.235 9.569387
53.240 9.695316
53.245 9.91837
53.250 10.822985
53.255 10.957003
53.260 10.907434
53.265 11.269927
53.270 11.174147
53.275 10.789019
53.280 10.774535
53.285 10.579758
53.290 10.400199
53.295 10.26594
53.300 9.554774
53.305 9.340698
53.310 9.210845
53.315 8.870775
53.320 8.878805
53.325 8.618507
53.330 8.418535
53.335 8.828468
53.340 9.034274
53.345 9.724664
53.350 9.822971
53.355 9.778357
53.360 10.449088
53.365 10.61096
53.370 10.190112
53.375 9.734433
53.380 9.734339
53.385 10.321772
53.390 9.815395
53.395 9.388035
53.400 9.378458
53.405 9.575213
53.410 9.896325
53.415 9.462927
53.420 8.940522
53.425 9.174535
53.430 8.680179
53.435 8.663116
53.440 9.047699
53.445 8.593866
53.450 8.736133
53.455 8.839435
53.460 9.074024
53.465 9.362879
53.470 9.533161
53.475 9.394114
53.480 9.607297
53.485 9.648453
53.490 9.701796
53.495 10.05946
53.500 9.927236
53.505 10.096698
53.510 10.362101
53.515 10.621005
53.520 11.065013
53.525 10.96084
53.530 11.505136
53.535 11.484756
53.540 11.301568
53.545 11.062798
53.550 10.921673
53.555 10.683337
53.560 10.269825
53.565 9.70162
53.570 9.904484
53.575 9.55142
53.580 9.746156
53.585 9.584066
53.590 10.067938
53.595 10.400634
53.600 10.639853
53.605 10.365767
53.610 10.282722
53.615 10.145584
53.620 9.993526
53.625 9.822511
53.630 10.468782
53.635 10.205829
53.640 10.442058
53.645 10.660398
53.650 10.568871
53.655 10.150242
53.660 10.019012
53.665 9.328769
53.670 9.763168
53.675 9.951658
53.680 10.319653
53.685 10.347579
53.690 10.479527
53.695 10.404284
53.700 10.264396
53.705 9.847345
53.710 10.303357
53.715 10.498193
53.720 10.680771
53.725 11.107961
53.730 11.20785
53.735 11.58695
53.740 11.521521
53.745 10.928418
53.750 10.492105
53.755 10.033736
53.760 9.709648
53.765 9.517706
53.770 9.518302
53.775 9.084185
53.780 8.699513
53.785 8.849992
53.790 8.795023
53.795 8.687939
53.800 8.815662
53.805 8.814878
53.810 9.346367
53.815 9.976431
53.820 10.209592
53.825 10.170783
53.830 10.061491
53.835 10.325815
53.840 10.804564
53.845 10.733178
53.850 10.558096
53.855 10.893672
53.860 11.451469
53.865 11.114109
53.870 10.40823
53.875 10.061626
53.880 10.062686
53.885 9.77684
53.890 9.850163
53.895 10.148749
53.900 10.294613
53.905 10.953224
53.910 11.013727
53.915 11.098201
53.920 10.95875
53.925 10.277502
53.930 10.155177
53.935 10.646191
53.940 9.937333
53.945 9.766569
53.950 9.533798
53.955 9.571744
53.960 9.832149
53.965 9.819379
53.970 9.236246
53.975 8.990174
53.980 9.134692
53.985 9.351145
53.990 9.183806
53.995 8.92923
54.000 8.888965
54.005 9.24369
54.010 9.938796
54.015 9.92821
54.020 9.974926
54.025 10.122253
54.030 10.069265
54.035 10.436663
54.040 10.310432
54.045 9.89931
54.050 10.033807
54.055 10.322188
54.060 10.280706
54.065 10.127774
54.070 10.336696
54.075 10.622136
54.080 10.914405
54.085 10.684301
54.090 10.164177
54.095 10.314059
54.100 10.027521
54.105 9.88342
54.110 9.225204
54.115 8.964684
54.120 8.763252
54.125 8.820168
54.130 9.024161
54.135 9.470858
54.140 9.79353
54.145 10.435883
54.150 10.322146
54.155 10.564515
54.160 10.729058
54.165 11.252477
54.170 10.912983
54.175 10.213939
54.180 9.480643
54.185 9.716025
54.190 9.840551
54.195 9.499793
54.200 9.168838
54.205 9.389779
54.210 9.840295
54.215 10.141095
54.220 9.562419
54.225 9.889843
54.230 10.494102
54.235 10.166725
54.240 10.167856
54.245 10.115391
54.250 10.444513
54.255 11.139852
54.260 10.698129
54.265 10.177732
54.270 10.315771
54.275 10.400003
54.280 10.549447
54.285 10.067093
54.290 9.578823
54.295 9.368644
54.300 9.483077
54.305 9.718251
54.310 9.760668
54.315 9.641464
54.320 9.753071
54.325 9.887689
54.330 10.242648
54.335 10.199091
54.340 10.195864
54.345 10.192667
54.350 10.357578
54.355 10.42069
54.360 10.376987
54.365 10.228865
54.370 10.452306
54.375 10.550064
54.380 10.362328
54.385 10.368044
54.390 10.144696
54.395 9.964746
54.400 9.889854
54.405 9.344897
54.410 9.176023
54.415 9.711196
54.420 9.894374
54.425 10.450159
54.430 10.755919
54.435 10.782912
54.440 10.850467
54.445 10.808147
54.450 10.411702
54.455 10.496202
54.460 10.185376
54.465 9.886805
54.470 9.794944
54.475 9.920247
54.480 9.632005
54.485 9.473835
54.490 9.28959
54.495 9.377254
54.500 9.931443
54.505 9.889087
54.510 10.207831
54.515 10.759913
54.520 11.290526
54.525 11.455656
54.530 11.546901
54.535 11.379175
54.540 11.585931
54.545 11.492376
54.550 11.47969
54.555 10.854336
54.560 10.818607
54.565 10.69956
54.570 10.650305
54.575 10.67086
54.580 10.463291
54.585 10.618916
54.590 10.550919
54.595 10.526806
54.600 10.826216
54.605 11.132375
54.610 11.561619
54.615 11.526878
54.620 11.545649
54.625 11.943621
54.630 12.108357
54.635 12.302097
54.640 12.128004
54.645 11.486031
54.650 11.542027
54.655 11.683278
54.660 11.374308
54.665 10.724476
54.670 10.621723
54.675 10.522161
54.680 10.468852
54.685 10.266213
54.690 10.347082
54.695 10.578147
54.700 11.166142
54.705 10.851607
54.710 11.336534
54.715 11.519164
54.720 11.747546
54.725 11.751058
54.730 11.253724
54.735 10.832557
54.740 11.313406
54.745 11.254662
54.750 10.867025
54.755 10.849871
54.760 10.703752
54.765 11.206418
54.770 11.379966
54.775 10.743663
54.780 10.119898
54.785 9.946688
54.790 9.552658
54.795 9.442103
54.800 9.178937
54.805 9.00973
54.810 9.31484
54.815 9.623465
54.820 10.056523
54.825 10.223063
54.830 10.434
54.835 10.385985
54.840 10.568089
54.845 10.633295
54.850 10.883883
54.855 11.170996
54.860 11.905396
54.865 11.935575
54.870 11.79752
54.875 11.831739
54.880 11.878936
54.885 11.581995
54.890 11.255277
54.895 10.527659
54.900 10.551408
54.905 10.245638
54.910 9.753516
54.915 9.675935
54.920 10.037471
54.925 9.987367
54.930 10.424497
54.935 10.981384
54.940 11.417267
54.945 11.860158
54.950 12.290429
54.955 12.172226
54.960 12.409559
54.965 12.373073
54.970 12.198138
54.975 12.057312
54.980 11.812418
54.985 11.118868
54.990 10.614892
54.995 10.393414
55.000 10.043762
55.005 9.64208
55.010 9.723107
55.015 9.665198
55.020 10.21592
55.025 10.192408
55.030 10.332726
55.035 10.318067
55.040 10.61497
55.045 10.756513
55.050 11.089127
55.055 11.259764
55.060 11.845396
55.065 11.810171
55.070 11.870216
55.075 11.534027
55.080 11.808011
55.085 11.426967
55.090 11.072867
55.095 10.679577
55.100 10.884256
55.105 11.05525
55.110 11.200048
55.115 10.811922
55.120 11.771389
55.125 12.396059
55.130 13.158175
55.135 13.031252
55.140 13.101233
55.145 13.2705
55.150 13.572373
55.155 12.58323
55.160 11.982164
55.165 10.979134
55.170 10.930284
55.175 10.626836
55.180 10.512406
55.185 10.135554
55.190 10.218335
55.195 10.260883
55.200 10.666335
55.205 10.713419
55.210 10.83287
55.215 10.897898
55.220 11.462539
55.225 11.681129
55.230 12.202717
55.235 12.103553
55.240 12.165203
55.245 12.172897
55.250 11.918828
55.255 11.694206
55.260 11.535611
55.265 11.393262
55.270 11.555177
55.275 11.160588
55.280 11.291121
55.285 11.522708
55.290 11.514143
55.295 11.357447
55.300 11.44432
55.305 11.738369
55.310 11.865963
55.315 11.32397
55.320 11.097777
55.325 11.454864
55.330 11.800214
55.335 11.438659
55.340 11.083043
55.345 11.135856
55.350 11.325558
55.355 11.432944
55.360 10.851014
55.365 11.003121
55.370 11.215148
55.375 11.344051
55.380 12.013779
55.385 11.930202
55.390 12.258321
55.395 12.416489
55.400 12.256231
55.405 12.324466
55.410 12.353746
55.415 12.436891
55.420 12.86954
55.425 12.762753
55.430 12.849875
55.435 12.610218
55.440 12.79452
55.445 12.752517
55.450 12.356166
55.455 11.838304
55.460 11.537886
55.465 11.877543
55.470 12.13989
55.475 12.244242
55.480 12.385546
55.485 12.155639
55.490 12.259976
55.495 12.122544
55.500 11.660602
55.505 11.455317
55.510 11.343003
55.515 11.441485
55.520 11.587036
55.525 12.356301
55.530 12.605604
55.535 12.820891
55.540 12.456616
55.545 12.051793
55.550 12.348074
55.555 12.418956
55.560 12.178889
55.565 11.617702
55.570 11.172106
55.575 11.714437
55.580 12.130916
55.585 11.955378
55.590 11.715006
55.595 11.766542
55.600 12.682977
55.605 13.065218
55.610 13.158791
55.615 12.840882
55.620 12.92172
55.625 13.093179
55.630 13.144452
55.635 12.463741
55.640 11.774784
55.645 11.475172
55.650 11.335898
55.655 11.831645
55.660 11.736214
55.665 11.758753
55.670 11.800633
55.675 12.154242
55.680 12.179613
55.685 12.034508
55.690 11.517283
55.695 11.506556
55.700 11.951097
55.705 12.444539
55.710 12.579818
55.715 13.004342
55.720 13.379502
55.725 13.322361
55.730 12.916953
55.735 11.858991
55.740 11.668865
55.745 11.580422
55.750 10.981277
55.755 10.644603
55.760 10.765187
55.765 11.549394
55.770 12.501203
55.775 12.830332
55.780 13.262034
55.785 13.380852
55.790 13.099194
55.795 13.010503
55.800 12.905399
55.805 12.608166
55.810 12.500625
55.815 12.138963
55.820 12.466927
55.825 12.556076
55.830 12.668699
55.835 12.459312
55.840 12.121237
55.845 11.99877
55.850 12.520004
55.855 12.571579
55.860 12.590576
55.865 12.516704
55.870 12.399286
55.875 12.578147
55.880 11.98006
55.885 11.579863
55.890 11.663769
55.895 11.489552
55.900 11.432687
55.905 11.283411
55.910 12.161057
55.915 12.850621
55.920 12.963575
55.925 12.937231
55.930 13.203847
55.935 13.630099
55.940 13.885689
55.945 14.046104
55.950 14.049942
55.955 13.727943
55.960 13.781781
55.965 13.140416
55.970 12.907421
55.975 12.4458
55.980 12.33039
55.985 12.452399
55.990 12.612599
55.995 12.822749
56.000 13.401398
56.005 13.435065
56.010 13.671042
56.015 13.437944
56.020 13.281842
56.025 13.452857
56.030 13.496004
56.035 13.009361
56.040 12.47856
56.045 11.696008
56.050 10.705785
56.055 10.872618
56.060 10.781283
56.065 10.790767
56.070 10.859203
56.075 11.156565
56.080 11.872712
56.085 12.253139
56.090 11.810743
56.095 11.376373
56.100 11.123886
56.105 11.478537
56.110 11.087608
56.115 10.790236
56.120 11.105724
56.125 11.382329
56.130 11.87505
56.135 11.838625
56.140 12.170808
56.145 13.172108
56.150 12.950769
56.155 12.946044
56.160 12.756889
56.165 12.573069
56.170 12.89728
56.175 12.329048
56.180 11.771634
56.185 11.40034
56.190 11.108622
56.195 11.747304
56.200 12.258177
56.205 12.415541
56.210 12.615779
56.215 13.151176
56.220 13.905112
56.225 14.212763
56.230 13.967654
56.235 13.47256
56.240 13.367621
56.245 13.11026
56.250 12.618865
56.255 12.344122
56.260 11.883327
56.265 11.751409
56.270 12.001082
56.275 12.130289
56.280 12.289534
56.285 12.481628
56.290 12.613867
56.295 12.506002
56.300 12.522565
56.305 12.397122
56.310 12.123374
56.315 12.055588
56.320 12.229157
56.325 12.235185
56.330 12.432977
56.335 12.545783
56.340 12.98243
56.345 13.221772
56.350 13.361339
56.355 12.979364
56.360 12.804456
56.365 12.482777
56.370 11.917106
56.375 11.43335
56.380 11.228979
56.385 11.056351
56.390 10.97865
56.395 11.067791
56.400 11.120982
56.405 11.107285
56.410 11.038655
56.415 11.123528
56.420 11.764977
56.425 12.249202
56.430 12.217469
56.435 12.566542
56.440 12.73724
56.445 12.974226
56.450 12.954741
56.455 12.258257
56.460 12.389513
56.465 12.803387
56.470 13.183725
56.475 13.35601
56.480 13.749624
56.485 13.677285
56.490 13.873462
56.495 14.000993
56.500 13.32993
56.505 12.542979
56.510 12.393128
56.515 12.051732
56.520 12.346492
56.525 12.790686
56.530 12.301952
56.535 12.442636
56.540 13.155881
56.545 12.909121
56.550 13.391895
56.555 13.525042
56.560 13.145483
56.565 13.535764
56.570 13.496704
56.575 13.481843
56.580 13.593553
56.585 13.19993
56.590 13.210548
56.595 13.705935
56.600 13.418037
56.605 13.192104
56.610 13.069201
56.615 13.414478
56.620 13.516972
56.625 13.604759
56.630 13.360629
56.635 13.81361
56.640 14.537438
56.645 14.930303
56.650 14.581435
56.655 14.620116
56.660 14.328557
56.665 14.283531
56.670 14.051331
56.675 13.400486
56.680 13.171261
56.685 13.485702
56.690 13.118028
56.695 13.479525
56.700 13.615341
56.705 13.39718
56.710 13.293514
56.715 12.942981
56.720 13.001058
56.725 13.157768
56.730 12.866336
56.735 12.528894
56.740 12.747214
56.745 13.316362
56.750 13.697268
56.755 13.850259
56.760 14.186561
56.765 14.272376
56.770 14.750531
56.775 14.705908
56.780 14.519155
56.785 14.431033
56.790 14.534039
56.795 14.606649
56.800 14.615959
56.805 14.692324
56.810 14.612625
56.815 14.445701
56.820 14.40449
56.825 14.612141
56.830 14.410533
56.835 14.311941
56.840 14.207367
56.845 14.166743
56.850 14.341325
56.855 13.734221
56.860 12.940739
56.865 13.770178
56.870 14.384008
56.875 14.529164
56.880 14.360072
56.885 14.102073
56.890 14.257377
56.895 14.740078
56.900 13.563032
56.905 12.994532
56.910 12.662482
56.915 13.151664
56.920 13.774039
56.925 14.58007
56.930 14.239339
56.935 14.531851
56.940 14.39539
56.945 14.265357
56.950 13.802582
56.955 13.179687
56.960 12.236298
56.965 12.140966
56.970 11.862712
56.975 12.432586
56.980 12.945896
56.985 13.307679
56.990 13.338742
56.995 13.298901
57.000 13.676954
57.005 13.337984
57.010 12.898718
57.015 12.888824
57.020 12.650654
57.025 12.659789
57.030 12.889862
57.035 13.140298
57.040 13.837592
57.045 13.562647
57.050 13.447976
57.055 13.674817
57.060 13.485704
57.065 13.08273
57.070 12.870569
57.075 13.008912
57.080 13.348186
57.085 13.544776
57.090 13.477631
57.095 13.537749
57.100 14.077501
57.105 14.122479
57.110 13.482321
57.115 12.953752
57.120 12.750944
57.125 12.66331
57.130 12.536529
57.135 12.052183
57.140 11.979712
57.145 12.237684
57.150 12.492006
57.155 12.348959
57.160 12.426163
57.165 12.453781
57.170 12.547206
57.175 12.718366
57.180 13.07325
57.185 12.934471
57.190 13.066126
57.195 12.747888
57.200 12.82291
57.205 12.830049
57.210 12.833591
57.215 12.585537
57.220 12.843435
57.225 13.106976
57.230 13.965508
57.235 14.124451
57.240 14.399317
57.245 14.079019
57.250 13.759117
57.255 13.859795
57.260 13.845859
57.265 13.078359
57.270 13.12102
57.275 13.21654
57.280 13.644377
57.285 13.647862
57.290 13.415919
57.295 13.488788
57.300 14.021564
57.305 13.849092
57.310 13.944077
57.315 14.112187
57.320 13.996281
57.325 14.47079
57.330 14.933113
57.335 14.899263
57.340 14.837929
57.345 14.41783
57.350 13.896472
57.355 14.076091
57.360 13.665345
57.365 13.470077
57.370 13.723529
57.375 13.980078
57.380 14.486648
57.385 15.313945
57.390 15.808417
57.395 16.050697
57.400 15.951764
57.405 15.411374
57.410 15.29241
57.415 14.816018
57.420 14.393255
57.425 14.034484
57.430 13.826509
57.435 13.418958
57.440 13.789996
57.445 13.690551
57.450 13.695262
57.455 13.872211
57.460 13.616206
57.465 14.001801
57.470 14.152357
57.475 13.757049
57.480 13.843631
57.485 13.5871
57.490 12.877699
57.495 12.527039
57.500 12.059691
57.505 12.237037
57.510 12.440212
57.515 12.492107
57.520 12.619439
57.525 13.030179
57.530 13.329732
57.535 13.612638
57.540 13.892321
57.545 14.003346
57.550 14.260443
57.555 14.798256
57.560 14.685241
57.565 14.931324
57.570 14.794009
57.575 14.4145
57.580 14.42322
57.585 14.09832
57.590 13.90438
57.595 14.307179
57.600 13.776931
57.605 13.830987
57.610 13.767898
57.615 13.709187
57.620 14.001328
57.625 13.843266
57.630 13.066209
57.635 13.471719
57.640 14.281329
57.645 14.3645
57.650 14.456584
57.655 14.428576
57.660 14.681749
57.665 14.812799
57.670 14.26313
57.675 13.352324
57.680 13.785774
57.685 13.885774
57.690 13.526242
57.695 13.952024
57.700 14.618035
57.705 15.221547
57.710 15.235579
57.715 14.662211
57.720 14.415607
57.725 14.348842
57.730 13.890204
57.735 13.302725
57.740 12.707906
57.745 12.277107
57.750 12.52282
57.755 13.138458
57.760 13.013179
57.765 13.558578
57.770 14.098574
57.775 14.289594
57.780 15.014404
57.785 14.741203
57.790 14.525836
57.795 14.801649
57.800 14.674265
57.805 14.831873
57.810 14.822375
57.815 15.577474
57.820 15.735211
57.825 15.267412
57.830 15.225976
57.835 14.994535
57.840 14.750111
57.845 14.833021
57.850 13.786143
57.855 14.063902
57.860 14.752131
57.865 14.569894
57.870 14.382517
57.875 14.945496
57.880 15.364966
57.885 15.739469
57.890 15.66725
57.895 15.85358
57.900 15.621987
57.905 15.782888
57.910 15.408213
57.915 14.937514
57.920 15.139807
57.925 14.730887
57.930 14.554893
57.935 14.864528
57.940 14.926068
57.945 14.748235
57.950 14.534701
57.955 14.289278
57.960 14.2284
57.965 13.842472
57.970 13.521002
57.975 13.379237
57.980 13.743339
57.985 13.562922
57.990 13.291787
57.995 13.501333
58.000 14.144493
58.005 14.469025
58.010 14.27319
58.015 14.149137
58.020 14.544606
58.025 15.138044
58.030 15.362857
58.035 15.788072
58.040 15.338929
58.045 15.895857
58.050 16.455854
58.055 16.409492
58.060 16.047676
58.065 15.702373
58.070 15.409198
58.075 16.292196
58.080 16.207445
58.085 16.548214
58.090 16.439199
58.095 16.277784
58.100 16.196302
58.105 16.008892
58.110 15.49271
58.115 14.765122
58.120 14.483988
58.125 14.463973
58.130 14.418985
58.135 14.481583
58.140 14.397592
58.145 14.583323
58.150 14.968731
58.155 14.623046
58.160 14.152562
58.165 14.075089
58.170 14.474268
58.175 14.796632
58.180 14.911368
58.185 14.736129
58.190 15.176028
58.195 15.712914
58.200 16.06521
58.205 15.876779
58.210 15.618456
58.215 15.489411
58.220 15.26161
58.225 15.544349
58.230 15.585546
58.235 15.008208
58.240 14.511813
58.245 14.650239
58.250 14.672853
58.255 14.3748
58.260 13.735481
58.265 13.719001
58.270 14.032928
58.275 14.06076
58.280 13.921302
58.285 14.270211
58.290 14.334294
58.295 14.551741
58.300 14.504819
58.305 14.973822
58.310 15.365201
58.315 15.141727
58.320 15.132859
58.325 15.551034
58.330 16.037395
58.335 16.325815
58.340 16.392157
58.345 16.787905
58.350 17.050362
58.355 16.987295
58.360 17.024931
58.365 16.602654
58.370 16.327368
58.375 15.861609
58.380 15.579214
58.385 15.955933
58.390 15.995462
58.395 15.605473
58.400 15.472473
58.405 15.259834
58.410 15.261271
58.415 15.103531
58.420 14.512981
58.425 14.587023
58.430 15.204646
58.435 15.164026
58.440 14.967281
58.445 14.913627
58.450 14.674549
58.455 14.781366
58.460 15.231359
58.465 14.860578
58.470 14.910575
58.475 15.023079
58.480 14.953537
58.485 14.815476
58.490 14.673964
58.495 13.897839
58.500 14.237786
58.505 14.766849
58.510 14.510406
58.515 14.645945
58.520 14.348156
58.525 14.227932
58.530 13.866234
58.535 13.411126
58.540 13.095411
58.545 13.208912
58.550 13.429556
58.555 13.932585
58.560 14.031513
58.565 14.379036
58.570 14.310938
58.575 14.80807
58.580 14.801085
58.585 14.500374
58.590 14.336952
58.595 14.635729
58.600 14.954974
58.605 15.551769
58.610 15.262041
58.615 15.500737
58.620 15.645566
58.625 16.135265
58.630 16.510885
58.635 16.877489
58.640 16.320601
58.645 16.448648
58.650 16.399351
58.655 16.695869
58.660 16.121943
58.665 15.825541
58.670 15.516755
58.675 15.428288
58.680 15.561611
58.685 15.519739
58.690 15.580763
58.695 16.528139
58.700 15.350241
58.705 14.864535
58.710 14.574357
58.715 14.102108
58.720 14.049208
58.725 13.747905
58.730 13.000445
58.735 13.664572
58.740 13.822215
58.745 13.990582
58.750 13.866737
58.755 13.577017
58.760 13.778327
58.765 13.516759
58.770 13.916716
58.775 14.382233
58.780 14.508756
58.785 15.059598
58.790 15.682582
58.795 16.619566
58.800 17.470333
58.805 17.72567
58.810 18.19146
58.815 18.097431
58.820 17.852688
58.825 17.415157
58.830 16.354561
58.835 15.723093
58.840 14.908482
58.845 13.985021
58.850 14.150053
58.855 13.930576
58.860 14.029365
58.865 14.061743
58.870 13.828045
58.875 13.884484
58.880 14.377992
58.885 13.960531
58.890 13.777759
58.895 13.392135
58.900 13.082157
58.905 13.409694
58.910 13.828424
58.915 13.893991
58.920 14.363008
58.925 14.64733
58.930 15.16819
58.935 15.860034
58.940 16.336636
58.945 16.326748
58.950 16.177572
58.955 16.377243
58.960 16.206909
58.965 15.857305
58.970 15.279851
58.975 14.906153
58.980 15.142897
58.985 15.262918
58.990 15.134217
58.995 15.322001
59.000 15.635526
59.005 15.733274
59.010 15.285715
59.015 14.81517
59.020 14.833797
59.025 14.958696
59.030 15.03541
59.035 15.243978
59.040 15.640383
59.045 15.558005
59.050 15.656572
59.055 15.362352
59.060 15.100199
59.065 14.798504
59.070 14.333035
59.075 14.326778
59.080 15.092038
59.085 15.597325
59.090 16.034275
59.095 16.151157
59.100 16.055344
59.105 16.11367
59.110 15.778049
59.115 15.269691
59.120 14.844725
59.125 14.291545
59.130 14.787436
59.135 15.274778
59.140 15.911977
59.145 16.105379
59.150 16.069496
59.155 16.358952
59.160 16.588406
59.165 15.80895
59.170 15.413572
59.175 14.845658
59.180 14.47859
59.185 14.66636
59.190 15.119172
59.195 15.087344
59.200 15.393193
59.205 15.46847
59.210 15.813331
59.215 15.717188
59.220 15.455173
59.225 14.822247
59.230 14.873587
59.235 14.935613
59.240 14.993507
59.245 15.203216
59.250 15.377929
59.255 15.566612
59.260 16.102518
59.265 16.361568
59.270 16.032375
59.275 15.822289
59.280 15.667602
59.285 16.052578
59.290 16.169811
59.295 16.366085
59.300 16.416084
59.305 16.691095
59.310 17.046778
59.315 16.906406
59.320 16.959826
59.325 17.106352
59.330 16.998596
59.335 17.011185
59.340 16.695976
59.345 16.417048
59.350 16.376114
59.355 15.917048
59.360 15.691259
59.365 15.198635
59.370 15.394164
59.375 15.518798
59.380 15.621851
59.385 15.856832
59.390 16.604437
59.395 16.509588
59.400 16.345755
59.405 16.473885
59.410 16.157351
59.415 16.454458
59.420 16.151333
59.425 15.705992
59.430 16.060623
59.435 16.011419
59.440 16.017607
59.445 15.930851
59.450 15.151441
59.455 15.591993
59.460 15.928542
59.465 15.611977
59.470 15.678141
59.475 16.217854
59.480 16.693819
59.485 17.305628
59.490 16.9655
59.495 16.759518
59.500 16.697882
59.505 16.967079
59.510 16.711576
59.515 16.725687
59.520 17.020658
59.525 16.933113
59.530 16.797733
59.535 17.152737
59.540 16.820499
59.545 17.214182
59.550 17.744581
59.555 17.813955
59.560 17.95734
59.565 17.584797
59.570 17.301651
59.575 17.717768
59.580 17.414274
59.585 16.688873
59.590 16.2623
59.595 16.618231
59.600 17.423334
59.605 17.693228
59.610 17.5693
59.615 17.895124
59.620 18.222775
59.625 18.474506
59.630 18.377617
59.635 18.39654
59.640 18.224081
59.645 18.032835
59.650 17.791008
59.655 17.44899
59.660 17.535822
59.665 17.716833
59.670 17.226835
59.675 17.010315
59.680 17.19392
59.685 17.168238
59.690 17.252916
59.695 17.17168
59.700 17.459324
59.705 17.631363
59.710 18.048573
59.715 18.306593
59.720 18.497087
59.725 18.715544
59.730 18.73847
59.735 18.079998
59.740 18.213112
59.745 18.476717
59.750 18.685036
59.755 19.225136
59.760 19.536263
59.765 19.283714
59.770 19.41147
59.775 19.39168
59.780 18.528208
59.785 18.004126
59.790 17.903685
59.795 17.621872
59.800 17.688175
59.805 18.282585
59.810 18.574196
59.815 18.948246
59.820 18.55621
59.825 18.306185
59.830 18.636929
59.835 18.787212
59.840 18.637093
59.845 19.298643
59.850 19.932541
59.855 20.525278
59.860 20.610952
59.865 20.764725
59.870 20.95286
59.875 20.558571
59.880 20.16622
59.885 19.830273
59.890 19.892469
59.895 20.055618
59.900 19.717579
59.905 19.776234
59.910 19.716665
59.915 19.316196
59.920 19.258713
59.925 19.22559
59.930 19.254728
59.935 19.601837
59.940 19.534523
59.945 20.013287
59.950 20.359549
59.955 20.748188
59.960 20.962677
59.965 21.088144
59.970 21.624285
59.975 21.327831
59.980 20.95858
59.985 21.322784
59.990 21.27492
59.995 20.995419
60.000 20.821218
60.005 20.343899
60.010 21.303623
60.015 22.668684
60.020 22.216446
60.025 21.57992
60.030 21.966095
60.035 21.991217
60.040 22.135405
60.045 22.292273
60.050 22.211767
60.055 22.902914
60.060 23.423285
60.065 23.298897
60.070 23.167757
60.075 23.221525
60.080 22.415604
60.085 21.584326
60.090 21.096851
60.095 21.169018
60.100 21.215927
60.105 21.555307
60.110 21.674404
60.115 21.408041
60.120 21.736223
60.125 21.448284
60.130 21.0238
60.135 20.684525
60.140 20.640791
60.145 20.597696
60.150 20.624807
60.155 20.683931
60.160 21.036482
60.165 21.238447
60.170 21.262548
60.175 21.31316
60.180 21.625248
60.185 21.675966
60.190 22.064663
60.195 22.010509
60.200 21.659397
60.205 21.080374
60.210 20.972652
60.215 20.68502
60.220 20.586216
60.225 20.061369
60.230 19.708193
60.235 19.914539
60.240 20.166189
60.245 20.169905
60.250 20.143013
60.255 20.403778
60.260 20.891043
60.265 21.270908
60.270 21.89769
60.275 22.102644
60.280 21.893669
60.285 22.176817
60.290 22.657738
60.295 22.778103
60.300 23.081461
60.305 23.384588
60.310 23.6833
60.315 23.92012
60.320 23.721558
60.325 23.602482
60.330 23.417599
60.335 23.171623
60.340 22.590731
60.345 22.90406
60.350 23.240793
60.355 23.464029
60.360 23.212812
60.365 23.381615
60.370 23.630613
60.375 23.29096
60.380 22.89393
60.385 22.600006
60.390 22.338974
60.395 22.465117
60.400 22.052952
60.405 21.621613
60.410 22.003565
60.415 22.072487
60.420 21.918142
60.425 21.75631
60.430 21.38571
60.435 21.172443
60.440 21.156473
60.445 20.425285
60.450 19.847485
60.455 19.73118
60.460 19.103317
60.465 19.505545
60.470 19.70756
60.475 20.234245
60.480 20.472826
60.485 20.206184
60.490 20.435549
60.495 21.539179
60.500 21.684731
60.505 21.891829
60.510 21.402182
60.515 21.611719
60.520 22.265106
60.525 22.210182
60.530 21.749678
60.535 21.163481
60.540 20.577486
60.545 20.415512
60.550 20.34367
60.555 20.338797
60.560 19.879288
60.565 19.836555
60.570 19.34182
60.575 19.317299
60.580 19.35667
60.585 19.078543
60.590 18.947531
60.595 19.435102
60.600 19.22854
60.605 19.586853
60.610 20.33021
60.615 20.216713
60.620 20.029585
60.625 19.528833
60.630 19.494467
60.635 19.800404
60.640 19.749508
60.645 19.514717
60.650 19.928288
60.655 20.010679
60.660 20.301868
60.665 19.899876
60.670 19.447962
60.675 19.273514
60.680 18.550838
60.685 18.677118
60.690 19.036049
60.695 19.297701
60.700 19.460415
60.705 20.028728
60.710 20.328039
60.715 20.775915
60.720 20.79064
60.725 20.674259
60.730 20.192665
60.735 19.806303
60.740 19.740404
60.745 19.168463
60.750 19.304586
60.755 18.876263
60.760 18.582581
60.765 18.940348
60.770 19.026773
60.775 18.664589
60.780 19.127676
60.785 18.755766
60.790 18.608007
60.795 18.613846
60.800 18.085011
60.805 18.127895
60.810 18.135256
60.815 18.235462
60.820 18.816626
60.825 18.601957
60.830 18.725851
60.835 18.863594
60.840 18.433567
60.845 18.214296
60.850 17.28001
60.855 16.753456
60.860 16.862188
60.865 16.960033
60.870 17.372423
60.875 17.763554
60.880 18.002539
60.885 18.884644
60.890 18.658798
60.895 18.72937
60.900 18.653923
60.905 18.552454
60.910 18.685556
60.915 18.367603
60.920 18.304844
60.925 18.706652
60.930 19.092869
60.935 19.149456
60.940 19.186796
60.945 19.383574
60.950 19.249165
60.955 19.083502
60.960 19.041958
60.965 18.511057
60.970 18.145893
60.975 17.925926
60.980 17.939865
60.985 17.825766
60.990 17.533512
60.995 17.910366
61.000 17.895227
61.005 17.7551
61.010 17.65102
61.015 18.065325
61.020 18.607012
61.025 18.621042
61.030 18.057667
61.035 18.279091
61.040 18.24637
61.045 18.254721
61.050 18.058424
61.055 18.314953
61.060 18.196079
61.065 18.407982
61.070 18.268021
61.075 18.464371
61.080 18.365229
61.085 17.949533
61.090 17.725491
61.095 17.68552
61.100 16.965521
61.105 17.278704
61.110 17.573448
61.115 17.579529
61.120 17.600842
61.125 17.479208
61.130 17.669123
61.135 18.304274
61.140 18.058832
61.145 17.546965
61.150 17.412054
61.155 17.332531
61.160 17.162167
61.165 17.016905
61.170 16.952188
61.175 17.469221
61.180 17.746517
61.185 18.242558
61.190 17.61578
61.195 17.873079
61.200 18.080818
61.205 18.306919
61.210 18.140171
61.215 18.520002
61.220 18.645636
61.225 19.182602
61.230 18.659683
61.235 18.478319
61.240 18.347662
61.245 18.435884
61.250 18.015459
61.255 17.896864
61.260 17.990335
61.265 17.817995
61.270 17.77507
61.275 17.520082
61.280 16.995106
61.285 17.25205
61.290 17.34581
61.295 17.409359
61.300 17.680464
61.305 17.920961
61.310 18.039362
61.315 17.822813
61.320 17.456278
61.325 17.249134
61.330 17.293688
61.335 16.95715
61.340 16.072128
61.345 15.843112
61.350 16.304293
61.355 16.433794
61.360 15.87339
61.365 15.962576
61.370 16.935427
61.375 18.114925
61.380 18.206015
61.385 18.149452
61.390 18.261683
61.395 18.910784
61.400 18.744543
61.405 18.194715
61.410 17.556932
61.415 17.466894
61.420 17.655516
61.425 17.433218
61.430 16.825014
61.435 17.072144
61.440 17.122881
61.445 16.771431
61.450 16.859549
61.455 16.560291
61.460 16.782623
61.465 17.217148
61.470 16.808716
61.475 16.792175
61.480 17.211317
61.485 17.176741
61.490 17.409683
61.495 17.421957
61.500 17.104313
61.505 17.256582
61.510 17.62438
61.515 18.372343
61.520 18.230371
61.525 18.250624
61.530 18.666122
61.535 18.865688
61.540 19.314186
61.545 19.326515
61.550 19.147339
61.555 19.061783
61.560 19.11953
61.565 18.745428
61.570 18.360077
61.575 17.73427
61.580 17.004089
61.585 16.436451
61.590 16.183617
61.595 15.751637
61.600 15.726968
61.605 16.298962
61.610 15.949665
61.615 16.163031
61.620 16.289909
61.625 16.471821
61.630 16.468897
61.635 16.400572
61.640 16.224613
61.645 16.762495
61.650 16.341124
61.655 16.722733
61.660 16.924931
61.665 16.945993
61.670 16.399191
61.675 16.363096
61.680 16.001995
61.685 16.550858
61.690 16.548517
61.695 16.206224
61.700 16.086792
61.705 16.335567
61.710 16.131567
61.715 15.942091
61.720 16.344313
61.725 15.879774
61.730 15.912087
61.735 16.314602
61.740 16.471695
61.745 16.667049
61.750 16.399912
61.755 15.85216
61.760 15.988536
61.765 15.718472
61.770 15.406576
61.775 15.49804
61.780 15.980164
61.785 16.719759
61.790 16.981756
61.795 17.0317
61.800 17.168564
61.805 17.187735
61.810 17.313145
61.815 16.846584
61.820 17.010479
61.825 16.786667
61.830 16.629095
61.835 16.591957
61.840 16.372021
61.845 16.169392
61.850 16.054556
61.855 16.1021
61.860 16.322102
61.865 16.594883
61.870 16.867283
61.875 16.676748
61.880 17.576548
61.885 18.158184
61.890 18.488228
61.895 18.572428
61.900 19.469868
61.905 19.717714
61.910 20.252621
61.915 19.709826
61.920 19.064749
61.925 18.381144
61.930 18.296709
61.935 17.52931
61.940 16.884869
61.945 16.753538
61.950 16.901617
61.955 17.374992
61.960 16.983519
61.965 16.730886
61.970 16.63625
61.975 17.292305
61.980 17.142872
61.985 16.802549
61.990 16.706957
61.995 17.333555
62.000 17.116404
62.005 17.322357
62.010 16.924643
62.015 16.732903
62.020 16.666033
62.025 16.43709
62.030 15.817215
62.035 16.202372
62.040 16.610573
62.045 16.383869
62.050 16.505213
62.055 16.637316
62.060 16.60026
62.065 16.667004
62.070 16.413305
62.075 16.127695
62.080 16.537853
62.085 16.276093
62.090 15.952526
62.095 15.988657
62.100 16.146084
62.105 16.630783
62.110 16.32169
62.115 16.199329
62.120 16.509258
62.125 17.061193
62.130 16.989281
62.135 17.070858
62.140 16.720097
62.145 17.112635
62.150 17.366961
62.155 17.150833
62.160 17.082605
62.165 17.539143
62.170 17.841328
62.175 18.114094
62.180 18.673788
62.185 19.066193
62.190 19.086451
62.195 19.244028
62.200 19.089941
62.205 18.54516
62.210 18.060898
62.215 17.167528
62.220 16.60062
62.225 16.387583
62.230 15.749383
62.235 15.061895
62.240 15.0034
62.245 14.710907
62.250 15.071626
62.255 15.363722
62.260 15.81601
62.265 15.895315
62.270 16.04003
62.275 16.276358
62.280 16.121723
62.285 15.610794
62.290 15.035556
62.295 14.829097
62.300 15.413679
62.305 15.667737
62.310 15.989438
62.315 16.379011
62.320 16.998648
62.325 17.473169
62.330 17.432846
62.335 17.314056
62.340 17.335005
62.345 17.403246
62.350 17.088144
62.355 16.395618
62.360 16.625359
62.365 16.824266
62.370 16.728504
62.375 16.610235
62.380 16.461685
62.385 16.948
62.390 16.795986
62.395 16.124979
62.400 16.102432
62.405 16.08326
62.410 16.279764
62.415 16.396296
62.420 16.085831
62.425 16.325052
62.430 16.829258
62.435 16.943066
62.440 17.284718
62.445 17.617622
62.450 17.705673
62.455 17.908556
62.460 17.858685
62.465 17.738729
62.470 17.778202
62.475 17.981033
62.480 17.311726
62.485 17.078735
62.490 17.176231
62.495 17.134714
62.500 17.15073
62.505 16.583773
62.510 16.259241
62.515 16.576593
62.520 16.3449
62.525 16.184252
62.530 15.894639
62.535 15.533325
62.540 15.755045
62.545 15.902078
62.550 15.929367
62.555 15.955033
62.560 16.86301
62.565 17.389399
62.570 17.934944
62.575 18.003988
62.580 17.854469
62.585 17.355927
62.590 17.820364
62.595 17.545961
62.600 17.168793
62.605 16.596756
62.610 16.363106
62.615 16.61117
62.620 17.029446
62.625 16.080652
62.630 16.288839
62.635 16.524525
62.640 16.327211
62.645 16.443596
62.650 16.408195
62.655 16.440975
62.660 16.970987
62.665 16.836351
62.670 16.588394
62.675 17.212194
62.680 16.946827
62.685 16.471951
62.690 17.057121
62.695 17.214882
62.700 16.89049
62.705 16.808138
62.710 16.947611
62.715 17.462765
62.720 17.71542
62.725 17.335464
62.730 16.691238
62.735 17.303219
62.740 18.289839
62.745 18.364468
62.750 18.372419
62.755 18.634789
62.760 19.28627
62.765 19.939062
62.770 19.397814
62.775 18.718683
62.780 18.160009
62.785 18.11631
62.790 17.621502
62.795 17.046179
62.800 17.415613
62.805 17.25123
62.810 17.450783
62.815 17.664753
62.820 17.238464
62.825 17.084257
62.830 17.621033
62.835 17.079309
62.840 17.518805
62.845 17.727722
62.850 17.918255
62.855 18.419876
62.860 18.961718
62.865 18.446327
62.870 18.487934
62.875 17.998335
62.880 17.715216
62.885 16.930206
62.890 16.274645
62.895 15.845349
62.900 15.887812
62.905 15.850146
62.910 16.270271
62.915 16.294695
62.920 16.783182
62.925 17.024324
62.930 17.330608
62.935 17.344002
62.940 17.566647
62.945 17.310865
62.950 17.046833
62.955 17.246599
62.960 17.149172
62.965 16.640928
62.970 16.79274
62.975 15.839595
62.980 16.069984
62.985 16.70595
62.990 16.586611
62.995 17.012226
63.000 17.425467
63.005 17.39196
63.010 18.200075
63.015 18.109615
63.020 17.761145
63.025 17.439829
63.030 16.864157
63.035 16.622564
63.040 16.858463
63.045 16.73089
63.050 16.677265
63.055 16.453451
63.060 16.698065
63.065 16.842701
63.070 16.951145
63.075 16.999773
63.080 16.568907
63.085 16.693216
63.090 17.630911
63.095 18.374287
63.100 18.866232
63.105 18.854681
63.110 18.345161
63.115 18.61042
63.120 18.726658
63.125 18.13431
63.130 17.534742
63.135 17.018991
63.140 16.826799
63.145 17.245556
63.150 17.5187
63.155 17.680882
63.160 17.800508
63.165 17.597189
63.170 17.823891
63.175 18.079723
63.180 17.945793
63.185 18.191307
63.190 18.128105
63.195 17.680182
63.200 17.842688
63.205 18.005386
63.210 17.729584
63.215 17.352156
63.220 16.58843
63.225 16.233023
63.230 17.138725
63.235 17.204054
63.240 16.788076
63.245 17.157354
63.250 17.382135
63.255 17.995747
63.260 17.964306
63.265 17.520874
63.270 17.793385
63.275 17.736967
63.280 17.702888
63.285 17.779203
63.290 17.70397
63.295 18.226917
63.300 17.931499
63.305 17.769541
63.310 17.86264
63.315 17.260754
63.320 17.349054
63.325 17.160723
63.330 17.183447
63.335 17.60717
63.340 17.646664
63.345 17.362
63.350 17.665655
63.355 17.948336
63.360 17.733971
63.365 17.433056
63.370 17.406687
63.375 17.831686
63.380 18.265488
63.385 18.564886
63.390 18.400728
63.395 18.594908
63.400 18.286289
63.405 17.635483
63.410 17.41223
63.415 17.528383
63.420 17.201454
63.425 17.010317
63.430 17.099207
63.435 17.404541
63.440 17.425415
63.445 17.306881
63.450 16.950256
63.455 17.077095
63.460 16.818981
63.465 16.745243
63.470 16.950773
63.475 17.255953
63.480 17.423265
63.485 17.844044
63.490 17.861649
63.495 18.628359
63.500 19.125856
63.505 19.784817
63.510 20.097147
63.515 20.044157
63.520 19.334732
63.525 19.271961
63.530 19.041969
63.535 19.055511
63.540 18.926092
63.545 18.867592
63.550 18.920174
63.555 19.703665
63.560 19.895796
63.565 19.627296
63.570 19.114967
63.575 18.864416
63.580 18.674135
63.585 18.461588
63.590 18.228712
63.595 18.388653
63.600 18.113436
63.605 17.935673
63.610 17.028505
63.615 16.61602
63.620 16.149124
63.625 16.15267
63.630 15.782576
63.635 16.027
63.640 16.466904
63.645 17.029446
63.650 17.566271
63.655 17.854362
63.660 18.362322
63.665 19.287746
63.670 19.450239
63.675 19.618238
63.680 19.548389
63.685 19.449711
63.690 19.211071
63.695 18.773479
63.700 18.3533
63.705 17.698996
63.710 17.776138
63.715 16.980635
63.720 17.272989
63.725 17.751251
63.730 17.551765
63.735 17.259811
63.740 17.348345
63.745 16.749805
63.750 17.085524
63.755 16.727772
63.760 16.273636
63.765 15.912185
63.770 15.834103
63.775 16.068235
63.780 16.770697
63.785 17.100649
63.790 17.713314
63.795 17.802618
63.800 18.11075
63.805 18.130928
63.810 17.641048
63.815 17.239792
63.820 17.079971
63.825 16.700289
63.830 16.590746
63.835 16.725306
63.840 17.096584
63.845 17.888723
63.850 17.971121
63.855 17.841642
63.860 17.370499
63.865 17.903028
63.870 17.904079
63.875 17.727381
63.880 17.728243
63.885 18.022024
63.890 18.411448
63.895 18.860743
63.900 18.524969
63.905 18.384037
63.910 18.374313
63.915 18.151875
63.920 17.722479
63.925 17.431278
63.930 17.761494
63.935 18.131552
63.940 18.252993
63.945 17.872202
63.950 17.834536
63.955 18.53933
63.960 18.677698
63.965 18.764877
63.970 18.814089
63.975 19.299807
63.980 19.701105
63.985 19.264484
63.990 18.914679
63.995 18.95232
64.000 18.664915
64.005 18.756374
64.010 18.889528
64.015 18.893534
64.020 19.450907
64.025 20.044891
64.030 19.973806
64.035 20.124784
64.040 20.484095
64.045 20.475458
64.050 20.517502
64.055 20.360489
64.060 19.557417
64.065 19.442162
64.070 19.345364
64.075 18.718201
64.080 18.827738
64.085 18.977097
64.090 19.335829
64.095 20.030575
64.100 19.953121
64.105 19.973881
64.110 19.877581
64.115 19.767933
64.120 20.122324
64.125 19.702738
64.130 18.803888
64.135 18.886852
64.140 18.60148
64.145 18.203581
64.150 17.573175
64.155 16.673809
64.160 16.741549
64.165 17.509727
64.170 18.004007
64.175 18.017412
64.180 18.221008
64.185 18.193432
64.190 18.299692
64.195 18.499186
64.200 18.200111
64.205 17.673557
64.210 17.429777
64.215 17.590023
64.220 18.242941
64.225 18.627956
64.230 18.296661
64.235 18.221119
64.240 18.792608
64.245 19.323454
64.250 18.84201
64.255 18.452049
64.260 18.413908
64.265 18.306175
64.270 17.690603
64.275 16.884148
64.280 16.825928
64.285 16.947344
64.290 17.309856
64.295 17.079735
64.300 17.515106
64.305 18.008327
64.310 18.349255
64.315 18.26438
64.320 18.741398
64.325 18.593611
64.330 18.349987
64.335 17.757217
64.340 17.77154
64.345 17.834097
64.350 18.079544
64.355 18.092836
64.360 18.362274
64.365 18.782156
64.370 19.351898
64.375 19.547174
64.380 19.798901
64.385 20.447983
64.390 19.951828
64.395 19.536356
64.400 19.546871
64.405 20.125868
64.410 20.439819
64.415 20.194117
64.420 19.457361
64.425 20.09057
64.430 20.490072
64.435 20.101704
64.440 19.774654
64.445 19.60898
64.450 19.497078
64.455 19.707819
64.460 19.916191
64.465 20.106466
64.470 20.239353
64.475 20.367601
64.480 20.265163
64.485 20.227673
64.490 19.753185
64.495 19.537819
64.500 19.245327
64.505 18.962849
64.510 18.331587
64.515 18.249601
64.520 18.101397
64.525 18.287331
64.530 18.055025
64.535 18.16124
64.540 18.312721
64.545 18.4998
64.550 18.117785
64.555 18.064825
64.560 18.233889
64.565 18.326395
64.570 18.455175
64.575 18.467937
64.580 18.704647
64.585 18.845579
64.590 19.002647
64.595 18.702618
64.600 18.913681
64.605 18.64114
64.610 18.775837
64.615 18.852661
64.620 19.070642
64.625 18.882687
64.630 19.034578
64.635 18.45821
64.640 18.640692
64.645 18.818073
64.650 18.929848
64.655 18.786592
64.660 18.701059
64.665 18.590635
64.670 19.032951
64.675 18.641018
64.680 18.295572
64.685 18.458052
64.690 18.162004
64.695 18.121088
64.700 18.043207
64.705 17.945297
64.710 18.22072
64.715 18.863258
64.720 18.754866
64.725 19.401627
64.730 19.84646
64.735 20.022726
64.740 20.341871
64.745 20.301306
64.750 19.261875
64.755 19.318085
64.760 19.122587
64.765 19.404922
64.770 19.731892
64.775 20.547443
64.780 21.096308
64.785 21.384083
64.790 21.681366
64.795 21.482
64.800 21.129087
64.805 20.766636
64.810 20.226643
64.815 20.214045
64.820 20.807835
64.825 20.681608
64.830 20.396717
64.835 20.773991
64.840 20.822905
64.845 20.867666
64.850 20.742306
64.855 20.181255
64.860 20.124802
64.865 20.661789
64.870 19.873514
64.875 19.182163
64.880 19.054192
64.885 18.85689
64.890 19.000126
64.895 19.257092
64.900 19.032717
64.905 19.375368
64.910 19.772591
64.915 19.577286
64.920 19.834595
64.925 19.765465
64.930 20.366796
64.935 20.579718
64.940 20.54915
64.945 20.318125
64.950 20.090967
64.955 20.446676
64.960 20.588058
64.965 20.391048
64.970 20.925745
64.975 20.906898
64.980 21.610035
64.985 21.949648
64.990 21.934544
64.995 21.565403
65.000 20.736992
65.005 20.428671
65.010 20.498968
65.015 20.307753
65.020 20.904289
65.025 20.765148
65.030 20.974569
65.035 21.478172
65.040 22.021051
65.045 22.509291
65.050 22.70546
65.055 22.995909
65.060 23.670908
65.065 23.351704
65.070 22.71368
65.075 22.200062
65.080 22.037743
65.085 21.780222
65.090 21.458397
65.095 21.034832
65.100 22.062275
65.105 23.026432
65.110 23.853485
65.115 24.46217
65.120 24.689423
65.125 23.877199
65.130 24.002878
65.135 23.833271
65.140 23.298422
65.145 22.453238
65.150 21.588142
65.155 21.110195
65.160 21.740808
65.165 21.206863
65.170 21.277239
65.175 21.782381
65.180 22.080456
65.185 22.293768
65.190 22.464224
65.195 22.411654
65.200 22.724728
65.205 22.197159
65.210 21.767195
65.215 21.585058
65.220 21.823326
65.225 22.236059
65.230 22.228058
65.235 22.547764
65.240 22.873093
65.245 23.217228
65.250 23.484945
65.255 23.737
65.260 23.460154
65.265 23.768227
65.270 23.728487
65.275 23.564983
65.280 23.380344
65.285 23.315924
65.290 22.984928
65.295 22.336416
65.300 21.317698
65.305 21.212214
65.310 21.607641
65.315 21.357159
65.320 21.380259
65.325 21.362629
65.330 21.670717
65.335 21.847473
65.340 21.857786
65.345 21.720081
65.350 22.07572
65.355 22.118986
65.360 22.379499
65.365 22.656361
65.370 23.616779
65.375 23.459932
65.380 23.38401
65.385 23.089762
65.390 22.744844
65.395 23.0294
65.400 22.53694
65.405 22.013552
65.410 22.581285
65.415 22.501627
65.420 23.302505
65.425 23.476673
65.430 23.148632
65.435 23.786644
65.440 24.06731
65.445 23.842823
65.450 23.500198
65.455 23.015411
65.460 23.071169
65.465 23.307201
65.470 23.780994
65.475 23.675863
65.480 23.349976
65.485 23.642467
65.490 23.855703
65.495 24.251297
65.500 24.008467
65.505 23.794659
65.510 24.239902
65.515 25.045162
65.520 25.10232
65.525 25.321625
65.530 24.878574
65.535 25.386768
65.540 26.157576
65.545 27.355585
65.550 27.837679
65.555 28.418957
65.560 28.783342
65.565 29.560595
65.570 29.660879
65.575 28.659374
65.580 28.515591
65.585 28.614559
65.590 28.818724
65.595 28.875536
65.600 28.770508
65.605 28.80621
65.610 28.797253
65.615 28.995947
65.620 29.113293
65.625 28.468372
65.630 28.973282
65.635 29.451067
65.640 30.293541
65.645 30.943226
65.650 30.990896
65.655 30.629829
65.660 31.785431
65.665 31.629984
65.670 31.537506
65.675 31.864529
65.680 32.981186
65.685 32.95657
65.690 33.283276
65.695 32.858028
65.700 33.218273
65.705 33.747757
65.710 33.245903
65.715 31.608637
65.720 31.538057
65.725 31.981943
65.730 32.913841
65.735 32.655956
65.740 31.859776
65.745 32.106976
65.750 33.13113
65.755 33.653748
65.760 33.987408
65.765 34.084377
65.770 34.854931
65.775 35.485481
65.780 36.233341
65.785 37.064102
65.790 37.293095
65.795 36.623203
65.800 36.171154
65.805 36.266239
65.810 36.05592
65.815 35.612
65.820 35.599751
65.825 35.448524
65.830 36.352207
65.835 36.4063
65.840 37.188217
65.845 38.07972
65.850 37.864838
65.855 38.378902
65.860 39.181591
65.865 39.420368
65.870 39.44202
65.875 38.835617
65.880 38.363552
65.885 38.558983
65.890 39.248413
65.895 39.20929
65.900 39.483906
65.905 40.029377
65.910 39.467255
65.915 40.111782
65.920 40.544353
65.925 40.5252
65.930 40.096897
65.935 40.28104
65.940 40.119453
65.945 41.023445
65.950 40.865486
65.955 40.513523
65.960 39.575974
65.965 39.581734
65.970 39.446732
65.975 39.710278
65.980 39.764019
65.985 39.874268
65.990 39.355904
65.995 39.656395
66.000 40.074924
66.005 39.455441
66.010 38.46442
66.015 37.879074
66.020 38.125797
66.025 38.066647
66.030 38.126556
66.035 38.335915
66.040 38.507519
66.045 38.832642
66.050 39.222382
66.055 38.8363
66.060 39.351513
66.065 39.064491
66.070 37.844162
66.075 37.375011
66.080 37.426582
66.085 37.518723
66.090 37.515728
66.095 37.985703
66.100 37.938824
66.105 38.284374
66.110 38.437374
66.115 38.062645
66.120 37.705673
66.125 37.178738
66.130 36.203773
66.135 36.456017
66.140 36.321247
66.145 36.483074
66.150 36.638229
66.155 36.323799
66.160 37.605595
66.165 38.405933
66.170 37.651321
66.175 37.751537
66.180 38.007877
66.185 37.984512
66.190 38.112003
66.195 36.909904
66.200 35.601521
66.205 34.671455
66.210 33.957367
66.215 32.759853
66.220 32.534859
66.225 31.921362
66.230 31.350924
66.235 32.55122
66.240 33.465981
66.245 34.018497
66.250 33.758442
66.255 33.719494
66.260 34.202785
66.265 34.41341
66.270 34.091618
66.275 34.432133
66.280 35.054771
66.285 35.233871
66.290 35.128944
66.295 35.163033
66.300 35.244549
66.305 35.029404
66.310 34.669575
66.315 34.47673
66.320 34.792217
66.325 34.573608
66.330 34.057922
66.335 33.619915
66.340 32.270092
66.345 31.320362
66.350 30.733837
66.355 30.375904
66.360 30.734461
66.365 30.461777
66.370 30.76656
66.375 31.052511
66.380 31.060291
66.385 30.759714
66.390 30.690741
66.395 31.091166
66.400 31.235479
66.405 31.475088
66.410 31.760889
66.415 31.886366
66.420 32.29137
66.425 32.070457
66.430 31.516642
66.435 31.151224
66.440 30.597977
66.445 30.350121
66.450 29.837364
66.455 28.764582
66.460 28.210266
66.465 28.304319
66.470 28.548979
66.475 27.956245
66.480 28.349503
66.485 28.906986
66.490 29.277161
66.495 29.742752
66.500 29.662291
66.505 30.10763
66.510 30.733591
66.515 30.256666
66.520 29.8211
66.525 30.035131
66.530 30.175936
66.535 29.755741
66.540 29.257883
66.545 29.195576
66.550 28.912495
66.555 28.525459
66.560 28.223356
66.565 27.921015
66.570 28.407549
66.575 28.586533
66.580 28.606791
66.585 28.473782
66.590 29.040596
66.595 29.447206
66.600 29.580153
66.605 28.809547
66.610 27.693308
66.615 27.582758
66.620 27.665358
66.625 27.498814
66.630 26.863483
66.635 26.12899
66.640 25.816086
66.645 25.988592
66.650 25.312933
66.655 25.071098
66.660 24.430391
66.665 24.297686
66.670 24.498762
66.675 24.284807
66.680 24.388151
66.685 24.509611
66.690 24.035244
66.695 24.72114
66.700 24.889004
66.705 24.631092
66.710 24.929928
66.715 25.171225
66.720 25.227335
66.725 25.581785
66.730 25.596657
66.735 25.73732
66.740 25.745131
66.745 25.765989
66.750 25.275951
66.755 24.739906
66.760 24.740667
66.765 24.300131
66.770 23.989038
66.775 23.663231
66.780 23.836744
66.785 23.741087
66.790 24.451967
66.795 24.156723
66.800 23.620783
66.805 23.776642
66.810 23.579891
66.815 23.365807
66.820 23.307375
66.825 22.945784
66.830 22.690832
66.835 22.937725
66.840 22.587275
66.845 22.814245
66.850 22.889639
66.855 22.691563
66.860 22.981314
66.865 23.5348
66.870 23.888897
66.875 24.019899
66.880 23.763882
66.885 23.709436
66.890 24.212423
66.895 24.510527
66.900 24.297777
66.905 24.415203
66.910 24.83029
66.915 25.382822
66.920 24.904049
66.925 24.246395
66.930 23.685596
66.935 23.921354
66.940 23.582542
66.945 23.28838
66.950 23.637558
66.955 24.351633
66.960 24.878931
66.965 24.037592
66.970 23.670219
66.975 23.544632
66.980 23.718794
66.985 23.580503
66.990 23.510811
66.995 22.878576
67.000 24.291862
67.005 25.267807
67.010 25.361361
67.015 25.055651
67.020 25.145273
67.025 25.135353
67.030 25.534451
67.035 24.955948
67.040 24.314054
67.045 24.270615
67.050 23.893669
67.055 23.700733
67.060 23.993317
67.065 23.527168
67.070 23.405239
67.075 24.07196
67.080 24.462982
67.085 24.883249
67.090 24.751741
67.095 24.481478
67.100 24.45319
67.105 23.475441
67.110 22.536524
67.115 22.168846
67.120 21.530544
67.125 21.544956
67.130 21.916435
67.135 22.179399
67.140 22.783552
67.145 22.596546
67.150 22.531727
67.155 22.657066
67.160 22.009413
67.165 21.151423
67.170 20.618034
67.175 20.218176
67.180 20.267708
67.185 20.379574
67.190 20.45817
67.195 20.567492
67.200 20.630045
67.205 20.56802
67.210 20.791075
67.215 20.567234
67.220 20.61371
67.225 20.566046
67.230 20.429836
67.235 20.874584
67.240 21.058176
67.245 21.196915
67.250 21.370852
67.255 21.327034
67.260 21.317596
67.265 21.116032
67.270 21.032162
67.275 21.355095
67.280 21.330387
67.285 21.150171
67.290 21.194828
67.295 21.640579
67.300 22.250372
67.305 22.102785
67.310 21.825216
67.315 21.49707
67.320 21.826065
67.325 21.23097
67.330 21.313253
67.335 21.38662
67.340 21.892883
67.345 21.666855
67.350 21.855349
67.355 21.915327
67.360 21.417585
67.365 20.885942
67.370 20.513517
67.375 20.136232
67.380 20.777876
67.385 20.231731
67.390 20.249296
67.395 21.57637
67.400 22.033981
67.405 21.511648
67.410 21.242159
67.415 21.927137
67.420 22.497396
67.425 22.86282
67.430 22.432684
67.435 22.565426
67.440 23.195448
67.445 22.852667
67.450 21.883959
67.455 21.646688
67.460 21.358589
67.465 20.613806
67.470 20.068354
67.475 19.761982
67.480 20.52434
67.485 20.688837
67.490 21.274578
67.495 21.220064
67.500 22.198927
67.505 22.921986
67.510 22.955017
67.515 23.30209
67.520 23.160364
67.525 22.42304
67.530 22.982185
67.535 22.289291
67.540 21.639147
67.545 21.049835
67.550 19.910116
67.555 19.463757
67.560 19.353527
67.565 18.93231
67.570 18.717527
67.575 19.008896
67.580 19.281755
67.585 19.592377
67.590 20.537167
67.595 20.319782
67.600 20.588957
67.605 20.672016
67.610 21.091574
67.615 21.212545
67.620 20.693611
67.625 20.06918
67.630 20.226549
67.635 20.501799
67.640 20.956297
67.645 20.966829
67.650 21.321554
67.655 22.039785
67.660 22.02059
67.665 21.697279
67.670 20.879131
67.675 20.624825
67.680 20.219975
67.685 20.326046
67.690 20.128351
67.695 20.053404
67.700 20.474566
67.705 20.354124
67.710 20.243525
67.715 20.349279
67.720 19.991676
67.725 20.180031
67.730 20.830944
67.735 21.044706
67.740 21.999224
67.745 22.651495
67.750 22.890289
67.755 22.870447
67.760 22.143551
67.765 21.913803
67.770 20.888233
67.775 20.284946
67.780 19.387257
67.785 19.073759
67.790 19.139215
67.795 19.34267
67.800 18.919987
67.805 19.576195
67.810 19.632477
67.815 20.228827
67.820 20.512003
67.825 20.714752
67.830 20.283966
67.835 20.651989
67.840 21.195742
67.845 21.263414
67.850 21.21196
67.855 21.35659
67.860 21.822615
67.865 22.323225
67.870 22.365103
67.875 22.393745
67.880 22.697752
67.885 22.401085
67.890 22.581062
67.895 22.232143
67.900 22.129492
67.905 22.203423
67.910 21.360222
67.915 21.058001
67.920 21.278042
67.925 20.96032
67.930 20.98447
67.935 21.241293
67.940 21.54528
67.945 21.815996
67.950 22.477169
67.955 22.441137
67.960 21.887703
67.965 21.721777
67.970 21.445223
67.975 21.134741
67.980 21.25849
67.985 20.752296
67.990 20.393087
67.995 21.018414
68.000 21.210678
68.005 21.024939
68.010 20.813103
68.015 20.378414
68.020 19.9783
68.025 20.390715
68.030 20.472046
68.035 20.812712
68.040 21.764893
68.045 21.834005
68.050 22.092093
68.055 22.894108
68.060 22.526848
68.065 22.225239
68.070 22.010305
68.075 21.57996
68.080 21.373398
68.085 21.080238
68.090 20.458836
68.095 20.243988
68.100 19.670801
68.105 18.959002
68.110 18.359011
68.115 18.359592
68.120 18.743767
68.125 19.606928
68.130 20.289421
68.135 21.142656
68.140 21.809072
68.145 22.206841
68.150 22.33984
68.155 22.85273
68.160 22.694958
68.165 22.549591
68.170 22.685369
68.175 22.532837
68.180 22.868841
68.185 22.362785
68.190 21.744019
68.195 21.955404
68.200 21.644316
68.205 21.361853
68.210 21.119154
68.215 20.935465
68.220 20.568554
68.225 20.635283
68.230 20.355181
68.235 20.247772
68.240 20.025642
68.245 19.913151
68.250 19.693419
68.255 19.994087
68.260 20.323698
68.265 21.047291
68.270 21.383476
68.275 21.719669
68.280 22.084227
68.285 22.566465
68.290 22.480627
68.295 22.027649
68.300 21.127579
68.305 21.201284
68.310 20.428957
68.315 19.801796
68.320 19.786865
68.325 19.536568
68.330 19.775059
68.335 20.238319
68.340 19.939024
68.345 20.146294
68.350 20.167147
68.355 20.405218
68.360 20.825939
68.365 20.140553
68.370 20.163109
68.375 20.400463
68.380 20.812206
68.385 21.103815
68.390 20.699842
68.395 20.518026
68.400 20.339176
68.405 20.115753
68.410 20.028297
68.415 19.998852
68.420 20.192434
68.425 20.291645
68.430 20.037148
68.435 19.770792
68.440 19.829552
68.445 20.097395
68.450 20.787006
68.455 20.691223
68.460 21.303476
68.465 22.150774
68.470 22.893585
68.475 22.799807
68.480 22.450953
68.485 21.461821
68.490 21.223005
68.495 20.899248
68.500 20.160727
68.505 19.730827
68.510 19.735395
68.515 19.609446
68.520 20.089243
68.525 20.156494
68.530 20.477898
68.535 20.782354
68.540 21.2152
68.545 21.95262
68.550 22.175577
68.555 22.409744
68.560 22.537384
68.565 22.434948
68.570 22.154245
68.575 21.763226
68.580 21.273779
68.585 21.368223
68.590 20.756069
68.595 20.619818
68.600 20.471628
68.605 20.929327
68.610 21.30452
68.615 21.220243
68.620 21.342825
68.625 21.548103
68.630 21.45166
68.635 21.839417
68.640 22.2374
68.645 22.19977
68.650 22.543081
68.655 22.4667
68.660 22.303925
68.665 22.230453
68.670 21.259151
68.675 21.110872
68.680 21.233105
68.685 21.386179
68.690 21.544437
68.695 21.470732
68.700 21.17001
68.705 21.359497
68.710 21.181662
68.715 21.120924
68.720 20.882723
68.725 21.052168
68.730 21.789206
68.735 22.506538
68.740 22.223074
68.745 21.833603
68.750 21.732698
68.755 21.630831
68.760 21.525358
68.765 21.483849
68.770 21.836365
68.775 22.113766
68.780 22.566359
68.785 22.716085
68.790 22.766739
68.795 22.571775
68.800 22.275055
68.805 22.31908
68.810 22.515764
68.815 21.807072
68.820 21.262665
68.825 20.89892
68.830 20.573503
68.835 20.495678
68.840 20.437557
68.845 19.617275
68.850 19.986891
68.855 20.579611
68.860 20.540279
68.865 21.150967
68.870 21.796785
68.875 21.890486
68.880 21.982971
68.885 21.569233
68.890 21.365566
68.895 21.69389
68.900 21.376568
68.905 21.177952
68.910 21.951651
68.915 22.961519
68.920 23.154194
68.925 23.226841
68.930 23.71372
68.935 24.267693
68.940 23.689619
68.945 22.603882
68.950 22.681505
68.955 23.254242
68.960 23.64834
68.965 23.33143
68.970 23.179157
68.975 23.902708
68.980 24.753654
68.985 25.067944
68.990 25.244444
68.995 24.867308
69.000 24.694094
69.005 24.327393
69.010 24.656897
69.015 24.309654
69.020 23.809736
69.025 23.340359
69.030 23.692528
69.035 24.264069
69.040 24.946999
69.045 24.863653
69.050 24.64319
69.055 25.015242
69.060 25.578981
69.065 25.213474
69.070 25.292189
69.075 25.370552
69.080 25.860058
69.085 26.082983
69.090 25.602896
69.095 26.258808
69.100 27.049324
69.105 27.223881
69.110 26.83675
69.115 26.644814
69.120 27.100773
69.125 27.838938
69.130 27.574137
69.135 26.690277
69.140 27.333847
69.145 27.466307
69.150 27.745211
69.155 27.798988
69.160 27.484741
69.165 27.387802
69.170 27.546778
69.175 27.045187
69.180 26.888485
69.185 26.966164
69.190 26.744829
69.195 27.398582
69.200 27.89633
69.205 27.551622
69.210 26.906607
69.215 27.14599
69.220 27.366302
69.225 27.213022
69.230 26.515621
69.235 26.460197
69.240 27.208097
69.245 27.243071
69.250 27.114988
69.255 26.495951
69.260 26.772522
69.265 26.44059
69.270 26.297392
69.275 26.539244
69.280 27.100027
69.285 26.441336
69.290 26.671738
69.295 26.376089
69.300 26.814962
69.305 27.178553
69.310 27.617321
69.315 28.189577
69.320 28.201477
69.325 29.018648
69.330 28.870018
69.335 28.908058
69.340 28.387903
69.345 28.234705
69.350 28.635004
69.355 29.258575
69.360 28.863182
69.365 29.651154
69.370 29.401766
69.375 29.246679
69.380 28.031002
69.385 27.622589
69.390 27.567411
69.395 27.410904
69.400 27.509699
69.405 28.004801
69.410 28.590084
69.415 29.713493
69.420 29.808384
69.425 30.348238
69.430 30.729559
69.435 30.774355
69.440 30.029104
69.445 29.88382
69.450 29.167336
69.455 29.166584
69.460 29.902927
69.465 29.420227
69.470 29.428196
69.475 30.083656
69.480 29.520695
69.485 29.70561
69.490 28.819885
69.495 27.643991
69.500 27.257032
69.505 27.218992
69.510 27.551659
69.515 28.231771
69.520 27.962732
69.525 28.19989
69.530 28.716164
69.535 29.63253
69.540 30.304094
69.545 30.249542
69.550 30.370735
69.555 30.914251
69.560 30.579668
69.565 30.397058
69.570 29.601845
69.575 29.072718
69.580 29.049255
69.585 28.908167
69.590 28.985313
69.595 29.432283
69.600 28.973284
69.605 28.59016
69.610 28.087505
69.615 27.929222
69.620 27.860308
69.625 27.653032
69.630 27.611923
69.635 27.452913
69.640 28.020329
69.645 27.775208
69.650 26.976557
69.655 26.737272
69.660 26.701029
69.665 26.252424
69.670 26.806604
69.675 27.036318
69.680 27.3186
69.685 27.433594
69.690 27.600462
69.695 27.272734
69.700 27.025398
69.705 26.243788
69.710 25.793777
69.715 25.896973
69.720 26.543272
69.725 26.871906
69.730 27.489016
69.735 27.81258
69.740 28.323214
69.745 28.185995
69.750 27.915178
69.755 28.217264
69.760 27.742474
69.765 27.454704
69.770 27.306782
69.775 26.812981
69.780 26.713488
69.785 26.717056
69.790 26.552118
69.795 26.616915
69.800 27.061594
69.805 27.356352
69.810 27.517635
69.815 27.607504
69.820 26.864014
69.825 26.174856
69.830 26.474049
69.835 26.107592
69.840 26.003582
69.845 26.608118
69.850 26.564157
69.855 26.862778
69.860 25.948862
69.865 25.138191
69.870 24.894005
69.875 25.00802
69.880 24.300766
69.885 23.746462
69.890 23.462652
69.895 23.708942
69.900 23.476337
69.905 22.950951
69.910 22.374037
69.915 21.992519
69.920 22.40766
69.925 22.309057
69.930 22.083586
69.935 22.463036
69.940 22.896944
69.945 23.926226
69.950 24.947897
69.955 24.812155
69.960 24.589861
69.965 25.07102
69.970 24.645321
69.975 23.847641
69.980 23.044001
69.985 22.705538
69.990 23.206085
69.995 23.797918
70.000 23.657228
70.005 23.915159
70.010 24.256512
70.015 24.381733
70.020 23.48304
70.025 22.841787
70.030 21.792015
70.035 21.771584
70.040 21.756636
70.045 21.125362
70.050 20.661428
70.055 20.895466
70.060 20.574224
70.065 21.140955
70.070 20.957224
70.075 20.635893
70.080 20.594013
70.085 20.635866
70.090 20.784323
70.095 21.51366
70.100 21.294226
70.105 20.751448
70.110 21.459936
70.115 22.12636
70.120 22.193884
70.125 22.212729
70.130 21.998775
70.135 21.618576
70.140 21.794094
70.145 21.416893
70.150 21.077551
70.155 21.29159
70.160 21.108549
70.165 20.865469
70.170 20.793545
70.175 20.842812
70.180 20.561182
70.185 20.487703
70.190 20.164408
70.195 20.353638
70.200 20.626436
70.205 20.416445
70.210 20.288958
70.215 20.669556
70.220 21.094664
70.225 20.936998
70.230 21.327934
70.235 20.78686
70.240 21.428034
70.245 21.631395
70.250 20.984056
70.255 20.991568
70.260 20.623945
70.265 20.378162
70.270 19.791883
70.275 19.137669
70.280 18.620207
70.285 18.008921
70.290 17.519821
70.295 17.900726
70.300 17.688139
70.305 18.548985
70.310 18.945551
70.315 19.636866
70.320 20.69231
70.325 20.562321
70.330 20.460842
70.335 20.640497
70.340 20.657242
70.345 20.215996
70.350 19.924906
70.355 18.963419
70.360 18.69166
70.365 18.54575
70.370 18.760401
70.375 18.579048
70.380 18.901749
70.385 19.298311
70.390 19.334265
70.395 19.943583
70.400 20.026821
70.405 19.834637
70.410 20.339182
70.415 20.084204
70.420 19.913267
70.425 20.102858
70.430 19.191933
70.435 18.899586
70.440 18.570324
70.445 17.400835
70.450 17.272974
70.455 17.78216
70.460 17.272331
70.465 17.845278
70.470 18.467119
70.475 18.958364
70.480 19.066929
70.485 19.426147
70.490 19.347305
70.495 19.677881
70.500 20.186491
70.505 20.005346
70.510 20.065836
70.515 20.475164
70.520 20.11804
70.525 20.441565
70.530 20.270613
70.535 19.615974
70.540 19.977392
70.545 19.797855
70.550 19.756823
70.555 19.46414
70.560 19.877462
70.565 19.906485
70.570 20.152323
70.575 20.060982
70.580 19.854847
70.585 19.409746
70.590 19.087969
70.595 18.68891
70.600 18.910923
70.605 18.766804
70.610 18.722698
70.615 18.923994
70.620 19.045353
70.625 19.375967
70.630 19.369598
70.635 19.419804
70.640 19.184381
70.645 19.601151
70.650 19.773159
70.655 19.538654
70.660 20.018805
70.665 20.00218
70.670 19.290318
70.675 19.30706
70.680 18.846989
70.685 18.883381
70.690 19.162992
70.695 18.425613
70.700 18.554874
70.705 18.896208
70.710 18.804558
70.715 18.788668
70.720 19.40078
70.725 19.352669
70.730 19.482437
70.735 19.277887
70.740 18.823233
70.745 18.935236
70.750 18.998825
70.755 18.844997
70.760 18.567019
70.765 18.868771
70.770 19.21417
70.775 20.048481
70.780 20.115025
70.785 20.44425
70.790 20.599768
70.795 21.286304
70.800 21.40151
70.805 20.989054
70.810 20.683683
70.815 20.285294
70.820 19.993202
70.825 19.648167
70.830 18.862072
70.835 18.708244
70.840 18.721027
70.845 18.766626
70.850 18.894815
70.855 18.477314
70.860 18.430357
70.865 18.585756
70.870 18.806017
70.875 18.329556
70.880 17.958599
70.885 18.199223
70.890 18.338856
70.895 18.734596
70.900 18.775141
70.905 18.462528
70.910 19.050282
70.915 19.459192
70.920 19.460066
70.925 19.559656
70.930 18.711765
70.935 19.218409
70.940 19.498856
70.945 19.285757
70.950 18.937496
70.955 19.466852
70.960 19.452744
70.965 19.734407
70.970 19.910412
70.975 19.940557
70.980 20.119633
70.985 20.044279
70.990 19.110069
70.995 18.936621
71.000 19.290277
71.005 19.452051
71.010 19.335865
71.015 19.476196
71.020 19.14329
71.025 18.961296
71.030 19.15353
71.035 18.730633
71.040 18.24074
71.045 18.511385
71.050 18.701181
71.055 19.353807
71.060 19.636112
71.065 19.380867
71.070 19.19928
71.075 19.243607
71.080 19.138357
71.085 18.895515
71.090 18.957634
71.095 19.257774
71.100 19.118681
71.105 19.455338
71.110 18.895832
71.115 18.656321
71.120 18.468
71.125 18.136143
71.130 17.994593
71.135 18.479214
71.140 18.202066
71.145 18.593895
71.150 18.795717
71.155 18.27202
71.160 18.055433
71.165 17.531649
71.170 17.352446
71.175 17.253994
71.180 17.924257
71.185 18.053705
71.190 18.829237
71.195 18.796204
71.200 19.04331
71.205 19.69738
71.210 19.734127
71.215 19.053757
71.220 19.241402
71.225 19.190773
71.230 19.729069
71.235 19.531065
71.240 19.330368
71.245 19.616531
71.250 19.963264
71.255 20.191698
71.260 20.01795
71.265 20.022779
71.270 20.06892
71.275 19.907623
71.280 19.780399
71.285 19.490316
71.290 19.424622
71.295 19.527405
71.300 19.675474
71.305 19.955561
71.310 19.477161
71.315 18.96533
71.320 18.522774
71.325 18.453598
71.330 19.06085
71.335 19.008148
71.340 18.656958
71.345 18.42782
71.350 18.488466
71.355 18.827551
71.360 18.541193
71.365 18.477484
71.370 18.288771
71.375 18.686531
71.380 19.289469
71.385 19.402636
71.390 19.204515
71.395 19.072132
71.400 18.438072
71.405 18.257133
71.410 18.349354
71.415 17.921858
71.420 18.623827
71.425 18.685284
71.430 18.5926
71.435 18.49976
71.440 18.35994
71.445 18.65876
71.450 18.887726
71.455 18.724949
71.460 18.960087
71.465 18.821953
71.470 18.22884
71.475 17.491423
71.480 17.938951
71.485 17.411228
71.490 17.122015
71.495 16.87413
71.500 17.351377
71.505 18.653225
71.510 19.509558
71.515 19.523975
71.520 20.250845
71.525 20.811838
71.530 21.350002
71.535 21.312313
71.540 20.742893
71.545 19.757704
71.550 19.228939
71.555 19.130911
71.560 18.868622
71.565 18.518808
71.570 18.592487
71.575 19.229811
71.580 19.563139
71.585 19.636841
71.590 19.51009
71.595 19.998194
71.600 19.81559
71.605 19.154276
71.610 18.451542
71.615 18.353695
71.620 18.202547
71.625 17.482864
71.630 17.343554
71.635 18.13027
71.640 18.973877
71.645 19.380428
71.650 19.037853
71.655 19.352985
71.660 19.288704
71.665 19.060804
71.670 19.081161
71.675 19.112825
71.680 19.544897
71.685 19.746595
71.690 19.814543
71.695 19.824173
71.700 20.085318
71.705 19.971514
71.710 19.489857
71.715 18.99556
71.720 19.097769
71.725 19.811079
71.730 19.840822
71.735 19.624428
71.740 19.660273
71.745 20.41588
71.750 20.935175
71.755 20.503567
71.760 19.691319
71.765 19.362144
71.770 18.978844
71.775 18.138958
71.780 17.890148
71.785 17.525629
71.790 17.470415
71.795 17.655853
71.800 17.943569
71.805 17.667023
71.810 17.276459
71.815 17.126694
71.820 17.373356
71.825 17.220659
71.830 17.060986
71.835 17.187698
71.840 18.071516
71.845 18.479713
71.850 17.945318
71.855 17.608885
71.860 18.060205
71.865 18.044901
71.870 17.838123
71.875 17.113251
71.880 17.234058
71.885 18.110579
71.890 18.349543
71.895 17.918699
71.900 18.34449
71.905 19.111868
71.910 19.547421
71.915 19.623098
71.920 19.030634
71.925 19.130062
71.930 18.992739
71.935 18.606728
71.940 18.437344
71.945 18.636791
71.950 18.556744
71.955 19.064997
71.960 19.592501
71.965 19.887854
71.970 19.071753
71.975 18.572189
71.980 18.815826
71.985 18.672806
71.990 18.313898
71.995 17.497553
72.000 18.195099
72.005 18.929241
72.010 18.980989
72.015 18.764317
72.020 19.114733
72.025 19.002968
72.030 18.868279
72.035 18.603233
72.040 18.505863
72.045 19.22669
72.050 19.224937
72.055 19.227983
72.060 19.784739
72.065 19.949909
72.070 19.540167
72.075 19.403954
72.080 19.28392
72.085 19.916653
72.090 19.800747
72.095 19.47271
72.100 19.406181
72.105 20.104654
72.110 19.654684
72.115 19.17021
72.120 18.577307
72.125 18.627966
72.130 18.927105
72.135 18.881432
72.140 18.461853
72.145 18.64357
72.150 18.646116
72.155 19.169081
72.160 19.212082
72.165 19.672644
72.170 19.732965
72.175 19.99531
72.180 19.960814
72.185 19.766476
72.190 19.293468
72.195 19.005466
72.200 18.180126
72.205 18.000542
72.210 18.52866
72.215 18.717903
72.220 18.414711
72.225 18.448212
72.230 18.487419
72.235 18.732723
72.240 19.2628
72.245 19.467413
72.250 20.08938
72.255 20.160912
72.260 20.651508
72.265 20.67626
72.270 20.348595
72.275 19.732531
72.280 18.883492
72.285 18.574852
72.290 18.546991
72.295 17.935585
72.300 18.323788
72.305 17.917065
72.310 17.47646
72.315 18.029377
72.320 18.542048
72.325 18.697655
72.330 18.728022
72.335 19.307945
72.340 20.117392
72.345 20.346706
72.350 19.984154
72.355 19.584398
72.360 19.872789
72.365 19.529001
72.370 19.142727
72.375 18.771902
72.380 19.037811
72.385 19.06077
72.390 18.850115
72.395 19.184973
72.400 19.109777
72.405 18.873953
72.410 18.376188
72.415 17.844564
72.420 17.677668
72.425 17.77282
72.430 17.596361
72.435 17.88619
72.440 17.724283
72.445 18.045483
72.450 17.977795
72.455 17.265156
72.460 16.109377
72.465 15.974856
72.470 16.067133
72.475 16.301317
72.480 16.561506
72.485 17.116858
72.490 18.175207
72.495 18.707962
72.500 18.614277
72.505 18.462034
72.510 17.902365
72.515 17.575066
72.520 17.505564
72.525 17.111668
72.530 17.727034
72.535 17.728111
72.540 17.700985
72.545 17.921656
72.550 17.499809
72.555 17.005114
72.560 17.086187
72.565 16.521585
72.570 16.444368
72.575 16.967806
72.580 17.401241
72.585 17.805279
72.590 18.399628
72.595 18.627481
72.600 19.002104
72.605 18.995228
72.610 18.450022
72.615 18.269028
72.620 18.073111
72.625 18.009478
72.630 17.920031
72.635 18.167116
72.640 18.330065
72.645 18.085632
72.650 17.911921
72.655 17.947954
72.660 18.328176
72.665 17.717382
72.670 17.41267
72.675 17.831631
72.680 18.132515
72.685 18.175642
72.690 18.107447
72.695 17.782515
72.700 17.718187
72.705 17.819254
72.710 17.885914
72.715 17.773821
72.720 17.10899
72.725 17.007082
72.730 17.404034
72.735 18.048784
72.740 18.095148
72.745 18.311089
72.750 18.664095
72.755 19.361271
72.760 19.587914
72.765 19.213497
72.770 18.667849
72.775 18.380352
72.780 18.286282
72.785 18.496227
72.790 18.371603
72.795 17.698488
72.800 17.647766
72.805 17.511166
72.810 17.158747
72.815 17.111286
72.820 16.602926
72.825 16.990721
72.830 17.067884
72.835 16.888882
72.840 17.433372
72.845 17.377836
72.850 17.583065
72.855 17.478825
72.860 17.027067
72.865 17.022121
72.870 17.071995
72.875 17.179176
72.880 17.510849
72.885 17.643965
72.890 17.292955
72.895 17.277548
72.900 17.353001
72.905 17.519466
72.910 17.394615
72.915 17.120338
72.920 16.353245
72.925 16.742569
72.930 17.598242
72.935 17.93536
72.940 17.666056
72.945 17.485443
72.950 17.188358
72.955 18.041534
72.960 17.768507
72.965 16.769194
72.970 16.048191
72.975 15.714649
72.980 15.905968
72.985 15.630544
72.990 15.531844
72.995 16.34919
73.000 16.826477
