!@!!GADDS PLOTSO FILE: Chi integration type
!@!!Title/SampleName: map-91
!@!!Comment: ?
!@!!User: Bruker Instrument Administrator
!@!!Site: University of Illinois Chicago
!@!!Frame: map-91_01_000.gfrm
!@!!Wavelengths    1.54184   1.54056   1.54439
!@!!Frame angles: 2Theta: 63.000 Omega: 50.000 Phi: 0.000 Chi: 90.000
!@!!Integration range: 2Theta: 53.000 to 73.000  Gamma: -105.000 to -75.000
!@!!Integration method: bin normalized
!@!N
!@!SS
!@!M
!@!L 0.0 0.0 0.0 0.0
!@!XDegrees
!@!YCounts
53.000 8.462152
53.005 8.419452
53.010 8.434328
53.015 8.339615
53.020 8.538363
53.025 8.241416
53.030 7.928187
53.035 7.617265
53.040 7.562737
53.045 7.372913
53.050 7.017948
53.055 6.79948
53.060 6.860184
53.065 6.668537
53.070 6.718314
53.075 7.174519
53.080 7.485726
53.085 7.535924
53.090 7.61986
53.095 8.072831
53.100 8.551452
53.105 8.798387
53.110 8.741666
53.115 8.594376
53.120 8.650821
53.125 8.627317
53.130 8.400816
53.135 8.682858
53.140 8.111507
53.145 7.944385
53.150 8.25495
53.155 8.33414
53.160 8.413013
53.165 8.471541
53.170 7.892182
53.175 7.87927
53.180 7.514233
53.185 7.299263
53.190 7.595819
53.195 7.257527
53.200 7.145524
53.205 7.378845
53.210 7.537059
53.215 7.970022
53.220 7.868082
53.225 8.159296
53.230 8.465995
53.235 8.768624
53.240 9.20402
53.245 9.381234
53.250 9.349869
53.255 9.179032
53.260 9.17527
53.265 8.736971
53.270 8.289326
53.275 7.690502
53.280 7.823626
53.285 7.936344
53.290 8.48651
53.295 8.107545
53.300 8.621369
53.305 8.848854
53.310 8.93594
53.315 9.208931
53.320 8.674844
53.325 8.009186
53.330 7.98627
53.335 7.777016
53.340 8.147471
53.345 7.829278
53.350 7.468776
53.355 7.866216
53.360 8.171957
53.365 8.38925
53.370 8.446031
53.375 7.9834
53.380 8.077972
53.385 8.530695
53.390 8.688571
53.395 8.839177
53.400 9.006795
53.405 9.266337
53.410 9.346249
53.415 9.249749
53.420 8.618608
53.425 8.399384
53.430 8.077904
53.435 7.621867
53.440 7.283884
53.445 7.232944
53.450 6.963587
53.455 6.897484
53.460 7.143353
53.465 7.074144
53.470 7.384612
53.475 7.522127
53.480 7.892112
53.485 8.186989
53.490 8.080182
53.495 8.129204
53.500 8.197351
53.505 8.235545
53.510 8.197751
53.515 8.228637
53.520 7.874849
53.525 7.523645
53.530 7.432828
53.535 7.231742
53.540 7.315987
53.545 7.473056
53.550 7.491198
53.555 7.864777
53.560 7.877859
53.565 7.645258
53.570 8.085364
53.575 8.060244
53.580 8.274591
53.585 8.193096
53.590 8.26435
53.595 8.90014
53.600 8.918923
53.605 8.633313
53.610 8.35679
53.615 7.848779
53.620 8.134134
53.625 8.07032
53.630 7.722269
53.635 7.850282
53.640 7.593595
53.645 7.958663
53.650 8.470639
53.655 8.569211
53.660 8.815278
53.665 8.813893
53.670 8.929526
53.675 9.452016
53.680 9.310294
53.685 8.981074
53.690 8.776427
53.695 9.139967
53.700 9.208282
53.705 9.410345
53.710 9.504628
53.715 9.656363
53.720 9.975494
53.725 10.406362
53.730 10.129727
53.735 10.374321
53.740 10.118281
53.745 9.975483
53.750 9.912739
53.755 9.835701
53.760 9.775417
53.765 9.566136
53.770 9.388937
53.775 9.269679
53.780 9.254063
53.785 9.202318
53.790 9.025719
53.795 9.119105
53.800 9.551229
53.805 9.341908
53.810 9.144994
53.815 9.345011
53.820 9.33244
53.825 9.695144
53.830 9.379035
53.835 9.119223
53.840 9.535759
53.845 9.347547
53.850 9.025657
53.855 9.25683
53.860 8.708683
53.865 9.100481
53.870 9.537807
53.875 9.559383
53.880 10.013399
53.885 9.834898
53.890 9.650532
53.895 10.069846
53.900 9.919277
53.905 9.69673
53.910 9.383964
53.915 9.303473
53.920 9.327147
53.925 9.126584
53.930 8.669662
53.935 8.649938
53.940 8.880882
53.945 9.02375
53.950 9.203106
53.955 9.376653
53.960 9.381809
53.965 9.324277
53.970 9.022298
53.975 8.857326
53.980 8.732819
53.985 8.478854
53.990 8.494852
53.995 8.483391
54.000 8.709693
54.005 8.496016
54.010 8.328918
54.015 8.192252
54.020 8.06706
54.025 7.810757
54.030 7.898046
54.035 7.59928
54.040 7.902096
54.045 8.143147
54.050 8.462399
54.055 8.759364
54.060 8.874104
54.065 9.206738
54.070 9.582455
54.075 9.869267
54.080 9.754261
54.085 10.095383
54.090 10.415229
54.095 10.512708
54.100 10.108671
54.105 9.864927
54.110 9.450709
54.115 9.222992
54.120 8.789348
54.125 8.307681
54.130 8.171087
54.135 8.18513
54.140 8.433309
54.145 8.621783
54.150 8.601052
54.155 8.860399
54.160 9.03212
54.165 9.030444
54.170 9.322966
54.175 9.627604
54.180 10.200338
54.185 10.013124
54.190 9.56324
54.195 9.348872
54.200 9.713497
54.205 9.547231
54.210 9.223842
54.215 8.93714
54.220 9.0468
54.225 9.502825
54.230 9.565881
54.235 9.16205
54.240 8.9293
54.245 8.758785
54.250 8.693474
54.255 9.014345
54.260 9.099512
54.265 9.353914
54.270 10.075811
54.275 10.263823
54.280 10.431458
54.285 10.311522
54.290 9.95479
54.295 9.974144
54.300 9.612681
54.305 9.055187
54.310 8.939523
54.315 9.151646
54.320 9.292591
54.325 9.248178
54.330 9.419088
54.335 9.154731
54.340 9.259531
54.345 9.24999
54.350 9.101821
54.355 9.265443
54.360 9.390508
54.365 9.1523
54.370 9.24619
54.375 8.987257
54.380 8.688444
54.385 8.318354
54.390 8.258818
54.395 8.343298
54.400 8.85456
54.405 9.192792
54.410 9.575524
54.415 9.904263
54.420 10.211401
54.425 10.372746
54.430 9.972214
54.435 9.617528
54.440 10.291131
54.445 10.338811
54.450 10.005451
54.455 9.860907
54.460 10.187971
54.465 10.451899
54.470 10.045832
54.475 9.212344
54.480 9.54908
54.485 9.460114
54.490 9.35863
54.495 9.171871
54.500 9.30807
54.505 9.906774
54.510 10.085499
54.515 10.397786
54.520 10.76096
54.525 10.762304
54.530 10.40882
54.535 10.290265
54.540 9.595891
54.545 9.801493
54.550 9.732806
54.555 10.146669
54.560 10.657507
54.565 10.733603
54.570 10.569653
54.575 10.974883
54.580 10.613557
54.585 10.209525
54.590 9.552587
54.595 9.493751
54.600 10.203206
54.605 10.418463
54.610 9.716071
54.615 9.715158
54.620 10.096082
54.625 10.014971
54.630 9.713285
54.635 9.137418
54.640 9.184279
54.645 9.659034
54.650 9.663412
54.655 9.773156
54.660 9.870904
54.665 9.677391
54.670 9.619338
54.675 9.982951
54.680 10.129447
54.685 9.764536
54.690 9.505357
54.695 9.803523
54.700 10.412366
54.705 10.768497
54.710 10.538995
54.715 10.381264
54.720 10.639499
54.725 10.586619
54.730 10.149211
54.735 9.85369
54.740 9.666696
54.745 9.903462
54.750 10.307654
54.755 10.168186
54.760 10.631379
54.765 11.273004
54.770 11.789041
54.775 11.606994
54.780 11.201915
54.785 11.090313
54.790 11.266115
54.795 10.742363
54.800 9.927681
54.805 9.810283
54.810 9.823446
54.815 10.093068
54.820 9.977764
54.825 9.661566
54.830 9.571874
54.835 9.418289
54.840 9.192681
54.845 9.431772
54.850 9.267203
54.855 9.382099
54.860 9.002138
54.865 8.914708
54.870 8.870677
54.875 8.730175
54.880 8.990514
54.885 8.611168
54.890 8.633908
54.895 9.14216
54.900 9.475252
54.905 9.991518
54.910 10.298554
54.915 10.094523
54.920 10.360833
54.925 10.207213
54.930 10.354975
54.935 10.354968
54.940 10.214767
54.945 10.555472
54.950 11.248858
54.955 11.276913
54.960 11.648057
54.965 11.591515
54.970 11.82699
54.975 12.061045
54.980 11.700376
54.985 11.34055
54.990 11.614739
54.995 11.270556
55.000 10.969517
55.005 10.626669
55.010 10.064285
55.015 9.686553
55.020 9.617429
55.025 9.520843
55.030 10.179887
55.035 10.26424
55.040 9.866341
55.045 9.945177
55.050 10.051359
55.055 10.385335
55.060 9.99126
55.065 9.889208
55.070 10.044276
55.075 10.431861
55.080 10.632478
55.085 10.381026
55.090 10.114863
55.095 10.231927
55.100 10.087844
55.105 9.919132
55.110 10.213542
55.115 10.040781
55.120 9.961025
55.125 9.855777
55.130 9.940742
55.135 10.393788
55.140 10.496093
55.145 9.950026
55.150 10.152761
55.155 10.390479
55.160 10.60869
55.165 10.494894
55.170 10.205153
55.175 10.383677
55.180 10.606427
55.185 10.61253
55.190 10.108292
55.195 9.675261
55.200 9.466043
55.205 9.507762
55.210 9.408373
55.215 9.052727
55.220 9.271199
55.225 9.569925
55.230 9.673613
55.235 9.553123
55.240 9.303025
55.245 9.469769
55.250 9.594933
55.255 9.034086
55.260 9.215934
55.265 9.687004
55.270 10.217676
55.275 10.397048
55.280 10.751267
55.285 11.011365
55.290 11.495657
55.295 11.59466
55.300 11.145563
55.305 10.606309
55.310 10.34807
55.315 10.111476
55.320 10.233895
55.325 10.087911
55.330 10.065353
55.335 10.344693
55.340 10.697148
55.345 11.011755
55.350 11.221354
55.355 11.049316
55.360 11.272746
55.365 11.135758
55.370 10.963794
55.375 11.20592
55.380 11.040629
55.385 10.819081
55.390 10.98769
55.395 11.163454
55.400 11.638238
55.405 12.018316
55.410 11.799956
55.415 11.735631
55.420 11.744587
55.425 11.525349
55.430 11.201413
55.435 10.801009
55.440 10.759633
55.445 11.032016
55.450 10.99924
55.455 11.528247
55.460 12.446256
55.465 12.469423
55.470 12.629686
55.475 12.185396
55.480 11.984064
55.485 11.799484
55.490 11.451496
55.495 10.674116
55.500 10.240316
55.505 9.967343
55.510 10.284482
55.515 10.158002
55.520 9.718595
55.525 9.470604
55.530 9.764011
55.535 10.333477
55.540 10.509367
55.545 10.76634
55.550 11.133976
55.555 11.590495
55.560 11.412821
55.565 11.205463
55.570 11.143337
55.575 11.178373
55.580 10.789329
55.585 10.808624
55.590 10.56552
55.595 10.874285
55.600 10.53276
55.605 10.338552
55.610 10.074574
55.615 10.070486
55.620 10.068296
55.625 10.111287
55.630 10.049988
55.635 10.14697
55.640 10.051229
55.645 9.543562
55.650 9.580006
55.655 9.645564
55.660 10.093912
55.665 10.285578
55.670 9.982302
55.675 10.230053
55.680 10.644318
55.685 10.86676
55.690 10.976498
55.695 10.412745
55.700 10.272176
55.705 10.807805
55.710 11.229418
55.715 11.264168
55.720 11.129169
55.725 10.958639
55.730 10.88352
55.735 10.94689
55.740 10.760372
55.745 10.22648
55.750 10.10996
55.755 10.199756
55.760 9.914042
55.765 10.265356
55.770 9.986137
55.775 10.208589
55.780 10.623375
55.785 10.587623
55.790 10.611682
55.795 10.656288
55.800 10.863989
55.805 11.141126
55.810 10.722201
55.815 10.673639
55.820 10.495364
55.825 10.604494
55.830 10.546037
55.835 10.725947
55.840 10.991022
55.845 11.212987
55.850 11.560297
55.855 11.616435
55.860 11.718104
55.865 12.027237
55.870 11.450163
55.875 11.67443
55.880 11.908065
55.885 11.949902
55.890 12.157151
55.895 11.817937
55.900 11.641295
55.905 11.880828
55.910 11.822658
55.915 11.33598
55.920 10.780874
55.925 10.341398
55.930 10.576796
55.935 10.653399
55.940 10.426411
55.945 10.285669
55.950 10.694952
55.955 11.008874
55.960 11.444177
55.965 11.495231
55.970 11.70407
55.975 11.553843
55.980 11.82756
55.985 12.295322
55.990 12.469056
55.995 12.272132
56.000 12.071096
56.005 12.134718
56.010 12.354649
56.015 12.473371
56.020 11.957532
56.025 12.04689
56.030 12.48899
56.035 12.687212
56.040 12.727805
56.045 12.095958
56.050 11.423151
56.055 11.226488
56.060 10.884281
56.065 10.62075
56.070 10.447418
56.075 10.539526
56.080 11.038705
56.085 11.018809
56.090 11.32762
56.095 11.544064
56.100 11.309362
56.105 11.002581
56.110 10.824045
56.115 10.531071
56.120 10.298388
56.125 9.609841
56.130 9.433293
56.135 9.990986
56.140 10.745368
56.145 11.076975
56.150 11.328235
56.155 11.748323
56.160 12.466396
56.165 12.813113
56.170 12.70296
56.175 12.190937
56.180 11.592122
56.185 11.514357
56.190 11.669548
56.195 11.532424
56.200 11.414883
56.205 11.507157
56.210 11.713106
56.215 11.938768
56.220 12.146996
56.225 12.35806
56.230 12.085557
56.235 11.547853
56.240 11.343621
56.245 11.535542
56.250 12.179163
56.255 12.098938
56.260 11.550829
56.265 11.236339
56.270 12.04756
56.275 11.704301
56.280 11.046516
56.285 10.41629
56.290 10.746743
56.295 11.145596
56.300 11.711264
56.305 11.232569
56.310 11.522537
56.315 12.265604
56.320 12.800044
56.325 12.486114
56.330 12.661176
56.335 12.561608
56.340 12.902752
56.345 13.019799
56.350 12.719679
56.355 12.703434
56.360 12.995654
56.365 13.093427
56.370 12.804228
56.375 12.47662
56.380 12.368004
56.385 12.760187
56.390 12.523296
56.395 11.984701
56.400 11.788131
56.405 11.529448
56.410 11.170916
56.415 11.273516
56.420 10.78295
56.425 10.48359
56.430 10.696341
56.435 11.086447
56.440 11.38483
56.445 11.696911
56.450 11.348542
56.455 11.542548
56.460 11.904455
56.465 11.951002
56.470 11.471358
56.475 11.644229
56.480 11.651246
56.485 11.802505
56.490 11.769781
56.495 11.369511
56.500 11.010218
56.505 11.241083
56.510 11.129949
56.515 11.328317
56.520 11.788757
56.525 11.976251
56.530 12.251328
56.535 12.807017
56.540 12.720594
56.545 12.594332
56.550 12.255438
56.555 11.684558
56.560 11.878184
56.565 11.951582
56.570 11.750419
56.575 11.531985
56.580 11.291802
56.585 11.568921
56.590 11.331802
56.595 11.27385
56.600 11.188402
56.605 10.893275
56.610 10.835249
56.615 11.159368
56.620 11.287547
56.625 11.832736
56.630 11.875551
56.635 11.909125
56.640 11.992213
56.645 12.037098
56.650 12.196896
56.655 12.132409
56.660 12.098303
56.665 12.111367
56.670 11.868726
56.675 11.907307
56.680 12.298592
56.685 12.399196
56.690 12.357591
56.695 12.856026
56.700 12.87556
56.705 13.447374
56.710 14.049194
56.715 14.066535
56.720 14.000348
56.725 13.95825
56.730 13.421198
56.735 13.455218
56.740 13.260146
56.745 13.1016
56.750 12.352293
56.755 12.09399
56.760 11.685077
56.765 11.486237
56.770 11.035578
56.775 11.020896
56.780 11.488272
56.785 11.829794
56.790 11.645433
56.795 12.030167
56.800 12.245125
56.805 12.556332
56.810 12.447095
56.815 11.977991
56.820 12.109819
56.825 12.570936
56.830 12.115327
56.835 11.727348
56.840 12.097758
56.845 12.010446
56.850 12.377235
56.855 12.435652
56.860 12.001347
56.865 12.44126
56.870 12.654218
56.875 12.388097
56.880 12.352603
56.885 12.063451
56.890 12.214256
56.895 12.533538
56.900 12.556589
56.905 12.771911
56.910 12.781887
56.915 12.637965
56.920 12.765512
56.925 12.612128
56.930 12.357614
56.935 11.93315
56.940 11.58607
56.945 11.790942
56.950 12.013874
56.955 12.436397
56.960 12.422321
56.965 13.315905
56.970 14.316453
56.975 15.056256
56.980 15.073445
56.985 14.911654
56.990 14.564265
56.995 14.46225
57.000 14.34687
57.005 14.079223
57.010 13.561915
57.015 13.274687
57.020 13.407025
57.025 13.417706
57.030 12.933135
57.035 11.939932
57.040 11.334025
57.045 11.066832
57.050 11.387441
57.055 11.449833
57.060 11.337835
57.065 11.345355
57.070 11.678838
57.075 12.059775
57.080 12.573653
57.085 12.549962
57.090 12.247249
57.095 12.475519
57.100 12.728031
57.105 12.138989
57.110 11.667609
57.115 11.171175
57.120 10.678205
57.125 10.844484
57.130 10.943188
57.135 11.102734
57.140 11.948427
57.145 12.613394
57.150 13.388153
57.155 13.750032
57.160 13.575095
57.165 13.129901
57.170 12.906474
57.175 12.342664
57.180 11.831748
57.185 11.201364
57.190 11.275681
57.195 11.401496
57.200 11.75315
57.205 12.266567
57.210 12.602722
57.215 12.548915
57.220 12.906313
57.225 13.004496
57.230 13.195426
57.235 13.526572
57.240 13.601954
57.245 13.148053
57.250 12.846293
57.255 12.635467
57.260 12.323366
57.265 12.439907
57.270 12.381824
57.275 11.884275
57.280 12.742773
57.285 12.746064
57.290 12.651972
57.295 12.771277
57.300 12.321889
57.305 12.246727
57.310 12.388736
57.315 12.088307
57.320 13.057115
57.325 13.406761
57.330 13.793958
57.335 14.239732
57.340 13.997636
57.345 13.961719
57.350 13.743467
57.355 13.241256
57.360 12.835181
57.365 12.301442
57.370 11.876687
57.375 11.848555
57.380 12.625627
57.385 13.273409
57.390 13.477888
57.395 13.713407
57.400 14.189662
57.405 14.627956
57.410 14.833071
57.415 14.254179
57.420 13.901336
57.425 13.750406
57.430 13.656013
57.435 13.512493
57.440 13.116645
57.445 12.853398
57.450 12.281532
57.455 12.455276
57.460 12.372365
57.465 12.558034
57.470 12.145782
57.475 12.522321
57.480 12.696021
57.485 12.87995
57.490 12.98513
57.495 13.29451
57.500 13.553603
57.505 14.156143
57.510 14.061499
57.515 14.024345
57.520 14.200772
57.525 14.261301
57.530 14.689177
57.535 14.276813
57.540 14.054069
57.545 14.445051
57.550 14.54368
57.555 15.020221
57.560 14.839067
57.565 14.293005
57.570 14.595901
57.575 14.430688
57.580 13.944225
57.585 13.989216
57.590 13.430575
57.595 13.107424
57.600 13.198726
57.605 13.071599
57.610 12.648419
57.615 12.664187
57.620 12.6597
57.625 12.10539
57.630 12.08504
57.635 12.022573
57.640 12.068622
57.645 12.535975
57.650 12.509297
57.655 12.400103
57.660 12.748288
57.665 12.774325
57.670 13.104943
57.675 13.437376
57.680 13.472189
57.685 14.191066
57.690 14.624275
57.695 14.812783
57.700 15.091836
57.705 14.894454
57.710 14.539716
57.715 14.406665
57.720 14.113832
57.725 14.25425
57.730 14.348574
57.735 14.153644
57.740 14.193908
57.745 14.416841
57.750 14.650906
57.755 14.127299
57.760 13.840687
57.765 13.500896
57.770 13.351908
57.775 13.491715
57.780 13.369037
57.785 13.228913
57.790 13.459435
57.795 13.584594
57.800 13.821062
57.805 14.042678
57.810 13.964408
57.815 14.030913
57.820 14.255483
57.825 14.310643
57.830 14.354337
57.835 14.371317
57.840 14.869807
57.845 14.890295
57.850 14.888374
57.855 14.391071
57.860 14.385789
57.865 14.369946
57.870 14.671005
57.875 14.682193
57.880 14.672569
57.885 14.653799
57.890 15.244313
57.895 15.245838
57.900 14.913628
57.905 14.554829
57.910 14.446157
57.915 14.584353
57.920 15.14499
57.925 15.379539
57.930 15.8234
57.935 16.234274
57.940 16.320225
57.945 16.278847
57.950 16.065514
57.955 15.628676
57.960 15.159779
57.965 14.50697
57.970 14.304362
57.975 14.240005
57.980 13.909251
57.985 13.764813
57.990 13.415468
57.995 13.442376
58.000 13.827848
58.005 13.862086
58.010 13.697863
58.015 13.504992
58.020 13.336226
58.025 13.661553
58.030 13.954662
58.035 14.419357
58.040 14.987737
58.045 15.428024
58.050 15.520409
58.055 16.290216
58.060 16.039352
58.065 15.574679
58.070 14.822075
58.075 14.498078
58.080 14.143244
58.085 14.244098
58.090 14.076572
58.095 14.265896
58.100 14.292239
58.105 14.506312
58.110 14.251024
58.115 14.6552
58.120 14.988256
58.125 14.310745
58.130 14.69842
58.135 15.191133
58.140 15.700212
58.145 16.220366
58.150 15.666107
58.155 15.848382
58.160 16.182915
58.165 15.951106
58.170 15.560939
58.175 15.213742
58.180 15.504632
58.185 15.509491
58.190 15.642751
58.195 15.858665
58.200 16.158617
58.205 16.273149
58.210 16.427156
58.215 16.014572
58.220 16.549316
58.225 16.478443
58.230 16.157663
58.235 16.103924
58.240 15.74939
58.245 15.458973
58.250 15.503577
58.255 15.812074
58.260 15.888652
58.265 15.791404
58.270 15.479156
58.275 15.271677
58.280 15.619111
58.285 15.864505
58.290 15.948314
58.295 16.216677
58.300 16.609331
58.305 17.252865
58.310 17.847586
58.315 17.661491
58.320 17.241182
58.325 16.854052
58.330 16.575729
58.335 16.125584
58.340 15.622176
58.345 15.871296
58.350 15.660852
58.355 16.125694
58.360 16.292149
58.365 17.373146
58.370 18.08807
58.375 18.325403
58.380 17.935184
58.385 18.280365
58.390 18.739708
58.395 18.994633
58.400 18.853874
58.405 19.402054
58.410 19.764858
58.415 20.542515
58.420 20.760641
58.425 20.720245
58.430 21.073757
58.435 21.44935
58.440 21.494621
58.445 21.36195
58.450 21.197369
58.455 21.662292
58.460 22.21929
58.465 21.763603
58.470 21.200939
58.475 21.108622
58.480 21.866076
58.485 22.767841
58.490 23.713167
58.495 24.537783
58.500 25.650148
58.505 26.464054
58.510 27.132599
58.515 27.107861
58.520 26.817711
58.525 26.715612
58.530 26.982401
58.535 27.618734
58.540 28.20257
58.545 28.326099
58.550 28.407728
58.555 28.943476
58.560 29.524841
58.565 29.259657
58.570 28.967478
58.575 29.186745
58.580 29.798794
58.585 30.571072
58.590 30.761744
58.595 30.619328
58.600 30.75231
58.605 31.659737
58.610 32.17318
58.615 32.148792
58.620 32.210133
58.625 33.010803
58.630 33.111923
58.635 33.091045
58.640 32.862415
58.645 33.162361
58.650 33.719059
58.655 34.460526
58.660 35.348007
58.665 36.282127
58.670 36.76305
58.675 36.499649
58.680 35.968739
58.685 35.579803
58.690 35.291981
58.695 34.607224
58.700 34.319851
58.705 35.158913
58.710 34.79985
58.715 34.759598
58.720 34.596096
58.725 34.391415
58.730 34.476284
58.735 34.53471
58.740 34.141392
58.745 34.156857
58.750 33.800816
58.755 33.521057
58.760 33.778812
58.765 34.160526
58.770 34.344009
58.775 34.042141
58.780 33.624218
58.785 33.126991
58.790 32.554707
58.795 31.229576
58.800 29.214621
58.805 27.554523
58.810 27.13681
58.815 26.818771
58.820 26.407696
58.825 26.281176
58.830 25.908312
58.835 25.438566
58.840 26.139328
58.845 25.360273
58.850 25.982111
58.855 26.011515
58.860 26.234701
58.865 25.943796
58.870 25.109961
58.875 24.074493
58.880 23.606279
58.885 22.705042
58.890 22.081858
58.895 21.430861
58.900 21.659563
58.905 21.832455
58.910 21.96438
58.915 22.342133
58.920 22.727392
58.925 23.168491
58.930 23.616667
58.935 23.403357
58.940 23.260143
58.945 22.634056
58.950 21.883207
58.955 21.44335
58.960 20.792177
58.965 20.179934
58.970 20.106621
58.975 19.85166
58.980 19.894215
58.985 20.021494
58.990 19.416033
58.995 18.636902
59.000 18.494137
59.005 18.126753
59.010 18.037016
59.015 18.413631
59.020 17.825085
59.025 17.827173
59.030 17.940159
59.035 17.820896
59.040 18.106646
59.045 17.359703
59.050 16.324493
59.055 16.157621
59.060 16.211782
59.065 16.387342
59.070 16.267632
59.075 15.711545
59.080 15.522499
59.085 15.693612
59.090 15.676824
59.095 15.947964
59.100 15.971791
59.105 15.578808
59.110 15.739386
59.115 16.460016
59.120 16.578508
59.125 16.597639
59.130 16.351795
59.135 16.219995
59.140 16.36684
59.145 16.153374
59.150 15.869216
59.155 16.314993
59.160 16.487413
59.165 16.624218
59.170 16.432337
59.175 16.147739
59.180 15.860715
59.185 15.567393
59.190 15.427321
59.195 14.891136
59.200 14.728819
59.205 15.456535
59.210 15.93768
59.215 15.631735
59.220 15.853511
59.225 15.83545
59.230 15.971604
59.235 15.403383
59.240 14.820901
59.245 14.595521
59.250 15.225544
59.255 14.576768
59.260 13.901258
59.265 14.27194
59.270 14.442101
59.275 14.562438
59.280 14.94328
59.285 14.75872
59.290 15.205259
59.295 15.98973
59.300 16.147614
59.305 16.165052
59.310 16.520376
59.315 16.588858
59.320 16.8491
59.325 17.260929
59.330 16.989647
59.335 16.669001
59.340 16.460955
59.345 15.826854
59.350 15.367485
59.355 14.508316
59.360 14.245329
59.365 14.335415
59.370 14.183097
59.375 14.417635
59.380 14.382988
59.385 14.515867
59.390 14.897592
59.395 14.441618
59.400 14.464536
59.405 14.462264
59.410 14.348416
59.415 13.962661
59.420 13.696291
59.425 13.524797
59.430 13.832808
59.435 13.893787
59.440 14.003835
59.445 14.132866
59.450 14.383098
59.455 14.716241
59.460 15.34151
59.465 15.019001
59.470 14.990149
59.475 14.785296
59.480 14.760959
59.485 15.136356
59.490 14.719203
59.495 14.596986
59.500 14.793762
59.505 14.363617
59.510 14.212865
59.515 13.834701
59.520 13.652909
59.525 14.352473
59.530 13.981725
59.535 13.033322
59.540 12.894515
59.545 13.010726
59.550 13.051379
59.555 12.817485
59.560 12.630315
59.565 12.764266
59.570 14.215251
59.575 14.837034
59.580 14.768638
59.585 14.773319
59.590 14.88291
59.595 14.825122
59.600 14.700487
59.605 13.859324
59.610 13.787059
59.615 13.858541
59.620 14.099181
59.625 14.048893
59.630 14.10525
59.635 13.744743
59.640 14.092012
59.645 14.505125
59.650 14.64851
59.655 14.84035
59.660 14.954742
59.665 15.116261
59.670 15.368114
59.675 14.916159
59.680 14.70921
59.685 14.562925
59.690 14.1549
59.695 14.135794
59.700 14.537112
59.705 14.719724
59.710 14.955064
59.715 14.686817
59.720 14.68196
59.725 14.622314
59.730 14.402479
59.735 14.22373
59.740 14.423291
59.745 14.433372
59.750 14.487176
59.755 14.651894
59.760 15.133816
59.765 15.121654
59.770 14.757226
59.775 14.627046
59.780 14.654178
59.785 14.976088
59.790 15.203057
59.795 14.929609
59.800 14.599196
59.805 14.383143
59.810 14.090074
59.815 13.769034
59.820 13.675335
59.825 13.631111
59.830 13.980003
59.835 14.369383
59.840 14.539033
59.845 14.672312
59.850 14.351088
59.855 14.347226
59.860 13.784558
59.865 13.461607
59.870 13.927999
59.875 14.068362
59.880 14.357406
59.885 14.474977
59.890 14.929084
59.895 15.277032
59.900 14.975965
59.905 14.508366
59.910 14.004279
59.915 13.595311
59.920 13.702446
59.925 13.71528
59.930 13.713584
59.935 14.043269
59.940 14.246655
59.945 14.649612
59.950 15.046493
59.955 14.876684
59.960 14.481621
59.965 14.492795
59.970 14.153946
59.975 14.003515
59.980 14.203263
59.985 14.609519
59.990 15.104722
59.995 15.256422
60.000 15.656583
60.005 15.850833
60.010 15.546686
60.015 14.825478
60.020 14.391768
60.025 13.986041
60.030 13.516684
60.035 13.063413
60.040 13.640177
60.045 14.324764
60.050 14.336141
60.055 14.130625
60.060 14.131097
60.065 14.359335
60.070 14.387694
60.075 14.208742
60.080 14.326751
60.085 15.263103
60.090 15.620656
60.095 15.512672
60.100 15.574033
60.105 15.731177
60.110 15.3559
60.115 14.957112
60.120 14.468781
60.125 14.577342
60.130 14.451949
60.135 14.474755
60.140 13.917426
60.145 13.929788
60.150 13.685734
60.155 13.582872
60.160 13.349297
60.165 13.543659
60.170 13.708449
60.175 13.767457
60.180 13.684551
60.185 13.916059
60.190 13.803854
60.195 13.80067
60.200 13.824324
60.205 13.701024
60.210 13.613263
60.215 13.350018
60.220 13.210692
60.225 13.071188
60.230 13.283959
60.235 13.421339
60.240 13.440789
60.245 14.103917
60.250 14.916492
60.255 15.0217
60.260 15.510856
60.265 15.014353
60.270 14.712905
60.275 14.742008
60.280 14.515547
60.285 14.44307
60.290 14.411777
60.295 14.365273
60.300 14.727911
60.305 15.034445
60.310 15.348415
60.315 15.169807
60.320 14.620908
60.325 14.332532
60.330 14.54054
60.335 14.720606
60.340 14.097697
60.345 13.910999
60.350 14.325383
60.355 14.555419
60.360 14.707011
60.365 14.22751
60.370 14.400518
60.375 14.542899
60.380 13.977504
60.385 13.140992
60.390 13.102541
60.395 13.119613
60.400 12.787015
60.405 12.562996
60.410 12.76953
60.415 12.92709
60.420 13.587978
60.425 13.772761
60.430 13.347536
60.435 13.494323
60.440 13.389087
60.445 13.127077
60.450 13.145848
60.455 12.926985
60.460 13.145941
60.465 14.069197
60.470 14.55805
60.475 15.408346
60.480 15.909506
60.485 16.568197
60.490 17.061811
60.495 17.018099
60.500 16.982767
60.505 16.995569
60.510 16.510946
60.515 16.038548
60.520 15.335694
60.525 14.60883
60.530 14.595704
60.535 13.981146
60.540 13.70551
60.545 13.702679
60.550 14.272098
60.555 14.578031
60.560 14.792784
60.565 14.320609
60.570 14.894774
60.575 15.151788
60.580 14.688623
60.585 14.356565
60.590 14.573383
60.595 14.908403
60.600 14.749004
60.605 13.870056
60.610 13.722395
60.615 14.174586
60.620 14.211082
60.625 13.946702
60.630 13.96463
60.635 14.633207
60.640 15.150381
60.645 14.977732
60.650 14.510995
60.655 14.505529
60.660 14.703453
60.665 14.244306
60.670 14.135609
60.675 14.693892
60.680 14.686918
60.685 14.960095
60.690 14.857994
60.695 14.771219
60.700 15.083968
60.705 14.634353
60.710 13.429127
60.715 13.380345
60.720 13.237871
60.725 13.52479
60.730 13.502371
60.735 13.422108
60.740 13.933528
60.745 14.560366
60.750 14.558963
60.755 14.925322
60.760 14.810651
60.765 15.308203
60.770 15.370187
60.775 15.150568
60.780 15.210904
60.785 15.391672
60.790 15.486496
60.795 15.535409
60.800 15.295043
60.805 15.314112
60.810 15.187605
60.815 14.940564
60.820 14.897853
60.825 14.489635
60.830 14.458019
60.835 14.222817
60.840 14.09311
60.845 14.135129
60.850 15.077523
60.855 15.49662
60.860 15.529937
60.865 15.479496
60.870 15.790947
60.875 15.68043
60.880 15.371463
60.885 14.791338
60.890 14.739694
60.895 14.732725
60.900 14.568966
60.905 14.301311
60.910 14.240423
60.915 14.911173
60.920 14.621363
60.925 14.011483
60.930 13.914053
60.935 14.048299
60.940 13.963369
60.945 13.85184
60.950 13.292808
60.955 13.787355
60.960 14.300465
60.965 13.85518
60.970 13.921101
60.975 14.394224
60.980 14.738048
60.985 15.018524
60.990 14.529303
60.995 14.648873
61.000 15.089699
61.005 14.930125
61.010 14.84339
61.015 14.614718
61.020 14.382062
61.025 13.929962
61.030 13.852277
61.035 14.242382
61.040 14.533291
61.045 14.341166
61.050 14.918793
61.055 14.920784
61.060 15.659756
61.065 16.076899
61.070 15.477415
61.075 15.115929
61.080 14.574493
61.085 14.253238
61.090 15.122828
61.095 15.2181
61.100 15.155348
61.105 15.354581
61.110 15.696212
61.115 16.700401
61.120 16.455122
61.125 15.031936
61.130 14.64814
61.135 14.012512
61.140 13.929394
61.145 13.515202
61.150 13.202147
61.155 13.682647
61.160 14.704707
61.165 15.045046
61.170 15.733925
61.175 15.700697
61.180 15.719625
61.185 15.242311
61.190 14.744026
61.195 14.822144
61.200 15.115121
61.205 15.109976
61.210 15.563806
61.215 15.480846
61.220 15.720443
61.225 16.402273
61.230 16.733303
61.235 16.142544
61.240 16.254259
61.245 16.263412
61.250 16.541967
61.255 16.627403
61.260 16.224398
61.265 15.209612
61.270 14.919606
61.275 14.209962
61.280 14.308154
61.285 14.241759
61.290 14.248271
61.295 14.439396
61.300 14.756598
61.305 15.386857
61.310 15.496273
61.315 15.524347
61.320 15.849321
61.325 15.494542
61.330 15.165186
61.335 14.948277
61.340 14.873569
61.345 15.12143
61.350 15.20596
61.355 15.188153
61.360 15.653887
61.365 15.883897
61.370 15.794032
61.375 15.955388
61.380 15.832788
61.385 15.780217
61.390 15.917499
61.395 15.606141
61.400 15.590529
61.405 15.956868
61.410 15.882473
61.415 15.660538
61.420 15.16287
61.425 14.980168
61.430 15.03715
61.435 14.548033
61.440 14.118976
61.445 14.096106
61.450 14.662501
61.455 14.815245
61.460 14.628025
61.465 15.039658
61.470 15.435056
61.475 15.488626
61.480 15.522252
61.485 15.001205
61.490 15.035903
61.495 15.082339
61.500 14.982653
61.505 14.671983
61.510 14.363532
61.515 14.075861
61.520 13.973112
61.525 13.786028
61.530 13.78733
61.535 13.490901
61.540 14.143838
61.545 14.880081
61.550 15.242501
61.555 15.935828
61.560 16.354851
61.565 16.551802
61.570 16.925676
61.575 16.63345
61.580 16.882341
61.585 16.656506
61.590 16.516743
61.595 16.237698
61.600 16.132242
61.605 16.014265
61.610 16.242893
61.615 16.002819
61.620 15.820395
61.625 15.293891
61.630 14.863052
61.635 14.581376
61.640 14.683375
61.645 14.689355
61.650 14.748218
61.655 14.779576
61.660 15.299336
61.665 15.753063
61.670 16.121256
61.675 16.369938
61.680 15.912779
61.685 15.613774
61.690 15.470165
61.695 15.220264
61.700 14.787498
61.705 14.714971
61.710 14.253162
61.715 14.437618
61.720 15.066337
61.725 15.523322
61.730 16.059343
61.735 16.439608
61.740 16.523359
61.745 16.762844
61.750 16.958971
61.755 16.656757
61.760 16.676304
61.765 16.271811
61.770 15.862855
61.775 15.688427
61.780 15.577591
61.785 15.079223
61.790 14.907193
61.795 14.247088
61.800 14.16622
61.805 14.291486
61.810 14.545171
61.815 15.040144
61.820 15.104327
61.825 15.199864
61.830 15.668116
61.835 15.692534
61.840 15.911716
61.845 15.704108
61.850 15.201386
61.855 15.951044
61.860 16.577839
61.865 16.800983
61.870 17.350327
61.875 17.402668
61.880 18.03796
61.885 18.65469
61.890 18.468107
61.895 18.120096
61.900 18.464808
61.905 18.50209
61.910 18.697746
61.915 18.314812
61.920 18.117542
61.925 17.554708
61.930 17.290052
61.935 17.22086
61.940 17.082344
61.945 16.521303
61.950 15.937819
61.955 15.530759
61.960 15.771656
61.965 15.536431
61.970 15.167373
61.975 14.808628
61.980 15.440469
61.985 15.811897
61.990 15.837203
61.995 16.36356
62.000 16.99766
62.005 17.185585
62.010 17.379284
62.015 16.802042
62.020 16.586744
62.025 16.896635
62.030 16.398102
62.035 16.178011
62.040 15.954281
62.045 15.795803
62.050 15.781863
62.055 16.108032
62.060 15.845948
62.065 16.029524
62.070 15.788289
62.075 15.530062
62.080 15.742285
62.085 15.612535
62.090 15.062852
62.095 14.964499
62.100 14.397481
62.105 14.204765
62.110 14.208387
62.115 13.929234
62.120 14.003864
62.125 14.406746
62.130 14.539974
62.135 14.819814
62.140 15.145187
62.145 15.23865
62.150 15.456517
62.155 15.51815
62.160 15.57514
62.165 15.911842
62.170 16.542534
62.175 17.312593
62.180 17.676241
62.185 18.291651
62.190 18.441916
62.195 18.248646
62.200 17.538916
62.205 16.600718
62.210 15.932542
62.215 15.80867
62.220 15.506532
62.225 15.542682
62.230 15.610147
62.235 16.114868
62.240 16.598738
62.245 16.338303
62.250 16.190153
62.255 15.666274
62.260 15.689459
62.265 15.873303
62.270 15.55703
62.275 15.370988
62.280 15.47447
62.285 15.507342
62.290 15.851238
62.295 15.549433
62.300 15.30723
62.305 15.41135
62.310 14.765016
62.315 14.795215
62.320 14.760808
62.325 14.779901
62.330 14.958585
62.335 15.020664
62.340 15.266469
62.345 15.709271
62.350 15.441627
62.355 15.488794
62.360 15.338901
62.365 15.609985
62.370 15.840835
62.375 15.867887
62.380 16.141998
62.385 16.31134
62.390 16.481533
62.395 16.758083
62.400 16.813723
62.405 16.592966
62.410 17.007179
62.415 17.707417
62.420 17.280674
62.425 16.729334
62.430 16.449757
62.435 16.372595
62.440 16.340794
62.445 15.928572
62.450 15.932081
62.455 16.609142
62.460 17.164719
62.465 17.56011
62.470 17.693466
62.475 17.653744
62.480 17.479597
62.485 16.684452
62.490 16.679735
62.495 16.774855
62.500 16.597006
62.505 16.202343
62.510 16.129883
62.515 15.693595
62.520 15.58414
62.525 15.448027
62.530 15.108006
62.535 14.957164
62.540 14.940435
62.545 14.588783
62.550 14.439961
62.555 14.767228
62.560 14.564952
62.565 14.400636
62.570 14.28968
62.575 14.542249
62.580 15.169828
62.585 15.709245
62.590 16.00456
62.595 15.910729
62.600 16.109348
62.605 15.698524
62.610 15.375037
62.615 15.236646
62.620 15.002387
62.625 14.866352
62.630 14.801507
62.635 14.930177
62.640 15.08665
62.645 15.374618
62.650 15.518826
62.655 15.112131
62.660 15.226454
62.665 15.828385
62.670 15.588508
62.675 15.737977
62.680 15.749125
62.685 15.328862
62.690 15.711576
62.695 15.919452
62.700 16.082417
62.705 16.024485
62.710 15.772042
62.715 15.625836
62.720 16.540361
62.725 16.732029
62.730 16.713694
62.735 16.540348
62.740 16.699226
62.745 16.970301
62.750 17.226213
62.755 17.17071
62.760 17.251186
62.765 16.794073
62.770 16.780746
62.775 16.437752
62.780 16.445602
62.785 16.400614
62.790 15.636684
62.795 15.525419
62.800 15.356419
62.805 15.535684
62.810 16.295586
62.815 16.281569
62.820 16.002016
62.825 16.142748
62.830 15.9975
62.835 16.085876
62.840 16.486542
62.845 16.753344
62.850 17.465019
62.855 17.61154
62.860 17.893024
62.865 18.296967
62.870 18.741558
62.875 18.262293
62.880 17.31625
62.885 16.623383
62.890 16.439331
62.895 16.073242
62.900 15.819943
62.905 15.87639
62.910 16.110447
62.915 16.307959
62.920 16.216177
62.925 16.202425
62.930 15.479355
62.935 15.32655
62.940 14.996525
62.945 14.825317
62.950 15.518433
62.955 15.539687
62.960 15.951218
62.965 16.730949
62.970 16.862915
62.975 16.702612
62.980 16.647587
62.985 16.580381
62.990 16.816053
62.995 16.928362
63.000 17.151047
63.005 17.544817
63.010 17.683033
63.015 17.616774
63.020 17.716812
63.025 17.595219
63.030 17.22694
63.035 17.435167
63.040 16.922541
63.045 17.090065
63.050 16.719769
63.055 16.552921
63.060 16.897179
63.065 17.061098
63.070 17.163084
63.075 17.445873
63.080 17.712706
63.085 17.795525
63.090 17.481491
63.095 17.153948
63.100 17.15896
63.105 16.431171
63.110 16.146982
63.115 16.387323
63.120 16.478304
63.125 16.59803
63.130 16.933008
63.135 16.653095
63.140 17.176895
63.145 16.873142
63.150 16.29455
63.155 16.702263
63.160 16.48114
63.165 16.139919
63.170 16.255783
63.175 16.148806
63.180 16.128748
63.185 15.858515
63.190 15.282484
63.195 15.304283
63.200 15.769755
63.205 16.495153
63.210 16.680382
63.215 16.486816
63.220 17.222614
63.225 17.750942
63.230 17.924438
63.235 17.492599
63.240 17.193695
63.245 16.56584
63.250 16.812805
63.255 17.026197
63.260 17.240305
63.265 17.123379
63.270 16.546371
63.275 16.149433
63.280 16.71756
63.285 16.671478
63.290 15.70153
63.295 15.255685
63.300 15.191949
63.305 15.392143
63.310 15.549712
63.315 16.033859
63.320 16.196384
63.325 16.17914
63.330 15.957003
63.335 16.43461
63.340 16.610123
63.345 16.550875
63.350 16.033419
63.355 16.268002
63.360 16.53051
63.365 16.51399
63.370 16.182344
63.375 16.528173
63.380 16.952137
63.385 17.234974
63.390 17.363619
63.395 17.788063
63.400 18.456087
63.405 18.449892
63.410 18.088356
63.415 18.010311
63.420 17.877085
63.425 17.989122
63.430 17.630936
63.435 17.623791
63.440 17.574089
63.445 17.759165
63.450 17.826447
63.455 18.218102
63.460 18.223858
63.465 18.327276
63.470 17.957254
63.475 18.324629
63.480 18.095503
63.485 18.124947
63.490 17.272167
63.495 17.21702
63.500 17.40279
63.505 17.812387
63.510 17.688105
63.515 17.985294
63.520 17.315033
63.525 17.313379
63.530 17.23621
63.535 17.327158
63.540 17.516478
63.545 16.939217
63.550 16.695169
63.555 17.007074
63.560 16.74082
63.565 16.668018
63.570 16.304989
63.575 16.149609
63.580 16.575218
63.585 16.518467
63.590 16.604345
63.595 16.695158
63.600 16.687634
63.605 16.518305
63.610 16.169889
63.615 15.92327
63.620 15.968993
63.625 15.920547
63.630 16.480968
63.635 16.155458
63.640 16.109594
63.645 16.558491
63.650 16.992462
63.655 16.640451
63.660 17.014101
63.665 17.065643
63.670 17.238844
63.675 17.517023
63.680 17.696957
63.685 17.868484
63.690 18.438185
63.695 18.536501
63.700 19.39448
63.705 19.280073
63.710 19.560513
63.715 19.381123
63.720 19.11779
63.725 18.689117
63.730 18.439219
63.735 17.097876
63.740 17.316158
63.745 16.989662
63.750 17.065798
63.755 17.195503
63.760 17.222084
63.765 17.244669
63.770 17.430723
63.775 17.498772
63.780 17.816772
63.785 18.020378
63.790 18.109222
63.795 18.268103
63.800 18.135843
63.805 18.106283
63.810 17.785477
63.815 17.222654
63.820 16.799112
63.825 17.030676
63.830 16.585361
63.835 16.133741
63.840 16.502182
63.845 16.464209
63.850 16.359982
63.855 16.193764
63.860 16.185415
63.865 16.709156
63.870 17.113928
63.875 17.007652
63.880 17.006357
63.885 17.511156
63.890 18.130089
63.895 17.947662
63.900 17.828808
63.905 17.848877
63.910 17.675138
63.915 17.624493
63.920 17.622164
63.925 17.496759
63.930 17.582499
63.935 18.173126
63.940 18.135031
63.945 18.180191
63.950 18.561153
63.955 18.295008
63.960 18.086203
63.965 18.534098
63.970 18.743542
63.975 19.81731
63.980 20.936415
63.985 20.654087
63.990 20.931219
63.995 21.530645
64.000 21.878336
64.005 21.82597
64.010 21.481731
64.015 21.40237
64.020 22.381641
64.025 22.353243
64.030 22.163494
64.035 21.533751
64.040 21.235476
64.045 21.725595
64.050 21.283825
64.055 20.865004
64.060 20.614956
64.065 21.008997
64.070 20.990635
64.075 21.12805
64.080 20.661785
64.085 21.060177
64.090 21.869257
64.095 22.449333
64.100 21.777514
64.105 22.300829
64.110 22.551023
64.115 23.054104
64.120 23.422022
64.125 22.628448
64.130 22.672186
64.135 23.513952
64.140 24.098892
64.145 24.381056
64.150 24.700247
64.155 24.966284
64.160 25.316669
64.165 26.143648
64.170 26.464098
64.175 26.176331
64.180 26.402697
64.185 26.757582
64.190 27.354126
64.195 28.373871
64.200 28.619442
64.205 28.926394
64.210 29.884157
64.215 30.289171
64.220 31.067135
64.225 31.696066
64.230 31.775476
64.235 32.406136
64.240 32.837296
64.245 33.606819
64.250 33.849712
64.255 34.49884
64.260 35.400551
64.265 35.794796
64.270 36.112003
64.275 35.710453
64.280 34.748539
64.285 35.150757
64.290 35.448616
64.295 36.244492
64.300 37.260662
64.305 38.825729
64.310 40.081623
64.315 41.688957
64.320 42.657814
64.325 43.783974
64.330 44.477322
64.335 43.953907
64.340 43.872276
64.345 44.667549
64.350 45.320313
64.355 45.800556
64.360 46.497227
64.365 46.546135
64.370 47.592705
64.375 47.193306
64.380 46.792339
64.385 47.010796
64.390 46.567017
64.395 45.914131
64.400 46.261204
64.405 46.714184
64.410 47.315434
64.415 48.181278
64.420 47.84079
64.425 48.154621
64.430 49.061008
64.435 49.221119
64.440 50.208084
64.445 50.647343
64.450 50.753193
64.455 50.62476
64.460 50.455379
64.465 50.78347
64.470 49.852726
64.475 48.929943
64.480 48.255848
64.485 47.99324
64.490 48.864944
64.495 49.231968
64.500 47.870758
64.505 48.327579
64.510 47.428261
64.515 46.457554
64.520 46.222565
64.525 45.948112
64.530 45.57201
64.535 44.985989
64.540 45.333023
64.545 45.080521
64.550 44.922428
64.555 44.323868
64.560 43.455437
64.565 43.006973
64.570 42.766827
64.575 41.30434
64.580 40.964268
64.585 40.637226
64.590 39.814877
64.595 39.275639
64.600 39.295532
64.605 38.922195
64.610 39.204525
64.615 39.145966
64.620 38.935814
64.625 38.975697
64.630 38.486008
64.635 38.056076
64.640 37.239449
64.645 35.94408
64.650 35.438534
64.655 34.629642
64.660 33.796711
64.665 32.723778
64.670 31.879128
64.675 31.076313
64.680 31.059561
64.685 30.558886
64.690 30.101938
64.695 30.033653
64.700 30.162615
64.705 29.668674
64.710 29.484119
64.715 29.010349
64.720 29.443796
64.725 29.924671
64.730 29.617743
64.735 29.523226
64.740 29.752544
64.745 28.921879
64.750 28.516088
64.755 27.930346
64.760 27.931509
64.765 27.574566
64.770 27.158127
64.775 26.600147
64.780 27.266502
64.785 27.191971
64.790 26.445692
64.795 25.451874
64.800 25.204714
64.805 24.757587
64.810 24.147556
64.815 22.919403
64.820 22.011534
64.825 22.648701
64.830 23.277391
64.835 24.150784
64.840 24.498381
64.845 24.441269
64.850 24.306747
64.855 24.145302
64.860 23.865206
64.865 22.782681
64.870 21.950607
64.875 21.944815
64.880 22.199471
64.885 22.381704
64.890 22.95281
64.895 22.825939
64.900 23.393719
64.905 23.693859
64.910 23.629568
64.915 24.439747
64.920 25.393995
64.925 25.347235
64.930 25.106998
64.935 25.76368
64.940 26.371996
64.945 26.922403
64.950 26.192627
64.955 25.17432
64.960 25.179119
64.965 25.652935
64.970 25.563925
64.975 25.707117
64.980 26.143822
64.985 27.019667
64.990 28.307749
64.995 28.901808
65.000 29.182848
65.005 29.621983
65.010 29.65053
65.015 30.148411
65.020 30.838341
65.025 31.357841
65.030 31.760736
65.035 32.295197
65.040 32.922195
65.045 33.224785
65.050 33.553898
65.055 33.212002
65.060 33.764774
65.065 34.516228
65.070 34.019562
65.075 33.118858
65.080 33.551239
65.085 33.491577
65.090 34.051533
65.095 33.647655
65.100 33.197239
65.105 33.473423
65.110 33.721504
65.115 33.466438
65.120 34.230469
65.125 34.200584
65.130 34.12698
65.135 34.373955
65.140 34.585751
65.145 34.999718
65.150 35.404167
65.155 35.807377
65.160 36.020077
65.165 36.692299
65.170 37.660202
65.175 38.421856
65.180 38.528797
65.185 38.746746
65.190 38.830643
65.195 40.090649
65.200 40.573029
65.205 41.064308
65.210 41.554062
65.215 41.776516
65.220 41.25209
65.225 40.894901
65.230 41.355179
65.235 41.061893
65.240 41.06377
65.245 40.787094
65.250 41.138145
65.255 41.268921
65.260 41.773796
65.265 41.434757
65.270 41.200653
65.275 40.872372
65.280 40.044098
65.285 39.279472
65.290 39.256859
65.295 38.780369
65.300 39.030308
65.305 39.276207
65.310 39.920063
65.315 41.023026
65.320 41.603317
65.325 41.626068
65.330 41.172691
65.335 41.206547
65.340 41.297375
65.345 41.55764
65.350 41.183414
65.355 41.095387
65.360 40.809891
65.365 40.762089
65.370 39.889793
65.375 38.963394
65.380 38.666817
65.385 39.263336
65.390 39.412872
65.395 39.923733
65.400 39.442734
65.405 39.812878
65.410 39.801445
65.415 39.14204
65.420 38.972069
65.425 38.182095
65.430 37.607422
65.435 37.857227
65.440 38.044979
65.445 38.26685
65.450 38.443531
65.455 38.070362
65.460 38.474602
65.465 38.927193
65.470 38.836205
65.475 38.925365
65.480 38.361912
65.485 37.660545
65.490 37.880703
65.495 37.922485
65.500 37.005196
65.505 37.551659
65.510 37.635258
65.515 38.115295
65.520 38.465973
65.525 37.974251
65.530 37.944504
65.535 38.579403
65.540 38.708752
65.545 38.811676
65.550 38.888702
65.555 38.836403
65.560 38.751842
65.565 38.953457
65.570 38.809536
65.575 37.628914
65.580 37.242218
65.585 36.598476
65.590 36.351879
65.595 35.731876
65.600 34.640251
65.605 34.712543
65.610 35.234367
65.615 33.83366
65.620 34.011162
65.625 33.659714
65.630 34.13744
65.635 34.770916
65.640 34.881443
65.645 34.645714
65.650 34.806541
65.655 34.123486
65.660 34.122105
65.665 33.685429
65.670 33.550964
65.675 33.021503
65.680 32.811119
65.685 32.737766
65.690 32.81678
65.695 32.200676
65.700 31.553337
65.705 31.044422
65.710 31.33567
65.715 30.337675
65.720 29.433111
65.725 29.425501
65.730 29.888041
65.735 29.899132
65.740 29.363535
65.745 28.18779
65.750 27.524542
65.755 26.983345
65.760 26.650839
65.765 26.413734
65.770 26.705387
65.775 26.177349
65.780 25.864439
65.785 26.333796
65.790 26.200846
65.795 25.424799
65.800 25.033907
65.805 24.436861
65.810 24.933136
65.815 25.276367
65.820 26.082027
65.825 26.362257
65.830 26.43096
65.835 26.29578
65.840 25.812941
65.845 24.689831
65.850 24.456108
65.855 23.605555
65.860 22.998257
65.865 22.757534
65.870 22.40037
65.875 22.664719
65.880 23.534208
65.885 23.405626
65.890 23.306063
65.895 22.86797
65.900 22.443037
65.905 21.94882
65.910 21.582899
65.915 21.313988
65.920 21.029661
65.925 21.483376
65.930 21.566412
65.935 22.016874
65.940 22.297258
65.945 22.119085
65.950 21.83276
65.955 21.61595
65.960 20.405508
65.965 20.492798
65.970 20.566334
65.975 20.942493
65.980 21.314243
65.985 21.149275
65.990 20.91036
65.995 21.206377
66.000 20.801067
66.005 20.160439
66.010 19.713894
66.015 19.820196
66.020 19.887308
66.025 19.211351
66.030 18.783466
66.035 18.893936
66.040 18.941467
66.045 18.866999
66.050 18.519487
66.055 18.777534
66.060 18.956711
66.065 19.27249
66.070 19.100298
66.075 18.830875
66.080 19.119041
66.085 19.191132
66.090 19.464344
66.095 20.373405
66.100 20.496874
66.105 21.056461
66.110 21.404903
66.115 21.078239
66.120 20.614614
66.125 20.122253
66.130 19.054041
66.135 18.621733
66.140 18.356129
66.145 18.300484
66.150 18.174305
66.155 18.099775
66.160 17.782772
66.165 18.569635
66.170 19.003849
66.175 18.928078
66.180 18.920725
66.185 19.055201
66.190 19.744072
66.195 20.11327
66.200 20.344664
66.205 20.441816
66.210 20.382647
66.215 20.075491
66.220 20.083586
66.225 19.512537
66.230 19.035208
66.235 18.118326
66.240 17.356466
66.245 17.284903
66.250 17.176964
66.255 17.066429
66.260 17.395185
66.265 17.44556
66.270 17.61302
66.275 17.69289
66.280 18.048828
66.285 18.579735
66.290 18.793032
66.295 18.87986
66.300 18.931293
66.305 18.608118
66.310 18.343901
66.315 18.367695
66.320 17.869213
66.325 17.521051
66.330 17.497341
66.335 17.655251
66.340 17.812212
66.345 18.434826
66.350 18.689682
66.355 18.952631
66.360 18.892061
66.365 18.783958
66.370 19.053885
66.375 19.141083
66.380 18.302361
66.385 17.522884
66.390 17.420618
66.395 17.470173
66.400 17.904728
66.405 17.886061
66.410 17.998083
66.415 17.756493
66.420 18.000561
66.425 17.972116
66.430 18.081039
66.435 17.239836
66.440 17.331921
66.445 17.21887
66.450 17.635086
66.455 17.584972
66.460 17.423014
66.465 17.483248
66.470 17.941206
66.475 18.216017
66.480 19.050962
66.485 19.457287
66.490 19.898045
66.495 20.07674
66.500 19.813704
66.505 19.585335
66.510 19.114759
66.515 18.68195
66.520 19.018923
66.525 18.995518
66.530 18.674829
66.535 19.222851
66.540 19.077429
66.545 19.182972
66.550 18.974707
66.555 19.073742
66.560 19.560497
66.565 19.923613
66.570 19.585855
66.575 19.58618
66.580 19.774023
66.585 19.415602
66.590 19.243116
66.595 19.411182
66.600 19.682753
66.605 19.322977
66.610 18.590294
66.615 18.436672
66.620 18.377293
66.625 17.415888
66.630 16.485189
66.635 16.121204
66.640 16.774689
66.645 17.496529
66.650 17.308702
66.655 17.446772
66.660 17.528156
66.665 17.510532
66.670 17.616035
66.675 17.689217
66.680 17.483562
66.685 17.70002
66.690 17.594271
66.695 18.022587
66.700 18.291986
66.705 17.845825
66.710 17.463545
66.715 17.546955
66.720 17.711092
66.725 18.098955
66.730 17.960829
66.735 17.411552
66.740 17.178139
66.745 17.333632
66.750 17.11306
66.755 16.796623
66.760 16.272276
66.765 15.968766
66.770 16.822796
66.775 17.330019
66.780 18.053871
66.785 18.541327
66.790 18.157986
66.795 18.064634
66.800 18.061735
66.805 17.89992
66.810 18.164135
66.815 17.645868
66.820 16.880095
66.825 17.540215
66.830 18.139978
66.835 18.320337
66.840 17.818382
66.845 17.271721
66.850 17.194368
66.855 17.438824
66.860 17.414759
66.865 17.576065
66.870 17.961353
66.875 18.516542
66.880 18.491631
66.885 18.357931
66.890 18.755377
66.895 18.997515
66.900 18.332544
66.905 18.126415
66.910 18.312752
66.915 17.945803
66.920 18.304604
66.925 18.379671
66.930 18.149139
66.935 18.266317
66.940 17.843908
66.945 17.806463
66.950 18.048824
66.955 17.55924
66.960 17.113974
66.965 17.705969
66.970 17.885618
66.975 18.424599
66.980 18.056236
66.985 18.230413
66.990 18.138514
66.995 17.957287
67.000 18.002884
67.005 18.175055
67.010 18.360054
67.015 18.508984
67.020 18.459736
67.025 18.929045
67.030 19.209711
67.035 18.529413
67.040 18.463415
67.045 18.497082
67.050 18.663502
67.055 18.845406
67.060 18.815601
67.065 18.880163
67.070 19.271343
67.075 18.994476
67.080 18.389532
67.085 18.108322
67.090 17.837879
67.095 17.132011
67.100 16.960222
67.105 16.55969
67.110 16.066898
67.115 16.150059
67.120 16.229877
67.125 16.43697
67.130 16.716953
67.135 16.906979
67.140 17.327459
67.145 17.634377
67.150 17.325169
67.155 17.042936
67.160 17.179314
67.165 17.222683
67.170 17.539177
67.175 17.437851
67.180 17.785671
67.185 17.913004
67.190 18.014196
67.195 17.482414
67.200 17.881208
67.205 17.4347
67.210 16.861837
67.215 16.349091
67.220 16.966381
67.225 17.508593
67.230 17.843523
67.235 17.349878
67.240 17.953581
67.245 18.777994
67.250 18.909178
67.255 18.478489
67.260 17.689135
67.265 17.418848
67.270 17.143307
67.275 16.308254
67.280 16.372711
67.285 16.683628
67.290 16.859758
67.295 17.449661
67.300 17.572372
67.305 17.742794
67.310 17.592419
67.315 17.017132
67.320 16.990288
67.325 16.70384
67.330 16.795082
67.335 17.061327
67.340 17.077791
67.345 17.620852
67.350 17.807892
67.355 17.623184
67.360 18.235386
67.365 18.012978
67.370 17.64365
67.375 17.646086
67.380 17.021517
67.385 16.759476
67.390 16.7458
67.395 16.735619
67.400 16.428003
67.405 16.254848
67.410 16.59214
67.415 16.762003
67.420 17.179565
67.425 17.437366
67.430 17.185246
67.435 17.673376
67.440 18.013504
67.445 17.870256
67.450 18.257435
67.455 17.737862
67.460 17.397537
67.465 17.461439
67.470 17.305046
67.475 16.991985
67.480 17.083904
67.485 17.555138
67.490 18.015566
67.495 18.228712
67.500 18.23562
67.505 18.50948
67.510 18.74094
67.515 18.616074
67.520 18.009365
67.525 17.987875
67.530 18.008547
67.535 18.208347
67.540 18.284878
67.545 18.442144
67.550 18.527508
67.555 19.090181
67.560 19.420088
67.565 20.028566
67.570 19.674646
67.575 19.79463
67.580 19.642471
67.585 19.446037
67.590 19.058565
67.595 18.599504
67.600 18.331846
67.605 18.19561
67.610 18.095797
67.615 17.926956
67.620 18.002316
67.625 17.759834
67.630 18.100578
67.635 18.234983
67.640 18.614988
67.645 18.772451
67.650 19.347486
67.655 19.219872
67.660 19.82618
67.665 19.126343
67.670 19.110535
67.675 19.075045
67.680 19.092478
67.685 19.104645
67.690 18.949862
67.695 18.922852
67.700 19.28619
67.705 19.08075
67.710 19.079395
67.715 19.45557
67.720 19.48632
67.725 20.586906
67.730 20.202143
67.735 19.877426
67.740 19.960403
67.745 19.356895
67.750 18.810911
67.755 18.848904
67.760 18.303497
67.765 18.323423
67.770 18.00703
67.775 18.209801
67.780 18.523777
67.785 18.723234
67.790 18.922611
67.795 18.748751
67.800 18.953701
67.805 19.157293
67.810 19.113943
67.815 19.120874
67.820 19.188248
67.825 18.248575
67.830 17.7376
67.835 17.491543
67.840 17.451971
67.845 17.09646
67.850 16.832685
67.855 16.271223
67.860 16.58392
67.865 17.055243
67.870 17.174782
67.875 17.059958
67.880 17.322161
67.885 17.384815
67.890 17.436924
67.895 17.997725
67.900 18.185081
67.905 18.202421
67.910 18.47888
67.915 18.130301
67.920 17.933981
67.925 17.586056
67.930 16.901241
67.935 16.894211
67.940 17.668756
67.945 17.884346
67.950 18.322779
67.955 18.848734
67.960 18.725307
67.965 18.733105
67.970 18.290594
67.975 18.050337
67.980 17.749578
67.985 17.428286
67.990 17.362551
67.995 17.507694
68.000 17.603518
68.005 17.424883
68.010 16.79299
68.015 16.441721
68.020 16.684322
68.025 16.538172
68.030 17.125587
68.035 17.832325
68.040 18.045794
68.045 18.230465
68.050 18.618986
68.055 18.823561
68.060 18.972944
68.065 18.800011
68.070 18.882717
68.075 19.275536
68.080 19.688852
68.085 19.913919
68.090 19.691645
68.095 19.735422
68.100 19.983107
68.105 20.525719
68.110 21.034275
68.115 21.126051
68.120 20.858961
68.125 20.659893
68.130 20.838253
68.135 20.861441
68.140 19.723003
68.145 19.164003
68.150 18.672962
68.155 18.630362
68.160 18.841755
68.165 18.93997
68.170 18.913126
68.175 19.680294
68.180 20.38102
68.185 21.10993
68.190 21.707808
68.195 21.952532
68.200 22.542252
68.205 22.311344
68.210 22.1077
68.215 22.036488
68.220 22.176508
68.225 22.635311
68.230 22.010319
68.235 21.426836
68.240 22.045345
68.245 22.753384
68.250 22.382778
68.255 22.499197
68.260 22.762453
68.265 23.192822
68.270 23.317282
68.275 23.293058
68.280 23.157171
68.285 23.903671
68.290 24.085079
68.295 24.352507
68.300 24.208296
68.305 24.114
68.310 24.125658
68.315 24.72838
68.320 24.873987
68.325 24.974314
68.330 25.113512
68.335 25.689997
68.340 26.305998
68.345 26.955807
68.350 26.991783
68.355 27.269836
68.360 27.765709
68.365 28.044039
68.370 29.12105
68.375 29.1222
68.380 29.646782
68.385 30.328648
68.390 30.612095
68.395 31.062958
68.400 30.905272
68.405 30.852346
68.410 30.738148
68.415 30.574577
68.420 31.021852
68.425 31.363922
68.430 31.990021
68.435 31.877506
68.440 31.185394
68.445 30.974451
68.450 31.376652
68.455 31.121508
68.460 30.981115
68.465 30.7239
68.470 31.825418
68.475 32.570568
68.480 33.299728
68.485 33.28791
68.490 33.779217
68.495 33.606033
68.500 33.948315
68.505 33.305054
68.510 32.817635
68.515 32.2183
68.520 31.714548
68.525 31.330112
68.530 31.429806
68.535 31.480982
68.540 31.936445
68.545 32.917633
68.550 33.651142
68.555 34.545658
68.560 34.847511
68.565 35.604664
68.570 35.514206
68.575 34.953014
68.580 34.94915
68.585 35.648884
68.590 36.26458
68.595 36.209873
68.600 35.421867
68.605 35.694183
68.610 36.152187
68.615 36.209431
68.620 35.24279
68.625 34.115757
68.630 34.039253
68.635 34.073746
68.640 34.100449
68.645 33.949726
68.650 33.657085
68.655 34.203503
68.660 35.360054
68.665 35.10844
68.670 35.248138
68.675 35.997959
68.680 36.717655
68.685 36.824512
68.690 36.042168
68.695 35.054359
68.700 35.675304
68.705 35.821869
68.710 35.361443
68.715 34.401974
68.720 34.309517
68.725 34.230263
68.730 34.280865
68.735 34.699074
68.740 34.45129
68.745 34.627579
68.750 34.993416
68.755 34.895855
68.760 35.491871
68.765 36.170628
68.770 35.911804
68.775 35.423462
68.780 34.708382
68.785 34.333153
68.790 34.682755
68.795 34.553757
68.800 33.738983
68.805 32.943584
68.810 33.064415
68.815 33.175461
68.820 32.931488
68.825 32.761936
68.830 32.387329
68.835 32.367245
68.840 32.4641
68.845 32.548615
68.850 32.843132
68.855 33.326042
68.860 32.117672
68.865 31.830973
68.870 31.553032
68.875 31.466331
68.880 31.355082
68.885 30.417747
68.890 30.07165
68.895 30.676369
68.900 30.999611
68.905 30.866995
68.910 30.771482
68.915 29.962736
68.920 30.148775
68.925 30.199883
68.930 29.599075
68.935 28.871185
68.940 28.276377
68.945 28.045515
68.950 27.894615
68.955 27.694918
68.960 28.427111
68.965 28.913815
68.970 29.11647
68.975 29.553188
68.980 29.783197
68.985 29.58452
68.990 29.472328
68.995 28.742308
69.000 27.910347
69.005 27.278448
69.010 26.462811
69.015 26.162687
69.020 25.864737
69.025 25.276136
69.030 24.742563
69.035 24.208338
69.040 23.661596
69.045 23.740326
69.050 23.649172
69.055 23.974564
69.060 24.294207
69.065 24.323606
69.070 24.576181
69.075 24.850325
69.080 24.885244
69.085 25.668385
69.090 25.73135
69.095 25.277256
69.100 25.278046
69.105 25.543999
69.110 25.857471
69.115 25.216339
69.120 23.711168
69.125 22.949734
69.130 22.540257
69.135 22.069412
69.140 21.265249
69.145 20.795023
69.150 21.077034
69.155 21.52911
69.160 21.873846
69.165 21.984003
69.170 22.004089
69.175 21.391005
69.180 20.75367
69.185 20.197729
69.190 20.192444
69.195 20.272678
69.200 20.247845
69.205 20.722326
69.210 21.336369
69.215 21.63726
69.220 21.396664
69.225 21.226494
69.230 20.929365
69.235 20.686375
69.240 20.418747
69.245 20.303392
69.250 19.980413
69.255 19.89032
69.260 19.987822
69.265 20.332264
69.270 20.274044
69.275 19.583855
69.280 18.934023
69.285 19.039236
69.290 19.24588
69.295 19.477182
69.300 19.276096
69.305 19.192932
69.310 19.801411
69.315 19.740919
69.320 19.478733
69.325 18.724295
69.330 17.877651
69.335 17.709738
69.340 17.977531
69.345 17.505045
69.350 17.189024
69.355 17.256498
69.360 18.063147
69.365 18.310652
69.370 17.861755
69.375 17.272259
69.380 17.273081
69.385 17.838518
69.390 18.12908
69.395 17.938538
69.400 18.223797
69.405 18.819403
69.410 18.851372
69.415 18.984617
69.420 18.932129
69.425 18.874866
69.430 18.901442
69.435 19.432161
69.440 19.42597
69.445 19.552881
69.450 18.834541
69.455 18.509058
69.460 18.26696
69.465 17.805492
69.470 16.777334
69.475 16.510473
69.480 16.766573
69.485 17.41474
69.490 17.486803
69.495 17.236835
69.500 17.195601
69.505 17.450724
69.510 17.889469
69.515 17.776215
69.520 18.131374
69.525 18.337934
69.530 19.167824
69.535 20.020592
69.540 20.178051
69.545 20.171242
69.550 20.190845
69.555 20.411167
69.560 20.081837
69.565 19.139946
69.570 18.667986
69.575 18.50675
69.580 18.372248
69.585 18.884146
69.590 18.493916
69.595 18.890457
69.600 18.804146
69.605 18.423553
69.610 18.188061
69.615 18.229691
69.620 17.448318
69.625 17.880249
69.630 18.009232
69.635 18.531443
69.640 18.76086
69.645 18.656746
69.650 18.059137
69.655 18.210953
69.660 17.883108
69.665 17.787516
69.670 18.313213
69.675 18.615206
69.680 18.611208
69.685 18.949209
69.690 19.003954
69.695 19.178122
69.700 18.896738
69.705 17.791685
69.710 17.81127
69.715 18.204638
69.720 18.598852
69.725 18.448606
69.730 18.183338
69.735 18.656128
69.740 18.970301
69.745 18.939104
69.750 18.988899
69.755 19.14402
69.760 19.991331
69.765 20.513386
69.770 20.456993
69.775 20.486378
69.780 20.510338
69.785 20.285456
69.790 19.781715
69.795 19.284641
69.800 19.046169
69.805 18.95273
69.810 19.088232
69.815 18.871326
69.820 19.067001
69.825 19.535023
69.830 19.856745
69.835 19.801577
69.840 19.486347
69.845 19.137161
69.850 19.327883
69.855 19.481411
69.860 18.356092
69.865 17.740492
69.870 17.652977
69.875 17.82473
69.880 18.148838
69.885 18.122103
69.890 17.663837
69.895 17.688396
69.900 17.331625
69.905 17.11585
69.910 16.992126
69.915 16.462685
69.920 16.403145
69.925 16.624821
69.930 16.994514
69.935 17.295298
69.940 17.468784
69.945 17.329082
69.950 17.75593
69.955 17.276844
69.960 17.128538
69.965 16.668404
69.970 16.617641
69.975 16.388718
69.980 16.400999
69.985 15.940715
69.990 15.710128
69.995 15.980735
70.000 16.035572
70.005 15.82536
70.010 16.007528
70.015 16.259909
70.020 16.594284
70.025 16.978132
70.030 17.310549
70.035 17.555321
70.040 17.074659
70.045 17.127106
70.050 17.484867
70.055 17.49367
70.060 17.166052
70.065 16.537409
70.070 16.382906
70.075 16.93911
70.080 16.6737
70.085 16.618002
70.090 16.560978
70.095 17.106247
70.100 17.70681
70.105 17.660955
70.110 17.380415
70.115 17.615438
70.120 17.695248
70.125 17.941402
70.130 17.242178
70.135 17.136005
70.140 17.733171
70.145 17.824095
70.150 18.07214
70.155 18.213797
70.160 18.342337
70.165 18.713482
70.170 18.508146
70.175 17.944635
70.180 18.136116
70.185 17.337868
70.190 17.004044
70.195 17.760769
70.200 17.574297
70.205 17.547125
70.210 17.719677
70.215 17.768337
70.220 18.005472
70.225 17.445154
70.230 16.466574
70.235 16.659464
70.240 16.965195
70.245 16.376652
70.250 16.569574
70.255 16.603359
70.260 16.710733
70.265 16.618067
70.270 16.735575
70.275 16.815716
70.280 17.262213
70.285 17.688356
70.290 18.210686
70.295 18.545271
70.300 19.186199
70.305 19.465731
70.310 19.926025
70.315 20.096569
70.320 20.561697
70.325 20.755257
70.330 20.520401
70.335 19.729061
70.340 19.393511
70.345 18.586441
70.350 17.450445
70.355 16.095079
70.360 15.866582
70.365 16.472446
70.370 16.285965
70.375 15.821579
70.380 16.243183
70.385 16.8668
70.390 17.529394
70.395 17.474659
70.400 17.277239
70.405 17.552523
70.410 17.548714
70.415 16.998465
70.420 17.169577
70.425 17.049093
70.430 17.234097
70.435 16.95676
70.440 17.047581
70.445 17.404112
70.450 17.552633
70.455 17.112925
70.460 17.335264
70.465 17.473455
70.470 17.495121
70.475 18.026896
70.480 18.133583
70.485 18.02585
70.490 17.977528
70.495 17.207598
70.500 17.204487
70.505 17.518515
70.510 17.27985
70.515 17.440863
70.520 17.698229
70.525 17.67631
70.530 18.278862
70.535 18.190823
70.540 18.312164
70.545 18.347998
70.550 18.268343
70.555 17.871607
70.560 17.687149
70.565 17.308611
70.570 17.25321
70.575 17.177881
70.580 17.31819
70.585 17.156458
70.590 17.31407
70.595 17.843098
70.600 17.802437
70.605 17.522463
70.610 17.411995
70.615 17.794104
70.620 18.729498
70.625 18.558861
70.630 17.881889
70.635 18.010895
70.640 18.391085
70.645 18.434036
70.650 17.863768
70.655 17.551783
70.660 18.721226
70.665 19.246567
70.670 18.901066
70.675 18.549059
70.680 18.263924
70.685 18.185282
70.690 18.072786
70.695 17.048529
70.700 17.160933
70.705 17.083017
70.710 16.699755
70.715 17.04756
70.720 17.091284
70.725 16.991816
70.730 16.646
70.735 16.143681
70.740 16.533073
70.745 16.264305
70.750 16.061476
70.755 16.035873
70.760 16.184435
70.765 16.608841
70.770 17.184139
70.775 17.543642
70.780 17.061214
70.785 17.194649
70.790 17.771868
70.795 17.841377
70.800 17.835546
70.805 17.979692
70.810 18.028378
70.815 18.35195
70.820 17.916222
70.825 17.496181
70.830 17.873795
70.835 17.796762
70.840 16.944965
70.845 16.859905
70.850 17.225195
70.855 17.188551
70.860 16.895386
70.865 15.958429
70.870 16.102343
70.875 16.358122
70.880 16.615932
70.885 16.286465
70.890 16.370655
70.895 16.613821
70.900 16.804401
70.905 16.547659
70.910 16.266762
70.915 16.357445
70.920 16.676159
70.925 16.328188
70.930 16.170151
70.935 16.19108
70.940 16.219509
70.945 15.82016
70.950 15.631079
70.955 16.14039
70.960 16.445095
70.965 16.064777
70.970 16.171856
70.975 16.398113
70.980 16.914364
70.985 16.783411
70.990 15.797319
70.995 15.911427
71.000 16.528212
71.005 16.609888
71.010 16.948616
71.015 16.727537
71.020 16.899267
71.025 17.877724
71.030 17.749542
71.035 17.553066
71.040 17.231924
71.045 16.87928
71.050 16.974945
71.055 16.870476
71.060 16.194181
71.065 16.733845
71.070 17.536167
71.075 17.927126
71.080 18.065134
71.085 18.379446
71.090 18.798502
71.095 18.806541
71.100 18.422394
71.105 17.762291
71.110 17.355064
71.115 17.279343
71.120 16.972029
71.125 17.579399
71.130 17.74299
71.135 17.384775
71.140 17.691418
71.145 17.940327
71.150 17.96945
71.155 18.559111
71.160 18.145266
71.165 18.670908
71.170 18.779844
71.175 19.073435
71.180 19.148697
71.185 19.200489
71.190 18.490974
71.195 17.910168
71.200 17.512922
71.205 17.383928
71.210 17.029949
71.215 16.944054
71.220 16.314203
71.225 16.24021
71.230 16.115374
71.235 15.843857
71.240 16.124996
71.245 16.150604
71.250 16.20356
71.255 15.791657
71.260 15.988887
71.265 16.436813
71.270 16.727333
71.275 16.455181
71.280 16.500809
71.285 16.524216
71.290 16.803667
71.295 16.719931
71.300 16.921453
71.305 17.446993
71.310 17.379553
71.315 17.990955
71.320 18.164461
71.325 18.190239
71.330 17.345779
71.335 16.89772
71.340 17.069149
71.345 17.30974
71.350 17.596167
71.355 17.962807
71.360 18.208778
71.365 19.131645
71.370 19.243683
71.375 19.063084
71.380 18.710939
71.385 18.251167
71.390 17.998892
71.395 17.920185
71.400 18.026337
71.405 18.050142
71.410 18.195883
71.415 18.190058
71.420 17.968285
71.425 17.774855
71.430 17.808212
71.435 17.203133
71.440 16.954638
71.445 16.862701
71.450 17.29084
71.455 17.620445
71.460 17.185804
71.465 17.287245
71.470 17.276022
71.475 16.982763
71.480 16.563362
71.485 16.279623
71.490 16.726553
71.495 16.80337
71.500 17.232635
71.505 17.967182
71.510 18.427116
71.515 18.252844
71.520 17.804482
71.525 17.613646
71.530 17.392591
71.535 17.176012
71.540 17.280373
71.545 17.172056
71.550 17.597464
71.555 18.062464
71.560 18.566286
71.565 18.518557
71.570 17.288795
71.575 16.521088
71.580 15.976415
71.585 15.681976
71.590 15.542265
71.595 15.623837
71.600 16.084249
71.605 17.019554
71.610 17.379982
71.615 17.523148
71.620 17.310709
71.625 17.085711
71.630 17.258078
71.635 17.066248
71.640 16.540594
71.645 16.297823
71.650 16.869371
71.655 16.911985
71.660 17.156544
71.665 17.201586
71.670 17.334145
71.675 17.695959
71.680 18.230537
71.685 18.120914
71.690 18.114969
71.695 18.01264
71.700 18.328588
71.705 18.639021
71.710 18.834534
71.715 18.890478
71.720 19.191206
71.725 19.41032
71.730 18.96483
71.735 18.311651
71.740 17.605787
71.745 17.22443
71.750 16.460192
71.755 16.352688
71.760 16.128048
71.765 16.115759
71.770 16.954657
71.775 17.692106
71.780 18.216686
71.785 18.568882
71.790 18.28211
71.795 18.265688
71.800 18.562084
71.805 18.078514
71.810 17.177809
71.815 16.666519
71.820 16.415745
71.825 16.489361
71.830 15.777763
71.835 15.390803
71.840 15.439241
71.845 15.940777
71.850 15.801737
71.855 15.767715
71.860 16.70207
71.865 17.629436
71.870 17.546749
71.875 17.899563
71.880 17.702497
71.885 18.121902
71.890 18.052868
71.895 17.218147
71.900 16.904055
71.905 16.732809
71.910 16.96612
71.915 16.787373
71.920 16.742344
71.925 16.604813
71.930 16.6588
71.935 16.505938
71.940 16.301975
71.945 16.029541
71.950 15.729573
71.955 15.841663
71.960 15.666981
71.965 15.975541
71.970 16.381325
71.975 16.856073
71.980 17.386871
71.985 17.944128
71.990 18.121447
71.995 18.500006
72.000 18.024666
72.005 17.772587
72.010 17.336988
72.015 17.420942
72.020 17.11294
72.025 17.191498
72.030 17.604391
72.035 17.825239
72.040 18.2078
72.045 18.445431
72.050 18.002289
72.055 18.111
72.060 18.246925
72.065 18.197254
72.070 17.998299
72.075 18.072399
72.080 17.963951
72.085 18.072178
72.090 18.069462
72.095 17.996115
72.100 18.351286
72.105 18.532816
72.110 18.766502
72.115 18.925467
72.120 18.602591
72.125 18.440613
72.130 18.11109
72.135 17.886969
72.140 17.765806
72.145 17.588293
72.150 17.197548
72.155 16.969091
72.160 16.798855
72.165 17.035461
72.170 17.116484
72.175 16.5474
72.180 16.637039
72.185 17.020617
72.190 17.664335
72.195 17.571651
72.200 17.715261
72.205 17.73395
72.210 18.296745
72.215 18.707333
72.220 18.408562
72.225 18.125124
72.230 17.375284
72.235 16.959501
72.240 16.744345
72.245 16.448357
72.250 16.033955
72.255 16.203318
72.260 16.314564
72.265 16.792246
72.270 16.600163
72.275 16.365953
72.280 16.660234
72.285 16.932653
72.290 17.082458
72.295 17.11479
72.300 17.126081
72.305 17.580833
72.310 17.366165
72.315 17.453825
72.320 17.655041
72.325 17.28097
72.330 17.75919
72.335 17.85474
72.340 18.700476
72.345 18.980528
72.350 18.459848
72.355 18.212513
72.360 18.529127
72.365 18.595787
72.370 18.444077
72.375 17.462708
72.380 17.000393
72.385 16.25672
72.390 16.034389
72.395 15.619305
72.400 14.924073
72.405 15.016974
72.410 15.24386
72.415 15.781531
72.420 16.045366
72.425 16.341427
72.430 16.168421
72.435 16.304426
72.440 16.175154
72.445 16.050093
72.450 15.981454
72.455 16.06753
72.460 15.7731
72.465 15.436093
72.470 15.43922
72.475 15.717722
72.480 15.562575
72.485 15.819996
72.490 16.340117
72.495 16.779787
72.500 16.988176
72.505 17.078386
72.510 17.029264
72.515 17.108477
72.520 17.421978
72.525 17.605486
72.530 17.733524
72.535 17.813898
72.540 17.678461
72.545 17.894211
72.550 17.551558
72.555 17.02075
72.560 16.895388
72.565 17.145102
72.570 17.22896
72.575 17.200899
72.580 17.171774
72.585 17.954725
72.590 18.132082
72.595 18.189766
72.600 18.179445
72.605 18.126617
72.610 17.862972
72.615 17.483496
72.620 17.092379
72.625 17.741861
72.630 17.775305
72.635 17.632561
72.640 17.790958
72.645 17.799433
72.650 17.513441
72.655 17.503607
72.660 16.982752
72.665 17.090141
72.670 17.193907
72.675 17.3346
72.680 17.319532
72.685 17.431952
72.690 17.50992
72.695 17.597858
72.700 17.724184
72.705 17.704306
72.710 18.124434
72.715 18.284319
72.720 17.667303
72.725 17.026476
72.730 16.715889
72.735 16.611822
72.740 16.600805
72.745 16.528587
72.750 17.062408
72.755 17.402046
72.760 17.575005
72.765 17.936031
72.770 18.243586
72.775 18.296309
72.780 18.314207
72.785 18.225241
72.790 18.53602
72.795 18.564894
72.800 18.476433
72.805 18.134247
72.810 17.451309
72.815 16.740438
72.820 16.679684
72.825 16.694046
72.830 16.582733
72.835 16.05644
72.840 16.479937
72.845 16.832104
72.850 17.016182
72.855 16.563824
72.860 16.100937
72.865 16.222717
72.870 16.260849
72.875 16.098486
72.880 16.56175
72.885 16.941225
72.890 17.708395
72.895 17.914448
72.900 18.075159
72.905 17.990942
72.910 18.071957
72.915 17.839083
72.920 17.221029
72.925 16.547665
72.930 16.773249
72.935 16.702591
72.940 16.672705
72.945 16.242754
72.950 16.327669
72.955 16.312389
72.960 16.229956
72.965 15.311281
72.970 14.995474
72.975 14.585906
72.980 14.771688
72.985 14.880816
72.990 15.075247
72.995 15.46694
73.000 16.261738
