!@!!GADDS PLOTSO FILE: Chi integration type
!@!!Title/SampleName: map-138
!@!!Comment: ?
!@!!User: Bruker Instrument Administrator
!@!!Site: University of Illinois Chicago
!@!!Frame: map-138_01_000.gfrm
!@!!Wavelengths    1.54184   1.54056   1.54439
!@!!Frame angles: 2Theta: 63.000 Omega: 50.000 Phi: 0.000 Chi: 90.000
!@!!Integration range: 2Theta: 53.000 to 73.000  Gamma: -105.000 to -75.000
!@!!Integration method: bin normalized
!@!N
!@!SS
!@!M
!@!L 0.0 0.0 0.0 0.0
!@!XDegrees
!@!YCounts
53.000 5.203946
53.005 5.212585
53.010 5.471598
53.015 5.203701
53.020 5.384818
53.025 5.593452
53.030 5.521218
53.035 5.427313
53.040 5.40352
53.045 5.052886
53.050 5.235792
53.055 4.805813
53.060 5.113929
53.065 5.343265
53.070 4.989758
53.075 4.912812
53.080 5.211655
53.085 5.87804
53.090 6.238308
53.095 5.9626
53.100 6.153836
53.105 6.651788
53.110 6.921591
53.115 6.621895
53.120 5.946455
53.125 6.059561
53.130 6.097562
53.135 5.767099
53.140 5.39591
53.145 5.320927
53.150 5.601875
53.155 6.061841
53.160 6.082776
53.165 5.947329
53.170 5.649996
53.175 5.504165
53.180 5.647075
53.185 5.336249
53.190 4.983048
53.195 4.549599
53.200 4.707948
53.205 4.716423
53.210 4.700691
53.215 4.494762
53.220 4.781942
53.225 5.181365
53.230 5.553256
53.235 5.524992
53.240 5.782181
53.245 5.758621
53.250 5.874557
53.255 5.711122
53.260 5.439085
53.265 5.405427
53.270 5.543371
53.275 5.596782
53.280 5.670559
53.285 5.287012
53.290 5.416588
53.295 5.417265
53.300 5.525089
53.305 5.643975
53.310 5.915596
53.315 6.030371
53.320 6.195964
53.325 6.386666
53.330 6.693984
53.335 6.83085
53.340 7.024698
53.345 6.951587
53.350 6.723015
53.355 6.598238
53.360 6.306406
53.365 5.857821
53.370 5.495534
53.375 5.619172
53.380 5.816101
53.385 6.595277
53.390 6.797808
53.395 6.641242
53.400 7.144587
53.405 6.931266
53.410 6.507858
53.415 6.597005
53.420 6.416973
53.425 6.748209
53.430 7.182882
53.435 7.063964
53.440 7.377864
53.445 7.340972
53.450 7.221581
53.455 7.161566
53.460 6.623738
53.465 6.549749
53.470 6.506173
53.475 6.20927
53.480 6.529305
53.485 6.398409
53.490 6.375795
53.495 6.72112
53.500 6.765436
53.505 6.89151
53.510 7.224429
53.515 6.913347
53.520 7.081617
53.525 7.072995
53.530 6.837474
53.535 6.997037
53.540 6.611703
53.545 6.559524
53.550 6.391804
53.555 5.667167
53.560 5.701026
53.565 5.565268
53.570 5.901752
53.575 6.351425
53.580 6.303282
53.585 6.204711
53.590 6.320882
53.595 6.384938
53.600 5.952477
53.605 5.271504
53.610 4.689034
53.615 4.948942
53.620 5.167756
53.625 5.416309
53.630 5.520908
53.635 5.75858
53.640 6.212563
53.645 6.255053
53.650 6.064804
53.655 5.947845
53.660 5.817042
53.665 6.056973
53.670 6.07693
53.675 5.909431
53.680 5.668685
53.685 5.921732
53.690 6.239802
53.695 5.849566
53.700 5.561235
53.705 5.654499
53.710 5.809072
53.715 6.018804
53.720 5.970376
53.725 6.215684
53.730 6.489156
53.735 6.451407
53.740 6.52164
53.745 7.002731
53.750 6.973072
53.755 6.637033
53.760 5.790174
53.765 5.819312
53.770 5.893525
53.775 5.778883
53.780 5.621763
53.785 5.538479
53.790 5.855205
53.795 6.14502
53.800 5.979548
53.805 5.666067
53.810 5.553587
53.815 6.021488
53.820 6.237301
53.825 6.285031
53.830 6.410276
53.835 6.720098
53.840 6.949766
53.845 6.410481
53.850 5.63874
53.855 5.642177
53.860 5.458787
53.865 5.537971
53.870 5.533359
53.875 5.640248
53.880 6.05833
53.885 6.027957
53.890 5.934001
53.895 6.0782
53.900 6.06458
53.905 6.169455
53.910 6.385943
53.915 6.48737
53.920 6.757536
53.925 7.097193
53.930 7.387409
53.935 7.268634
53.940 7.050312
53.945 6.764239
53.950 6.623977
53.955 6.793705
53.960 6.763015
53.965 6.441318
53.970 6.411716
53.975 6.892355
53.980 7.08806
53.985 7.407825
53.990 7.230582
53.995 6.775266
54.000 6.886454
54.005 6.788574
54.010 6.366519
54.015 6.19472
54.020 6.373378
54.025 6.621119
54.030 7.295283
54.035 7.422329
54.040 7.415292
54.045 7.606738
54.050 7.293305
54.055 6.883162
54.060 7.047291
54.065 6.927534
54.070 7.009868
54.075 7.219514
54.080 7.354052
54.085 7.481753
54.090 7.333215
54.095 6.901053
54.100 6.804589
54.105 6.79078
54.110 6.71145
54.115 6.411543
54.120 6.465495
54.125 7.082419
54.130 7.242765
54.135 7.359273
54.140 7.358705
54.145 7.170571
54.150 7.370707
54.155 7.153272
54.160 7.012741
54.165 6.918738
54.170 6.986896
54.175 6.968006
54.180 7.218692
54.185 7.44255
54.190 7.370321
54.195 7.203374
54.200 7.030516
54.205 6.812713
54.210 6.879159
54.215 6.843621
54.220 6.685484
54.225 6.98455
54.230 7.112282
54.235 7.252697
54.240 7.31051
54.245 7.470826
54.250 7.444658
54.255 7.381206
54.260 7.289846
54.265 7.491648
54.270 7.599136
54.275 7.359086
54.280 7.01879
54.285 6.984224
54.290 6.905274
54.295 6.722648
54.300 6.466695
54.305 6.172036
54.310 6.342926
54.315 6.730699
54.320 6.673406
54.325 6.742487
54.330 7.066405
54.335 7.340531
54.340 7.404913
54.345 7.286991
54.350 6.994223
54.355 6.98055
54.360 6.67134
54.365 6.381482
54.370 6.808795
54.375 6.9358
54.380 6.793467
54.385 6.848885
54.390 6.777844
54.395 6.981192
54.400 6.864139
54.405 6.506401
54.410 6.504959
54.415 6.592746
54.420 6.991994
54.425 7.307622
54.430 7.308336
54.435 7.114661
54.440 7.031946
54.445 7.075002
54.450 6.830647
54.455 6.607052
54.460 6.924492
54.465 7.245381
54.470 7.557162
54.475 7.676093
54.480 7.81486
54.485 7.92846
54.490 7.485788
54.495 6.958473
54.500 6.722638
54.505 7.115203
54.510 7.420328
54.515 7.630043
54.520 7.868709
54.525 7.830487
54.530 8.045131
54.535 7.952322
54.540 7.409176
54.545 6.975245
54.550 6.465713
54.555 6.28384
54.560 6.783737
54.565 7.1838
54.570 7.390247
54.575 7.580477
54.580 7.313555
54.585 7.906722
54.590 8.007115
54.595 7.573279
54.600 7.117677
54.605 6.798217
54.610 6.594181
54.615 6.293157
54.620 6.055594
54.625 5.902796
54.630 5.850768
54.635 5.825378
54.640 5.839993
54.645 6.087794
54.650 6.475314
54.655 6.650528
54.660 6.816729
54.665 7.011996
54.670 7.543712
54.675 7.92402
54.680 8.046417
54.685 7.951321
54.690 7.88969
54.695 8.284678
54.700 8.104665
54.705 7.734525
54.710 7.224035
54.715 7.154774
54.720 7.110626
54.725 7.538452
54.730 7.449175
54.735 7.111728
54.740 6.72806
54.745 6.827571
54.750 7.057369
54.755 7.076842
54.760 6.769431
54.765 7.029906
54.770 7.118727
54.775 7.437806
54.780 7.360934
54.785 7.191183
54.790 7.003184
54.795 6.811251
54.800 6.573595
54.805 6.549597
54.810 6.78582
54.815 6.602698
54.820 6.742726
54.825 6.731491
54.830 6.727108
54.835 6.695274
54.840 6.824226
54.845 6.622406
54.850 7.077253
54.855 6.835565
54.860 6.599553
54.865 6.732389
54.870 7.295008
54.875 7.373751
54.880 7.371689
54.885 7.356777
54.890 7.865119
54.895 8.14631
54.900 7.67652
54.905 7.863759
54.910 8.034199
54.915 7.987062
54.920 7.663258
54.925 7.451261
54.930 7.328175
54.935 7.4663
54.940 6.681397
54.945 6.649993
54.950 7.024071
54.955 7.141191
54.960 7.35739
54.965 7.481735
54.970 7.406325
54.975 7.943489
54.980 7.952919
54.985 8.144765
54.990 8.128608
54.995 7.894984
55.000 7.806599
55.005 8.107497
55.010 7.925573
55.015 7.886384
55.020 7.800711
55.025 8.031229
55.030 8.300885
55.035 8.416923
55.040 7.967057
55.045 7.812788
55.050 7.900503
55.055 7.732164
55.060 7.664443
55.065 7.73886
55.070 7.997983
55.075 8.085385
55.080 8.079962
55.085 7.93537
55.090 8.046432
55.095 7.641224
55.100 7.363222
55.105 7.377878
55.110 7.666813
55.115 7.80601
55.120 7.976297
55.125 8.030989
55.130 8.237469
55.135 8.39344
55.140 8.334373
55.145 8.680254
55.150 8.400342
55.155 8.313483
55.160 8.179864
55.165 8.367646
55.170 8.183175
55.175 7.869302
55.180 7.678137
55.185 7.935269
55.190 7.971234
55.195 8.213079
55.200 8.057823
55.205 8.197472
55.210 8.273009
55.215 7.998405
55.220 8.083739
55.225 7.928177
55.230 7.401484
55.235 7.396645
55.240 7.336999
55.245 7.095746
55.250 7.121624
55.255 6.90889
55.260 6.554039
55.265 6.583293
55.270 6.387002
55.275 6.530647
55.280 6.636894
55.285 6.816479
55.290 7.146008
55.295 7.420918
55.300 7.72144
55.305 7.915438
55.310 8.106301
55.315 7.998097
55.320 7.82171
55.325 8.127578
55.330 8.225511
55.335 8.173569
55.340 7.672244
55.345 7.123737
55.350 6.972311
55.355 6.809569
55.360 6.369112
55.365 6.132055
55.370 6.336184
55.375 6.226552
55.380 6.613674
55.385 6.829552
55.390 6.845334
55.395 7.154482
55.400 7.2883
55.405 7.447816
55.410 7.813685
55.415 7.990285
55.420 7.780447
55.425 7.9457
55.430 8.151568
55.435 8.471375
55.440 8.77152
55.445 8.749373
55.450 8.984556
55.455 8.940104
55.460 9.081653
55.465 8.749417
55.470 8.298931
55.475 8.189657
55.480 8.261744
55.485 8.286749
55.490 8.315174
55.495 8.324635
55.500 8.415643
55.505 8.369451
55.510 8.340129
55.515 8.194348
55.520 8.391151
55.525 8.422848
55.530 8.095063
55.535 8.231995
55.540 8.246121
55.545 8.442728
55.550 8.414632
55.555 8.00421
55.560 7.832442
55.565 7.782613
55.570 7.892743
55.575 8.284686
55.580 8.308634
55.585 8.501178
55.590 8.798227
55.595 9.188451
55.600 9.097728
55.605 9.007441
55.610 9.17456
55.615 9.1756
55.620 8.867791
55.625 8.778454
55.630 8.51564
55.635 8.71579
55.640 8.199489
55.645 7.618025
55.650 8.012194
55.655 8.442725
55.660 7.946982
55.665 8.262544
55.670 8.292362
55.675 8.561207
55.680 8.609493
55.685 8.061509
55.690 8.253341
55.695 8.541226
55.700 8.041699
55.705 8.067729
55.710 7.963799
55.715 8.021627
55.720 8.246965
55.725 8.028612
55.730 8.286487
55.735 8.545747
55.740 7.982072
55.745 8.01557
55.750 7.822859
55.755 7.316905
55.760 7.337278
55.765 7.26091
55.770 7.872795
55.775 7.977281
55.780 7.7145
55.785 8.033177
55.790 8.313698
55.795 7.936123
55.800 7.749946
55.805 7.460141
55.810 7.508749
55.815 7.649781
55.820 7.675174
55.825 7.776233
55.830 7.892454
55.835 8.153995
55.840 8.571196
55.845 9.249014
55.850 9.706547
55.855 9.649789
55.860 9.210957
55.865 9.51329
55.870 8.825579
55.875 8.401735
55.880 8.292291
55.885 8.05488
55.890 8.672925
55.895 8.698637
55.900 8.697564
55.905 9.271863
55.910 9.560253
55.915 9.1256
55.920 8.505583
55.925 7.998163
55.930 8.169608
55.935 8.24106
55.940 7.987322
55.945 7.77159
55.950 8.026071
55.955 8.27308
55.960 8.816648
55.965 8.833572
55.970 8.511991
55.975 8.437707
55.980 8.304804
55.985 8.19197
55.990 7.664733
55.995 7.39332
56.000 7.408782
56.005 7.84299
56.010 8.211859
56.015 8.302052
56.020 8.222398
56.025 8.270061
56.030 8.205982
56.035 8.220172
56.040 7.934955
56.045 8.252474
56.050 8.442716
56.055 8.68611
56.060 8.687002
56.065 8.810145
56.070 9.072711
56.075 9.283399
56.080 8.971997
56.085 9.081248
56.090 9.379775
56.095 9.696246
56.100 9.406944
56.105 9.241491
56.110 8.641851
56.115 8.102257
56.120 7.79086
56.125 7.606027
56.130 7.561315
56.135 8.069035
56.140 8.497058
56.145 8.988356
56.150 9.363805
56.155 9.95416
56.160 10.017306
56.165 10.178065
56.170 10.018701
56.175 9.695045
56.180 9.274473
56.185 9.269114
56.190 8.838297
56.195 8.414996
56.200 8.063611
56.205 7.968908
56.210 7.776902
56.215 7.981739
56.220 7.905611
56.225 8.058114
56.230 8.183021
56.235 7.907886
56.240 7.8729
56.245 8.21597
56.250 7.995298
56.255 8.109919
56.260 8.417391
56.265 8.768122
56.270 8.917685
56.275 8.979468
56.280 8.566112
56.285 8.954393
56.290 8.632376
56.295 8.194381
56.300 8.223461
56.305 8.22684
56.310 8.198728
56.315 8.621976
56.320 8.432991
56.325 8.5509
56.330 8.792617
56.335 9.214785
56.340 9.70885
56.345 10.04387
56.350 9.791568
56.355 9.74729
56.360 9.588861
56.365 9.361492
56.370 8.915786
56.375 8.455962
56.380 8.201227
56.385 8.227506
56.390 8.780039
56.395 8.834691
56.400 8.494247
56.405 8.291978
56.410 8.275117
56.415 8.384536
56.420 8.635107
56.425 8.123715
56.430 8.640384
56.435 9.329179
56.440 9.326115
56.445 8.945411
56.450 9.064467
56.455 8.660294
56.460 8.697075
56.465 7.935714
56.470 7.451984
56.475 7.37855
56.480 7.43745
56.485 7.392652
56.490 8.037483
56.495 7.96333
56.500 8.00413
56.505 8.101313
56.510 8.357297
56.515 8.480184
56.520 8.075839
56.525 7.816325
56.530 8.095584
56.535 8.329659
56.540 8.436255
56.545 8.398395
56.550 8.565774
56.555 9.13096
56.560 9.108711
56.565 8.69293
56.570 8.640543
56.575 8.367998
56.580 8.485976
56.585 8.30721
56.590 8.366975
56.595 8.504926
56.600 8.439672
56.605 8.533703
56.610 9.026246
56.615 8.871097
56.620 8.886357
56.625 8.59948
56.630 8.578936
56.635 9.120199
56.640 9.136009
56.645 8.876686
56.650 9.131336
56.655 8.878932
56.660 9.584652
56.665 10.050412
56.670 9.928778
56.675 10.119457
56.680 10.462048
56.685 10.582224
56.690 10.500733
56.695 9.410911
56.700 9.044519
56.705 9.181568
56.710 8.80492
56.715 8.551272
56.720 8.768181
56.725 9.166863
56.730 9.845218
56.735 9.911051
56.740 9.413132
56.745 9.499856
56.750 9.642379
56.755 9.908417
56.760 10.158874
56.765 9.78605
56.770 9.571064
56.775 9.786736
56.780 9.831547
56.785 9.356822
56.790 8.97704
56.795 9.047581
56.800 8.905697
56.805 9.19392
56.810 9.414086
56.815 9.52154
56.820 9.565381
56.825 9.48211
56.830 9.642179
56.835 10.111311
56.840 10.202997
56.845 10.125237
56.850 9.726054
56.855 9.446845
56.860 9.064841
56.865 8.703254
56.870 8.574372
56.875 8.611677
56.880 8.693807
56.885 9.013143
56.890 9.201063
56.895 9.377385
56.900 9.44543
56.905 9.458876
56.910 9.194941
56.915 8.871058
56.920 8.835431
56.925 8.913935
56.930 8.673237
56.935 8.701692
56.940 8.996552
56.945 9.488703
56.950 9.888634
56.955 10.42825
56.960 10.504703
56.965 10.551235
56.970 10.813191
56.975 10.926331
56.980 10.470609
56.985 10.447885
56.990 10.503703
56.995 10.79555
57.000 10.752297
57.005 9.86936
57.010 9.16208
57.015 9.177132
57.020 8.876805
57.025 8.099125
57.030 7.891003
57.035 8.216443
57.040 8.713132
57.045 9.26231
57.050 9.299337
57.055 9.345435
57.060 9.46105
57.065 9.517902
57.070 9.106586
57.075 8.897983
57.080 8.795603
57.085 9.034417
57.090 9.150929
57.095 9.387716
57.100 9.38163
57.105 9.655286
57.110 10.058433
57.115 9.828585
57.120 9.605332
57.125 9.4394
57.130 9.293797
57.135 9.29397
57.140 9.035491
57.145 8.444178
57.150 8.267479
57.155 8.496327
57.160 8.196968
57.165 8.139635
57.170 8.00394
57.175 8.22096
57.180 8.450084
57.185 8.5343
57.190 8.641177
57.195 9.143195
57.200 9.129582
57.205 9.230135
57.210 8.497583
57.215 8.191248
57.220 8.401799
57.225 8.352792
57.230 8.225317
57.235 8.1416
57.240 8.40988
57.245 8.725659
57.250 9.119301
57.255 8.947285
57.260 8.796391
57.265 9.116179
57.270 9.25134
57.275 9.161171
57.280 9.594458
57.285 9.093987
57.290 8.913401
57.295 9.202909
57.300 9.551315
57.305 10.087185
57.310 10.263116
57.315 9.903572
57.320 10.208472
57.325 10.296788
57.330 9.918879
57.335 9.418995
57.340 8.655024
57.345 8.195445
57.350 8.360951
57.355 8.866676
57.360 9.413808
57.365 9.795289
57.370 9.779819
57.375 10.257837
57.380 10.754639
57.385 11.245744
57.390 10.575312
57.395 10.028816
57.400 9.807205
57.405 9.907557
57.410 9.708246
57.415 9.708234
57.420 9.456044
57.425 9.575321
57.430 9.935684
57.435 10.050908
57.440 10.11645
57.445 10.237656
57.450 9.736921
57.455 9.916706
57.460 10.362265
57.465 10.260787
57.470 10.38225
57.475 10.598887
57.480 10.902722
57.485 11.027371
57.490 10.932036
57.495 10.610933
57.500 10.442414
57.505 10.1941
57.510 10.139374
57.515 10.209785
57.520 10.439332
57.525 10.64179
57.530 10.94641
57.535 11.006826
57.540 10.637661
57.545 10.293222
57.550 9.859165
57.555 9.743262
57.560 9.594782
57.565 9.39582
57.570 9.016052
57.575 9.316186
57.580 9.374734
57.585 9.390841
57.590 9.455892
57.595 9.239495
57.600 9.707496
57.605 10.603309
57.610 10.532443
57.615 10.689615
57.620 10.822666
57.625 11.086622
57.630 11.740039
57.635 11.354413
57.640 10.762566
57.645 11.156123
57.650 11.335175
57.655 11.268027
57.660 10.915757
57.665 10.519097
57.670 10.200974
57.675 10.406092
57.680 10.656058
57.685 10.890387
57.690 11.386842
57.695 11.291904
57.700 11.00967
57.705 11.720342
57.710 11.424305
57.715 10.797469
57.720 10.276268
57.725 10.021729
57.730 9.861182
57.735 9.706161
57.740 9.139646
57.745 9.474203
57.750 9.772051
57.755 9.891657
57.760 9.678678
57.765 9.713635
57.770 9.578049
57.775 10.1773
57.780 10.16268
57.785 10.431393
57.790 10.61235
57.795 10.606193
57.800 10.422833
57.805 10.844767
57.810 10.73172
57.815 9.899828
57.820 9.253753
57.825 9.536116
57.830 10.178458
57.835 10.821632
57.840 11.06995
57.845 11.160623
57.850 11.779999
57.855 11.756874
57.860 11.347557
57.865 10.703365
57.870 10.340696
57.875 9.85628
57.880 9.757491
57.885 9.8527
57.890 10.059283
57.895 10.344254
57.900 11.001365
57.905 10.961289
57.910 10.879174
57.915 10.944975
57.920 11.030648
57.925 10.955188
57.930 10.864439
57.935 10.707121
57.940 10.701348
57.945 10.28818
57.950 10.128871
57.955 9.953125
57.960 9.737185
57.965 9.607295
57.970 9.424938
57.975 9.695226
57.980 10.747167
57.985 11.015841
57.990 11.343202
57.995 11.954319
58.000 12.420875
58.005 12.792687
58.010 13.269533
58.015 12.994748
58.020 12.931079
58.025 12.71065
58.030 12.585689
58.035 12.370234
58.040 12.626046
58.045 12.747031
58.050 12.203135
58.055 12.360319
58.060 12.425314
58.065 12.169297
58.070 12.182453
58.075 11.653113
58.080 11.296983
58.085 11.491251
58.090 11.561856
58.095 11.187567
58.100 11.429851
58.105 11.562732
58.110 11.623218
58.115 11.846169
58.120 11.849812
58.125 11.626759
58.130 11.589912
58.135 11.473948
58.140 11.256515
58.145 11.243384
58.150 11.480006
58.155 11.44105
58.160 11.444415
58.165 11.474577
58.170 11.172215
58.175 11.141526
58.180 10.725221
58.185 10.222423
58.190 10.507705
58.195 10.652196
58.200 11.097829
58.205 11.320236
58.210 11.676455
58.215 11.98639
58.220 12.071223
58.225 12.081837
58.230 12.015349
58.235 11.786506
58.240 11.822849
58.245 11.663394
58.250 11.114156
58.255 11.000805
58.260 10.92067
58.265 10.972166
58.270 11.075788
58.275 10.891425
58.280 10.618812
58.285 11.227324
58.290 11.41535
58.295 11.360403
58.300 11.83572
58.305 12.107633
58.310 12.314742
58.315 13.006311
58.320 12.657901
58.325 12.592439
58.330 12.685365
58.335 12.552342
58.340 12.574305
58.345 12.478406
58.350 12.680915
58.355 12.833691
58.360 13.478167
58.365 13.889003
58.370 13.744789
58.375 13.835407
58.380 14.450524
58.385 14.653028
58.390 14.822938
58.395 15.032412
58.400 14.959536
58.405 14.982732
58.410 14.734838
58.415 14.328323
58.420 14.292089
58.425 14.204021
58.430 14.112433
58.435 13.932778
58.440 14.315558
58.445 14.710749
58.450 14.911242
58.455 14.987817
58.460 15.082217
58.465 14.58011
58.470 14.867659
58.475 15.248033
58.480 15.786196
58.485 15.79998
58.490 16.590464
58.495 17.129169
58.500 18.116081
58.505 18.595156
58.510 18.469933
58.515 18.420897
58.520 19.087454
58.525 18.860542
58.530 19.324335
58.535 19.089415
58.540 19.018953
58.545 19.340275
58.550 19.3986
58.555 19.279152
58.560 19.226088
58.565 19.202221
58.570 19.616644
58.575 20.103041
58.580 20.018854
58.585 19.905878
58.590 19.852051
58.595 20.706158
58.600 21.358902
58.605 21.33613
58.610 21.250212
58.615 21.630749
58.620 22.182602
58.625 22.740627
58.630 23.078709
58.635 23.17288
58.640 23.585825
58.645 23.763273
58.650 23.88517
58.655 24.699059
58.660 25.775122
58.665 25.270699
58.670 24.691874
58.675 24.444906
58.680 24.51852
58.685 24.120258
58.690 23.499817
58.695 23.660641
58.700 24.494938
58.705 24.271019
58.710 23.976023
58.715 23.669163
58.720 23.683681
58.725 23.466459
58.730 22.294039
58.735 21.951033
58.740 22.781296
58.745 23.500362
58.750 23.842924
58.755 23.797844
58.760 23.78196
58.765 23.732353
58.770 23.138178
58.775 22.431877
58.780 22.250677
58.785 22.21917
58.790 21.822765
58.795 21.777485
58.800 21.754086
58.805 21.652313
58.810 21.540447
58.815 21.02103
58.820 20.368677
58.825 20.427263
58.830 20.148108
58.835 19.221972
58.840 18.232903
58.845 17.789701
58.850 18.009396
58.855 17.565542
58.860 17.014925
58.865 16.716721
58.870 16.661316
58.875 16.71907
58.880 16.224714
58.885 15.599049
58.890 16.286215
58.895 16.221777
58.900 16.250698
58.905 16.298895
58.910 16.285301
58.915 16.883726
58.920 17.24164
58.925 16.882454
58.930 17.146683
58.935 17.258043
58.940 17.164213
58.945 17.478531
58.950 16.781815
58.955 15.819904
58.960 15.303581
58.965 14.547379
58.970 14.130941
58.975 13.882309
58.980 13.54765
58.985 13.310894
58.990 13.543344
58.995 13.887676
59.000 13.828553
59.005 13.544464
59.010 13.769268
59.015 14.145618
59.020 15.006208
59.025 14.689999
59.030 14.699706
59.035 14.770099
59.040 14.996967
59.045 14.651917
59.050 13.498494
59.055 12.759582
59.060 12.995718
59.065 12.729779
59.070 12.563628
59.075 12.097256
59.080 11.95964
59.085 12.022264
59.090 12.193267
59.095 12.047181
59.100 11.935362
59.105 11.434841
59.110 11.629062
59.115 11.659982
59.120 11.611856
59.125 11.389767
59.130 11.154283
59.135 11.650845
59.140 11.871403
59.145 11.342958
59.150 11.337501
59.155 11.5914
59.160 12.140722
59.165 12.474877
59.170 12.331195
59.175 12.324292
59.180 12.197971
59.185 11.869596
59.190 11.850753
59.195 11.118164
59.200 10.96205
59.205 10.692307
59.210 10.950657
59.215 10.92287
59.220 10.83287
59.225 10.402018
59.230 10.457113
59.235 10.385368
59.240 10.574816
59.245 10.310832
59.250 10.300602
59.255 10.114569
59.260 10.476721
59.265 10.784608
59.270 11.015666
59.275 11.242434
59.280 11.241673
59.285 11.259707
59.290 11.392322
59.295 11.27723
59.300 11.022379
59.305 10.38017
59.310 10.381127
59.315 10.600236
59.320 10.932593
59.325 10.943302
59.330 10.732848
59.335 10.859316
59.340 11.363235
59.345 11.22623
59.350 10.795197
59.355 11.059571
59.360 11.458468
59.365 11.326046
59.370 11.246306
59.375 10.795306
59.380 10.846287
59.385 11.120156
59.390 11.087255
59.395 10.777211
59.400 10.83562
59.405 10.7926
59.410 10.932867
59.415 10.734607
59.420 10.588545
59.425 10.382792
59.430 10.67124
59.435 10.737583
59.440 11.006479
59.445 10.858232
59.450 10.974882
59.455 11.515657
59.460 12.369928
59.465 12.485267
59.470 12.385559
59.475 12.699598
59.480 13.090859
59.485 13.058969
59.490 12.657316
59.495 11.728009
59.500 11.488017
59.505 11.410326
59.510 11.386715
59.515 11.574883
59.520 11.680622
59.525 11.858813
59.530 12.067597
59.535 12.103434
59.540 12.291483
59.545 11.993871
59.550 11.262114
59.555 11.24579
59.560 10.872723
59.565 10.846371
59.570 11.039214
59.575 10.846375
59.580 10.74805
59.585 10.970788
59.590 10.985859
59.595 10.79104
59.600 10.408919
59.605 10.138666
59.610 10.306617
59.615 10.223771
59.620 10.515039
59.625 10.941628
59.630 11.770253
59.635 12.60028
59.640 12.875558
59.645 12.649179
59.650 12.692277
59.655 12.316245
59.660 11.941098
59.665 11.146414
59.670 10.692933
59.675 10.663854
59.680 10.963121
59.685 11.110913
59.690 11.202876
59.695 11.195337
59.700 11.89557
59.705 11.511026
59.710 11.389014
59.715 11.723104
59.720 11.793365
59.725 12.067351
59.730 12.283788
59.735 11.623848
59.740 12.357238
59.745 12.065699
59.750 11.624805
59.755 11.50324
59.760 11.135071
59.765 10.786088
59.770 11.025387
59.775 10.84606
59.780 10.731083
59.785 10.548367
59.790 11.059731
59.795 11.293422
59.800 11.389943
59.805 11.511114
59.810 11.368995
59.815 11.52526
59.820 11.837007
59.825 11.573092
59.830 12.210826
59.835 12.296762
59.840 12.047488
59.845 12.31642
59.850 11.797767
59.855 11.304199
59.860 10.967565
59.865 10.548534
59.870 10.268573
59.875 10.340325
59.880 10.491488
59.885 11.060187
59.890 11.308608
59.895 11.121323
59.900 10.849144
59.905 10.915205
59.910 10.733127
59.915 10.457932
59.920 10.62678
59.925 10.897134
59.930 11.533465
59.935 12.134841
59.940 12.140419
59.945 12.424191
59.950 12.662116
59.955 12.97175
59.960 12.63635
59.965 12.033486
59.970 11.659109
59.975 11.591372
59.980 10.943642
59.985 10.552311
59.990 10.185845
59.995 10.486337
60.000 10.907286
60.005 11.290819
60.010 11.61551
60.015 12.428041
60.020 12.179833
60.025 11.934718
60.030 11.69481
60.035 11.632874
60.040 11.599642
60.045 11.774543
60.050 11.793794
60.055 12.137766
60.060 12.300477
60.065 12.200863
60.070 11.885957
60.075 11.771849
60.080 11.596411
60.085 11.205325
60.090 11.492412
60.095 11.60734
60.100 11.636872
60.105 11.862164
60.110 11.652101
60.115 11.520205
60.120 11.661473
60.125 11.22739
60.130 11.173414
60.135 11.545089
60.140 11.360426
60.145 11.567935
60.150 11.845091
60.155 11.74815
60.160 11.963168
60.165 11.831744
60.170 11.844872
60.175 11.982681
60.180 11.722342
60.185 11.5049
60.190 11.103186
60.195 10.903193
60.200 10.55103
60.205 10.472157
60.210 10.6129
60.215 10.831709
60.220 10.787559
60.225 11.091127
60.230 11.347805
60.235 11.732175
60.240 11.877678
60.245 11.756397
60.250 11.78823
60.255 11.657758
60.260 11.507376
60.265 11.8457
60.270 12.145444
60.275 11.86337
60.280 11.996257
60.285 12.049041
60.290 12.086805
60.295 11.848699
60.300 11.514071
60.305 10.927792
60.310 10.952546
60.315 11.031244
60.320 10.729634
60.325 11.07898
60.330 11.619246
60.335 11.490254
60.340 11.783521
60.345 11.53816
60.350 11.070521
60.355 11.354752
60.360 10.952095
60.365 10.859595
60.370 11.138318
60.375 11.029761
60.380 11.6408
60.385 12.52365
60.390 12.714444
60.395 12.851253
60.400 12.822196
60.405 12.848629
60.410 13.203039
60.415 12.870146
60.420 12.018906
60.425 12.020264
60.430 12.002089
60.435 11.779854
60.440 11.477491
60.445 10.877181
60.450 11.266956
60.455 11.370996
60.460 11.206718
60.465 11.387671
60.470 11.770172
60.475 12.059107
60.480 12.234835
60.485 11.833381
60.490 11.738616
60.495 11.605062
60.500 11.440371
60.505 11.539528
60.510 11.437399
60.515 11.588986
60.520 11.720765
60.525 11.948364
60.530 12.181781
60.535 12.062141
60.540 11.471024
60.545 11.421708
60.550 11.046822
60.555 11.062564
60.560 10.617309
60.565 10.440742
60.570 10.602847
60.575 10.76049
60.580 10.646194
60.585 11.107007
60.590 11.810763
60.595 12.235343
60.600 12.675481
60.605 12.704972
60.610 12.919312
60.615 13.146055
60.620 13.134787
60.625 12.255224
60.630 12.190394
60.635 12.066339
60.640 11.749316
60.645 11.603806
60.650 11.077217
60.655 11.434083
60.660 12.047795
60.665 11.887362
60.670 11.662107
60.675 11.110526
60.680 11.042323
60.685 10.941297
60.690 10.382739
60.695 10.353828
60.700 10.464987
60.705 10.890239
60.710 11.579966
60.715 11.464537
60.720 11.772779
60.725 11.374563
60.730 11.179726
60.735 11.286668
60.740 11.228734
60.745 11.249874
60.750 11.580022
60.755 12.155959
60.760 12.560643
60.765 12.698844
60.770 12.688534
60.775 12.623643
60.780 12.992885
60.785 12.783558
60.790 12.529966
60.795 12.574637
60.800 12.430119
60.805 12.457233
60.810 12.617211
60.815 11.999823
60.820 12.011767
60.825 12.017696
60.830 12.000104
60.835 11.836514
60.840 11.553834
60.845 11.779269
60.850 12.645247
60.855 12.759799
60.860 12.336504
60.865 12.473577
60.870 12.694775
60.875 12.773972
60.880 11.971727
60.885 11.355224
60.890 10.829129
60.895 11.147696
60.900 10.748439
60.905 10.785702
60.910 11.163526
60.915 11.307916
60.920 11.513657
60.925 12.483662
60.930 12.239993
60.935 12.137915
60.940 11.813996
60.945 11.973669
60.950 12.379149
60.955 11.938129
60.960 11.31826
60.965 11.729032
60.970 11.820085
60.975 12.145964
60.980 11.93718
60.985 11.994715
60.990 12.780829
60.995 12.882429
61.000 12.38286
61.005 12.164652
61.010 11.929628
61.015 11.304175
61.020 11.231146
61.025 10.849007
61.030 10.815578
61.035 10.870958
61.040 11.479589
61.045 12.12449
61.050 12.659164
61.055 12.829361
61.060 12.557461
61.065 12.479441
61.070 12.710563
61.075 12.424949
61.080 12.155885
61.085 12.243986
61.090 12.446424
61.095 12.612548
61.100 12.677297
61.105 13.157842
61.110 13.141291
61.115 13.126706
61.120 12.542339
61.125 11.919478
61.130 11.596301
61.135 11.423141
61.140 10.901016
61.145 10.765683
61.150 10.768068
61.155 10.951857
61.160 11.370458
61.165 11.468518
61.170 11.584667
61.175 11.717475
61.180 11.965645
61.185 12.041106
61.190 12.496009
61.195 12.538872
61.200 12.833179
61.205 13.150558
61.210 13.441528
61.215 13.16089
61.220 13.411715
61.225 13.613157
61.230 13.787696
61.235 13.534192
61.240 13.202242
61.245 13.028911
61.250 13.254735
61.255 12.966585
61.260 12.948812
61.265 13.427572
61.270 13.439167
61.275 13.36992
61.280 13.683861
61.285 13.600167
61.290 13.635071
61.295 13.457967
61.300 12.161215
61.305 12.202671
61.310 12.192086
61.315 12.022229
61.320 12.019852
61.325 11.627482
61.330 11.827385
61.335 12.644792
61.340 12.87136
61.345 12.708282
61.350 12.400434
61.355 12.377092
61.360 12.285298
61.365 12.407872
61.370 12.033893
61.375 11.934214
61.380 12.099873
61.385 12.448209
61.390 12.411659
61.395 12.734488
61.400 12.219507
61.405 12.245393
61.410 12.567127
61.415 12.74378
61.420 13.084542
61.425 13.177251
61.430 13.034948
61.435 13.238568
61.440 13.630822
61.445 13.060643
61.450 12.675163
61.455 12.445971
61.460 12.661757
61.465 12.831134
61.470 12.598342
61.475 12.184802
61.480 12.663607
61.485 12.916845
61.490 12.524528
61.495 12.26339
61.500 12.218493
61.505 12.603595
61.510 13.112307
61.515 12.695259
61.520 12.48337
61.525 12.719066
61.530 13.404576
61.535 13.293033
61.540 13.045685
61.545 13.067871
61.550 13.043393
61.555 13.373981
61.560 13.714955
61.565 13.061133
61.570 13.196877
61.575 13.123439
61.580 12.92604
61.585 12.877976
61.590 12.533798
61.595 11.666071
61.600 11.461265
61.605 10.824089
61.610 10.771976
61.615 10.610368
61.620 10.661431
61.625 10.774606
61.630 11.33972
61.635 11.629773
61.640 12.040133
61.645 12.344626
61.650 12.450327
61.655 12.3309
61.660 12.395878
61.665 12.297766
61.670 12.449449
61.675 12.601653
61.680 12.81603
61.685 13.154252
61.690 13.337846
61.695 13.369443
61.700 13.50832
61.705 13.495034
61.710 13.447813
61.715 13.076847
61.720 13.033594
61.725 13.000938
61.730 12.899096
61.735 12.482455
61.740 12.290796
61.745 12.433954
61.750 12.4888
61.755 12.795356
61.760 12.968151
61.765 12.767005
61.770 12.817673
61.775 13.012367
61.780 13.394274
61.785 13.472561
61.790 13.435381
61.795 13.535176
61.800 13.877785
61.805 13.914468
61.810 13.643242
61.815 13.051217
61.820 12.807088
61.825 12.356586
61.830 11.95453
61.835 12.065447
61.840 11.923024
61.845 11.85535
61.850 12.015803
61.855 11.743785
61.860 12.085275
61.865 12.306216
61.870 12.09316
61.875 12.695181
61.880 13.11546
61.885 13.279786
61.890 13.693755
61.895 13.426647
61.900 13.552575
61.905 13.175251
61.910 12.636663
61.915 13.024761
61.920 12.690807
61.925 12.598661
61.930 12.723475
61.935 12.872466
61.940 13.256121
61.945 13.108093
61.950 12.712327
61.955 13.250673
61.960 13.516974
61.965 13.440958
61.970 13.211958
61.975 13.302233
61.980 13.392142
61.985 13.039858
61.990 12.746952
61.995 12.584382
62.000 12.345838
62.005 12.135398
62.010 11.981694
62.015 11.81216
62.020 12.113231
62.025 12.295912
62.030 12.340054
62.035 12.640038
62.040 12.66496
62.045 12.886147
62.050 13.31692
62.055 12.981954
62.060 12.700345
62.065 12.072885
62.070 12.136588
62.075 12.154312
62.080 11.935808
62.085 11.958377
62.090 12.160157
62.095 12.564617
62.100 12.958916
62.105 12.749337
62.110 13.13489
62.115 13.358418
62.120 13.16256
62.125 13.182493
62.130 12.894269
62.135 12.843657
62.140 13.031864
62.145 13.042065
62.150 12.85193
62.155 13.011909
62.160 12.813895
62.165 12.880959
62.170 13.241186
62.175 13.549993
62.180 13.697721
62.185 13.835626
62.190 13.713769
62.195 13.757947
62.200 13.344669
62.205 12.64107
62.210 12.220101
62.215 11.82951
62.220 12.061218
62.225 11.915811
62.230 11.774728
62.235 11.638745
62.240 11.835494
62.245 11.8597
62.250 11.826365
62.255 12.0254
62.260 12.640283
62.265 13.137143
62.270 13.692769
62.275 13.536734
62.280 12.954831
62.285 12.64644
62.290 12.147041
62.295 11.84837
62.300 11.831861
62.305 11.865254
62.310 11.843441
62.315 11.772141
62.320 11.768753
62.325 11.622257
62.330 11.747977
62.335 11.588916
62.340 11.420577
62.345 11.872539
62.350 12.07368
62.355 12.048429
62.360 11.973967
62.365 11.890983
62.370 11.998178
62.375 12.014418
62.380 11.999881
62.385 12.160229
62.390 12.9228
62.395 13.431249
62.400 13.292304
62.405 13.319197
62.410 13.469925
62.415 13.510522
62.420 13.553264
62.425 13.037742
62.430 12.982284
62.435 13.118211
62.440 12.927654
62.445 12.566131
62.450 12.588782
62.455 13.128016
62.460 13.600595
62.465 13.70382
62.470 13.8571
62.475 14.396338
62.480 14.892614
62.485 14.646876
62.490 14.222513
62.495 13.811162
62.500 13.340951
62.505 12.936201
62.510 12.837902
62.515 12.827432
62.520 12.789793
62.525 12.458927
62.530 11.959659
62.535 12.025486
62.540 12.081529
62.545 12.248981
62.550 12.6216
62.555 13.24116
62.560 13.752107
62.565 14.573934
62.570 14.648524
62.575 14.483064
62.580 13.97134
62.585 13.606069
62.590 13.173388
62.595 12.824156
62.600 12.369306
62.605 12.449449
62.610 13.28176
62.615 13.652408
62.620 13.728738
62.625 13.999599
62.630 14.245212
62.635 14.312963
62.640 14.447606
62.645 14.292624
62.650 14.021766
62.655 13.636865
62.660 13.339682
62.665 13.191847
62.670 13.230786
62.675 13.147661
62.680 12.814159
62.685 12.888341
62.690 13.292092
62.695 13.261204
62.700 13.411134
62.705 13.113392
62.710 12.646924
62.715 12.694221
62.720 12.814281
62.725 12.653132
62.730 12.61047
62.735 12.792588
62.740 13.26976
62.745 13.284275
62.750 13.119699
62.755 13.105936
62.760 13.002973
62.765 13.069879
62.770 12.751673
62.775 12.515899
62.780 12.753044
62.785 12.855245
62.790 13.104939
62.795 12.769579
62.800 12.927517
62.805 13.094404
62.810 13.241744
62.815 13.031995
62.820 12.972622
62.825 12.89363
62.830 13.273957
62.835 13.268677
62.840 13.361104
62.845 13.028291
62.850 12.912961
62.855 12.798689
62.860 12.49782
62.865 12.528061
62.870 12.053212
62.875 11.73898
62.880 12.158956
62.885 12.305092
62.890 12.591975
62.895 12.708197
62.900 12.665141
62.905 12.844312
62.910 12.799157
62.915 12.736044
62.920 12.764771
62.925 12.554536
62.930 12.486487
62.935 12.468717
62.940 12.335868
62.945 12.150019
62.950 12.035089
62.955 11.856095
62.960 11.809922
62.965 12.136665
62.970 12.744576
62.975 13.112092
62.980 13.458163
62.985 13.560832
62.990 13.479511
62.995 13.527643
63.000 13.178084
63.005 12.638366
63.010 12.726105
63.015 12.593787
63.020 12.874071
63.025 13.110805
63.030 12.814469
63.035 12.753106
63.040 13.085077
63.045 13.004363
63.050 13.215108
63.055 13.372118
63.060 13.673503
63.065 13.920507
63.070 13.972537
63.075 13.730282
63.080 14.11102
63.085 13.954304
63.090 13.805582
63.095 13.495449
63.100 13.053252
63.105 13.063505
63.110 12.921483
63.115 12.33667
63.120 12.489109
63.125 12.834743
63.130 12.866668
63.135 13.334686
63.140 13.245013
63.145 13.679836
63.150 13.472669
63.155 13.206372
63.160 12.893155
63.165 12.810657
63.170 13.249448
63.175 13.719733
63.180 13.447458
63.185 14.247146
63.190 14.863256
63.195 15.09375
63.200 15.524115
63.205 15.517962
63.210 14.984582
63.215 14.843949
63.220 14.173859
63.225 13.78491
63.230 13.827585
63.235 13.621322
63.240 13.082622
63.245 13.314592
63.250 13.367112
63.255 13.641031
63.260 13.427589
63.265 13.0916
63.270 12.838812
63.275 13.08633
63.280 13.26802
63.285 13.136444
63.290 13.232983
63.295 13.336869
63.300 13.093189
63.305 12.751114
63.310 12.615781
63.315 12.666993
63.320 13.000461
63.325 12.882739
63.330 12.797923
63.335 12.860186
63.340 13.295211
63.345 13.142704
63.350 13.416864
63.355 13.539672
63.360 13.796655
63.365 13.947532
63.370 14.089613
63.375 14.361529
63.380 14.515669
63.385 14.12138
63.390 13.708777
63.395 13.132387
63.400 12.906873
63.405 12.618654
63.410 12.037117
63.415 11.897473
63.420 11.515215
63.425 11.681419
63.430 11.786307
63.435 11.87772
63.440 12.313128
63.445 12.688185
63.450 12.726111
63.455 13.275249
63.460 13.346906
63.465 14.149855
63.470 14.707685
63.475 15.054226
63.480 15.184465
63.485 15.031138
63.490 14.798054
63.495 14.996644
63.500 14.471087
63.505 13.852291
63.510 13.180956
63.515 12.992706
63.520 13.260468
63.525 13.549851
63.530 13.801883
63.535 14.189051
63.540 14.871794
63.545 14.729609
63.550 14.933558
63.555 15.097974
63.560 14.884207
63.565 14.017489
63.570 13.451388
63.575 13.226059
63.580 13.494591
63.585 13.24524
63.590 13.154157
63.595 13.441311
63.600 13.669124
63.605 13.684078
63.610 13.429095
63.615 13.482984
63.620 14.198585
63.625 14.158475
63.630 13.632781
63.635 13.940097
63.640 14.066332
63.645 14.490528
63.650 14.731
63.655 14.445577
63.660 14.75122
63.665 14.839905
63.670 14.699504
63.675 14.606761
63.680 14.478193
63.685 14.345642
63.690 14.393862
63.695 14.408404
63.700 14.801156
63.705 14.701523
63.710 14.242149
63.715 14.211882
63.720 14.274497
63.725 13.891476
63.730 13.549517
63.735 13.335637
63.740 13.017993
63.745 13.467207
63.750 13.245874
63.755 12.871989
63.760 13.061804
63.765 12.81461
63.770 12.958541
63.775 13.466643
63.780 13.517209
63.785 13.982376
63.790 14.356886
63.795 14.834095
63.800 15.33544
63.805 15.025046
63.810 14.65134
63.815 14.792781
63.820 14.492573
63.825 13.791908
63.830 13.326301
63.835 14.053662
63.840 14.948142
63.845 15.226521
63.850 15.220307
63.855 15.196609
63.860 15.69771
63.865 15.948758
63.870 14.783803
63.875 14.111125
63.880 13.612782
63.885 13.677545
63.890 13.96213
63.895 13.352299
63.900 12.983566
63.905 13.511373
63.910 13.715852
63.915 14.440115
63.920 14.506341
63.925 14.638999
63.930 15.080306
63.935 15.682737
63.940 15.781484
63.945 15.224713
63.950 14.823347
63.955 14.725859
63.960 14.887384
63.965 15.398401
63.970 14.826475
63.975 14.466198
63.980 14.845447
63.985 15.253855
63.990 15.613107
63.995 15.599867
64.000 15.304609
64.005 16.136339
64.010 16.941528
64.015 17.811295
64.020 17.988304
64.025 17.926456
64.030 18.004187
64.035 18.416674
64.040 17.832956
64.045 18.148584
64.050 17.74301
64.055 17.892374
64.060 18.099632
64.065 17.81147
64.070 17.452669
64.075 17.523096
64.080 17.414278
64.085 17.859665
64.090 17.674467
64.095 17.709528
64.100 18.319025
64.105 18.598286
64.110 19.28742
64.115 20.604113
64.120 21.411215
64.125 21.139652
64.130 21.032927
64.135 21.695316
64.140 22.207691
64.145 21.536882
64.150 21.109179
64.155 21.284307
64.160 21.536465
64.165 21.611355
64.170 21.283548
64.175 21.743507
64.180 21.904469
64.185 21.789968
64.190 21.900671
64.195 22.415726
64.200 22.934826
64.205 23.290728
64.210 23.813108
64.215 24.832184
64.220 25.447323
64.225 25.636675
64.230 26.087524
64.235 26.668631
64.240 27.354412
64.245 27.032799
64.250 26.427448
64.255 26.367195
64.260 27.069046
64.265 28.267082
64.270 28.523663
64.275 28.696758
64.280 29.220701
64.285 29.722809
64.290 31.281006
64.295 32.119511
64.300 32.141602
64.305 32.528107
64.310 32.932144
64.315 33.32225
64.320 34.266232
64.325 33.959072
64.330 33.204807
64.335 32.975449
64.340 33.857906
64.345 33.698231
64.350 34.017208
64.355 34.224606
64.360 34.790771
64.365 35.322403
64.370 35.548584
64.375 35.143753
64.380 35.548523
64.385 35.070923
64.390 35.055355
64.395 34.583748
64.400 34.62532
64.405 34.287163
64.410 34.907856
64.415 34.483105
64.420 33.981316
64.425 33.83662
64.430 34.95285
64.435 34.087578
64.440 33.219673
64.445 32.250111
64.450 31.993128
64.455 32.594349
64.460 32.264545
64.465 31.992887
64.470 33.365566
64.475 33.541603
64.480 33.633163
64.485 33.93277
64.490 33.59063
64.495 33.408543
64.500 32.858913
64.505 32.7649
64.510 32.370846
64.515 31.759092
64.520 31.849417
64.525 32.006973
64.530 31.436899
64.535 30.872208
64.540 30.076097
64.545 30.330307
64.550 29.816957
64.555 29.251898
64.560 28.303499
64.565 27.475431
64.570 27.365387
64.575 27.360437
64.580 26.828897
64.585 26.77282
64.590 26.164749
64.595 26.579441
64.600 26.603022
64.605 25.112799
64.610 24.386904
64.615 24.107409
64.620 23.792999
64.625 23.473009
64.630 23.232395
64.635 22.840406
64.640 23.215916
64.645 23.223076
64.650 23.416353
64.655 23.391935
64.660 22.903162
64.665 22.083397
64.670 21.76334
64.675 21.547426
64.680 20.948782
64.685 20.17547
64.690 20.308859
64.695 20.168104
64.700 20.346968
64.705 20.466915
64.710 20.166586
64.715 20.25095
64.720 20.388924
64.725 19.485909
64.730 19.810307
64.735 19.461676
64.740 18.566034
64.745 18.028746
64.750 17.502848
64.755 17.238081
64.760 17.291491
64.765 17.064234
64.770 17.416248
64.775 17.467533
64.780 17.5658
64.785 17.510857
64.790 17.3069
64.795 17.000046
64.800 16.212238
64.805 15.628672
64.810 16.039188
64.815 16.246765
64.820 16.694963
64.825 16.771193
64.830 17.322929
64.835 17.621773
64.840 17.930706
64.845 18.43648
64.850 18.833658
64.855 18.841274
64.860 19.119692
64.865 19.453459
64.870 20.224392
64.875 20.106678
64.880 19.57757
64.885 19.188665
64.890 19.088194
64.895 19.016933
64.900 18.751791
64.905 18.396175
64.910 18.510599
64.915 17.970171
64.920 17.440224
64.925 17.472164
64.930 17.326498
64.935 17.440519
64.940 17.252581
64.945 16.838301
64.950 17.41263
64.955 18.101002
64.960 18.226011
64.965 17.720535
64.970 17.635403
64.975 17.75913
64.980 18.342731
64.985 18.272326
64.990 18.003876
64.995 17.910698
65.000 18.803154
65.005 19.04739
65.010 19.383509
65.015 19.198835
65.020 19.186491
65.025 19.411846
65.030 19.925966
65.035 19.875523
65.040 19.85832
65.045 19.496973
65.050 19.408411
65.055 19.422533
65.060 18.998802
65.065 18.589926
65.070 18.592106
65.075 18.776388
65.080 19.206072
65.085 19.374594
65.090 19.827705
65.095 19.759127
65.100 19.677458
65.105 19.604513
65.110 19.350834
65.115 19.45241
65.120 19.123587
65.125 19.307728
65.130 20.235104
65.135 20.771814
65.140 21.127981
65.145 20.840731
65.150 20.845016
65.155 20.745127
65.160 20.862906
65.165 20.749571
65.170 20.71866
65.175 20.630795
65.180 20.81205
65.185 20.627329
65.190 21.224669
65.195 21.073311
65.200 20.953487
65.205 20.913258
65.210 20.994884
65.215 21.417137
65.220 21.917006
65.225 22.515606
65.230 22.633965
65.235 23.055593
65.240 23.693077
65.245 23.747177
65.250 23.937206
65.255 23.752773
65.260 23.281557
65.265 23.522284
65.270 23.320454
65.275 23.584465
65.280 23.692118
65.285 24.172926
65.290 23.692978
65.295 23.780567
65.300 24.804291
65.305 25.043221
65.310 24.703506
65.315 24.700256
65.320 24.627243
65.325 25.054316
65.330 25.347254
65.335 24.675699
65.340 25.84613
65.345 26.620834
65.350 27.169024
65.355 27.555096
65.360 27.992825
65.365 28.634684
65.370 29.076918
65.375 28.618309
65.380 28.524651
65.385 28.836296
65.390 29.079285
65.395 29.715773
65.400 29.3846
65.405 29.178556
65.410 30.018639
65.415 30.815413
65.420 31.238186
65.425 31.181765
65.430 31.470207
65.435 33.120461
65.440 34.793205
65.445 34.36171
65.450 33.595497
65.455 33.908497
65.460 35.462395
65.465 35.745354
65.470 34.530682
65.475 33.887028
65.480 33.839294
65.485 34.495724
65.490 34.346962
65.495 33.544792
65.500 33.851395
65.505 34.345047
65.510 34.687469
65.515 34.493431
65.520 34.821964
65.525 35.058128
65.530 35.402176
65.535 35.088917
65.540 35.35577
65.545 35.951965
65.550 36.291283
65.555 35.552418
65.560 35.097923
65.565 34.201393
65.570 34.768581
65.575 34.638603
65.580 33.657291
65.585 33.566536
65.590 33.478271
65.595 34.139576
65.600 34.134178
65.605 33.731564
65.610 33.125961
65.615 33.235329
65.620 33.609222
65.625 33.880959
65.630 33.576054
65.635 33.944839
65.640 33.947918
65.645 34.078072
65.650 34.077652
65.655 33.682671
65.660 33.518005
65.665 32.685097
65.670 32.251503
65.675 32.304672
65.680 31.874025
65.685 31.72998
65.690 32.527645
65.695 32.287991
65.700 32.211704
65.705 31.672703
65.710 30.676804
65.715 30.078821
65.720 29.659027
65.725 28.29048
65.730 27.73727
65.735 27.780159
65.740 27.278807
65.745 27.511772
65.750 26.857527
65.755 26.10545
65.760 26.217281
65.765 26.42742
65.770 26.294479
65.775 26.594227
65.780 26.876799
65.785 26.940012
65.790 27.181213
65.795 27.502647
65.800 27.423489
65.805 26.970446
65.810 26.236835
65.815 25.488615
65.820 25.302786
65.825 24.637562
65.830 23.754419
65.835 23.408253
65.840 23.338205
65.845 23.074471
65.850 22.462761
65.855 22.145908
65.860 21.40696
65.865 20.720871
65.870 19.983812
65.875 19.863087
65.880 19.923487
65.885 20.338612
65.890 20.39456
65.895 20.822052
65.900 20.948006
65.905 20.85145
65.910 20.849512
65.915 20.745338
65.920 20.658339
65.925 19.904654
65.930 19.908863
65.935 19.690638
65.940 19.567682
65.945 19.196316
65.950 18.862059
65.955 18.466471
65.960 18.397512
65.965 18.784513
65.970 19.447975
65.975 19.510126
65.980 19.722589
65.985 19.552889
65.990 19.213514
65.995 18.664888
66.000 18.09288
66.005 17.980684
66.010 17.686989
66.015 17.187975
66.020 17.400715
66.025 17.492357
66.030 17.662294
66.035 17.346991
66.040 17.164577
66.045 17.106857
66.050 16.912647
66.055 16.811298
66.060 16.619005
66.065 16.817919
66.070 16.828285
66.075 16.659163
66.080 16.713848
66.085 17.431671
66.090 17.530184
66.095 18.507132
66.100 18.446938
66.105 17.544125
66.110 17.401825
66.115 17.326183
66.120 16.59281
66.125 16.410349
66.130 15.567981
66.135 15.52273
66.140 16.168211
66.145 16.069893
66.150 15.804941
66.155 15.626578
66.160 15.431341
66.165 15.649796
66.170 15.463964
66.175 15.00177
66.180 15.39631
66.185 15.649138
66.190 15.631009
66.195 15.943028
66.200 15.894466
66.205 16.225969
66.210 16.734715
66.215 16.369003
66.220 16.060633
66.225 16.059544
66.230 15.941092
66.235 16.020603
66.240 15.523458
66.245 15.230602
66.250 15.19445
66.255 15.037068
66.260 15.018434
66.265 14.922019
66.270 14.829304
66.275 14.782831
66.280 14.808208
66.285 14.998995
66.290 15.526616
66.295 15.564914
66.300 15.414069
66.305 14.961076
66.310 14.568735
66.315 13.99952
66.320 13.744288
66.325 13.87052
66.330 13.996333
66.335 13.820924
66.340 13.566402
66.345 13.865481
66.350 14.379594
66.355 14.873658
66.360 14.650342
66.365 14.36502
66.370 14.528954
66.375 15.5637
66.380 16.205587
66.385 15.847368
66.390 15.529557
66.395 15.790565
66.400 16.000229
66.405 15.997608
66.410 16.271034
66.415 16.301134
66.420 16.597723
66.425 16.64974
66.430 16.867237
66.435 17.157854
66.440 16.768568
66.445 15.563045
66.450 14.814611
66.455 14.255967
66.460 13.878728
66.465 13.011813
66.470 13.199663
66.475 13.173615
66.480 14.59058
66.485 15.238427
66.490 15.959158
66.495 16.048189
66.500 16.173428
66.505 15.599834
66.510 15.601901
66.515 14.074158
66.520 13.365211
66.525 13.029788
66.530 12.934492
66.535 13.785297
66.540 13.831069
66.545 13.879417
66.550 14.462329
66.555 14.96475
66.560 15.24539
66.565 15.31825
66.570 15.093612
66.575 15.515694
66.580 15.615223
66.585 15.29843
66.590 15.364672
66.595 15.141148
66.600 14.953027
66.605 14.967628
66.610 15.039912
66.615 14.925178
66.620 14.787904
66.625 14.211448
66.630 14.198951
66.635 14.725974
66.640 14.318251
66.645 14.002506
66.650 13.967355
66.655 14.066998
66.660 14.512565
66.665 14.542535
66.670 13.720919
66.675 13.475235
66.680 13.662657
66.685 13.739017
66.690 14.273344
66.695 13.947529
66.700 13.396523
66.705 13.552467
66.710 14.120385
66.715 14.25867
66.720 14.518184
66.725 14.881428
66.730 15.153903
66.735 15.665775
66.740 15.749366
66.745 15.520817
66.750 15.608693
66.755 15.424716
66.760 15.257936
66.765 15.524537
66.770 15.193316
66.775 15.43892
66.780 15.628175
66.785 15.71796
66.790 15.308585
66.795 14.594733
66.800 14.343094
66.805 14.520529
66.810 14.314356
66.815 14.138946
66.820 14.016344
66.825 14.070055
66.830 14.70101
66.835 14.468584
66.840 14.860931
66.845 14.618666
66.850 14.592839
66.855 14.296059
66.860 14.463655
66.865 14.781576
66.870 14.821844
66.875 14.474195
66.880 14.300714
66.885 14.365273
66.890 14.477325
66.895 13.95081
66.900 13.460457
66.905 13.737459
66.910 14.205315
66.915 14.356908
66.920 14.061812
66.925 14.042764
66.930 14.583046
66.935 14.822336
66.940 14.363697
66.945 13.800537
66.950 13.690009
66.955 13.706271
66.960 13.733827
66.965 13.954714
66.970 13.842748
66.975 13.906843
66.980 14.642541
66.985 14.997769
66.990 15.234362
66.995 15.277862
67.000 15.08304
67.005 15.327915
67.010 15.749739
67.015 15.492307
67.020 15.387557
67.025 15.33309
67.030 15.485944
67.035 15.26309
67.040 15.11783
67.045 14.797453
67.050 14.751821
67.055 15.236389
67.060 15.447325
67.065 15.475832
67.070 15.043912
67.075 14.569661
67.080 14.389777
67.085 14.252142
67.090 13.526683
67.095 13.429066
67.100 13.54617
67.105 14.151621
67.110 14.607098
67.115 14.84413
67.120 14.882926
67.125 15.14026
67.130 15.089716
67.135 15.079033
67.140 14.619235
67.145 14.442558
67.150 14.695077
67.155 14.362423
67.160 14.043027
67.165 13.837366
67.170 14.045432
67.175 14.148306
67.180 14.327704
67.185 13.798826
67.190 13.977703
67.195 14.545981
67.200 14.680701
67.205 14.422089
67.210 14.165209
67.215 14.196571
67.220 14.627069
67.225 14.742213
67.230 14.384436
67.235 14.22232
67.240 14.489196
67.245 14.955345
67.250 14.687598
67.255 14.624092
67.260 14.861566
67.265 15.154186
67.270 15.207867
67.275 15.461857
67.280 15.532668
67.285 15.965645
67.290 15.736587
67.295 15.582431
67.300 15.362309
67.305 15.143734
67.310 15.339837
67.315 15.236728
67.320 14.999325
67.325 15.236731
67.330 15.417254
67.335 15.73547
67.340 15.319247
67.345 15.033698
67.350 14.713866
67.355 14.508304
67.360 13.874845
67.365 13.773168
67.370 14.097388
67.375 14.509036
67.380 13.921985
67.385 13.935319
67.390 13.964681
67.395 14.230948
67.400 13.758138
67.405 13.046576
67.410 13.192571
67.415 13.585149
67.420 13.654914
67.425 13.91461
67.430 13.747593
67.435 14.222089
67.440 14.67035
67.445 14.580054
67.450 14.423516
67.455 14.47002
67.460 14.108124
67.465 13.962255
67.470 13.735494
67.475 13.519239
67.480 13.658113
67.485 13.787533
67.490 13.865071
67.495 14.123522
67.500 14.833264
67.505 15.143353
67.510 15.264389
67.515 15.755301
67.520 15.509007
67.525 15.481507
67.530 15.388921
67.535 15.322037
67.540 15.117047
67.545 14.824982
67.550 14.228141
67.555 14.631305
67.560 15.083885
67.565 15.410144
67.570 15.056268
67.575 14.988367
67.580 15.071575
67.585 15.18782
67.590 15.060277
67.595 14.861278
67.600 14.75808
67.605 14.880096
67.610 15.064507
67.615 14.957108
67.620 15.109426
67.625 15.439145
67.630 15.286927
67.635 14.793655
67.640 14.571531
67.645 14.262012
67.650 14.658958
67.655 14.324699
67.660 14.499322
67.665 14.836959
67.670 14.803535
67.675 14.621987
67.680 14.912995
67.685 14.591827
67.690 15.021506
67.695 14.774657
67.700 14.709714
67.705 14.949878
67.710 15.568564
67.715 15.750425
67.720 15.210752
67.725 14.432337
67.730 14.500856
67.735 14.792154
67.740 14.682764
67.745 14.432043
67.750 14.305276
67.755 14.963373
67.760 15.443169
67.765 15.051723
67.770 14.976604
67.775 15.653267
67.780 15.463478
67.785 15.476998
67.790 14.878001
67.795 14.725455
67.800 14.802083
67.805 14.256415
67.810 13.207973
67.815 13.52554
67.820 13.394885
67.825 13.811021
67.830 14.190994
67.835 14.593286
67.840 14.493176
67.845 14.757476
67.850 14.414515
67.855 14.679719
67.860 14.619312
67.865 13.767167
67.870 13.774946
67.875 14.619366
67.880 15.2707
67.885 15.447602
67.890 15.346375
67.895 15.321827
67.900 15.554493
67.905 15.370318
67.910 15.18913
67.915 14.971428
67.920 14.774986
67.925 14.552564
67.930 14.527802
67.935 14.461251
67.940 14.334804
67.945 13.748243
67.950 13.502
67.955 13.715657
67.960 14.076418
67.965 14.676756
67.970 15.215235
67.975 15.435019
67.980 16.068419
67.985 16.231783
67.990 16.184235
67.995 16.027782
68.000 15.234336
68.005 14.610929
68.010 14.633385
68.015 14.678784
68.020 14.83806
68.025 15.331686
68.030 15.312854
68.035 15.218235
68.040 15.598174
68.045 15.96605
68.050 15.92534
68.055 15.470296
68.060 14.770294
68.065 14.919247
68.070 15.334531
68.075 14.602288
68.080 13.696282
68.085 13.318975
68.090 13.351556
68.095 13.475471
68.100 13.472229
68.105 14.055888
68.110 14.928441
68.115 15.709303
68.120 16.115261
68.125 16.631062
68.130 16.362223
68.135 15.642609
68.140 15.405888
68.145 14.659419
68.150 14.475384
68.155 14.177109
68.160 14.175128
68.165 14.740232
68.170 14.902091
68.175 14.784321
68.180 14.850612
68.185 14.817675
68.190 14.608398
68.195 14.972598
68.200 14.976493
68.205 15.645255
68.210 15.608714
68.215 15.974632
68.220 16.152651
68.225 16.279812
68.230 16.20462
68.235 16.085394
68.240 15.523532
68.245 15.553524
68.250 15.526088
68.255 15.367065
68.260 15.291866
68.265 15.124301
68.270 15.285001
68.275 15.796782
68.280 16.069902
68.285 16.063429
68.290 15.956657
68.295 16.310497
68.300 16.590919
68.305 17.012407
68.310 17.326626
68.315 17.467297
68.320 17.569435
68.325 18.078888
68.330 17.706894
68.335 17.329876
68.340 17.009832
68.345 16.666723
68.350 17.046066
68.355 17.831255
68.360 18.447878
68.365 18.587059
68.370 19.180969
68.375 19.2526
68.380 19.923643
68.385 19.656004
68.390 19.194654
68.395 18.993876
68.400 19.236679
68.405 19.446226
68.410 19.723114
68.415 19.438204
68.420 19.905567
68.425 19.782354
68.430 19.567495
68.435 19.398701
68.440 18.978306
68.445 19.147707
68.450 19.367846
68.455 19.235218
68.460 18.702343
68.465 18.539125
68.470 18.96863
68.475 19.102528
68.480 18.552382
68.485 18.151993
68.490 18.747959
68.495 19.277706
68.500 19.903162
68.505 20.230501
68.510 19.846087
68.515 20.461132
68.520 21.072914
68.525 21.194054
68.530 21.366705
68.535 20.954592
68.540 21.019119
68.545 21.982378
68.550 22.411936
68.555 22.288269
68.560 22.748783
68.565 23.407417
68.570 23.940454
68.575 24.499935
68.580 24.519907
68.585 25.159769
68.590 25.1264
68.595 24.715204
68.600 24.272938
68.605 24.251074
68.610 24.632608
68.615 25.028727
68.620 24.576015
68.625 24.728859
68.630 25.400944
68.635 26.36669
68.640 26.624763
68.645 26.281715
68.650 26.022257
68.655 26.673965
68.660 27.088322
68.665 26.610569
68.670 26.54175
68.675 26.57807
68.680 27.944672
68.685 28.382515
68.690 28.438807
68.695 28.646111
68.700 28.891535
68.705 29.441082
68.710 30.234865
68.715 29.660517
68.720 29.338905
68.725 29.009552
68.730 29.949104
68.735 30.087328
68.740 29.914928
68.745 28.995533
68.750 28.648344
68.755 28.510361
68.760 28.785151
68.765 28.903305
68.770 29.740694
68.775 30.292734
68.780 30.415737
68.785 31.215652
68.790 31.869686
68.795 32.027584
68.800 31.676546
68.805 31.580408
68.810 31.173269
68.815 31.352274
68.820 30.87105
68.825 31.326826
68.830 31.145029
68.835 31.003849
68.840 30.688702
68.845 29.820951
68.850 29.64715
68.855 29.484722
68.860 29.163874
68.865 28.989473
68.870 29.518642
68.875 29.588341
68.880 29.976416
68.885 29.807095
68.890 29.428482
68.895 29.235039
68.900 28.985388
68.905 28.98097
68.910 29.169432
68.915 29.373709
68.920 29.979086
68.925 30.095879
68.930 29.523876
68.935 29.24688
68.940 28.704767
68.945 28.014629
68.950 27.66254
68.955 27.034649
68.960 26.790174
68.965 26.986536
68.970 26.5427
68.975 26.685719
68.980 26.44714
68.985 26.354158
68.990 26.532501
68.995 26.346384
69.000 25.936787
69.005 25.769094
69.010 24.824907
69.015 25.355385
69.020 25.014437
69.025 24.463501
69.030 24.81934
69.035 23.956284
69.040 23.454218
69.045 23.144613
69.050 22.787827
69.055 22.491537
69.060 22.321365
69.065 22.57007
69.070 23.225113
69.075 23.326738
69.080 23.396784
69.085 23.889023
69.090 24.209017
69.095 24.164137
69.100 24.232504
69.105 23.823606
69.110 23.635263
69.115 23.123062
69.120 21.883455
69.125 21.563631
69.130 21.122213
69.135 20.220091
69.140 20.912691
69.145 20.737591
69.150 20.133537
69.155 20.249332
69.160 20.013716
69.165 20.473572
69.170 20.967365
69.175 20.240784
69.180 19.98576
69.185 20.612936
69.190 20.729956
69.195 20.200392
69.200 19.569817
69.205 19.244247
69.210 18.877405
69.215 18.821766
69.220 18.537193
69.225 18.585518
69.230 18.652565
69.235 18.993444
69.240 18.772812
69.245 18.583765
69.250 19.097113
69.255 19.295502
69.260 18.90514
69.265 18.423214
69.270 17.883877
69.275 17.961077
69.280 17.913363
69.285 17.860638
69.290 17.785734
69.295 17.821716
69.300 17.788683
69.305 17.421783
69.310 16.778851
69.315 16.342438
69.320 15.071369
69.325 15.139016
69.330 15.04193
69.335 14.706774
69.340 14.811821
69.345 14.898083
69.350 15.6477
69.355 16.068623
69.360 15.690337
69.365 16.695366
69.370 17.601355
69.375 17.800804
69.380 18.058821
69.385 17.552753
69.390 17.522228
69.395 17.690008
69.400 17.675354
69.405 17.464088
69.410 17.0947
69.415 16.60392
69.420 17.057596
69.425 17.421865
69.430 17.106171
69.435 16.616516
69.440 16.618515
69.445 16.801466
69.450 16.985762
69.455 16.88682
69.460 16.306475
69.465 16.017002
69.470 15.730227
69.475 15.633867
69.480 16.029276
69.485 16.005627
69.490 15.110646
69.495 15.01364
69.500 15.051293
69.505 15.193326
69.510 15.0319
69.515 14.484056
69.520 14.642229
69.525 15.04654
69.530 14.920708
69.535 14.9112
69.540 14.770338
69.545 14.833828
69.550 14.725768
69.555 14.637234
69.560 14.798863
69.565 15.24875
69.570 15.810332
69.575 16.37137
69.580 16.735432
69.585 16.544718
69.590 16.592505
69.595 16.529772
69.600 16.120056
69.605 15.922501
69.610 15.99893
69.615 15.697717
69.620 15.603264
69.625 15.938916
69.630 16.005144
69.635 16.336439
69.640 16.085194
69.645 15.685741
69.650 15.847002
69.655 16.149254
69.660 16.349758
69.665 16.404444
69.670 16.187023
69.675 16.614031
69.680 17.013254
69.685 17.182566
69.690 17.056395
69.695 16.951714
69.700 17.355961
69.705 16.810966
69.710 16.495836
69.715 16.472937
69.720 16.464931
69.725 16.79932
69.730 16.362104
69.735 15.545515
69.740 15.327888
69.745 15.310349
69.750 14.934674
69.755 14.559556
69.760 14.705066
69.765 14.73622
69.770 15.199353
69.775 15.567942
69.780 15.760987
69.785 15.563082
69.790 15.406157
69.795 15.351691
69.800 15.420197
69.805 15.361136
69.810 15.721055
69.815 16.203022
69.820 16.160295
69.825 15.588307
69.830 14.92837
69.835 14.47677
69.840 14.102514
69.845 13.539272
69.850 12.921313
69.855 13.162451
69.860 13.588556
69.865 14.345622
69.870 15.293962
69.875 16.005249
69.880 16.295259
69.885 16.340147
69.890 16.216078
69.895 15.89092
69.900 15.293263
69.905 14.748781
69.910 13.98937
69.915 13.758034
69.920 13.941853
69.925 14.034431
69.930 14.267892
69.935 14.494396
69.940 14.558385
69.945 15.126793
69.950 15.423477
69.955 15.378375
69.960 15.410781
69.965 15.923581
69.970 15.714923
69.975 15.534001
69.980 15.308401
69.985 15.652348
69.990 15.919554
69.995 15.716805
70.000 15.675074
70.005 15.153066
70.010 14.714029
70.015 14.575743
70.020 14.296996
70.025 14.409988
70.030 14.297701
70.035 13.672963
70.040 14.141658
70.045 14.280606
70.050 13.547292
70.055 12.784348
70.060 13.249092
70.065 14.229846
70.070 14.849703
70.075 14.795923
70.080 15.097438
70.085 15.881308
70.090 16.307005
70.095 15.48637
70.100 14.564527
70.105 14.287256
70.110 14.112988
70.115 14.196705
70.120 13.865419
70.125 13.864194
70.130 13.947806
70.135 14.140074
70.140 14.690378
70.145 15.063991
70.150 14.913636
70.155 15.066799
70.160 14.963902
70.165 14.645977
70.170 14.505354
70.175 14.181033
70.180 13.885439
70.185 13.762383
70.190 13.740189
70.195 14.444235
70.200 15.246717
70.205 15.323424
70.210 15.393583
70.215 15.591999
70.220 15.693971
70.225 15.122215
70.230 14.766108
70.235 14.438041
70.240 14.103532
70.245 13.762014
70.250 13.590914
70.255 13.394301
70.260 13.360998
70.265 13.256266
70.270 12.79609
70.275 12.93588
70.280 13.320516
70.285 13.695398
70.290 14.46436
70.295 14.410373
70.300 14.669835
70.305 15.283331
70.310 15.743298
70.315 15.657701
70.320 15.356109
70.325 14.800302
70.330 14.619752
70.335 14.273778
70.340 14.262407
70.345 14.643723
70.350 14.79732
70.355 14.573928
70.360 14.872414
70.365 15.270359
70.370 15.501338
70.375 15.67625
70.380 15.607498
70.385 15.940812
70.390 16.179014
70.395 16.24703
70.400 16.545736
70.405 16.939159
70.410 16.765009
70.415 16.4177
70.420 16.540625
70.425 16.734425
70.430 16.419439
70.435 15.950517
70.440 15.920367
70.445 15.693286
70.450 15.235221
70.455 14.875084
70.460 14.663876
70.465 15.021998
70.470 15.203934
70.475 15.326344
70.480 16.16378
70.485 16.655947
70.490 17.028605
70.495 17.076
70.500 16.543451
70.505 16.938896
70.510 16.312048
70.515 15.949668
70.520 15.620467
70.525 15.278955
70.530 15.196509
70.535 15.375918
70.540 15.457425
70.545 15.450094
70.550 15.282736
70.555 15.762591
70.560 16.225853
70.565 16.820889
70.570 16.9228
70.575 16.885206
70.580 16.814577
70.585 16.683659
70.590 15.981924
70.595 15.410542
70.600 14.926286
70.605 14.274256
70.610 13.93194
70.615 14.012756
70.620 13.947157
70.625 14.552752
70.630 15.012248
70.635 14.930822
70.640 14.564095
70.645 14.365048
70.650 14.09358
70.655 14.017786
70.660 13.564505
70.665 13.347338
70.670 13.499531
70.675 13.999219
70.680 14.247811
70.685 14.608788
70.690 14.370548
70.695 14.412542
70.700 14.407868
70.705 14.496093
70.710 14.758108
70.715 15.021775
70.720 15.433865
70.725 15.997564
70.730 16.135246
70.735 16.147949
70.740 15.856134
70.745 15.337428
70.750 16.035767
70.755 16.155659
70.760 16.507078
70.765 16.948071
70.770 17.350595
70.775 17.622683
70.780 17.413191
70.785 16.367252
70.790 15.864659
70.795 15.674302
70.800 15.156494
70.805 14.961169
70.810 14.781685
70.815 14.828331
70.820 14.933577
70.825 15.087517
70.830 14.896785
70.835 14.983418
70.840 14.530705
70.845 14.888627
70.850 14.92591
70.855 14.411954
70.860 13.81
70.865 13.050369
70.870 13.079481
70.875 13.257525
70.880 12.884319
70.885 13.048589
70.890 13.714025
70.895 14.423679
70.900 14.603703
70.905 14.857163
70.910 15.011465
70.915 15.108582
70.920 14.701345
70.925 14.091308
70.930 14.119508
70.935 14.408724
70.940 14.189612
70.945 13.990528
70.950 13.818282
70.955 14.123155
70.960 14.231125
70.965 13.908522
70.970 14.156658
70.975 14.435457
70.980 14.591784
70.985 15.017959
70.990 15.029211
70.995 14.550431
71.000 14.520763
71.005 14.446475
71.010 14.580229
71.015 14.585048
71.020 13.939308
71.025 14.182355
71.030 14.486884
71.035 14.532531
71.040 14.295958
71.045 14.477509
71.050 14.577164
71.055 15.040192
71.060 14.334229
71.065 14.669871
71.070 14.812149
71.075 14.690494
71.080 14.256866
71.085 14.379233
71.090 14.362653
71.095 14.608054
71.100 14.333567
71.105 14.001691
71.110 14.254591
71.115 14.365207
71.120 14.265466
71.125 14.245843
71.130 15.012288
71.135 15.625831
71.140 16.170361
71.145 15.722608
71.150 16.056202
71.155 15.944149
71.160 15.646691
71.165 14.974446
71.170 14.301088
71.175 13.897458
71.180 14.251024
71.185 14.136901
71.190 14.756336
71.195 15.355817
71.200 15.08012
71.205 15.157524
71.210 15.312569
71.215 15.062881
71.220 14.542142
71.225 13.95059
71.230 14.009976
71.235 14.415787
71.240 14.559489
71.245 14.838531
71.250 15.10043
71.255 15.739765
71.260 15.767826
71.265 15.538013
71.270 15.873695
71.275 15.479351
71.280 15.255681
71.285 14.709305
71.290 14.508203
71.295 14.765796
71.300 14.870699
71.305 15.159998
71.310 14.961151
71.315 14.986176
71.320 15.290583
71.325 15.2079
71.330 15.231428
71.335 14.931279
71.340 14.624607
71.345 14.897169
71.350 15.203251
71.355 15.33367
71.360 15.160168
71.365 14.979155
71.370 15.107689
71.375 15.24896
71.380 14.889855
71.385 14.804085
71.390 14.560542
71.395 14.819815
71.400 14.919792
71.405 15.238035
71.410 14.843026
71.415 14.836283
71.420 14.775027
71.425 14.878608
71.430 14.695366
71.435 14.516965
71.440 14.019185
71.445 14.876793
71.450 14.83665
71.455 14.997147
71.460 14.817588
71.465 14.868262
71.470 15.450196
71.475 14.896342
71.480 14.599218
71.485 15.037101
71.490 14.947667
71.495 15.215855
71.500 14.753488
71.505 13.946941
71.510 14.085916
71.515 13.808294
71.520 13.352368
71.525 13.001642
71.530 12.408982
71.535 12.795212
71.540 13.277963
71.545 13.514235
71.550 13.524653
71.555 13.827101
71.560 14.230659
71.565 14.671479
71.570 14.323151
71.575 14.370816
71.580 14.418165
71.585 14.600583
71.590 14.925674
71.595 14.884912
71.600 14.484889
71.605 14.953424
71.610 14.877481
71.615 14.888897
71.620 15.000421
71.625 14.556077
71.630 14.376666
71.635 14.149626
71.640 13.804974
71.645 14.161404
71.650 14.240212
71.655 14.079342
71.660 14.279194
71.665 14.565198
71.670 14.867318
71.675 15.499496
71.680 15.56393
71.685 14.745655
71.690 14.777976
71.695 14.494796
71.700 14.690462
71.705 14.757944
71.710 14.042984
71.715 13.972587
71.720 14.424056
71.725 14.540512
71.730 14.470956
71.735 14.236868
71.740 14.04512
71.745 14.410988
71.750 14.318372
71.755 14.53617
71.760 14.324872
71.765 14.12646
71.770 14.270489
71.775 14.362221
71.780 14.093779
71.785 14.069299
71.790 13.990775
71.795 14.675344
71.800 14.683889
71.805 14.652053
71.810 14.899952
71.815 14.911465
71.820 15.428872
71.825 14.808702
71.830 14.400505
71.835 14.376805
71.840 13.748018
71.845 13.750456
71.850 13.794253
71.855 13.760186
71.860 14.036289
71.865 14.33742
71.870 14.643158
71.875 15.08106
71.880 14.989954
71.885 14.520059
71.890 14.352292
71.895 14.323045
71.900 13.999682
71.905 14.295055
71.910 13.987118
71.915 13.791503
71.920 14.408689
71.925 14.217412
71.930 14.288506
71.935 14.462055
71.940 14.4776
71.945 14.280046
71.950 14.679003
71.955 14.550282
71.960 14.27674
71.965 14.312788
71.970 14.264268
71.975 14.25324
71.980 14.081346
71.985 13.196496
71.990 13.254325
71.995 13.512923
72.000 13.416535
72.005 13.573578
72.010 13.855899
72.015 14.47087
72.020 14.901629
72.025 15.729801
72.030 16.067738
72.035 16.071842
72.040 15.852569
72.045 15.702016
72.050 15.33184
72.055 15.014956
72.060 14.108583
72.065 13.739449
72.070 13.7681
72.075 13.805431
72.080 14.171553
72.085 14.409829
72.090 14.230398
72.095 14.712509
72.100 14.830006
72.105 14.857645
72.110 14.690385
72.115 14.410501
72.120 14.866445
72.125 14.98377
72.130 14.547587
72.135 14.80851
72.140 14.732972
72.145 14.603514
72.150 14.273308
72.155 14.178798
72.160 14.554022
72.165 14.861158
72.170 14.839047
72.175 14.830401
72.180 15.103397
72.185 15.062999
72.190 14.86976
72.195 15.009845
72.200 14.966815
72.205 15.17897
72.210 15.695503
72.215 15.636686
72.220 15.781693
72.225 15.809084
72.230 15.963511
72.235 15.597834
72.240 15.252266
72.245 15.027567
72.250 15.061389
72.255 14.847458
72.260 14.75428
72.265 14.387264
72.270 14.285853
72.275 14.521901
72.280 14.657684
72.285 14.073112
72.290 14.421703
72.295 13.872196
72.300 13.856343
72.305 13.535172
72.310 13.153678
72.315 13.409376
72.320 13.641119
72.325 13.398016
72.330 13.705513
72.335 13.984306
72.340 14.254588
72.345 14.12957
72.350 14.392743
72.355 14.986816
72.360 15.208124
72.365 15.066674
72.370 15.174186
72.375 15.194137
72.380 15.291452
72.385 14.537619
72.390 14.154241
72.395 14.099489
72.400 13.684584
72.405 13.40132
72.410 13.637153
72.415 13.440639
72.420 13.404262
72.425 13.526292
72.430 13.944863
72.435 14.416168
72.440 14.161315
72.445 14.174125
72.450 14.620411
72.455 14.996511
72.460 14.733989
72.465 14.421553
72.470 14.479528
72.475 14.480515
72.480 14.531685
72.485 14.281595
72.490 14.209012
72.495 14.316896
72.500 14.465434
72.505 13.985462
72.510 13.864966
72.515 13.852204
72.520 13.603374
72.525 13.306428
72.530 12.84486
72.535 12.724118
72.540 12.999336
72.545 12.918991
72.550 13.02684
72.555 13.415745
72.560 13.579723
72.565 13.719668
72.570 13.588151
72.575 13.49915
72.580 13.274475
72.585 12.902369
72.590 12.893993
72.595 12.826161
72.600 12.997494
72.605 13.578716
72.610 13.91503
72.615 14.227781
72.620 14.466817
72.625 13.933455
72.630 14.631702
72.635 14.838326
72.640 14.949342
72.645 14.428995
72.650 14.094992
72.655 14.160358
72.660 14.150667
72.665 13.925406
72.670 13.330253
72.675 13.023294
72.680 13.566646
72.685 13.890822
72.690 14.192824
72.695 14.454734
72.700 14.505724
72.705 14.519258
72.710 14.42347
72.715 14.296973
72.720 13.635642
72.725 13.858665
72.730 13.630256
72.735 13.61228
72.740 13.802461
72.745 13.610697
72.750 13.146827
72.755 13.507277
72.760 13.251601
72.765 13.323189
72.770 13.87574
72.775 13.894913
72.780 14.343332
72.785 14.599876
72.790 14.502072
72.795 14.324446
72.800 14.04578
72.805 13.722792
72.810 13.969189
72.815 14.24458
72.820 14.289456
72.825 14.269089
72.830 14.504016
72.835 14.8079
72.840 14.712923
72.845 14.551291
72.850 14.525912
72.855 14.71964
72.860 14.552661
72.865 14.289958
72.870 14.37472
72.875 14.345005
72.880 14.059443
72.885 14.193107
72.890 14.259409
72.895 14.608979
72.900 14.526695
72.905 14.430824
72.910 14.601136
72.915 14.886219
72.920 14.713694
72.925 14.161292
72.930 13.728178
72.935 13.787293
72.940 13.86809
72.945 14.022216
72.950 13.509103
72.955 13.582597
72.960 14.217005
72.965 14.79199
72.970 14.799196
72.975 14.931836
72.980 14.934711
72.985 15.097007
72.990 14.962308
72.995 14.742426
73.000 14.791289
