!@!!GADDS PLOTSO FILE: Chi integration type
!@!!Title/SampleName: map-95
!@!!Comment: ?
!@!!User: Bruker Instrument Administrator
!@!!Site: University of Illinois Chicago
!@!!Frame: map-95_01_000.gfrm
!@!!Wavelengths    1.54184   1.54056   1.54439
!@!!Frame angles: 2Theta: 63.000 Omega: 50.000 Phi: 0.000 Chi: 90.000
!@!!Integration range: 2Theta: 53.000 to 73.000  Gamma: -105.000 to -75.000
!@!!Integration method: bin normalized
!@!N
!@!SS
!@!M
!@!L 0.0 0.0 0.0 0.0
!@!XDegrees
!@!YCounts
53.000 9.984854
53.005 10.687374
53.010 11.029393
53.015 10.699399
53.020 10.833388
53.025 11.191452
53.030 10.82626
53.035 10.713078
53.040 10.368459
53.045 10.256115
53.050 10.28268
53.055 10.374699
53.060 10.101612
53.065 9.879175
53.070 9.103021
53.075 8.568359
53.080 8.670863
53.085 8.536822
53.090 8.517159
53.095 8.260445
53.100 8.338933
53.105 8.614199
53.110 9.062248
53.115 9.361057
53.120 10.053526
53.125 10.075423
53.130 10.490336
53.135 10.545079
53.140 10.455079
53.145 10.267195
53.150 10.043548
53.155 9.310364
53.160 9.365876
53.165 9.160453
53.170 9.193124
53.175 8.894098
53.180 8.864696
53.185 9.054221
53.190 9.361043
53.195 9.43847
53.200 9.390041
53.205 9.448044
53.210 9.631947
53.215 9.460419
53.220 9.044517
53.225 8.744066
53.230 8.279797
53.235 8.746662
53.240 9.071863
53.245 9.201762
53.250 9.163013
53.255 9.247366
53.260 9.554158
53.265 9.687182
53.270 9.764495
53.275 9.877891
53.280 10.235633
53.285 10.565635
53.290 10.491754
53.295 10.573229
53.300 10.274684
53.305 9.868417
53.310 9.634628
53.315 9.095204
53.320 8.627692
53.325 8.225714
53.330 7.939195
53.335 7.651376
53.340 7.621414
53.345 7.658918
53.350 7.971811
53.355 8.910139
53.360 8.995886
53.365 9.134842
53.370 9.676031
53.375 9.973436
53.380 10.299264
53.385 9.821816
53.390 9.627982
53.395 10.017137
53.400 10.130245
53.405 10.187479
53.410 10.344317
53.415 10.404883
53.420 10.339046
53.425 10.121651
53.430 10.104717
53.435 9.938304
53.440 9.979386
53.445 9.70645
53.450 9.410307
53.455 9.381663
53.460 9.743343
53.465 9.489573
53.470 9.518866
53.475 9.395304
53.480 9.376534
53.485 9.631098
53.490 9.68418
53.495 9.378925
53.500 9.529948
53.505 9.346567
53.510 9.378373
53.515 9.611226
53.520 10.36362
53.525 10.917349
53.530 10.777221
53.535 10.577705
53.540 10.544842
53.545 10.724626
53.550 10.499828
53.555 9.475196
53.560 9.038733
53.565 9.340452
53.570 9.271928
53.575 9.419606
53.580 9.526035
53.585 9.954628
53.590 10.405868
53.595 10.387278
53.600 10.628148
53.605 11.294927
53.610 11.08844
53.615 10.361209
53.620 10.352184
53.625 10.191701
53.630 10.724699
53.635 10.849282
53.640 10.683627
53.645 11.298452
53.650 11.653459
53.655 11.70128
53.660 12.125255
53.665 11.780101
53.670 11.380336
53.675 11.228215
53.680 11.036939
53.685 11.191558
53.690 11.003631
53.695 11.152033
53.700 11.284307
53.705 11.740086
53.710 11.807858
53.715 12.045917
53.720 12.311129
53.725 12.872849
53.730 12.678151
53.735 12.744995
53.740 12.302588
53.745 12.253695
53.750 11.765699
53.755 11.165813
53.760 10.80688
53.765 11.486367
53.770 11.860607
53.775 11.896527
53.780 11.80951
53.785 12.137074
53.790 11.91498
53.795 11.492992
53.800 11.055971
53.805 11.084629
53.810 10.968224
53.815 10.435798
53.820 9.998202
53.825 10.000853
53.830 9.955919
53.835 9.510003
53.840 9.520329
53.845 10.054465
53.850 10.70093
53.855 10.780309
53.860 11.017794
53.865 11.136489
53.870 11.104322
53.875 11.055269
53.880 10.991803
53.885 10.983512
53.890 10.937017
53.895 10.835034
53.900 11.010392
53.905 11.005429
53.910 10.979832
53.915 10.773559
53.920 10.629261
53.925 11.124303
53.930 10.883087
53.935 10.329933
53.940 10.168431
53.945 10.147506
53.950 10.519745
53.955 10.514973
53.960 10.75143
53.965 10.745232
53.970 11.083579
53.975 11.460174
53.980 11.106181
53.985 10.686625
53.990 10.339971
53.995 9.979258
54.000 10.06102
54.005 9.469652
54.010 9.198777
54.015 9.415472
54.020 9.743812
54.025 9.851005
54.030 10.376482
54.035 10.754924
54.040 10.998178
54.045 10.696164
54.050 11.05946
54.055 10.637585
54.060 10.63929
54.065 10.286441
54.070 9.949612
54.075 9.962565
54.080 10.336128
54.085 10.203218
54.090 10.267387
54.095 10.445179
54.100 10.47025
54.105 11.211916
54.110 11.204941
54.115 10.99918
54.120 11.013185
54.125 11.05046
54.130 10.787118
54.135 10.668006
54.140 10.181307
54.145 9.85373
54.150 9.83954
54.155 9.822614
54.160 9.895339
54.165 10.673109
54.170 11.176897
54.175 11.754588
54.180 12.043886
54.185 11.644793
54.190 11.426614
54.195 10.761219
54.200 10.02381
54.205 9.485401
54.210 9.62596
54.215 9.939154
54.220 10.535017
54.225 11.306172
54.230 12.002486
54.235 12.148664
54.240 12.333078
54.245 12.185696
54.250 12.104762
54.255 11.759575
54.260 11.368944
54.265 11.280544
54.270 11.170068
54.275 10.957847
54.280 10.939098
54.285 11.416933
54.290 11.574017
54.295 11.589208
54.300 11.608727
54.305 11.929262
54.310 12.274594
54.315 11.818458
54.320 11.242762
54.325 11.215605
54.330 10.886724
54.335 10.621214
54.340 10.174618
54.345 10.255052
54.350 10.271772
54.355 10.38513
54.360 10.767426
54.365 11.221293
54.370 11.416075
54.375 11.320407
54.380 11.015096
54.385 11.096848
54.390 11.182802
54.395 11.129706
54.400 11.147551
54.405 11.276523
54.410 11.94872
54.415 12.156935
54.420 12.414137
54.425 12.017156
54.430 12.163396
54.435 12.150325
54.440 12.49193
54.445 12.46928
54.450 12.55358
54.455 12.172482
54.460 11.939625
54.465 11.454904
54.470 11.39416
54.475 10.868291
54.480 10.382113
54.485 10.160945
54.490 10.21495
54.495 10.262083
54.500 10.105077
54.505 9.738802
54.510 9.569112
54.515 9.821687
54.520 9.865532
54.525 9.734937
54.530 9.791162
54.535 10.508883
54.540 10.585733
54.545 10.721005
54.550 10.803307
54.555 11.058021
54.560 11.411797
54.565 11.442465
54.570 11.371623
54.575 11.833486
54.580 11.45745
54.585 11.183304
54.590 10.704298
54.595 10.414948
54.600 10.14332
54.605 9.438874
54.610 9.353375
54.615 9.407468
54.620 10.110875
54.625 10.690568
54.630 10.945916
54.635 10.785084
54.640 10.879035
54.645 10.856138
54.650 11.316618
54.655 10.983272
54.660 10.83889
54.665 10.610239
54.670 10.745582
54.675 10.703403
54.680 10.560259
54.685 9.893004
54.690 9.804512
54.695 9.734002
54.700 9.98732
54.705 9.999786
54.710 10.360775
54.715 10.78305
54.720 10.962124
54.725 11.182633
54.730 11.273228
54.735 11.262313
54.740 11.552872
54.745 11.660389
54.750 11.439297
54.755 11.106199
54.760 10.957462
54.765 11.274884
54.770 11.454834
54.775 10.721348
54.780 10.497178
54.785 10.215243
54.790 10.362115
54.795 10.480812
54.800 10.246949
54.805 10.439818
54.810 10.824556
54.815 11.358672
54.820 11.988152
54.825 11.830184
54.830 11.421121
54.835 11.555204
54.840 11.491933
54.845 11.332404
54.850 11.172045
54.855 11.049617
54.860 11.263955
54.865 11.880918
54.870 12.500131
54.875 13.235814
54.880 13.511628
54.885 13.818976
54.890 14.258583
54.895 14.447738
54.900 14.230778
54.905 13.811023
54.910 13.744839
54.915 13.923531
54.920 13.554746
54.925 13.306953
54.930 13.455043
54.935 13.19917
54.940 12.852287
54.945 12.612834
54.950 12.426359
54.955 12.696584
54.960 12.30985
54.965 12.006467
54.970 12.139262
54.975 12.058443
54.980 11.649913
54.985 11.542844
54.990 11.063658
54.995 10.809855
55.000 10.050584
55.005 9.760393
55.010 9.720967
55.015 9.783271
55.020 9.793441
55.025 10.300359
55.030 10.727418
55.035 11.16338
55.040 11.092175
55.045 11.330528
55.050 11.533883
55.055 11.586692
55.060 11.092738
55.065 11.015809
55.070 11.367693
55.075 11.650471
55.080 11.395432
55.085 10.98833
55.090 11.600726
55.095 12.186318
55.100 12.584042
55.105 12.715919
55.110 12.778514
55.115 12.82443
55.120 12.974207
55.125 12.402575
55.130 12.432439
55.135 12.382718
55.140 12.160406
55.145 12.094605
55.150 12.240281
55.155 12.389926
55.160 12.744646
55.165 12.484154
55.170 12.315258
55.175 12.740087
55.180 13.042787
55.185 12.706932
55.190 12.162893
55.195 11.985295
55.200 11.993076
55.205 11.880396
55.210 11.1846
55.215 11.195623
55.220 10.976222
55.225 11.497295
55.230 11.368891
55.235 11.55517
55.240 11.266575
55.245 10.828099
55.250 10.971119
55.255 11.306018
55.260 10.700368
55.265 10.742398
55.270 10.556623
55.275 10.853077
55.280 11.266505
55.285 11.056703
55.290 11.418243
55.295 11.707364
55.300 11.571027
55.305 11.870212
55.310 11.908641
55.315 11.717979
55.320 11.647173
55.325 11.225623
55.330 11.244423
55.335 11.096185
55.340 10.997231
55.345 10.591662
55.350 10.751972
55.355 11.044019
55.360 11.382401
55.365 11.355632
55.370 11.163074
55.375 11.296361
55.380 11.592789
55.385 11.176507
55.390 10.873138
55.395 10.615935
55.400 11.20814
55.405 11.572443
55.410 11.354578
55.415 11.556409
55.420 11.884233
55.425 12.045158
55.430 12.206391
55.435 11.799099
55.440 11.960947
55.445 12.031979
55.450 11.6316
55.455 11.09202
55.460 11.310791
55.465 11.461281
55.470 11.152601
55.475 11.039194
55.480 11.252355
55.485 11.562123
55.490 11.942499
55.495 11.779315
55.500 11.950358
55.505 11.938151
55.510 11.735492
55.515 11.374228
55.520 11.430056
55.525 10.779444
55.530 10.365408
55.535 10.416231
55.540 10.808946
55.545 11.056583
55.550 12.249379
55.555 12.943931
55.560 13.426659
55.565 13.650057
55.570 13.789526
55.575 13.48228
55.580 13.500525
55.585 12.786157
55.590 12.605906
55.595 13.312059
55.600 13.335694
55.605 12.715117
55.610 12.88108
55.615 12.697751
55.620 12.326298
55.625 12.298503
55.630 11.56483
55.635 11.478738
55.640 11.705666
55.645 11.813231
55.650 12.07219
55.655 12.221807
55.660 12.097747
55.665 12.427517
55.670 12.35855
55.675 12.359479
55.680 12.071612
55.685 12.389211
55.690 12.745479
55.695 12.81813
55.700 12.660369
55.705 12.753258
55.710 12.797805
55.715 12.713422
55.720 12.214432
55.725 11.883114
55.730 11.940058
55.735 12.068343
55.740 12.297789
55.745 12.462708
55.750 12.629745
55.755 13.170698
55.760 13.105202
55.765 13.501682
55.770 13.627696
55.775 13.458135
55.780 13.779721
55.785 13.920168
55.790 13.631834
55.795 13.406667
55.800 12.600859
55.805 12.524048
55.810 12.611605
55.815 12.56539
55.820 12.353948
55.825 12.393428
55.830 12.589267
55.835 13.267674
55.840 13.247842
55.845 13.088743
55.850 13.219046
55.855 13.182492
55.860 12.919649
55.865 12.741281
55.870 12.034771
55.875 11.740517
55.880 11.413497
55.885 11.430483
55.890 11.529494
55.895 12.210979
55.900 12.233718
55.905 12.302657
55.910 12.544456
55.915 12.412882
55.920 12.019113
55.925 11.762267
55.930 11.37503
55.935 11.300372
55.940 11.708522
55.945 12.311818
55.950 12.620619
55.955 12.995973
55.960 13.128576
55.965 12.821987
55.970 12.917747
55.975 12.859723
55.980 12.766057
55.985 12.826565
55.990 12.812558
55.995 12.993768
56.000 13.232005
56.005 13.185762
56.010 12.623956
56.015 12.006978
56.020 11.510815
56.025 11.612437
56.030 11.738452
56.035 11.572603
56.040 11.663466
56.045 11.908486
56.050 12.537611
56.055 12.447919
56.060 11.877103
56.065 11.591754
56.070 11.394531
56.075 11.608435
56.080 11.690667
56.085 11.435786
56.090 11.729656
56.095 12.36869
56.100 12.559456
56.105 12.861256
56.110 12.911956
56.115 13.126191
56.120 12.895273
56.125 12.819596
56.130 12.788102
56.135 12.951896
56.140 13.059779
56.145 13.019367
56.150 12.377382
56.155 12.393677
56.160 12.384731
56.165 11.887326
56.170 11.443446
56.175 10.939333
56.180 10.87382
56.185 11.393138
56.190 11.610743
56.195 11.695903
56.200 12.034857
56.205 12.254886
56.210 12.28369
56.215 12.896991
56.220 13.092857
56.225 13.171204
56.230 13.404774
56.235 13.819302
56.240 14.070024
56.245 14.943363
56.250 14.784678
56.255 14.952128
56.260 14.881032
56.265 14.794183
56.270 14.393836
56.275 14.297043
56.280 13.60164
56.285 13.577418
56.290 13.945555
56.295 13.740102
56.300 13.714551
56.305 14.106822
56.310 14.318348
56.315 14.532139
56.320 14.701737
56.325 14.364489
56.330 14.145828
56.335 14.293923
56.340 14.130783
56.345 13.389374
56.350 12.643245
56.355 12.070367
56.360 11.915709
56.365 11.756621
56.370 11.598939
56.375 11.707631
56.380 12.417147
56.385 12.7414
56.390 12.461384
56.395 12.604759
56.400 12.770947
56.405 12.424185
56.410 12.262345
56.415 11.707956
56.420 11.943668
56.425 11.85943
56.430 12.603668
56.435 13.045071
56.440 12.885479
56.445 13.208185
56.450 13.720195
56.455 14.520382
56.460 14.77842
56.465 14.365689
56.470 14.581096
56.475 15.190469
56.480 15.255013
56.485 15.289863
56.490 15.253182
56.495 15.124232
56.500 14.710666
56.505 14.459382
56.510 14.042198
56.515 13.920913
56.520 13.349698
56.525 12.688554
56.530 12.534087
56.535 12.586047
56.540 13.257667
56.545 13.364984
56.550 13.088127
56.555 12.927575
56.560 12.913369
56.565 12.918686
56.570 12.70176
56.575 12.017338
56.580 12.165109
56.585 12.628001
56.590 12.491527
56.595 12.480919
56.600 12.636366
56.605 12.585659
56.610 12.744964
56.615 12.047462
56.620 11.504864
56.625 11.830997
56.630 12.234812
56.635 12.257266
56.640 12.393724
56.645 12.700567
56.650 13.259079
56.655 13.584729
56.660 13.847791
56.665 13.983859
56.670 13.777185
56.675 13.414655
56.680 13.302364
56.685 13.346465
56.690 13.015107
56.695 12.577226
56.700 12.740522
56.705 12.845095
56.710 12.725021
56.715 12.901474
56.720 12.969392
56.725 13.291841
56.730 13.534651
56.735 13.886936
56.740 14.379441
56.745 14.765756
56.750 14.260972
56.755 14.131612
56.760 14.307583
56.765 13.940499
56.770 13.682299
56.775 13.463014
56.780 13.261848
56.785 13.9404
56.790 14.309285
56.795 14.044597
56.800 14.083686
56.805 13.926794
56.810 14.047003
56.815 14.132268
56.820 13.506255
56.825 13.16618
56.830 13.001938
56.835 13.371092
56.840 13.658256
56.845 13.472815
56.850 13.34821
56.855 13.783704
56.860 14.034415
56.865 13.873529
56.870 13.271635
56.875 12.863971
56.880 12.894848
56.885 13.620371
56.890 13.375551
56.895 13.520639
56.900 14.105448
56.905 14.246912
56.910 14.631883
56.915 14.345922
56.920 13.287066
56.925 13.224538
56.930 13.057034
56.935 13.566866
56.940 13.530896
56.945 13.43608
56.950 13.75215
56.955 14.185649
56.960 14.019876
56.965 13.856642
56.970 13.09576
56.975 13.493416
56.980 13.424885
56.985 13.175907
56.990 13.388863
56.995 13.24007
57.000 13.229104
57.005 13.354316
57.010 13.125665
57.015 13.002135
57.020 12.840837
57.025 12.720713
57.030 12.663012
57.035 12.428856
57.040 12.341994
57.045 12.501667
57.050 12.574587
57.055 12.354831
57.060 12.721239
57.065 12.886436
57.070 12.683809
57.075 13.005663
57.080 13.546144
57.085 14.057196
57.090 14.630778
57.095 14.82663
57.100 14.896086
57.105 15.298835
57.110 15.055211
57.115 14.863935
57.120 15.016313
57.125 15.251327
57.130 15.240908
57.135 15.303246
57.140 15.605463
57.145 15.331762
57.150 15.03056
57.155 14.475373
57.160 14.101175
57.165 14.164803
57.170 14.025562
57.175 13.178079
57.180 13.004227
57.185 12.703553
57.190 12.688386
57.195 12.347466
57.200 12.455239
57.205 12.876653
57.210 13.476143
57.215 13.923752
57.220 13.989158
57.225 14.101594
57.230 13.965048
57.235 13.639259
57.240 13.689195
57.245 13.788449
57.250 13.525712
57.255 13.68076
57.260 14.015938
57.265 14.119099
57.270 14.120726
57.275 13.851757
57.280 13.983356
57.285 14.030834
57.290 14.119238
57.295 13.73274
57.300 13.58278
57.305 13.845188
57.310 13.975702
57.315 14.312195
57.320 14.645096
57.325 14.419729
57.330 14.387066
57.335 14.565093
57.340 14.320557
57.345 14.220031
57.350 13.942557
57.355 14.047587
57.360 13.916691
57.365 14.106732
57.370 13.676192
57.375 14.015642
57.380 14.157741
57.385 14.397078
57.390 14.218316
57.395 14.253424
57.400 14.186322
57.405 14.461452
57.410 14.02321
57.415 13.951262
57.420 13.975295
57.425 14.179197
57.430 14.26588
57.435 14.128474
57.440 14.216351
57.445 14.428307
57.450 14.085543
57.455 13.512796
57.460 13.848272
57.465 14.156158
57.470 14.447773
57.475 13.984326
57.480 13.586197
57.485 13.350614
57.490 13.665022
57.495 13.285005
57.500 13.859907
57.505 13.956467
57.510 13.876063
57.515 14.035005
57.520 14.16151
57.525 13.931679
57.530 13.685598
57.535 13.326804
57.540 13.259021
57.545 13.526078
57.550 13.461405
57.555 13.756293
57.560 14.275284
57.565 14.606679
57.570 14.423738
57.575 14.398252
57.580 14.518115
57.585 14.884736
57.590 15.198086
57.595 14.774846
57.600 14.975571
57.605 15.474061
57.610 15.977489
57.615 15.765801
57.620 15.591056
57.625 15.603081
57.630 15.372822
57.635 14.909707
57.640 14.296397
57.645 13.872535
57.650 13.794625
57.655 13.787082
57.660 13.789604
57.665 14.096813
57.670 14.156877
57.675 14.655051
57.680 14.785922
57.685 14.950502
57.690 15.084538
57.695 15.545217
57.700 15.536243
57.705 15.723254
57.710 15.245067
57.715 15.780704
57.720 16.086315
57.725 15.95916
57.730 15.730469
57.735 15.307021
57.740 14.846921
57.745 15.331352
57.750 14.992384
57.755 14.618006
57.760 14.532755
57.765 14.912724
57.770 15.27623
57.775 15.688764
57.780 15.480278
57.785 16.061352
57.790 16.4063
57.795 16.576805
57.800 16.72064
57.805 17.504288
57.810 17.370605
57.815 17.154318
57.820 16.677786
57.825 16.790987
57.830 16.891548
57.835 16.540646
57.840 16.048084
57.845 16.034948
57.850 15.975927
57.855 16.007648
57.860 15.516847
57.865 14.568412
57.870 14.626369
57.875 14.603703
57.880 14.690481
57.885 14.017273
57.890 13.655499
57.895 14.116756
57.900 14.833689
57.905 14.965446
57.910 15.258766
57.915 15.547907
57.920 15.770679
57.925 15.862443
57.930 15.680457
57.935 16.063606
57.940 15.935351
57.945 16.422672
57.950 17.081516
57.955 17.569132
57.960 18.060692
57.965 18.430216
57.970 18.187309
57.975 17.702944
57.980 16.913534
57.985 16.454872
57.990 16.706549
57.995 16.504171
58.000 15.988573
58.005 15.969637
58.010 16.140356
58.015 16.165152
58.020 15.809627
58.025 15.841318
58.030 15.863503
58.035 15.93553
58.040 16.012951
58.045 16.515093
58.050 16.532089
58.055 17.345776
58.060 17.450617
58.065 17.160835
58.070 17.230942
58.075 17.060328
58.080 16.701134
58.085 16.935432
58.090 16.582596
58.095 16.659479
58.100 17.060371
58.105 17.040287
58.110 16.881964
58.115 16.787245
58.120 16.909348
58.125 16.717396
58.130 16.888731
58.135 17.202364
58.140 17.192467
58.145 17.461803
58.150 17.787395
58.155 17.46933
58.160 17.599308
58.165 17.23815
58.170 17.171522
58.175 17.735838
58.180 18.172331
58.185 18.532368
58.190 18.623724
58.195 18.638384
58.200 18.221813
58.205 17.471764
58.210 17.092648
58.215 17.054235
58.220 16.58279
58.225 16.271297
58.230 16.532373
58.235 16.981647
58.240 17.568428
58.245 16.859444
58.250 16.714888
58.255 17.248209
58.260 17.080235
58.265 16.32423
58.270 15.754259
58.275 15.607157
58.280 16.072607
58.285 15.750622
58.290 15.492152
58.295 15.88875
58.300 17.324369
58.305 17.999222
58.310 18.1015
58.315 18.037718
58.320 17.746479
58.325 18.169411
58.330 18.036034
58.335 17.808588
58.340 18.291965
58.345 18.186604
58.350 18.100437
58.355 18.28359
58.360 17.91717
58.365 17.999258
58.370 17.875288
58.375 17.874981
58.380 17.96199
58.385 18.14226
58.390 18.508816
58.395 19.270308
58.400 20.031591
58.405 19.838243
58.410 19.588636
58.415 20.020876
58.420 20.481329
58.425 20.789982
58.430 20.769976
58.435 20.719011
58.440 21.186672
58.445 21.752043
58.450 22.201979
58.455 22.996235
58.460 23.409029
58.465 23.449554
58.470 23.632719
58.475 23.534575
58.480 23.609806
58.485 23.641296
58.490 23.879389
58.495 24.095329
58.500 24.083422
58.505 24.835325
58.510 25.808929
58.515 26.404776
58.520 26.695883
58.525 26.869179
58.530 27.380249
58.535 27.577005
58.540 27.478144
58.545 27.557587
58.550 28.156631
58.555 28.66271
58.560 29.297089
58.565 29.380165
58.570 29.912481
58.575 30.437626
58.580 30.405293
58.585 30.599564
58.590 31.206581
58.595 33.191208
58.600 35.05608
58.605 35.766083
58.610 36.109974
58.615 36.647373
58.620 37.066257
58.625 37.956013
58.630 38.153614
58.635 37.761608
58.640 38.074017
58.645 37.991199
58.650 38.553558
58.655 38.999336
58.660 38.24461
58.665 38.119926
58.670 38.213181
58.675 38.297359
58.680 38.008614
58.685 37.831886
58.690 38.060017
58.695 39.151974
58.700 39.081276
58.705 38.735767
58.710 38.861805
58.715 39.198967
58.720 39.278782
58.725 38.057442
58.730 36.225983
58.735 35.753632
58.740 36.194138
58.745 36.748749
58.750 37.031452
58.755 36.710659
58.760 37.168877
58.765 37.109791
58.770 36.757786
58.775 36.704239
58.780 36.061131
58.785 35.093754
58.790 35.055283
58.795 34.815094
58.800 34.706005
58.805 34.18214
58.810 33.052219
58.815 32.815937
58.820 32.434258
58.825 32.253761
58.830 31.821852
58.835 31.282675
58.840 31.308689
58.845 30.370512
58.850 29.736132
58.855 29.886097
58.860 29.849915
58.865 30.074921
58.870 29.911871
58.875 29.776627
58.880 29.647621
58.885 28.999266
58.890 28.000603
58.895 27.115372
58.900 26.376556
58.905 25.763428
58.910 24.856995
58.915 24.34296
58.920 24.462616
58.925 24.4758
58.930 24.014421
58.935 22.995842
58.940 21.713348
58.945 21.653727
58.950 22.232008
58.955 21.274996
58.960 21.024307
58.965 20.682184
58.970 20.557961
58.975 20.885014
58.980 20.433533
58.985 19.565847
58.990 19.72331
58.995 19.851728
59.000 19.877066
59.005 19.880554
59.010 19.629375
59.015 19.662148
59.020 19.008051
59.025 17.96133
59.030 17.322042
59.035 17.51985
59.040 17.878582
59.045 17.632433
59.050 18.20447
59.055 19.114471
59.060 19.69545
59.065 19.868044
59.070 19.737806
59.075 19.399033
59.080 19.360481
59.085 18.714827
59.090 18.832443
59.095 18.817083
59.100 18.840122
59.105 18.829962
59.110 18.53686
59.115 18.080521
59.120 17.601809
59.125 17.051237
59.130 16.468969
59.135 15.492058
59.140 15.50547
59.145 15.197989
59.150 15.241647
59.155 15.206047
59.160 14.746107
59.165 15.215959
59.170 15.882581
59.175 15.658652
59.180 15.903532
59.185 15.971685
59.190 16.369162
59.195 16.185284
59.200 15.811353
59.205 15.606947
59.210 15.664137
59.215 15.117244
59.220 14.616541
59.225 14.780688
59.230 15.801011
59.235 16.340549
59.240 16.032351
59.245 16.23455
59.250 17.004511
59.255 17.270863
59.260 16.940203
59.265 16.430853
59.270 16.755442
59.275 17.129377
59.280 16.905811
59.285 16.790653
59.290 16.8062
59.295 16.985384
59.300 16.954237
59.305 16.061897
59.310 15.776249
59.315 15.611398
59.320 15.359178
59.325 15.168906
59.330 15.098022
59.335 15.27995
59.340 15.456385
59.345 15.245163
59.350 15.27276
59.355 15.719082
59.360 16.296438
59.365 16.391752
59.370 16.195959
59.375 16.344997
59.380 16.458445
59.385 16.790789
59.390 16.989525
59.395 16.355631
59.400 16.546396
59.405 16.863708
59.410 16.658764
59.415 16.163092
59.420 15.277976
59.425 14.176101
59.430 14.097126
59.435 13.179694
59.440 12.867793
59.445 12.701317
59.450 12.805391
59.455 13.387072
59.460 14.479539
59.465 15.04959
59.470 16.008333
59.475 16.502075
59.480 17.12929
59.485 17.519812
59.490 17.57317
59.495 17.126102
59.500 16.549877
59.505 15.938263
59.510 15.391448
59.515 15.300095
59.520 15.125121
59.525 14.851493
59.530 14.311699
59.535 14.287704
59.540 14.033085
59.545 14.232623
59.550 13.717141
59.555 13.749586
59.560 14.313308
59.565 14.588882
59.570 14.664893
59.575 14.683091
59.580 14.533077
59.585 14.886427
59.590 15.599137
59.595 15.309224
59.600 15.627284
59.605 15.266728
59.610 15.42049
59.615 15.262523
59.620 15.138204
59.625 14.744163
59.630 14.749269
59.635 14.51277
59.640 15.008626
59.645 14.898168
59.650 15.102872
59.655 15.297818
59.660 15.65387
59.665 15.777004
59.670 15.562089
59.675 15.473516
59.680 15.646432
59.685 16.155983
59.690 15.845041
59.695 15.401612
59.700 15.829031
59.705 16.073246
59.710 16.012875
59.715 16.053001
59.720 15.805267
59.725 16.170385
59.730 16.653929
59.735 16.215174
59.740 16.216045
59.745 15.918203
59.750 15.666664
59.755 16.064426
59.760 16.176163
59.765 16.191231
59.770 16.416424
59.775 16.676788
59.780 17.210474
59.785 17.22415
59.790 17.294693
59.795 16.972216
59.800 16.913956
59.805 16.481251
59.810 16.355566
59.815 16.273008
59.820 16.477716
59.825 16.148708
59.830 15.797348
59.835 15.420058
59.840 15.371929
59.845 15.275496
59.850 15.317088
59.855 14.756779
59.860 14.662804
59.865 14.481893
59.870 14.377279
59.875 15.172281
59.880 15.939325
59.885 15.976542
59.890 16.225824
59.895 16.676884
59.900 16.882364
59.905 17.026085
59.910 16.461971
59.915 15.917768
59.920 16.048239
59.925 16.30052
59.930 16.694693
59.935 16.757492
59.940 16.497402
59.945 16.156603
59.950 15.753534
59.955 15.464542
59.960 14.543584
59.965 14.076726
59.970 13.928987
59.975 14.165209
59.980 13.907492
59.985 14.386303
59.990 14.120027
59.995 14.73566
60.000 15.114788
60.005 15.600508
60.010 15.597725
60.015 16.088274
60.020 16.133942
60.025 16.629021
60.030 16.678072
60.035 16.156569
60.040 15.681625
60.045 16.078346
60.050 16.028496
60.055 15.930473
60.060 15.889257
60.065 15.595542
60.070 15.409427
60.075 15.438784
60.080 15.084837
60.085 15.266224
60.090 15.678161
60.095 15.816999
60.100 16.184633
60.105 16.558004
60.110 16.329607
60.115 15.918803
60.120 15.639414
60.125 15.402315
60.130 14.913926
60.135 15.02934
60.140 15.374937
60.145 15.556487
60.150 15.80631
60.155 16.375143
60.160 16.302883
60.165 16.402897
60.170 16.199858
60.175 16.460022
60.180 16.973349
60.185 17.526491
60.190 17.065109
60.195 16.626806
60.200 16.113909
60.205 15.650146
60.210 15.19107
60.215 14.846381
60.220 14.147533
60.225 14.242524
60.230 14.74869
60.235 15.227991
60.240 15.477039
60.245 15.136909
60.250 14.942837
60.255 14.955419
60.260 14.356156
60.265 13.964712
60.270 14.249532
60.275 14.33364
60.280 14.49743
60.285 14.580079
60.290 14.464894
60.295 14.941081
60.300 15.275187
60.305 15.17728
60.310 14.841052
60.315 14.957988
60.320 15.619518
60.325 16.744703
60.330 16.931753
60.335 16.888763
60.340 16.859396
60.345 16.945229
60.350 17.146294
60.355 16.222815
60.360 15.851044
60.365 15.256859
60.370 15.116397
60.375 14.893718
60.380 14.945438
60.385 14.433772
60.390 14.664885
60.395 14.944138
60.400 15.342494
60.405 15.188188
60.410 15.32532
60.415 15.419645
60.420 15.530217
60.425 15.673831
60.430 15.802059
60.435 15.980851
60.440 16.300898
60.445 16.154444
60.450 16.763092
60.455 17.022982
60.460 16.96278
60.465 16.428511
60.470 16.121235
60.475 16.078609
60.480 15.872608
60.485 15.194963
60.490 14.65149
60.495 14.935307
60.500 14.796186
60.505 15.250951
60.510 15.505856
60.515 15.74572
60.520 15.739175
60.525 16.08618
60.530 15.637947
60.535 15.80619
60.540 15.432521
60.545 15.587513
60.550 15.77934
60.555 15.835118
60.560 15.804146
60.565 15.928963
60.570 15.2527
60.575 15.105455
60.580 14.771513
60.585 14.78256
60.590 14.880406
60.595 14.956753
60.600 15.304789
60.605 16.189922
60.610 16.367781
60.615 16.225586
60.620 15.990388
60.625 15.939799
60.630 15.804525
60.635 15.124876
60.640 14.875936
60.645 14.591257
60.650 14.700449
60.655 14.69409
60.660 15.236286
60.665 15.698548
60.670 15.854822
60.675 15.667676
60.680 15.993793
60.685 15.711658
60.690 15.531746
60.695 15.464567
60.700 15.061729
60.705 15.012459
60.710 15.164722
60.715 14.828622
60.720 15.257092
60.725 15.515172
60.730 15.339111
60.735 16.039768
60.740 16.914837
60.745 17.197422
60.750 17.666801
60.755 17.768274
60.760 17.282486
60.765 17.44982
60.770 17.197498
60.775 16.558325
60.780 16.816885
60.785 16.897411
60.790 17.117928
60.795 17.746357
60.800 17.685379
60.805 17.774298
60.810 18.046101
60.815 17.879576
60.820 16.999237
60.825 16.2297
60.830 15.87105
60.835 15.265216
60.840 14.805615
60.845 14.638785
60.850 14.625078
60.855 15.32656
60.860 16.172024
60.865 15.946025
60.870 15.952043
60.875 16.146624
60.880 16.220093
60.885 16.265705
60.890 16.435148
60.895 16.320049
60.900 16.4121
60.905 16.594498
60.910 17.042616
60.915 17.499096
60.920 17.704046
60.925 17.505707
60.930 17.752455
60.935 18.199724
60.940 17.873739
60.945 17.368883
60.950 17.041899
60.955 17.351833
60.960 17.666506
60.965 17.312737
60.970 17.141752
60.975 17.085823
60.980 16.858839
60.985 15.964593
60.990 15.11192
60.995 14.683123
61.000 14.782979
61.005 15.022812
61.010 15.234143
61.015 15.430272
61.020 16.01206
61.025 15.94408
61.030 15.885474
61.035 15.914076
61.040 15.642862
61.045 15.774066
61.050 15.79099
61.055 16.430296
61.060 16.874933
61.065 16.549623
61.070 16.153158
61.075 16.209412
61.080 15.884355
61.085 15.774891
61.090 15.185405
61.095 15.040803
61.100 15.111496
61.105 15.293795
61.110 15.227232
61.115 15.582028
61.120 15.593904
61.125 15.156388
61.130 14.927539
61.135 15.015738
61.140 15.030257
61.145 14.888457
61.150 14.367932
61.155 14.592841
61.160 15.408698
61.165 15.822138
61.170 15.908984
61.175 15.716789
61.180 15.725315
61.185 15.695156
61.190 15.452459
61.195 14.953983
61.200 14.955715
61.205 15.291342
61.210 15.398066
61.215 15.889935
61.220 16.03747
61.225 16.749115
61.230 17.1042
61.235 16.929766
61.240 16.146158
61.245 16.186195
61.250 16.028162
61.255 16.032537
61.260 15.717718
61.265 15.696613
61.270 15.469529
61.275 15.728686
61.280 15.739863
61.285 15.853331
61.290 15.838033
61.295 15.500463
61.300 15.288297
61.305 15.335734
61.310 15.504481
61.315 15.51724
61.320 15.679195
61.325 15.867975
61.330 16.467701
61.335 16.520929
61.340 16.753914
61.345 16.578554
61.350 16.239111
61.355 16.493956
61.360 16.211805
61.365 16.143167
61.370 16.665293
61.375 16.962631
61.380 16.906746
61.385 17.147127
61.390 17.299946
61.395 17.486486
61.400 16.770382
61.405 15.954813
61.410 15.702323
61.415 15.553411
61.420 15.654598
61.425 15.608496
61.430 15.465616
61.435 15.833016
61.440 16.55958
61.445 16.668079
61.450 16.767494
61.455 16.757881
61.460 16.14996
61.465 16.28274
61.470 16.310354
61.475 15.768666
61.480 15.87522
61.485 15.889139
61.490 15.690425
61.495 15.848397
61.500 15.354535
61.505 15.117756
61.510 15.031431
61.515 14.90645
61.520 15.047097
61.525 15.353013
61.530 15.382048
61.535 15.967726
61.540 16.088585
61.545 16.392677
61.550 16.59589
61.555 17.266911
61.560 17.428085
61.565 17.592098
61.570 17.554344
61.575 17.429342
61.580 17.378719
61.585 17.680296
61.590 17.182287
61.595 16.515484
61.600 15.746568
61.605 15.576566
61.610 16.153807
61.615 16.295378
61.620 16.337597
61.625 16.999123
61.630 17.752071
61.635 18.451151
61.640 17.962116
61.645 17.817596
61.650 17.502136
61.655 17.145536
61.660 16.383558
61.665 16.469761
61.670 16.25104
61.675 16.610273
61.680 16.109196
61.685 16.407982
61.690 16.436611
61.695 16.528915
61.700 16.563402
61.705 16.587267
61.710 16.106009
61.715 16.438587
61.720 16.563053
61.725 16.325329
61.730 16.233427
61.735 15.581425
61.740 15.76824
61.745 16.322872
61.750 16.189785
61.755 16.043873
61.760 16.047888
61.765 16.332216
61.770 17.202618
61.775 17.031303
61.780 16.961792
61.785 16.791136
61.790 16.712418
61.795 16.91979
61.800 16.83152
61.805 16.221575
61.810 16.126867
61.815 16.297876
61.820 16.810051
61.825 17.345814
61.830 17.275234
61.835 17.353901
61.840 17.484241
61.845 17.441772
61.850 16.953918
61.855 16.711348
61.860 16.611526
61.865 16.536572
61.870 16.372549
61.875 16.887632
61.880 17.81061
61.885 18.355122
61.890 18.160704
61.895 18.167063
61.900 18.627493
61.905 18.899399
61.910 18.936253
61.915 18.357924
61.920 18.023592
61.925 18.698685
61.930 17.943394
61.935 17.927628
61.940 17.533472
61.945 16.571907
61.950 16.325642
61.955 16.144236
61.960 15.532268
61.965 15.888132
61.970 15.773142
61.975 15.544865
61.980 15.851644
61.985 15.688738
61.990 16.072126
61.995 15.594949
62.000 15.091784
62.005 14.855582
62.010 15.300736
62.015 15.871659
62.020 16.363478
62.025 16.295357
62.030 16.96324
62.035 17.002193
62.040 17.108282
62.045 16.624624
62.050 16.192356
62.055 16.081747
62.060 16.171644
62.065 16.079733
62.070 15.862007
62.075 15.831068
62.080 16.407438
62.085 16.724159
62.090 16.636076
62.095 16.608387
62.100 16.680429
62.105 17.346874
62.110 16.973856
62.115 16.805662
62.120 16.513502
62.125 16.602415
62.130 16.323112
62.135 16.156054
62.140 15.790972
62.145 15.905711
62.150 15.646784
62.155 15.702045
62.160 16.028481
62.165 16.200184
62.170 16.17136
62.175 16.455929
62.180 16.437443
62.185 17.06151
62.190 17.246979
62.195 16.851128
62.200 16.733017
62.205 17.111982
62.210 17.045723
62.215 17.332338
62.220 16.843035
62.225 16.432995
62.230 16.543592
62.235 16.394615
62.240 15.91447
62.245 15.97004
62.250 15.924183
62.255 15.708156
62.260 15.696097
62.265 15.671283
62.270 15.659657
62.275 15.523586
62.280 15.628727
62.285 15.798076
62.290 15.695971
62.295 15.356555
62.300 15.102525
62.305 15.086137
62.310 15.212319
62.315 15.298615
62.320 15.211807
62.325 15.681338
62.330 16.412214
62.335 16.655838
62.340 17.0861
62.345 16.479095
62.350 16.301031
62.355 16.681763
62.360 16.741123
62.365 16.158443
62.370 15.606578
62.375 15.37377
62.380 15.98082
62.385 15.829769
62.390 15.78137
62.395 15.682068
62.400 16.14677
62.405 16.917368
62.410 17.303776
62.415 17.851742
62.420 18.209787
62.425 17.832571
62.430 17.869831
62.435 17.784433
62.440 17.513142
62.445 17.737988
62.450 17.241867
62.455 17.25345
62.460 17.517498
62.465 17.601793
62.470 17.86171
62.475 18.110481
62.480 17.524233
62.485 17.464808
62.490 17.353207
62.495 17.139315
62.500 16.865168
62.505 17.085659
62.510 17.26911
62.515 17.522121
62.520 17.67411
62.525 17.501558
62.530 18.601362
62.535 19.16704
62.540 18.870506
62.545 18.58169
62.550 18.457548
62.555 18.555075
62.560 19.103792
62.565 18.017721
62.570 17.203211
62.575 16.841106
62.580 16.434128
62.585 16.086758
62.590 15.503003
62.595 14.726978
62.600 14.818705
62.605 15.149065
62.610 15.260764
62.615 15.478797
62.620 16.255413
62.625 17.035604
62.630 17.506887
62.635 17.468828
62.640 17.036793
62.645 16.978447
62.650 17.064796
62.655 16.869133
62.660 16.268024
62.665 15.757601
62.670 15.648544
62.675 16.449295
62.680 16.175268
62.685 16.231911
62.690 16.095304
62.695 15.949924
62.700 15.898664
62.705 15.820706
62.710 15.813236
62.715 16.176699
62.720 16.054333
62.725 15.950266
62.730 16.664322
62.735 17.371639
62.740 17.457279
62.745 17.258272
62.750 17.731535
62.755 18.034719
62.760 17.847815
62.765 17.324833
62.770 16.690178
62.775 16.635891
62.780 16.813913
62.785 16.409809
62.790 16.578289
62.795 17.006489
62.800 16.97584
62.805 17.482655
62.810 17.905798
62.815 17.878511
62.820 18.448992
62.825 18.642313
62.830 18.520369
62.835 18.688503
62.840 19.067652
62.845 18.773277
62.850 18.545387
62.855 17.801554
62.860 17.251444
62.865 16.898706
62.870 16.593569
62.875 16.257153
62.880 16.392359
62.885 16.612871
62.890 16.665339
62.895 16.821407
62.900 17.096426
62.905 17.242128
62.910 17.406826
62.915 17.305809
62.920 17.137695
62.925 17.236429
62.930 17.619959
62.935 17.885033
62.940 17.622538
62.945 17.018782
62.950 17.137825
62.955 17.661175
62.960 17.538677
62.965 16.805614
62.970 16.568228
62.975 16.894381
62.980 16.996639
62.985 16.510828
62.990 16.075251
62.995 16.411505
63.000 16.989159
63.005 17.053316
63.010 17.023914
63.015 16.962437
63.020 17.225723
63.025 17.810369
63.030 17.296831
63.035 17.105579
63.040 16.523214
63.045 16.288565
63.050 16.895658
63.055 16.597866
63.060 15.941115
63.065 16.273518
63.070 16.380014
63.075 16.602781
63.080 16.481691
63.085 15.679178
63.090 15.803689
63.095 15.755859
63.100 15.492546
63.105 16.076029
63.110 16.891058
63.115 17.341366
63.120 17.694082
63.125 17.800144
63.130 17.98233
63.135 17.723625
63.140 17.504677
63.145 16.858364
63.150 16.883055
63.155 16.847252
63.160 16.826014
63.165 17.280006
63.170 17.705839
63.175 17.571011
63.180 18.18749
63.185 18.604319
63.190 18.774508
63.195 18.263527
63.200 18.159678
63.205 18.364487
63.210 18.041563
63.215 17.446199
63.220 16.595375
63.225 16.489721
63.230 16.969889
63.235 17.01791
63.240 16.790691
63.245 16.799559
63.250 17.148453
63.255 17.615122
63.260 17.501766
63.265 17.458937
63.270 16.926958
63.275 16.997652
63.280 17.313196
63.285 17.416742
63.290 17.705406
63.295 17.911406
63.300 18.18717
63.305 19.093016
63.310 19.187527
63.315 19.234798
63.320 19.74304
63.325 19.400112
63.330 19.502911
63.335 19.187241
63.340 18.865267
63.345 18.806408
63.350 18.526588
63.355 18.341732
63.360 18.13084
63.365 17.454462
63.370 16.76977
63.375 16.843664
63.380 16.660309
63.385 16.959406
63.390 16.611948
63.395 16.988886
63.400 17.338865
63.405 17.689747
63.410 17.136497
63.415 17.339321
63.420 17.430779
63.425 17.352627
63.430 17.321333
63.435 17.638815
63.440 18.165398
63.445 18.630358
63.450 18.453428
63.455 17.90379
63.460 17.957851
63.465 18.007666
63.470 17.365843
63.475 16.439407
63.480 15.878066
63.485 15.915364
63.490 15.71248
63.495 15.242192
63.500 15.439502
63.505 16.14365
63.510 16.590179
63.515 16.513067
63.520 16.678417
63.525 17.158966
63.530 17.356554
63.535 17.322741
63.540 17.03507
63.545 16.684893
63.550 16.642231
63.555 16.505756
63.560 16.640528
63.565 16.851686
63.570 16.653484
63.575 16.523306
63.580 16.970934
63.585 17.711779
63.590 17.688461
63.595 17.249769
63.600 17.019316
63.605 17.135021
63.610 17.345469
63.615 17.370716
63.620 17.411884
63.625 17.346537
63.630 16.964428
63.635 17.51244
63.640 18.23834
63.645 18.891214
63.650 19.259487
63.655 19.3004
63.660 19.762915
63.665 20.549755
63.670 20.364645
63.675 20.040548
63.680 19.627905
63.685 18.764744
63.690 18.505688
63.695 18.465027
63.700 18.068142
63.705 17.972754
63.710 17.84889
63.715 17.827864
63.720 18.291395
63.725 18.572933
63.730 18.160183
63.735 18.38282
63.740 18.244448
63.745 18.576271
63.750 19.185127
63.755 19.097469
63.760 19.026213
63.765 19.732887
63.770 19.605118
63.775 19.742537
63.780 19.81632
63.785 19.74659
63.790 19.624924
63.795 19.273544
63.800 18.825157
63.805 18.9161
63.810 18.725779
63.815 18.1026
63.820 18.417582
63.825 18.575203
63.830 18.252525
63.835 18.315065
63.840 18.242012
63.845 17.912182
63.850 17.577749
63.855 17.4426
63.860 17.489105
63.865 17.905561
63.870 17.447647
63.875 17.434406
63.880 17.737482
63.885 17.781288
63.890 17.624479
63.895 17.541348
63.900 17.440535
63.905 17.476601
63.910 17.562517
63.915 17.270849
63.920 17.180513
63.925 17.285471
63.930 17.519289
63.935 17.897001
63.940 17.80163
63.945 17.650042
63.950 18.326803
63.955 18.570412
63.960 18.429914
63.965 18.574871
63.970 18.035435
63.975 18.587063
63.980 18.710735
63.985 18.355944
63.990 18.233265
63.995 18.684393
64.000 18.628349
64.005 19.111383
64.010 19.284374
64.015 19.941572
64.020 20.366098
64.025 20.416122
64.030 20.319384
64.035 20.400459
64.040 20.365906
64.045 20.592253
64.050 20.133343
64.055 20.11764
64.060 19.948822
64.065 19.888725
64.070 20.304205
64.075 20.88483
64.080 20.814627
64.085 21.361542
64.090 21.740902
64.095 22.309326
64.100 22.909655
64.105 23.241373
64.110 23.253122
64.115 22.906366
64.120 23.2521
64.125 23.048401
64.130 23.160809
64.135 23.827255
64.140 23.9571
64.145 24.055376
64.150 24.513617
64.155 24.268772
64.160 24.917179
64.165 25.141632
64.170 24.520515
64.175 24.419613
64.180 24.711401
64.185 25.164558
64.190 25.827927
64.195 26.757318
64.200 27.272936
64.205 27.747818
64.210 28.177933
64.215 28.477766
64.220 29.428858
64.225 30.034002
64.230 30.313808
64.235 31.090082
64.240 31.167063
64.245 31.924967
64.250 32.146534
64.255 33.60144
64.260 34.431015
64.265 34.093002
64.270 34.320873
64.275 35.499756
64.280 35.752869
64.285 36.564762
64.290 37.183979
64.295 38.462578
64.300 39.56683
64.305 40.32859
64.310 40.998108
64.315 41.676617
64.320 42.476139
64.325 42.679218
64.330 42.981491
64.335 44.322189
64.340 44.904167
64.345 45.591152
64.350 45.93441
64.355 47.471249
64.360 49.274231
64.365 49.873043
64.370 50.318523
64.375 51.384251
64.380 51.402382
64.385 51.758545
64.390 51.16766
64.395 51.501781
64.400 51.792862
64.405 51.334911
64.410 51.602036
64.415 52.072655
64.420 52.607723
64.425 52.589806
64.430 52.030888
64.435 52.612293
64.440 53.217606
64.445 53.455593
64.450 53.873196
64.455 53.779789
64.460 54.283478
64.465 55.372761
64.470 54.295544
64.475 54.040997
64.480 53.071377
64.485 52.706093
64.490 52.409668
64.495 51.507072
64.500 50.548553
64.505 50.507076
64.510 49.827316
64.515 49.994617
64.520 50.093021
64.525 50.589672
64.530 50.104584
64.535 49.592812
64.540 50.219891
64.545 50.571648
64.550 50.179008
64.555 49.854481
64.560 48.390266
64.565 48.058453
64.570 47.986042
64.575 46.591183
64.580 45.843319
64.585 44.516174
64.590 43.865009
64.595 43.45348
64.600 42.503586
64.605 41.801605
64.610 41.863464
64.615 41.156147
64.620 40.639187
64.625 39.660995
64.630 39.450455
64.635 39.064812
64.640 38.268105
64.645 37.707684
64.650 37.502075
64.655 37.769241
64.660 37.806904
64.665 37.528419
64.670 37.07058
64.675 36.209335
64.680 35.941341
64.685 34.9692
64.690 33.815639
64.695 33.143265
64.700 32.730579
64.705 32.520283
64.710 32.849037
64.715 32.236053
64.720 31.709276
64.725 31.298357
64.730 30.724325
64.735 29.834835
64.740 29.541033
64.745 27.879181
64.750 27.74597
64.755 28.402727
64.760 27.879772
64.765 28.280869
64.770 28.375593
64.775 27.519363
64.780 27.398788
64.785 26.31846
64.790 25.236755
64.795 25.434015
64.800 24.653086
64.805 23.998922
64.810 24.037931
64.815 23.726131
64.820 24.034168
64.825 23.814697
64.830 24.094616
64.835 24.662479
64.840 24.72027
64.845 24.765974
64.850 24.516836
64.855 24.161991
64.860 24.616812
64.865 23.992832
64.870 23.504662
64.875 24.10169
64.880 24.544334
64.885 24.597246
64.890 24.745487
64.895 24.63583
64.900 24.6952
64.905 24.612436
64.910 24.332806
64.915 24.172049
64.920 23.733837
64.925 24.045071
64.930 24.035694
64.935 24.683857
64.940 24.964994
64.945 24.874046
64.950 24.425472
64.955 25.132914
64.960 25.355883
64.965 25.696178
64.970 25.426163
64.975 25.61203
64.980 26.093107
64.985 26.125154
64.990 26.078003
64.995 26.515202
65.000 26.98484
65.005 27.658789
65.010 28.148115
65.015 28.608673
65.020 29.933786
65.025 29.738626
65.030 29.273491
65.035 29.642839
65.040 29.751156
65.045 30.120155
65.050 30.076012
65.055 30.547304
65.060 31.73822
65.065 32.48708
65.070 32.440346
65.075 32.017609
65.080 31.847546
65.085 31.823324
65.090 32.621147
65.095 32.559528
65.100 32.543137
65.105 33.136494
65.110 33.759743
65.115 34.25927
65.120 34.800495
65.125 34.131409
65.130 35.053173
65.135 34.791862
65.140 34.28931
65.145 34.95314
65.150 35.902382
65.155 36.943604
65.160 37.69968
65.165 37.931587
65.170 39.722809
65.175 40.023785
65.180 40.072395
65.185 40.101883
65.190 40.093643
65.195 40.529133
65.200 40.379543
65.205 40.143856
65.210 40.971493
65.215 42.063526
65.220 41.954159
65.225 41.509712
65.230 41.634792
65.235 42.466969
65.240 42.513168
65.245 42.449932
65.250 42.022438
65.255 41.930374
65.260 42.384884
65.265 42.533333
65.270 42.297573
65.275 42.265411
65.280 42.242786
65.285 42.113037
65.290 41.782562
65.295 41.42408
65.300 41.560246
65.305 41.419334
65.310 41.765591
65.315 42.280571
65.320 42.430222
65.325 43.5177
65.330 43.453537
65.335 43.338463
65.340 44.060097
65.345 44.485779
65.350 43.944004
65.355 43.18092
65.360 42.450882
65.365 43.341888
65.370 43.479473
65.375 43.333233
65.380 43.828213
65.385 44.402073
65.390 44.776798
65.395 44.723534
65.400 44.057098
65.405 44.95084
65.410 44.613701
65.415 43.862816
65.420 43.448246
65.425 43.560303
65.430 43.267624
65.435 43.344257
65.440 42.844185
65.445 42.046894
65.450 41.705494
65.455 41.785374
65.460 41.853447
65.465 41.369598
65.470 40.048515
65.475 39.080219
65.480 39.876522
65.485 39.873764
65.490 39.030819
65.495 39.29427
65.500 39.886997
65.505 39.921253
65.510 39.954823
65.515 39.66851
65.520 39.587116
65.525 40.165375
65.530 39.998325
65.535 40.560291
65.540 40.712875
65.545 41.1703
65.550 40.981659
65.555 40.61211
65.560 40.492466
65.565 39.822266
65.570 39.657032
65.575 40.178207
65.580 39.82283
65.585 39.504414
65.590 38.606735
65.595 37.89249
65.600 37.857063
65.605 37.216743
65.610 36.06982
65.615 35.120861
65.620 35.069927
65.625 35.512867
65.630 35.271908
65.635 35.009991
65.640 35.184933
65.645 35.484585
65.650 35.924232
65.655 36.149162
65.660 35.729061
65.665 35.078274
65.670 34.605602
65.675 34.511024
65.680 33.946915
65.685 33.358227
65.690 32.648514
65.695 32.752525
65.700 33.362526
65.705 33.37442
65.710 32.159626
65.715 31.296711
65.720 30.585316
65.725 31.246185
65.730 31.33976
65.735 30.958294
65.740 30.549589
65.745 30.596766
65.750 30.937235
65.755 30.833096
65.760 29.644161
65.765 29.221008
65.770 29.531548
65.775 29.48414
65.780 29.198055
65.785 29.418354
65.790 29.255974
65.795 29.216013
65.800 29.006752
65.805 28.460655
65.810 28.458086
65.815 28.801748
65.820 28.549818
65.825 28.784515
65.830 28.435392
65.835 27.909723
65.840 27.500996
65.845 27.308109
65.850 27.038164
65.855 26.315048
65.860 25.658512
65.865 25.497953
65.870 25.426771
65.875 25.253525
65.880 25.107212
65.885 24.526798
65.890 24.630621
65.895 24.99205
65.900 24.791164
65.905 24.620823
65.910 24.599955
65.915 24.071648
65.920 24.03042
65.925 22.761843
65.930 21.638851
65.935 21.619791
65.940 21.076721
65.945 20.597548
65.950 20.437904
65.955 20.44768
65.960 20.774935
65.965 20.519054
65.970 20.575691
65.975 20.92914
65.980 21.05072
65.985 21.382786
65.990 21.312498
65.995 21.303314
66.000 21.276167
66.005 21.148596
66.010 21.516363
66.015 21.623384
66.020 21.798275
66.025 21.565863
66.030 21.684275
66.035 22.115683
66.040 22.396471
66.045 22.294603
66.050 22.13377
66.055 21.759445
66.060 21.428566
66.065 21.212315
66.070 20.370693
66.075 19.542477
66.080 18.788551
66.085 18.895638
66.090 18.816139
66.095 18.69824
66.100 19.187538
66.105 19.856777
66.110 19.908621
66.115 20.054314
66.120 19.756542
66.125 20.395069
66.130 20.315977
66.135 19.684023
66.140 19.925154
66.145 20.395063
66.150 20.486609
66.155 20.264008
66.160 19.250418
66.165 19.339928
66.170 19.465548
66.175 18.877531
66.180 19.107697
66.185 19.125662
66.190 19.010525
66.195 19.399109
66.200 19.037891
66.205 18.69833
66.210 18.610617
66.215 18.110619
66.220 18.288786
66.225 18.405024
66.230 18.474098
66.235 18.895428
66.240 18.863045
66.245 18.488169
66.250 18.436451
66.255 18.424456
66.260 18.451181
66.265 18.389868
66.270 18.240103
66.275 18.015997
66.280 18.228739
66.285 18.466995
66.290 18.801233
66.295 18.682592
66.300 18.672815
66.305 19.382565
66.310 20.038929
66.315 19.920198
66.320 19.499891
66.325 19.350971
66.330 19.381153
66.335 19.249496
66.340 18.769217
66.345 18.685286
66.350 19.111359
66.355 19.089455
66.360 18.90535
66.365 19.018526
66.370 18.952019
66.375 18.971333
66.380 18.949657
66.385 18.736423
66.390 18.576338
66.395 18.218388
66.400 18.26265
66.405 18.565933
66.410 19.102839
66.415 19.357811
66.420 19.279169
66.425 19.143398
66.430 19.440235
66.435 19.346951
66.440 18.494015
66.445 17.690691
66.450 16.96183
66.455 17.251314
66.460 17.390081
66.465 17.56452
66.470 17.690199
66.475 18.347059
66.480 18.040882
66.485 18.609941
66.490 18.816429
66.495 19.269833
66.500 19.435507
66.505 19.581656
66.510 19.7185
66.515 20.906136
66.520 20.586243
66.525 20.190252
66.530 20.076895
66.535 19.578005
66.540 19.652433
66.545 18.829741
66.550 18.015581
66.555 18.113527
66.560 17.730587
66.565 17.734116
66.570 17.442541
66.575 17.158415
66.580 17.46594
66.585 17.251074
66.590 17.539204
66.595 18.11762
66.600 18.224127
66.605 18.652246
66.610 18.516533
66.615 18.467978
66.620 18.711725
66.625 18.978466
66.630 18.631433
66.635 18.184107
66.640 18.621754
66.645 18.573942
66.650 18.532055
66.655 18.34948
66.660 17.678301
66.665 17.57493
66.670 17.775698
66.675 17.595793
66.680 18.232849
66.685 18.701946
66.690 18.864426
66.695 19.64189
66.700 19.996998
66.705 19.872833
66.710 19.656614
66.715 19.632729
66.720 19.489067
66.725 19.169941
66.730 18.328234
66.735 17.796843
66.740 17.792042
66.745 17.703526
66.750 17.331505
66.755 17.096886
66.760 17.246534
66.765 17.359541
66.770 17.580406
66.775 17.750938
66.780 17.869591
66.785 18.046021
66.790 17.566671
66.795 17.376022
66.800 17.877346
66.805 17.812281
66.810 17.416456
66.815 17.357872
66.820 17.209465
66.825 17.975307
66.830 18.159109
66.835 17.738207
66.840 17.753319
66.845 17.867012
66.850 18.504448
66.855 19.016306
66.860 18.723494
66.865 18.469017
66.870 18.976351
66.875 18.658888
66.880 18.559952
66.885 17.777857
66.890 17.479916
66.895 17.696106
66.900 17.743069
66.905 17.203913
66.910 17.344334
66.915 17.348145
66.920 17.536276
66.925 17.388723
66.930 17.723652
66.935 18.22798
66.940 18.335329
66.945 18.424847
66.950 18.197426
66.955 18.303358
66.960 18.539726
66.965 18.659523
66.970 18.705524
66.975 18.885683
66.980 18.952295
66.985 19.287201
66.990 19.130013
66.995 19.459044
67.000 19.348003
67.005 19.503305
67.010 19.672668
67.015 19.827736
67.020 19.883532
67.025 19.880026
67.030 19.554529
67.035 19.045103
67.040 18.197594
67.045 17.763788
67.050 17.452278
67.055 17.412012
67.060 17.020741
67.065 17.064047
67.070 17.222607
67.075 18.223135
67.080 18.77561
67.085 18.568449
67.090 18.673018
67.095 18.671066
67.100 17.974941
67.105 17.112337
67.110 16.790253
67.115 16.935385
67.120 17.669889
67.125 17.813457
67.130 18.711739
67.135 19.354961
67.140 19.835972
67.145 19.747725
67.150 19.282524
67.155 19.010328
67.160 18.959002
67.165 18.650805
67.170 18.832895
67.175 18.925087
67.180 18.857275
67.185 19.450434
67.190 19.845514
67.195 19.660645
67.200 19.627405
67.205 19.799551
67.210 19.891268
67.215 20.343897
67.220 20.212986
67.225 19.37105
67.230 19.342617
67.235 19.190613
67.240 19.113453
67.245 18.616892
67.250 18.376791
67.255 18.372629
67.260 18.39818
67.265 18.414129
67.270 18.128962
67.275 17.421619
67.280 17.271336
67.285 16.451998
67.290 16.040079
67.295 16.047047
67.300 16.479578
67.305 16.790375
67.310 16.953842
67.315 17.211561
67.320 17.435163
67.325 17.782682
67.330 18.022264
67.335 17.759888
67.340 17.399641
67.345 17.028288
67.350 16.809364
67.355 16.790924
67.360 16.65671
67.365 16.526485
67.370 16.554321
67.375 16.956264
67.380 17.444471
67.385 17.674141
67.390 17.818422
67.395 17.949884
67.400 17.750227
67.405 17.500048
67.410 17.994253
67.415 17.965469
67.420 17.901934
67.425 17.886717
67.430 17.678957
67.435 17.756321
67.440 17.923405
67.445 17.600391
67.450 18.145794
67.455 18.264566
67.460 17.864439
67.465 17.491671
67.470 17.558138
67.475 17.614893
67.480 17.813055
67.485 17.426062
67.490 17.252523
67.495 17.911896
67.500 18.728773
67.505 18.766153
67.510 18.175278
67.515 18.373169
67.520 18.760378
67.525 19.030567
67.530 18.950619
67.535 18.67111
67.540 18.567482
67.545 18.444118
67.550 17.971663
67.555 17.711542
67.560 17.775562
67.565 17.642401
67.570 17.381365
67.575 17.269552
67.580 17.749241
67.585 18.118721
67.590 18.388817
67.595 18.389952
67.600 18.411264
67.605 19.007923
67.610 19.041309
67.615 18.281826
67.620 17.935196
67.625 18.092295
67.630 18.354616
67.635 18.255163
67.640 17.602787
67.645 18.049553
67.650 18.774275
67.655 18.717653
67.660 18.364012
67.665 18.373117
67.670 18.380573
67.675 18.118757
67.680 17.887127
67.685 17.815847
67.690 18.314512
67.695 19.055132
67.700 19.027952
67.705 19.231819
67.710 19.767445
67.715 19.850937
67.720 20.18721
67.725 19.423426
67.730 19.027649
67.735 19.205467
67.740 19.419409
67.745 19.477501
67.750 19.371471
67.755 18.823454
67.760 19.411034
67.765 19.346352
67.770 18.911909
67.775 18.440741
67.780 18.374199
67.785 18.26856
67.790 18.393175
67.795 18.195154
67.800 17.729668
67.805 18.109163
67.810 18.254616
67.815 17.838766
67.820 18.052809
67.825 18.343197
67.830 17.835167
67.835 17.794165
67.840 17.193708
67.845 17.522469
67.850 18.044125
67.855 18.215336
67.860 18.399014
67.865 18.646219
67.870 18.580839
67.875 19.084648
67.880 18.973236
67.885 19.223881
67.890 19.682802
67.895 20.133539
67.900 20.981138
67.905 21.466633
67.910 21.355768
67.915 21.383537
67.920 20.954199
67.925 20.329952
67.930 19.524813
67.935 18.9195
67.940 19.106663
67.945 18.913099
67.950 18.485481
67.955 18.52508
67.960 18.284204
67.965 18.322838
67.970 18.731348
67.975 18.981884
67.980 19.04443
67.985 19.323584
67.990 19.252991
67.995 19.491653
68.000 19.698076
68.005 19.243868
68.010 18.989683
68.015 19.181946
68.020 19.121574
68.025 18.803261
68.030 18.255278
68.035 18.026583
68.040 18.731022
68.045 19.120653
68.050 19.137569
68.055 18.820303
68.060 19.214287
68.065 19.749283
68.070 19.985601
68.075 18.965797
68.080 18.937405
68.085 19.240347
68.090 18.859138
68.095 18.393301
68.100 18.440897
68.105 18.76123
68.110 18.899414
68.115 18.865322
68.120 18.967106
68.125 19.851805
68.130 20.322018
68.135 20.408699
68.140 20.17264
68.145 20.424908
68.150 20.472885
68.155 20.207329
68.160 20.242939
68.165 20.246801
68.170 20.25346
68.175 20.426332
68.180 20.476391
68.185 21.009073
68.190 21.221247
68.195 21.156034
68.200 20.706041
68.205 20.747065
68.210 20.516878
68.215 20.307713
68.220 20.503792
68.225 20.744284
68.230 21.084644
68.235 21.12401
68.240 21.310749
68.245 21.360048
68.250 20.771402
68.255 20.511934
68.260 21.051704
68.265 21.545988
68.270 22.132977
68.275 22.317316
68.280 23.029745
68.285 24.035097
68.290 23.951214
68.295 23.599354
68.300 24.190519
68.305 24.805149
68.310 24.729141
68.315 24.910336
68.320 25.129938
68.325 25.422916
68.330 26.023453
68.335 26.111485
68.340 26.212048
68.345 27.462315
68.350 28.725903
68.355 29.677004
68.360 30.437031
68.365 30.207827
68.370 29.951445
68.375 29.584883
68.380 29.721975
68.385 29.493816
68.390 29.291153
68.395 29.470957
68.400 29.892492
68.405 30.646744
68.410 31.151953
68.415 30.589432
68.420 30.776495
68.425 30.403795
68.430 30.861256
68.435 30.987619
68.440 31.263357
68.445 31.606953
68.450 32.938778
68.455 33.821743
68.460 33.978775
68.465 34.072388
68.470 33.633251
68.475 33.344494
68.480 33.30957
68.485 32.546017
68.490 32.311207
68.495 32.479374
68.500 33.433502
68.505 34.350079
68.510 34.73909
68.515 34.983952
68.520 34.850388
68.525 34.273708
68.530 34.641434
68.535 34.005844
68.540 33.632141
68.545 33.783222
68.550 33.808739
68.555 34.242989
68.560 34.597069
68.565 34.904427
68.570 34.851643
68.575 35.202366
68.580 35.10371
68.585 35.573921
68.590 35.869495
68.595 36.767155
68.600 37.759029
68.605 38.263954
68.610 38.538666
68.615 38.904022
68.620 39.103519
68.625 39.266342
68.630 38.311314
68.635 37.781219
68.640 36.913422
68.645 37.202148
68.650 36.951706
68.655 37.180279
68.660 37.856583
68.665 38.657108
68.670 38.964619
68.675 39.231621
68.680 38.413322
68.685 37.817745
68.690 37.308247
68.695 37.259953
68.700 37.118362
68.705 36.790821
68.710 36.677982
68.715 36.847229
68.720 37.185184
68.725 37.349533
68.730 36.825573
68.735 36.240906
68.740 36.042946
68.745 35.727161
68.750 36.161785
68.755 37.055923
68.760 36.337353
68.765 35.989521
68.770 35.924824
68.775 35.246658
68.780 35.83807
68.785 35.369827
68.790 34.574215
68.795 34.400032
68.800 34.560024
68.805 34.390053
68.810 34.66787
68.815 35.183453
68.820 35.268925
68.825 35.208534
68.830 35.713055
68.835 35.582588
68.840 35.422523
68.845 34.603462
68.850 33.840027
68.855 33.664299
68.860 34.121883
68.865 33.608204
68.870 34.305965
68.875 34.590057
68.880 34.378033
68.885 33.269016
68.890 32.402344
68.895 32.359657
68.900 31.939241
68.905 30.687073
68.910 30.524645
68.915 31.471027
68.920 31.98057
68.925 31.974539
68.930 31.735476
68.935 31.926077
68.940 32.021782
68.945 31.820358
68.950 31.446478
68.955 31.139248
68.960 31.117611
68.965 30.790407
68.970 30.550024
68.975 30.159344
68.980 29.625475
68.985 29.569336
68.990 29.814501
68.995 29.525677
69.000 28.835487
69.005 28.477901
69.010 28.579695
69.015 28.791672
69.020 28.964483
69.025 29.095736
69.030 28.929844
69.035 28.601498
69.040 28.438837
69.045 27.867538
69.050 27.595675
69.055 27.756453
69.060 27.141743
69.065 26.893084
69.070 26.631737
69.075 26.160839
69.080 26.454586
69.085 26.087988
69.090 25.890478
69.095 25.857941
69.100 26.188372
69.105 26.935432
69.110 27.042269
69.115 26.68207
69.120 26.703886
69.125 26.330055
69.130 25.353874
69.135 24.484316
69.140 23.729227
69.145 23.81312
69.150 23.883543
69.155 24.207903
69.160 23.942247
69.165 24.149399
69.170 24.27424
69.175 24.459112
69.180 24.476484
69.185 23.93298
69.190 22.822275
69.195 22.313293
69.200 22.284212
69.205 21.393082
69.210 20.499317
69.215 20.318258
69.220 20.650757
69.225 20.877338
69.230 21.505478
69.235 21.346619
69.240 21.259438
69.245 20.850691
69.250 20.45709
69.255 20.16515
69.260 20.022402
69.265 19.482414
69.270 19.263083
69.275 19.478291
69.280 19.201574
69.285 18.909002
69.290 18.40983
69.295 18.565861
69.300 19.282724
69.305 19.510134
69.310 20.187223
69.315 20.751245
69.320 20.896986
69.325 20.833698
69.330 20.095764
69.335 19.74194
69.340 20.219725
69.345 19.955879
69.350 20.128351
69.355 20.037722
69.360 20.178516
69.365 20.670639
69.370 20.108456
69.375 19.183393
69.380 18.553144
69.385 18.134813
69.390 18.004034
69.395 17.994944
69.400 17.945673
69.405 18.37619
69.410 18.463854
69.415 18.688866
69.420 18.587217
69.425 18.664762
69.430 18.467148
69.435 18.395916
69.440 18.370697
69.445 18.879461
69.450 18.723858
69.455 18.153879
69.460 17.861319
69.465 18.04166
69.470 17.924936
69.475 18.1807
69.480 18.021835
69.485 18.007099
69.490 18.796162
69.495 19.250668
69.500 19.321381
69.505 19.46414
69.510 18.967041
69.515 18.981314
69.520 19.301882
69.525 19.19886
69.530 18.464272
69.535 18.146269
69.540 18.079771
69.545 18.325666
69.550 18.237839
69.555 18.012268
69.560 18.046005
69.565 18.372389
69.570 18.816883
69.575 19.211218
69.580 19.448324
69.585 19.63443
69.590 19.707523
69.595 19.735107
69.600 19.218494
69.605 18.434006
69.610 18.12595
69.615 17.823586
69.620 17.345716
69.625 17.249269
69.630 17.445984
69.635 17.721684
69.640 18.413828
69.645 18.349686
69.650 18.293055
69.655 18.46879
69.660 18.475033
69.665 18.511135
69.670 18.410429
69.675 18.25989
69.680 18.670435
69.685 18.89649
69.690 19.175554
69.695 19.283072
69.700 19.731438
69.705 19.686012
69.710 19.072601
69.715 19.106693
69.720 19.471949
69.725 19.487692
69.730 19.734175
69.735 20.354219
69.740 20.924934
69.745 21.12377
69.750 20.646206
69.755 20.646904
69.760 20.481701
69.765 19.774372
69.770 19.231249
69.775 19.010162
69.780 19.118917
69.785 19.423594
69.790 18.841595
69.795 18.911011
69.800 18.865913
69.805 18.663706
69.810 18.328398
69.815 18.253633
69.820 18.172396
69.825 19.013327
69.830 18.856537
69.835 18.794018
69.840 19.134121
69.845 19.527449
69.850 19.520027
69.855 19.063164
69.860 18.654297
69.865 18.294752
69.870 18.15781
69.875 17.608397
69.880 17.405872
69.885 17.307358
69.890 17.438316
69.895 17.174767
69.900 17.723488
69.905 18.366468
69.910 18.944658
69.915 19.431341
69.920 19.276358
69.925 18.960897
69.930 18.882051
69.935 18.74984
69.940 18.941387
69.945 18.655695
69.950 18.296091
69.955 18.435493
69.960 18.484034
69.965 18.426666
69.970 17.995287
69.975 16.616802
69.980 16.635502
69.985 17.014881
69.990 17.192381
69.995 17.630016
70.000 17.627226
70.005 18.051453
70.010 18.683771
70.015 18.555748
70.020 18.382288
70.025 18.405258
70.030 17.71874
70.035 17.739445
70.040 17.312191
70.045 17.163496
70.050 16.921963
70.055 16.675961
70.060 16.98304
70.065 17.74894
70.070 18.587456
70.075 19.015429
70.080 19.221586
70.085 19.454292
70.090 19.413887
70.095 19.241547
70.100 19.133486
70.105 18.790506
70.110 18.845064
70.115 19.633038
70.120 19.696461
70.125 19.421701
70.130 19.429615
70.135 19.887848
70.140 20.396048
70.145 20.407312
70.150 19.276979
70.155 18.895212
70.160 18.948896
70.165 18.811039
70.170 18.2479
70.175 18.217442
70.180 18.137924
70.185 18.524141
70.190 18.437504
70.195 18.328266
70.200 18.18539
70.205 17.76041
70.210 16.986629
70.215 17.414511
70.220 17.901505
70.225 18.232779
70.230 18.011562
70.235 16.972368
70.240 16.251631
70.245 15.900082
70.250 15.605471
70.255 15.340391
70.260 15.111491
70.265 15.910225
70.270 16.36838
70.275 16.78223
70.280 16.810457
70.285 15.985586
70.290 16.231739
70.295 16.442221
70.300 16.012957
70.305 16.459074
70.310 16.468096
70.315 16.832323
70.320 17.393578
70.325 17.40007
70.330 17.412489
70.335 17.540573
70.340 18.122206
70.345 18.259003
70.350 18.06398
70.355 18.058434
70.360 17.992395
70.365 18.201433
70.370 18.37019
70.375 17.894953
70.380 17.889841
70.385 18.226095
70.390 18.446611
70.395 18.869247
70.400 18.661026
70.405 18.364119
70.410 18.427565
70.415 18.159489
70.420 18.134806
70.425 17.733822
70.430 17.506863
70.435 17.791517
70.440 17.849964
70.445 17.894703
70.450 18.73348
70.455 19.346243
70.460 19.391552
70.465 19.39473
70.470 19.397451
70.475 19.648344
70.480 19.832712
70.485 19.006687
70.490 18.577686
70.495 18.871567
70.500 18.975603
70.505 18.769482
70.510 18.518087
70.515 18.093445
70.520 18.249619
70.525 17.853809
70.530 17.925888
70.535 18.058887
70.540 18.468592
70.545 18.099611
70.550 18.049616
70.555 18.148619
70.560 18.153757
70.565 17.697489
70.570 17.507248
70.575 17.634819
70.580 17.80854
70.585 17.903996
70.590 18.414309
70.595 18.800644
70.600 18.884687
70.605 18.851418
70.610 19.025431
70.615 19.074654
70.620 18.876484
70.625 19.070391
70.630 19.064505
70.635 18.968758
70.640 18.731487
70.645 19.000334
70.650 19.246143
70.655 18.649464
70.660 18.008766
70.665 17.434258
70.670 17.409193
70.675 16.86525
70.680 16.354235
70.685 16.675966
70.690 17.082115
70.695 17.482384
70.700 17.17758
70.705 17.452967
70.710 18.43446
70.715 19.086344
70.720 18.653423
70.725 18.10203
70.730 18.461958
70.735 18.981483
70.740 18.328634
70.745 17.85594
70.750 17.256075
70.755 18.245981
70.760 18.249063
70.765 18.00659
70.770 18.049492
70.775 18.00337
70.780 17.61834
70.785 17.542055
70.790 17.272572
70.795 16.817028
70.800 16.821461
70.805 16.65823
70.810 16.797724
70.815 17.048347
70.820 18.07885
70.825 18.296312
70.830 18.86286
70.835 18.379707
70.840 18.67194
70.845 19.164129
70.850 19.047901
70.855 18.438383
70.860 18.238836
70.865 18.009771
70.870 18.094975
70.875 17.764647
70.880 17.25984
70.885 16.99054
70.890 17.257866
70.895 17.427269
70.900 17.600147
70.905 17.753706
70.910 18.667263
70.915 18.806295
70.920 18.756025
70.925 18.104389
70.930 17.934393
70.935 18.342844
70.940 18.016342
70.945 17.53743
70.950 17.547937
70.955 17.037245
70.960 16.872553
70.965 16.229168
70.970 15.987589
70.975 16.222862
70.980 15.930988
70.985 16.187689
70.990 16.277174
70.995 16.455336
71.000 17.441713
71.005 16.902813
71.010 16.832193
71.015 17.017353
71.020 17.305132
71.025 17.978758
71.030 18.094761
71.035 18.010778
71.040 18.83782
71.045 18.589754
71.050 18.471123
71.055 18.449257
71.060 18.06138
71.065 18.373289
71.070 18.484659
71.075 17.686407
71.080 17.965282
71.085 18.029737
71.090 17.295361
71.095 17.763454
71.100 17.972168
71.105 17.897051
71.110 18.797119
71.115 18.549992
71.120 18.71162
71.125 19.475506
71.130 19.429754
71.135 18.982506
71.140 18.720074
71.145 18.415859
71.150 18.74378
71.155 18.244118
71.160 17.85607
71.165 17.994648
71.170 18.958351
71.175 19.620699
71.180 19.249786
71.185 19.146603
71.190 19.42421
71.195 19.78289
71.200 19.094685
71.205 18.367319
71.210 18.191816
71.215 18.688065
71.220 18.88755
71.225 19.054043
71.230 18.396091
71.235 18.605618
71.240 18.205753
71.245 18.1122
71.250 17.862444
71.255 17.614981
71.260 17.1563
71.265 17.156782
71.270 17.077038
71.275 17.646717
71.280 17.842182
71.285 17.755503
71.290 17.426628
71.295 18.013945
71.300 18.170839
71.305 17.835011
71.310 17.177284
71.315 16.912655
71.320 17.116533
71.325 17.076071
71.330 16.859381
71.335 16.794718
71.340 16.908361
71.345 16.869671
71.350 17.170357
71.355 17.030146
71.360 16.75561
71.365 16.449989
71.370 16.60586
71.375 17.198206
71.380 17.962616
71.385 18.219418
71.390 18.518646
71.395 19.005749
71.400 19.841049
71.405 19.941904
71.410 19.635975
71.415 19.20215
71.420 18.927666
71.425 18.801054
71.430 18.752382
71.435 18.969162
71.440 18.526958
71.445 18.260088
71.450 17.741228
71.455 17.746326
71.460 17.701006
71.465 17.32407
71.470 17.432447
71.475 17.71752
71.480 18.151161
71.485 18.853773
71.490 19.252697
71.495 19.169802
71.500 19.067833
71.505 18.806973
71.510 18.827309
71.515 18.303036
71.520 17.847244
71.525 17.959274
71.530 17.759764
71.535 17.693054
71.540 17.410294
71.545 17.251331
71.550 17.502693
71.555 18.219669
71.560 18.526659
71.565 18.878008
71.570 18.620064
71.575 18.802944
71.580 18.687815
71.585 18.339182
71.590 17.565775
71.595 17.613485
71.600 17.91868
71.605 18.022127
71.610 17.36203
71.615 16.939339
71.620 16.623299
71.625 16.659658
71.630 16.563736
71.635 16.556662
71.640 16.637089
71.645 17.111982
71.650 17.452349
71.655 17.462404
71.660 17.459398
71.665 17.406885
71.670 17.350098
71.675 17.480421
71.680 17.355515
71.685 17.005648
71.690 17.022606
71.695 16.877937
71.700 17.10388
71.705 18.032043
71.710 18.980721
71.715 19.670368
71.720 20.390009
71.725 20.569393
71.730 20.60935
71.735 20.213169
71.740 20.255539
71.745 20.482437
71.750 20.640274
71.755 20.395634
71.760 20.174065
71.765 19.834541
71.770 19.743444
71.775 19.006628
71.780 18.48596
71.785 18.344923
71.790 18.270988
71.795 18.038187
71.800 17.972702
71.805 18.142704
71.810 18.128531
71.815 17.74328
71.820 17.526838
71.825 17.764814
71.830 18.031717
71.835 18.157921
71.840 18.399298
71.845 19.396576
71.850 19.927593
71.855 19.486097
71.860 19.805552
71.865 19.611542
71.870 19.343739
71.875 19.165098
71.880 18.674158
71.885 18.503115
71.890 18.722645
71.895 18.173786
71.900 18.499695
71.905 18.417253
71.910 17.520613
71.915 17.236423
71.920 17.210579
71.925 17.514759
71.930 18.021702
71.935 18.072361
71.940 18.307497
71.945 18.562826
71.950 18.711996
71.955 18.893576
71.960 19.091877
71.965 18.831917
71.970 18.525826
71.975 18.484455
71.980 18.21928
71.985 17.941809
71.990 17.817368
71.995 17.57481
72.000 18.09573
72.005 17.906673
72.010 17.93807
72.015 18.16556
72.020 18.260908
72.025 17.665804
72.030 17.447824
72.035 17.115128
72.040 16.736219
72.045 16.986261
72.050 17.764715
72.055 17.490032
72.060 17.573429
72.065 17.7376
72.070 18.462816
72.075 19.056719
72.080 18.722572
72.085 19.082796
72.090 19.264215
72.095 19.093676
72.100 18.932753
72.105 18.26289
72.110 18.110655
72.115 18.023281
72.120 17.455385
72.125 17.46417
72.130 17.772732
72.135 17.829517
72.140 17.938656
72.145 18.062038
72.150 17.686991
72.155 17.567871
72.160 17.919056
72.165 17.944731
72.170 18.190996
72.175 18.309496
72.180 17.883583
72.185 17.664841
72.190 18.160189
72.195 18.285919
72.200 18.047594
72.205 17.848232
72.210 17.76684
72.215 17.958364
72.220 17.949165
72.225 17.508904
72.230 17.032791
72.235 17.056202
72.240 17.110258
72.245 16.951958
72.250 17.610209
72.255 18.041544
72.260 18.104458
72.265 18.337404
72.270 18.461866
72.275 18.509344
72.280 18.392857
72.285 17.817938
72.290 17.661963
72.295 17.334099
72.300 16.887117
72.305 16.508984
72.310 16.345335
72.315 16.632851
72.320 16.291443
72.325 16.453382
72.330 16.96979
72.335 16.490208
72.340 17.121914
72.345 17.422249
72.350 17.595491
72.355 17.586922
72.360 17.297205
72.365 17.522516
72.370 17.924019
72.375 17.441639
72.380 17.704071
72.385 18.18911
72.390 18.69928
72.395 19.159225
72.400 19.076538
72.405 18.869211
72.410 18.684244
72.415 18.45352
72.420 17.992445
72.425 18.055187
72.430 17.980164
72.435 17.952997
72.440 18.122652
72.445 18.620703
72.450 18.495865
72.455 18.164732
72.460 17.935665
72.465 18.241655
72.470 18.668823
72.475 18.69022
72.480 18.477406
72.485 18.417147
72.490 18.905176
72.495 18.999226
72.500 18.855156
72.505 18.322332
72.510 18.296995
72.515 18.543453
72.520 18.629026
72.525 18.242075
72.530 18.190777
72.535 18.489902
72.540 18.697001
72.545 18.531155
72.550 17.891941
72.555 17.723854
72.560 17.503853
72.565 17.193933
72.570 17.007788
72.575 16.981741
72.580 17.040625
72.585 17.087791
72.590 17.613487
72.595 17.783895
72.600 17.729477
72.605 17.448961
72.610 17.263334
72.615 17.214237
72.620 17.653891
72.625 17.312567
72.630 17.586828
72.635 17.610483
72.640 17.59857
72.645 17.977093
72.650 17.973738
72.655 17.361881
72.660 17.305653
72.665 16.450739
72.670 16.635828
72.675 16.773785
72.680 16.665197
72.685 16.677816
72.690 17.110313
72.695 18.047613
72.700 18.2176
72.705 18.165733
72.710 18.078341
72.715 18.23411
72.720 18.068897
72.725 17.818634
72.730 17.611519
72.735 17.675346
72.740 17.796806
72.745 18.086899
72.750 17.912085
72.755 18.129423
72.760 18.017818
72.765 17.9352
72.770 18.437052
72.775 18.381767
72.780 17.92662
72.785 17.9851
72.790 17.73381
72.795 17.827629
72.800 17.441507
72.805 17.386761
72.810 16.977261
72.815 17.298058
72.820 17.000109
72.825 15.980436
72.830 16.5126
72.835 16.79693
72.840 15.95765
72.845 16.099283
72.850 16.390858
72.855 16.722773
72.860 16.951851
72.865 16.132349
72.870 16.207872
72.875 16.38835
72.880 16.542356
72.885 16.220915
72.890 15.579197
72.895 15.51502
72.900 15.700879
72.905 15.608032
72.910 15.600813
72.915 15.195925
72.920 15.161098
72.925 15.895267
72.930 15.774951
72.935 15.450081
72.940 15.345874
72.945 15.526796
72.950 15.679945
72.955 16.204962
72.960 16.828873
72.965 17.113365
72.970 17.480625
72.975 17.264191
72.980 17.366585
72.985 17.397692
72.990 17.514246
72.995 17.124077
73.000 17.712322
