!@!!GADDS PLOTSO FILE: Chi integration type
!@!!Title/SampleName: map-6d
!@!!Comment: ?
!@!!User: Bruker Instrument Administrator
!@!!Site: University of Illinois Chicago
!@!!Frame: map-6d_01_000.gfrm
!@!!Wavelengths    1.54184   1.54056   1.54439
!@!!Frame angles: 2Theta: 63.000 Omega: 50.000 Phi: 0.000 Chi: 90.000
!@!!Integration range: 2Theta: 53.000 to 73.000  Gamma: -105.000 to -75.000
!@!!Integration method: bin normalized
!@!N
!@!SS
!@!M
!@!L 0.0 0.0 0.0 0.0
!@!XDegrees
!@!YCounts
53.000 9.692404
53.005 9.789282
53.010 9.623167
53.015 9.212903
53.020 9.615773
53.025 9.693793
53.030 10.046124
53.035 10.181684
53.040 9.977971
53.045 9.893613
53.050 10.35906
53.055 10.540595
53.060 10.006708
53.065 9.827419
53.070 9.630663
53.075 9.861897
53.080 9.91134
53.085 9.365683
53.090 9.445583
53.095 9.899333
53.100 10.07754
53.105 10.235254
53.110 10.43348
53.115 10.442243
53.120 10.380826
53.125 10.232968
53.130 10.271792
53.135 10.225183
53.140 9.940672
53.145 9.6849
53.150 9.790616
53.155 9.676342
53.160 9.334938
53.165 8.698035
53.170 8.547664
53.175 8.283175
53.180 8.049022
53.185 7.556794
53.190 7.71027
53.195 8.401226
53.200 8.873626
53.205 9.05392
53.210 9.241616
53.215 9.454801
53.220 9.643523
53.225 9.523083
53.230 9.181696
53.235 9.00811
53.240 9.223276
53.245 9.538716
53.250 9.705158
53.255 9.615209
53.260 9.721985
53.265 9.852098
53.270 9.445059
53.275 9.33069
53.280 9.687191
53.285 10.231843
53.290 10.481756
53.295 10.08738
53.300 10.45916
53.305 10.97175
53.310 10.904746
53.315 10.480597
53.320 10.090931
53.325 10.453209
53.330 10.257214
53.335 9.656857
53.340 9.631293
53.345 9.169628
53.350 9.359615
53.355 9.517795
53.360 9.323882
53.365 9.53364
53.370 9.422782
53.375 9.469018
53.380 9.912943
53.385 9.488898
53.390 9.648793
53.395 10.228631
53.400 10.39818
53.405 10.796268
53.410 10.725107
53.415 10.633035
53.420 10.814672
53.425 10.091372
53.430 9.482832
53.435 9.349463
53.440 9.28058
53.445 9.311007
53.450 9.502656
53.455 10.507905
53.460 11.285229
53.465 11.462966
53.470 11.755461
53.475 11.877699
53.480 11.885546
53.485 11.331256
53.490 10.709434
53.495 10.547767
53.500 10.603237
53.505 10.466933
53.510 10.571137
53.515 10.735243
53.520 11.021152
53.525 11.456146
53.530 11.92787
53.535 12.35363
53.540 12.420016
53.545 12.535416
53.550 12.187955
53.555 11.409314
53.560 10.769307
53.565 10.168569
53.570 10.118367
53.575 9.906989
53.580 9.65227
53.585 9.924712
53.590 10.24846
53.595 10.21064
53.600 10.402183
53.605 10.187888
53.610 10.666157
53.615 10.713081
53.620 10.523541
53.625 10.492567
53.630 10.548321
53.635 10.574958
53.640 10.268727
53.645 9.835517
53.650 9.961111
53.655 10.043382
53.660 9.953305
53.665 10.232886
53.670 10.225591
53.675 10.73149
53.680 11.107801
53.685 11.108944
53.690 11.113602
53.695 11.105779
53.700 11.020729
53.705 11.227891
53.710 10.505431
53.715 10.147243
53.720 10.19203
53.725 10.270459
53.730 10.381859
53.735 10.103889
53.740 9.994426
53.745 10.42841
53.750 10.759279
53.755 11.289072
53.760 11.298103
53.765 11.296567
53.770 10.906069
53.775 10.926634
53.780 10.701562
53.785 10.546554
53.790 9.832107
53.795 9.696902
53.800 9.615771
53.805 9.798297
53.810 9.888362
53.815 9.501784
53.820 9.53187
53.825 9.579885
53.830 9.887545
53.835 9.855982
53.840 10.146519
53.845 10.661822
53.850 11.019483
53.855 11.026281
53.860 10.747229
53.865 10.418681
53.870 10.160844
53.875 9.86045
53.880 9.311891
53.885 9.196475
53.890 9.463475
53.895 10.199017
53.900 10.346251
53.905 10.942451
53.910 10.861797
53.915 11.028397
53.920 11.166554
53.925 11.133855
53.930 10.971957
53.935 11.130088
53.940 10.848483
53.945 10.842335
53.950 11.031903
53.955 11.156096
53.960 11.29636
53.965 11.259098
53.970 11.105166
53.975 11.142945
53.980 11.488792
53.985 11.2107
53.990 11.17946
53.995 11.061637
54.000 10.762741
54.005 10.899158
54.010 10.951309
54.015 10.694346
54.020 10.407041
54.025 10.845448
54.030 10.649221
54.035 11.101871
54.040 11.148579
54.045 11.198897
54.050 11.26786
54.055 11.449617
54.060 11.157113
54.065 11.403846
54.070 10.868069
54.075 10.793301
54.080 10.93048
54.085 11.135026
54.090 10.639933
54.095 10.693324
54.100 10.626195
54.105 11.244563
54.110 11.721374
54.115 11.968845
54.120 11.971927
54.125 11.964301
54.130 11.856587
54.135 11.737056
54.140 11.086085
54.145 10.626856
54.150 10.451751
54.155 10.606689
54.160 11.317021
54.165 11.038461
54.170 11.27064
54.175 11.70867
54.180 11.762411
54.185 12.144595
54.190 11.919657
54.195 11.24566
54.200 12.175174
54.205 12.040432
54.210 11.714184
54.215 11.496766
54.220 11.095556
54.225 10.921974
54.230 11.037207
54.235 10.770557
54.240 10.845782
54.245 10.945484
54.250 10.682685
54.255 10.573211
54.260 10.974591
54.265 11.100458
54.270 10.908843
54.275 10.756395
54.280 11.264299
54.285 11.432582
54.290 11.215908
54.295 11.25954
54.300 11.183007
54.305 11.233776
54.310 11.063041
54.315 10.392288
54.320 10.387474
54.325 10.678115
54.330 10.563982
54.335 10.163891
54.340 10.220281
54.345 10.353762
54.350 11.020467
54.355 11.293897
54.360 11.543591
54.365 11.625056
54.370 12.407827
54.375 12.597257
54.380 12.65176
54.385 12.32125
54.390 11.526596
54.395 10.911515
54.400 10.616567
54.405 9.987844
54.410 9.787364
54.415 10.136435
54.420 10.934896
54.425 11.748299
54.430 11.851247
54.435 11.912578
54.440 11.938334
54.445 11.886033
54.450 11.896246
54.455 11.183969
54.460 10.8998
54.465 10.711482
54.470 10.589117
54.475 10.810821
54.480 10.771018
54.485 10.266476
54.490 11.219359
54.495 11.346685
54.500 11.560618
54.505 11.483303
54.510 10.968674
54.515 11.089944
54.520 11.156264
54.525 10.53951
54.530 10.376502
54.535 10.49115
54.540 10.072864
54.545 9.939741
54.550 9.460101
54.555 9.029467
54.560 9.180167
54.565 9.403318
54.570 9.906965
54.575 10.619902
54.580 11.701013
54.585 12.094638
54.590 12.253196
54.595 12.268232
54.600 12.082709
54.605 11.759138
54.610 11.198893
54.615 10.392864
54.620 10.474871
54.625 10.124118
54.630 10.264257
54.635 10.256276
54.640 9.877909
54.645 9.906198
54.650 9.788716
54.655 9.937744
54.660 9.898707
54.665 9.452343
54.670 9.728249
54.675 10.08701
54.680 10.436227
54.685 10.895928
54.690 11.049739
54.695 10.980975
54.700 11.10987
54.705 11.021609
54.710 10.899901
54.715 10.241882
54.720 9.639872
54.725 9.461575
54.730 9.525315
54.735 9.910513
54.740 10.286974
54.745 10.802423
54.750 10.687716
54.755 10.648985
54.760 10.796802
54.765 11.117891
54.770 10.405582
54.775 10.476114
54.780 10.628058
54.785 11.153243
54.790 11.247004
54.795 11.07823
54.800 10.947552
54.805 11.16342
54.810 11.578599
54.815 11.920977
54.820 12.45988
54.825 12.860452
54.830 12.624077
54.835 12.633344
54.840 12.777322
54.845 12.32475
54.850 12.227557
54.855 12.009197
54.860 12.139348
54.865 12.764494
54.870 13.198056
54.875 12.566322
54.880 12.550127
54.885 12.123431
54.890 11.855161
54.895 11.605726
54.900 11.552559
54.905 11.576347
54.910 11.90972
54.915 11.952364
54.920 12.277098
54.925 12.237108
54.930 12.535026
54.935 12.531421
54.940 12.401454
54.945 12.671699
54.950 13.191247
54.955 12.805305
54.960 13.017104
54.965 12.644824
54.970 12.353845
54.975 12.175661
54.980 11.8553
54.985 11.349254
54.990 11.156045
54.995 10.92702
55.000 10.772029
55.005 10.868847
55.010 11.214581
55.015 11.218863
55.020 11.311571
55.025 11.609422
55.030 11.843542
55.035 11.727857
55.040 11.645826
55.045 11.80407
55.050 11.220686
55.055 11.41544
55.060 11.557541
55.065 11.614427
55.070 11.626062
55.075 11.426561
55.080 11.339811
55.085 11.59591
55.090 11.179637
55.095 10.813854
55.100 10.579208
55.105 10.81656
55.110 11.006665
55.115 11.347267
55.120 11.913436
55.125 12.455558
55.130 12.443661
55.135 12.842347
55.140 13.300741
55.145 13.19877
55.150 13.085649
55.155 12.597417
55.160 12.277448
55.165 12.44444
55.170 12.431696
55.175 11.919436
55.180 11.615735
55.185 11.331589
55.190 11.299496
55.195 11.26094
55.200 11.211081
55.205 11.131724
55.210 11.587758
55.215 11.416458
55.220 11.783935
55.225 12.541193
55.230 12.748646
55.235 12.75686
55.240 12.862098
55.245 13.057623
55.250 13.764647
55.255 13.477645
55.260 13.545637
55.265 13.170726
55.270 12.887104
55.275 12.353734
55.280 12.054388
55.285 11.734424
55.290 12.150482
55.295 12.000614
55.300 12.163324
55.305 12.470637
55.310 12.979642
55.315 12.946647
55.320 12.464664
55.325 12.28658
55.330 12.69991
55.335 12.63399
55.340 12.24685
55.345 11.705355
55.350 11.870624
55.355 12.136106
55.360 11.739865
55.365 11.640639
55.370 11.946872
55.375 12.339125
55.380 12.728888
55.385 12.798414
55.390 13.261023
55.395 13.567231
55.400 13.168869
55.405 13.009733
55.410 12.450428
55.415 11.998711
55.420 11.700585
55.425 11.283383
55.430 10.972519
55.435 10.80266
55.440 11.10148
55.445 11.63708
55.450 11.99554
55.455 11.574122
55.460 11.263591
55.465 11.855987
55.470 12.060404
55.475 12.298326
55.480 12.310768
55.485 12.5186
55.490 13.050505
55.495 12.870113
55.500 12.646071
55.505 12.111776
55.510 11.651718
55.515 11.239076
55.520 10.976387
55.525 10.73932
55.530 10.622341
55.535 11.103591
55.540 11.780712
55.545 11.679944
55.550 11.900194
55.555 12.50189
55.560 12.893641
55.565 13.443913
55.570 12.820016
55.575 12.351481
55.580 12.314192
55.585 12.541189
55.590 12.336614
55.595 12.462219
55.600 12.69148
55.605 12.901123
55.610 13.373079
55.615 13.476449
55.620 13.040074
55.625 12.631038
55.630 12.64432
55.635 12.586345
55.640 12.2523
55.645 12.152355
55.650 11.656499
55.655 12.198004
55.660 12.539172
55.665 11.944871
55.670 11.598649
55.675 11.789358
55.680 11.631457
55.685 11.969131
55.690 11.338619
55.695 11.264933
55.700 11.898326
55.705 12.237599
55.710 12.474784
55.715 12.892429
55.720 13.002218
55.725 13.528865
55.730 13.672312
55.735 13.265843
55.740 13.120023
55.745 12.484546
55.750 12.626627
55.755 12.600089
55.760 12.13315
55.765 11.793299
55.770 11.610437
55.775 11.577654
55.780 11.713705
55.785 11.54689
55.790 11.103126
55.795 11.215487
55.800 11.332052
55.805 11.506352
55.810 11.673821
55.815 11.281204
55.820 10.78161
55.825 11.228256
55.830 11.396585
55.835 11.247302
55.840 11.4338
55.845 11.595725
55.850 12.124483
55.855 12.69
55.860 12.338272
55.865 12.155611
55.870 12.176129
55.875 11.995341
55.880 12.804191
55.885 12.707893
55.890 12.64195
55.895 12.719356
55.900 12.995987
55.905 12.998508
55.910 12.846365
55.915 12.17475
55.920 12.383215
55.925 12.703906
55.930 12.708117
55.935 13.024845
55.940 13.234464
55.945 13.548372
55.950 13.891321
55.955 13.750795
55.960 13.498024
55.965 13.404711
55.970 13.501619
55.975 13.393669
55.980 13.085904
55.985 12.613693
55.990 12.365435
55.995 12.847574
56.000 12.898526
56.005 12.655007
56.010 12.510846
56.015 12.920584
56.020 13.685529
56.025 14.046947
56.030 13.665672
56.035 13.564074
56.040 13.382133
56.045 13.407016
56.050 13.433896
56.055 13.116173
56.060 12.897236
56.065 13.367638
56.070 13.140478
56.075 13.211664
56.080 13.294956
56.085 12.939301
56.090 12.674698
56.095 12.494081
56.100 12.051341
56.105 12.198814
56.110 12.375027
56.115 12.14479
56.120 11.868279
56.125 12.239701
56.130 12.217164
56.135 12.684169
56.140 12.92415
56.145 12.932929
56.150 13.188468
56.155 13.491112
56.160 13.501464
56.165 13.690566
56.170 13.769525
56.175 13.946403
56.180 13.885699
56.185 13.936086
56.190 13.689013
56.195 13.764311
56.200 13.773085
56.205 13.626204
56.210 13.331515
56.215 13.434831
56.220 13.418137
56.225 13.844588
56.230 13.882065
56.235 14.191236
56.240 14.482267
56.245 14.624707
56.250 14.795815
56.255 15.101022
56.260 15.014301
56.265 14.760731
56.270 13.877843
56.275 13.248237
56.280 13.105632
56.285 12.658267
56.290 12.751384
56.295 12.748493
56.300 12.792086
56.305 13.354928
56.310 13.546772
56.315 14.16906
56.320 14.130242
56.325 13.383518
56.330 12.960474
56.335 13.330105
56.340 13.172099
56.345 13.224848
56.350 12.912383
56.355 13.151369
56.360 13.761572
56.365 14.02393
56.370 13.809624
56.375 13.95078
56.380 13.847466
56.385 13.912843
56.390 14.011336
56.395 13.905865
56.400 13.82002
56.405 13.970592
56.410 13.608138
56.415 13.187157
56.420 13.19139
56.425 12.674787
56.430 12.782129
56.435 12.732
56.440 12.898486
56.445 12.847841
56.450 12.632557
56.455 12.251408
56.460 12.447386
56.465 12.462031
56.470 12.625933
56.475 12.11319
56.480 12.419153
56.485 12.924347
56.490 13.722826
56.495 13.750403
56.500 13.475854
56.505 13.309395
56.510 13.483698
56.515 13.904282
56.520 13.849885
56.525 13.477194
56.530 13.224844
56.535 12.91865
56.540 13.374707
56.545 13.55452
56.550 13.215306
56.555 13.237596
56.560 13.238084
56.565 13.77145
56.570 13.934521
56.575 13.731818
56.580 13.635898
56.585 14.117714
56.590 13.94747
56.595 13.65744
56.600 13.500555
56.605 14.219276
56.610 14.446188
56.615 14.508319
56.620 14.467393
56.625 14.361107
56.630 14.279331
56.635 14.307502
56.640 13.587264
56.645 13.208261
56.650 13.124242
56.655 12.942104
56.660 13.286036
56.665 13.089457
56.670 13.272989
56.675 13.659897
56.680 13.888857
56.685 13.868614
56.690 14.109952
56.695 14.094129
56.700 14.078756
56.705 14.116308
56.710 14.288514
56.715 14.351446
56.720 14.550203
56.725 14.71797
56.730 15.267357
56.735 15.680057
56.740 15.358453
56.745 15.297719
56.750 15.560146
56.755 15.344757
56.760 14.577207
56.765 13.965748
56.770 13.473063
56.775 13.396532
56.780 13.263676
56.785 13.322637
56.790 13.424769
56.795 13.93508
56.800 14.008821
56.805 14.323701
56.810 14.477648
56.815 14.142605
56.820 13.667718
56.825 14.055008
56.830 14.002762
56.835 14.426656
56.840 13.925263
56.845 13.69089
56.850 13.730567
56.855 13.314926
56.860 12.702104
56.865 12.462405
56.870 12.0173
56.875 12.355037
56.880 12.234326
56.885 12.125776
56.890 12.223838
56.895 12.26771
56.900 12.500366
56.905 12.799407
56.910 12.968397
56.915 13.243254
56.920 13.757877
56.925 14.172756
56.930 14.167542
56.935 14.056138
56.940 14.494515
56.945 14.230907
56.950 14.320097
56.955 14.071604
56.960 13.878439
56.965 14.05796
56.970 13.879309
56.975 14.304206
56.980 14.278294
56.985 13.889031
56.990 14.113035
56.995 13.962678
57.000 13.58909
57.005 13.519778
57.010 13.054774
57.015 13.412535
57.020 13.455097
57.025 13.11016
57.030 13.513968
57.035 14.120827
57.040 14.375321
57.045 14.370514
57.050 14.449837
57.055 14.21524
57.060 13.830751
57.065 13.979504
57.070 13.948917
57.075 14.260517
57.080 14.893192
57.085 15.296094
57.090 16.026608
57.095 16.450302
57.100 15.900665
57.105 15.406079
57.110 15.108917
57.115 14.434002
57.120 14.135169
57.125 13.97234
57.130 13.779384
57.135 13.997847
57.140 13.634212
57.145 13.282714
57.150 13.334912
57.155 13.272763
57.160 13.261467
57.165 13.271695
57.170 13.255177
57.175 13.440493
57.180 13.845977
57.185 14.180154
57.190 14.302557
57.195 14.138783
57.200 14.179706
57.205 14.230284
57.210 13.981662
57.215 13.217793
57.220 13.089642
57.225 13.135982
57.230 13.397796
57.235 13.544868
57.240 13.609578
57.245 14.130345
57.250 14.287016
57.255 14.581594
57.260 14.761133
57.265 15.081914
57.270 14.854006
57.275 14.803246
57.280 15.19692
57.285 15.440658
57.290 14.943692
57.295 14.777345
57.300 14.745947
57.305 14.801589
57.310 15.009887
57.315 14.631161
57.320 14.649824
57.325 14.583921
57.330 14.340065
57.335 14.151547
57.340 13.986676
57.345 13.592101
57.350 13.1869
57.355 13.140351
57.360 13.191559
57.365 13.151949
57.370 13.214485
57.375 13.798435
57.380 14.499285
57.385 15.195856
57.390 15.195462
57.395 15.26994
57.400 15.589683
57.405 15.022675
57.410 14.702307
57.415 14.141742
57.420 13.201546
57.425 12.882645
57.430 12.94453
57.435 12.87214
57.440 13.288488
57.445 13.610804
57.450 13.98751
57.455 15.083846
57.460 15.551157
57.465 15.741192
57.470 15.562746
57.475 15.231544
57.480 14.774977
57.485 14.972338
57.490 14.314796
57.495 14.20061
57.500 14.0916
57.505 14.69606
57.510 14.738904
57.515 14.662345
57.520 13.966375
57.525 14.112783
57.530 13.660274
57.535 13.681218
57.540 13.468381
57.545 13.765221
57.550 14.290863
57.555 14.296524
57.560 14.099552
57.565 14.475145
57.570 14.213298
57.575 14.197531
57.580 14.017375
57.585 13.664901
57.590 14.130445
57.595 14.066311
57.600 13.924141
57.605 14.047987
57.610 14.334163
57.615 14.40286
57.620 14.505264
57.625 14.306968
57.630 14.268347
57.635 14.182025
57.640 14.000072
57.645 13.514982
57.650 13.079496
57.655 12.529396
57.660 12.482921
57.665 12.923885
57.670 13.267422
57.675 13.373958
57.680 13.590394
57.685 13.93255
57.690 14.266149
57.695 14.468639
57.700 14.148454
57.705 13.652759
57.710 13.485085
57.715 13.757308
57.720 14.256212
57.725 14.499795
57.730 14.758162
57.735 15.137946
57.740 15.766294
57.745 15.805559
57.750 15.589639
57.755 15.232728
57.760 14.659842
57.765 14.727771
57.770 14.686944
57.775 14.464845
57.780 14.700507
57.785 14.537559
57.790 14.261566
57.795 14.222557
57.800 13.819102
57.805 13.767656
57.810 14.23828
57.815 14.615928
57.820 15.156592
57.825 15.300406
57.830 15.553595
57.835 15.751165
57.840 15.472919
57.845 14.92353
57.850 14.639555
57.855 14.925103
57.860 14.798727
57.865 14.554164
57.870 14.37201
57.875 14.594951
57.880 15.248388
57.885 15.082141
57.890 14.674671
57.895 14.957038
57.900 15.197471
57.905 15.214987
57.910 15.324773
57.915 15.260791
57.920 15.217602
57.925 15.157982
57.930 15.20802
57.935 15.954187
57.940 16.316721
57.945 16.060307
57.950 15.75995
57.955 15.710902
57.960 16.00297
57.965 16.349483
57.970 16.34174
57.975 16.642895
57.980 17.189236
57.985 17.577568
57.990 17.776503
57.995 18.205896
58.000 18.0611
58.005 17.756548
58.010 17.345242
58.015 16.224115
58.020 16.071686
58.025 16.067369
58.030 16.074486
58.035 16.119389
58.040 16.171339
58.045 16.505079
58.050 17.024929
58.055 17.354704
58.060 17.25923
58.065 16.808014
58.070 17.112812
58.075 17.256031
58.080 16.995903
58.085 16.577448
58.090 16.549263
58.095 16.597538
58.100 16.391356
58.105 15.643234
58.110 15.132598
58.115 15.626826
58.120 16.504219
58.125 16.473703
58.130 16.77586
58.135 17.377207
58.140 18.205927
58.145 19.214354
58.150 19.242285
58.155 19.020935
58.160 18.84144
58.165 18.999256
58.170 18.753347
58.175 17.994627
58.180 17.292065
58.185 17.682919
58.190 18.03455
58.195 18.296713
58.200 18.299141
58.205 18.729761
58.210 18.38586
58.215 17.741386
58.220 17.316902
58.225 17.533903
58.230 17.521101
58.235 17.084768
58.240 16.862741
58.245 17.326754
58.250 17.420641
58.255 16.906672
58.260 16.425053
58.265 16.039968
58.270 16.639896
58.275 16.851938
58.280 17.646421
58.285 18.875381
58.290 18.955391
58.295 19.355715
58.300 19.705433
58.305 18.994116
58.310 18.69202
58.315 18.225502
58.320 18.111038
58.325 18.851019
58.330 18.459202
58.335 18.569237
58.340 19.022322
58.345 18.871117
58.350 18.830101
58.355 18.333435
58.360 17.836136
58.365 18.109791
58.370 17.881283
58.375 18.258337
58.380 18.799988
58.385 19.374954
58.390 20.292521
58.395 20.470247
58.400 21.097128
58.405 21.926643
58.410 21.805202
58.415 21.32461
58.420 21.289753
58.425 21.307365
58.430 22.476227
58.435 22.590485
58.440 22.378016
58.445 22.958757
58.450 23.47047
58.455 23.646929
58.460 23.848534
58.465 23.816151
58.470 24.169394
58.475 24.180382
58.480 24.808413
58.485 25.794947
58.490 26.613796
58.495 27.257229
58.500 27.269037
58.505 28.017405
58.510 28.910229
58.515 29.169455
58.520 29.106306
58.525 29.899694
58.530 29.84786
58.535 30.529638
58.540 30.759081
58.545 31.201441
58.550 31.788712
58.555 32.498463
58.560 33.226952
58.565 34.138325
58.570 35.020317
58.575 35.750603
58.580 35.648632
58.585 35.5518
58.590 35.950874
58.595 36.256683
58.600 36.134838
58.605 36.127155
58.610 36.115044
58.615 36.944744
58.620 37.442993
58.625 38.173889
58.630 38.875008
58.635 39.643097
58.640 40.156582
58.645 40.956791
58.650 40.689297
58.655 41.091675
58.660 41.213032
58.665 41.073719
58.670 40.961426
58.675 40.417915
58.680 39.804348
58.685 39.435585
58.690 39.120335
58.695 39.746212
58.700 39.404346
58.705 38.542171
58.710 38.501125
58.715 39.502869
58.720 39.082592
58.725 38.978298
58.730 38.775455
58.735 39.447674
58.740 39.63097
58.745 39.114784
58.750 38.477402
58.755 38.819817
58.760 37.92358
58.765 37.241936
58.770 36.973255
58.775 37.456673
58.780 37.485973
58.785 37.232964
58.790 37.45657
58.795 37.512932
58.800 36.35384
58.805 35.208981
58.810 34.274136
58.815 33.253639
58.820 32.759403
58.825 32.03986
58.830 30.956202
58.835 29.27886
58.840 28.866776
58.845 28.883785
58.850 28.902237
58.855 28.725838
58.860 28.585108
58.865 28.94829
58.870 29.090614
58.875 28.627436
58.880 28.465464
58.885 28.313387
58.890 27.893013
58.895 27.621433
58.900 27.611828
58.905 27.446846
58.910 26.909369
58.915 26.053776
58.920 25.655468
58.925 25.089674
58.930 24.622267
58.935 24.131199
58.940 23.542112
58.945 23.517822
58.950 22.798874
58.955 21.849611
58.960 21.274677
58.965 20.794096
58.970 20.809711
58.975 20.634138
58.980 20.13595
58.985 20.237675
58.990 20.743673
58.995 21.011366
59.000 20.930735
59.005 20.865316
59.010 20.75074
59.015 20.503977
59.020 19.744112
59.025 19.043488
59.030 18.33779
59.035 17.923836
59.040 18.108183
59.045 18.130564
59.050 18.131102
59.055 18.604923
59.060 19.386772
59.065 19.393246
59.070 19.147367
59.075 18.043449
59.080 17.48658
59.085 17.446337
59.090 17.824881
59.095 17.498991
59.100 16.864489
59.105 16.596823
59.110 16.847178
59.115 16.841805
59.120 16.322388
59.125 15.763392
59.130 15.585422
59.135 16.096819
59.140 15.878076
59.145 16.022581
59.150 16.369604
59.155 16.813955
59.160 16.898569
59.165 17.407118
59.170 17.664001
59.175 17.573284
59.180 17.278191
59.185 16.895382
59.190 16.432562
59.195 15.636744
59.200 15.405829
59.205 15.422994
59.210 15.48948
59.215 15.403906
59.220 15.40205
59.225 15.533374
59.230 16.073378
59.235 15.824591
59.240 15.873272
59.245 15.885341
59.250 15.789367
59.255 15.825004
59.260 16.019777
59.265 15.84161
59.270 15.665515
59.275 15.842151
59.280 16.074316
59.285 15.979409
59.290 15.593347
59.295 15.182344
59.300 15.615967
59.305 15.834998
59.310 16.145681
59.315 16.047207
59.320 16.206543
59.325 16.777561
59.330 16.560991
59.335 16.467005
59.340 16.444864
59.345 15.912996
59.350 15.955753
59.355 15.777543
59.360 15.865541
59.365 16.302654
59.370 16.29216
59.375 16.340855
59.380 16.372801
59.385 16.844149
59.390 17.782354
59.395 17.751499
59.400 17.335657
59.405 17.149384
59.410 16.91728
59.415 17.236155
59.420 17.039009
59.425 16.42841
59.430 16.487801
59.435 16.388811
59.440 15.943629
59.445 15.767424
59.450 15.799896
59.455 15.864983
59.460 15.736971
59.465 15.533191
59.470 15.638558
59.475 16.552401
59.480 16.924786
59.485 16.104109
59.490 15.51532
59.495 15.949495
59.500 16.527195
59.505 16.90053
59.510 16.118389
59.515 15.916588
59.520 16.740025
59.525 17.18276
59.530 16.827599
59.535 16.942457
59.540 16.686245
59.545 16.602821
59.550 16.924191
59.555 16.912542
59.560 17.00025
59.565 16.375385
59.570 16.023121
59.575 16.314449
59.580 16.890116
59.585 16.761419
59.590 15.941224
59.595 15.75153
59.600 15.373006
59.605 14.937328
59.610 14.756101
59.615 14.329607
59.620 14.386912
59.625 15.247616
59.630 15.571606
59.635 15.930101
59.640 16.101736
59.645 16.380753
59.650 17.007862
59.655 16.614157
59.660 16.33046
59.665 15.965443
59.670 15.749299
59.675 16.066015
59.680 15.553997
59.685 15.795787
59.690 16.394863
59.695 16.314714
59.700 16.487764
59.705 16.579546
59.710 16.728687
59.715 16.418896
59.720 15.407294
59.725 14.847095
59.730 15.213998
59.735 15.801856
59.740 16.140484
59.745 15.975066
59.750 16.905811
59.755 17.496122
59.760 17.90793
59.765 17.365143
59.770 16.441082
59.775 15.785769
59.780 15.325277
59.785 15.170856
59.790 14.519129
59.795 14.331429
59.800 14.90434
59.805 15.245411
59.810 15.200945
59.815 15.189084
59.820 14.747824
59.825 15.430921
59.830 15.02697
59.835 14.905431
59.840 15.129327
59.845 15.497585
59.850 16.15336
59.855 16.659021
59.860 16.207355
59.865 16.339165
59.870 16.168894
59.875 16.702675
59.880 16.52437
59.885 15.899758
59.890 15.619393
59.895 15.595532
59.900 15.144744
59.905 15.101432
59.910 14.816752
59.915 14.806436
59.920 14.643852
59.925 14.441134
59.930 14.892193
59.935 15.261983
59.940 14.93756
59.945 14.752827
59.950 14.528792
59.955 14.593832
59.960 14.624286
59.965 14.285083
59.970 14.479632
59.975 15.097372
59.980 15.233585
59.985 15.80123
59.990 16.202185
59.995 16.386673
60.000 16.577263
60.005 16.070375
60.010 15.563621
60.015 15.718015
60.020 15.356306
60.025 15.12254
60.030 15.039863
60.035 15.037147
60.040 15.698531
60.045 16.166269
60.050 16.069258
60.055 16.821604
60.060 16.861221
60.065 17.306145
60.070 17.510717
60.075 17.35673
60.080 17.17168
60.085 17.144205
60.090 16.922886
60.095 17.030853
60.100 16.977663
60.105 16.829441
60.110 16.578539
60.115 16.241671
60.120 15.877851
60.125 15.531462
60.130 15.435606
60.135 15.121644
60.140 15.026371
60.145 15.089035
60.150 15.337868
60.155 15.42124
60.160 15.504392
60.165 15.792658
60.170 15.827243
60.175 16.075308
60.180 16.243
60.185 16.452484
60.190 16.414331
60.195 16.308851
60.200 16.180796
60.205 16.030968
60.210 16.07542
60.215 16.22768
60.220 16.273684
60.225 16.285303
60.230 16.552258
60.235 16.56476
60.240 16.8538
60.245 16.305435
60.250 15.734493
60.255 15.846814
60.260 15.672497
60.265 15.762332
60.270 16.111877
60.275 15.851199
60.280 16.168467
60.285 16.388182
60.290 16.373814
60.295 16.749483
60.300 16.495787
60.305 16.264864
60.310 16.712725
60.315 17.22183
60.320 17.349735
60.325 17.706116
60.330 17.759455
60.335 17.649214
60.340 17.339737
60.345 16.858635
60.350 16.227333
60.355 15.924297
60.360 15.586144
60.365 15.099001
60.370 15.383173
60.375 15.179587
60.380 15.844266
60.385 16.705259
60.390 16.749056
60.395 16.703918
60.400 17.194284
60.405 17.195059
60.410 16.690472
60.415 15.862825
60.420 15.496169
60.425 15.607091
60.430 16.219418
60.435 16.000727
60.440 16.140886
60.445 16.473707
60.450 17.204664
60.455 16.878626
60.460 16.361443
60.465 15.651938
60.470 16.605476
60.475 16.80467
60.480 16.767189
60.485 16.404922
60.490 16.282648
60.495 16.551561
60.500 16.543262
60.505 15.213057
60.510 14.957586
60.515 14.87934
60.520 15.015788
60.525 15.28358
60.530 15.123461
60.535 15.340243
60.540 15.481535
60.545 15.61743
60.550 15.881904
60.555 16.320011
60.560 16.295374
60.565 17.168095
60.570 17.416517
60.575 17.478714
60.580 17.400843
60.585 17.422129
60.590 17.181986
60.595 17.558693
60.600 16.760765
60.605 16.68083
60.610 17.405075
60.615 17.344193
60.620 16.818295
60.625 16.564775
60.630 16.865145
60.635 16.942974
60.640 16.285679
60.645 15.682813
60.650 15.81111
60.655 15.784198
60.660 15.392855
60.665 14.811237
60.670 14.809821
60.675 15.421345
60.680 15.564516
60.685 15.732104
60.690 16.426126
60.695 17.031961
60.700 17.535898
60.705 17.648964
60.710 17.785404
60.715 18.015486
60.720 17.360497
60.725 16.885221
60.730 16.772251
60.735 16.196709
60.740 16.182379
60.745 15.62837
60.750 15.318202
60.755 16.265587
60.760 16.65803
60.765 16.608982
60.770 17.029978
60.775 16.807281
60.780 16.575415
60.785 16.596025
60.790 16.272623
60.795 16.068697
60.800 16.108425
60.805 15.689696
60.810 16.158672
60.815 17.323256
60.820 17.54183
60.825 17.531317
60.830 17.318138
60.835 17.139732
60.840 17.006226
60.845 16.80241
60.850 16.121782
60.855 16.208773
60.860 15.700864
60.865 15.461869
60.870 15.608767
60.875 15.547676
60.880 15.277955
60.885 14.556238
60.890 14.289823
60.895 14.591886
60.900 14.843491
60.905 14.718098
60.910 15.119456
60.915 15.344551
60.920 15.973761
60.925 15.831537
60.930 16.235577
60.935 16.401098
60.940 16.081438
60.945 15.764212
60.950 15.58456
60.955 15.514932
60.960 14.987727
60.965 14.468867
60.970 14.201014
60.975 14.430484
60.980 15.160233
60.985 15.454961
60.990 15.713269
60.995 16.142633
61.000 16.461555
61.005 16.546223
61.010 16.255135
61.015 15.945303
61.020 16.213364
61.025 16.288618
61.030 17.022863
61.035 16.929331
61.040 16.918896
61.045 17.039486
61.050 16.996164
61.055 16.955212
61.060 16.868015
61.065 16.740278
61.070 16.823309
61.075 17.192812
61.080 17.35544
61.085 16.743572
61.090 16.425089
61.095 16.13785
61.100 15.961762
61.105 15.746142
61.110 14.743045
61.115 14.503351
61.120 14.740314
61.125 14.700477
61.130 14.41668
61.135 13.762508
61.140 13.820531
61.145 14.701258
61.150 14.949142
61.155 14.996849
61.160 14.750656
61.165 14.15074
61.170 14.363251
61.175 14.708833
61.180 14.993856
61.185 15.050386
61.190 15.137467
61.195 16.011806
61.200 16.83819
61.205 17.30982
61.210 16.837946
61.215 16.408903
61.220 16.231571
61.225 16.576614
61.230 17.539631
61.235 17.956524
61.240 17.514238
61.245 17.526911
61.250 17.708458
61.255 17.789906
61.260 17.733118
61.265 16.980309
61.270 16.461105
61.275 16.528175
61.280 17.08876
61.285 17.065561
61.290 17.263535
61.295 16.670654
61.300 16.052795
61.305 15.876571
61.310 15.348202
61.315 14.824929
61.320 14.603712
61.325 14.761778
61.330 14.808066
61.335 14.922464
61.340 15.204988
61.345 15.754976
61.350 15.985275
61.355 16.323671
61.360 16.163383
61.365 16.262512
61.370 16.105453
61.375 16.353693
61.380 16.514853
61.385 16.74684
61.390 17.102144
61.395 16.829134
61.400 17.086731
61.405 16.724916
61.410 16.664448
61.415 16.021067
61.420 15.910614
61.425 15.800529
61.430 16.070049
61.435 16.001017
61.440 16.768442
61.445 16.331713
61.450 16.719431
61.455 16.47394
61.460 16.033447
61.465 15.781818
61.470 15.743912
61.475 15.830117
61.480 16.290634
61.485 16.184385
61.490 16.177235
61.495 16.398254
61.500 16.716385
61.505 16.626734
61.510 16.133244
61.515 16.7012
61.520 17.121878
61.525 17.104231
61.530 17.091183
61.535 16.673815
61.540 16.782005
61.545 17.368301
61.550 17.463514
61.555 18.045877
61.560 18.415031
61.565 18.562122
61.570 18.755106
61.575 18.753204
61.580 17.958616
61.585 16.6145
61.590 15.651488
61.595 15.031257
61.600 14.623817
61.605 14.231323
61.610 14.340043
61.615 14.541901
61.620 15.16689
61.625 15.783493
61.630 16.175137
61.635 16.517471
61.640 16.97381
61.645 16.812237
61.650 17.025465
61.655 17.463083
61.660 17.107374
61.665 16.930763
61.670 17.031168
61.675 16.709421
61.680 17.050631
61.685 17.759317
61.690 17.529331
61.695 17.260216
61.700 17.186529
61.705 16.459
61.710 16.165697
61.715 15.79951
61.720 15.43249
61.725 15.133739
61.730 15.152964
61.735 15.657678
61.740 15.90088
61.745 16.333975
61.750 16.202087
61.755 16.142561
61.760 16.18099
61.765 16.338194
61.770 16.344007
61.775 16.76766
61.780 16.637087
61.785 16.900354
61.790 16.983648
61.795 17.539757
61.800 17.403957
61.805 17.104181
61.810 17.217693
61.815 17.266729
61.820 16.943693
61.825 16.736116
61.830 16.077343
61.835 15.829774
61.840 16.027113
61.845 15.861903
61.850 16.697346
61.855 17.589502
61.860 17.85815
61.865 18.260313
61.870 18.380404
61.875 18.601645
61.880 19.555359
61.885 19.489672
61.890 19.287289
61.895 18.875174
61.900 18.644751
61.905 18.78231
61.910 18.592218
61.915 17.514517
61.920 17.155569
61.925 16.858545
61.930 17.31567
61.935 17.150034
61.940 17.118237
61.945 16.568115
61.950 16.416998
61.955 16.328844
61.960 16.06601
61.965 15.614509
61.970 15.732028
61.975 15.696004
61.980 15.850398
61.985 16.059635
61.990 16.007765
61.995 16.190147
62.000 16.705641
62.005 17.443184
62.010 17.158861
62.015 16.801188
62.020 16.816536
62.025 16.297922
62.030 15.520423
62.035 14.767526
62.040 14.036517
62.045 14.012488
62.050 14.755969
62.055 14.620499
62.060 14.957365
62.065 15.788464
62.070 16.031937
62.075 16.075636
62.080 16.581245
62.085 16.266949
62.090 16.469084
62.095 16.783384
62.100 16.55201
62.105 16.459173
62.110 16.79727
62.115 16.377281
62.120 16.456604
62.125 16.305399
62.130 16.246975
62.135 16.174368
62.140 16.083485
62.145 16.143759
62.150 16.728924
62.155 16.913847
62.160 16.887789
62.165 16.627527
62.170 17.094294
62.175 17.702688
62.180 18.121397
62.185 17.707205
62.190 17.242702
62.195 17.339071
62.200 16.87215
62.205 16.355724
62.210 15.99507
62.215 15.279596
62.220 15.094044
62.225 15.451907
62.230 15.24349
62.235 15.392232
62.240 15.264655
62.245 15.049631
62.250 15.251991
62.255 15.413604
62.260 15.476921
62.265 16.125305
62.270 16.659552
62.275 17.298044
62.280 17.399347
62.285 17.839903
62.290 17.926594
62.295 18.068378
62.300 17.932716
62.305 17.778378
62.310 17.633945
62.315 17.622478
62.320 17.065798
62.325 16.591301
62.330 16.250795
62.335 16.380592
62.340 16.503801
62.345 16.229519
62.350 16.287691
62.355 16.341909
62.360 16.993853
62.365 17.17873
62.370 16.862537
62.375 16.696218
62.380 17.082273
62.385 16.864235
62.390 16.973015
62.395 16.838696
62.400 17.026468
62.405 17.15284
62.410 17.487257
62.415 17.106592
62.420 17.140957
62.425 17.638323
62.430 17.830629
62.435 17.505491
62.440 17.124166
62.445 17.485159
62.450 17.789316
62.455 17.564175
62.460 17.269136
62.465 17.038546
62.470 17.069405
62.475 17.377987
62.480 17.045483
62.485 16.862749
62.490 17.163643
62.495 16.881392
62.500 17.067291
62.505 17.157007
62.510 17.289679
62.515 17.261114
62.520 17.489988
62.525 17.432947
62.530 16.918093
62.535 16.501274
62.540 16.393116
62.545 16.127886
62.550 15.888803
62.555 15.513317
62.560 15.557046
62.565 15.986082
62.570 15.653222
62.575 15.645506
62.580 15.625282
62.585 15.557051
62.590 15.785431
62.595 15.708517
62.600 15.948803
62.605 16.252913
62.610 16.170254
62.615 15.461646
62.620 15.931874
62.625 15.809649
62.630 15.577387
62.635 15.845523
62.640 15.896877
62.645 15.56076
62.650 15.731403
62.655 15.614096
62.660 16.015343
62.665 16.409594
62.670 16.816292
62.675 17.165773
62.680 17.885151
62.685 18.360514
62.690 18.305977
62.695 18.013863
62.700 17.514692
62.705 17.223864
62.710 17.644497
62.715 17.886383
62.720 17.824781
62.725 18.344393
62.730 18.344772
62.735 18.442265
62.740 17.654146
62.745 16.611521
62.750 15.905205
62.755 16.043339
62.760 15.866451
62.765 15.995198
62.770 15.798985
62.775 16.21847
62.780 16.435806
62.785 16.557558
62.790 16.878235
62.795 16.584885
62.800 17.068695
62.805 17.358311
62.810 17.591019
62.815 17.567488
62.820 17.396191
62.825 16.792387
62.830 16.785679
62.835 16.285536
62.840 16.111984
62.845 16.055874
62.850 16.811407
62.855 16.896055
62.860 16.870169
62.865 16.746
62.870 16.626339
62.875 16.275015
62.880 16.122204
62.885 15.656049
62.890 15.791901
62.895 15.58109
62.900 15.783187
62.905 16.165127
62.910 16.887794
62.915 16.616695
62.920 16.843544
62.925 17.065283
62.930 17.748938
62.935 17.99024
62.940 18.306631
62.945 18.248335
62.950 18.493353
62.955 18.563379
62.960 18.341118
62.965 18.325922
62.970 17.696127
62.975 17.600798
62.980 17.899899
62.985 18.541193
62.990 19.167273
62.995 19.664366
63.000 20.216993
63.005 20.92495
63.010 20.830925
63.015 20.666979
63.020 20.514091
63.025 20.044281
63.030 19.509817
63.035 19.293737
63.040 19.170507
63.045 18.899664
63.050 18.788727
63.055 18.376671
63.060 17.698467
63.065 17.660761
63.070 16.912552
63.075 16.708876
63.080 16.837831
63.085 16.433775
63.090 16.025061
63.095 16.362917
63.100 16.20627
63.105 16.504251
63.110 16.281055
63.115 15.965384
63.120 15.781675
63.125 15.874331
63.130 15.772333
63.135 16.009779
63.140 15.994075
63.145 16.759567
63.150 17.550224
63.155 17.961441
63.160 18.226732
63.165 18.699232
63.170 18.428797
63.175 17.898085
63.180 17.90423
63.185 17.759432
63.190 17.871531
63.195 17.679592
63.200 17.049788
63.205 17.05319
63.210 17.847292
63.215 17.111467
63.220 17.073898
63.225 17.167616
63.230 17.709845
63.235 17.822456
63.240 17.936062
63.245 17.387615
63.250 17.601019
63.255 17.653467
63.260 17.33543
63.265 16.658846
63.270 16.738428
63.275 16.700294
63.280 17.057222
63.285 17.152632
63.290 16.678179
63.295 16.429316
63.300 16.931969
63.305 17.032612
63.310 16.754829
63.315 16.292486
63.320 16.257416
63.325 16.721525
63.330 17.28141
63.335 17.093493
63.340 17.10486
63.345 17.768904
63.350 17.715307
63.355 17.11079
63.360 17.190605
63.365 16.813683
63.370 16.4338
63.375 16.396278
63.380 16.376999
63.385 16.905972
63.390 17.273422
63.395 16.813425
63.400 17.238691
63.405 17.670708
63.410 17.957674
63.415 17.565292
63.420 18.059774
63.425 18.463833
63.430 18.628641
63.435 18.964556
63.440 18.666946
63.445 18.167017
63.450 18.362453
63.455 18.243399
63.460 18.474752
63.465 19.018984
63.470 19.269447
63.475 19.396606
63.480 19.430559
63.485 19.529474
63.490 19.369696
63.495 18.883007
63.500 18.569355
63.505 18.128593
63.510 18.273937
63.515 17.944633
63.520 17.347775
63.525 17.016478
63.530 16.981926
63.535 17.219683
63.540 17.131344
63.545 16.91925
63.550 16.967768
63.555 17.26763
63.560 17.161518
63.565 17.133459
63.570 16.500269
63.575 16.586258
63.580 17.236368
63.585 17.286005
63.590 17.375448
63.595 17.713245
63.600 17.877113
63.605 17.974533
63.610 18.446529
63.615 18.552845
63.620 19.199993
63.625 19.383551
63.630 19.261444
63.635 19.262304
63.640 19.597689
63.645 19.264755
63.650 18.837858
63.655 18.207121
63.660 17.738237
63.665 18.220734
63.670 18.831861
63.675 18.409426
63.680 18.493013
63.685 19.034817
63.690 19.714575
63.695 19.785549
63.700 19.831858
63.705 19.824326
63.710 19.995573
63.715 19.828575
63.720 19.114384
63.725 18.690384
63.730 18.730602
63.735 18.61129
63.740 18.505821
63.745 18.747719
63.750 18.97723
63.755 19.746267
63.760 20.029266
63.765 20.711889
63.770 20.485596
63.775 20.426645
63.780 19.81492
63.785 19.201212
63.790 18.704472
63.795 18.539839
63.800 17.80895
63.805 17.565123
63.810 17.566561
63.815 18.220903
63.820 18.736578
63.825 18.957024
63.830 18.901672
63.835 19.078201
63.840 19.306292
63.845 19.147512
63.850 19.042011
63.855 18.84059
63.860 18.880249
63.865 18.658272
63.870 18.606688
63.875 18.623472
63.880 18.266073
63.885 17.841314
63.890 17.876299
63.895 17.481628
63.900 18.139847
63.905 18.11154
63.910 18.545252
63.915 19.412851
63.920 20.008657
63.925 20.156519
63.930 19.874239
63.935 19.265949
63.940 19.855665
63.945 19.469448
63.950 18.942801
63.955 18.706472
63.960 18.625496
63.965 19.499359
63.970 19.959425
63.975 19.094826
63.980 18.9671
63.985 19.179268
63.990 19.1005
63.995 19.174116
64.000 19.176437
64.005 19.159508
64.010 19.705818
64.015 20.339334
64.020 21.354757
64.025 21.921453
64.030 21.443407
64.035 21.238714
64.040 21.661858
64.045 21.90435
64.050 22.185919
64.055 21.872486
64.060 21.669346
64.065 22.501844
64.070 22.886467
64.075 22.550652
64.080 22.208139
64.085 21.609512
64.090 21.159151
64.095 21.645115
64.100 21.783688
64.105 22.132685
64.110 23.276312
64.115 23.81476
64.120 24.534012
64.125 25.288694
64.130 25.136843
64.135 25.806833
64.140 25.768419
64.145 25.835712
64.150 25.819551
64.155 25.787781
64.160 26.0047
64.165 26.55974
64.170 26.524117
64.175 26.383183
64.180 26.712994
64.185 27.607687
64.190 28.644184
64.195 28.922415
64.200 29.367226
64.205 29.956066
64.210 30.319246
64.215 30.256317
64.220 30.648781
64.225 30.832853
64.230 31.686304
64.235 31.82028
64.240 32.902294
64.245 33.945187
64.250 34.564148
64.255 35.073925
64.260 35.852077
64.265 36.072174
64.270 36.876854
64.275 36.459408
64.280 36.128078
64.285 36.554836
64.290 37.333405
64.295 38.397263
64.300 39.483486
64.305 40.668175
64.310 41.556557
64.315 42.789543
64.320 43.107956
64.325 43.166615
64.330 42.809479
64.335 42.907963
64.340 42.856831
64.345 42.980221
64.350 43.582115
64.355 44.19928
64.360 46.087086
64.365 47.430988
64.370 48.289593
64.375 48.886021
64.380 49.329765
64.385 50.041389
64.390 50.97464
64.395 52.222935
64.400 53.850765
64.405 55.024357
64.410 56.089012
64.415 56.651154
64.420 56.390633
64.425 56.344398
64.430 55.344574
64.435 54.37925
64.440 54.078762
64.445 54.251801
64.450 54.382217
64.455 54.454975
64.460 54.192032
64.465 53.587234
64.470 53.788837
64.475 52.986256
64.480 52.728817
64.485 53.157909
64.490 52.938667
64.495 53.05331
64.500 53.532417
64.505 52.802795
64.510 52.494637
64.515 51.708004
64.520 50.860336
64.525 50.086853
64.530 49.593792
64.535 48.337082
64.540 47.265041
64.545 47.39119
64.550 47.908016
64.555 47.549061
64.560 47.118248
64.565 46.181927
64.570 45.838039
64.575 45.320328
64.580 43.947956
64.585 42.352257
64.590 41.848183
64.595 41.696507
64.600 41.559547
64.605 40.766212
64.610 40.450459
64.615 39.597794
64.620 38.987381
64.625 38.823708
64.630 38.649723
64.635 37.958256
64.640 37.876347
64.645 37.620392
64.650 37.948971
64.655 37.492939
64.660 37.284061
64.665 36.244068
64.670 35.65942
64.675 34.677979
64.680 33.652184
64.685 32.330967
64.690 31.556971
64.695 31.120216
64.700 30.917662
64.705 30.886101
64.710 30.781252
64.715 30.927643
64.720 31.306849
64.725 30.921448
64.730 29.758923
64.735 28.832535
64.740 27.956587
64.745 27.958611
64.750 27.119257
64.755 25.992048
64.760 25.439772
64.765 26.222071
64.770 26.854675
64.775 26.684837
64.780 25.428347
64.785 25.188627
64.790 24.867353
64.795 24.823439
64.800 24.082838
64.805 23.946646
64.810 23.850657
64.815 24.197739
64.820 25.283918
64.825 26.89941
64.830 26.865622
64.835 26.663507
64.840 26.499008
64.845 26.068527
64.850 25.951246
64.855 25.026171
64.860 23.902151
64.865 23.991941
64.870 23.955061
64.875 23.578568
64.880 23.301037
64.885 23.12431
64.890 23.223131
64.895 23.834105
64.900 24.382057
64.905 24.725309
64.910 25.623552
64.915 26.428703
64.920 26.540758
64.925 26.286661
64.930 26.284218
64.935 25.947088
64.940 25.576101
64.945 25.105732
64.950 25.042446
64.955 25.465563
64.960 25.868582
64.965 25.707531
64.970 25.815348
64.975 26.056366
64.980 26.252075
64.985 27.080238
64.990 27.173767
64.995 27.698784
65.000 28.570852
65.005 29.372814
65.010 30.004976
65.015 30.584242
65.020 31.853123
65.025 32.744202
65.030 33.430069
65.035 33.93845
65.040 34.822464
65.045 35.477898
65.050 35.349819
65.055 34.815632
65.060 35.632362
65.065 35.960876
65.070 35.560863
65.075 35.395142
65.080 35.720707
65.085 36.346786
65.090 36.894455
65.095 37.243511
65.100 37.124546
65.105 38.261108
65.110 38.419468
65.115 38.855408
65.120 39.571964
65.125 39.837814
65.130 39.750423
65.135 40.168495
65.140 40.069111
65.145 40.14109
65.150 39.011833
65.155 38.275326
65.160 38.189228
65.165 38.706459
65.170 39.02655
65.175 39.037701
65.180 39.231312
65.185 40.137764
65.190 40.059212
65.195 39.67923
65.200 39.287018
65.205 39.149715
65.210 39.087402
65.215 38.977505
65.220 39.153629
65.225 39.736046
65.230 40.410049
65.235 40.293133
65.240 40.214478
65.245 40.251896
65.250 40.764847
65.255 41.39394
65.260 41.943989
65.265 42.265587
65.270 42.453522
65.275 42.558044
65.280 42.026619
65.285 41.711754
65.290 41.91238
65.295 42.133884
65.300 42.410786
65.305 43.06329
65.310 43.348427
65.315 44.206272
65.320 44.837471
65.325 44.44165
65.330 43.404068
65.335 42.59977
65.340 42.544903
65.345 42.540707
65.350 43.037312
65.355 41.996914
65.360 42.439682
65.365 42.726879
65.370 42.222843
65.375 41.488144
65.380 41.955376
65.385 41.595112
65.390 41.478844
65.395 41.401764
65.400 41.567829
65.405 42.282631
65.410 43.364105
65.415 42.648373
65.420 42.138996
65.425 42.458839
65.430 41.88728
65.435 41.845707
65.440 41.950241
65.445 41.352989
65.450 41.101322
65.455 40.582935
65.460 40.036026
65.465 39.781498
65.470 38.721214
65.475 37.892281
65.480 37.389656
65.485 37.328983
65.490 38.2962
65.495 38.855022
65.500 39.957912
65.505 40.364902
65.510 40.494785
65.515 40.507072
65.520 40.099304
65.525 40.145321
65.530 39.252892
65.535 38.484768
65.540 38.991726
65.545 39.530746
65.550 39.835365
65.555 39.255745
65.560 38.870678
65.565 38.669022
65.570 38.043167
65.575 37.880844
65.580 37.740433
65.585 37.628956
65.590 38.142998
65.595 37.809704
65.600 37.975426
65.605 38.123386
65.610 37.200157
65.615 36.922482
65.620 36.827377
65.625 36.430027
65.630 36.127808
65.635 35.748013
65.640 35.74847
65.645 35.650822
65.650 35.213398
65.655 35.026623
65.660 34.732616
65.665 34.874668
65.670 35.0396
65.675 34.809036
65.680 34.424622
65.685 33.358528
65.690 33.145847
65.695 33.378326
65.700 33.986832
65.705 33.454865
65.710 33.462799
65.715 32.488461
65.720 32.285713
65.725 31.851858
65.730 31.593634
65.735 30.629293
65.740 30.088501
65.745 29.677464
65.750 29.857044
65.755 29.466618
65.760 29.271275
65.765 28.476095
65.770 28.909492
65.775 29.425047
65.780 29.42445
65.785 29.465992
65.790 30.13798
65.795 30.303074
65.800 30.694923
65.805 30.01626
65.810 29.312355
65.815 29.120665
65.820 28.795046
65.825 28.306639
65.830 28.784317
65.835 27.939625
65.840 28.160503
65.845 28.737474
65.850 29.106638
65.855 28.651201
65.860 27.538172
65.865 26.669579
65.870 27.046494
65.875 26.639515
65.880 25.878689
65.885 25.126308
65.890 24.509787
65.895 24.436068
65.900 23.714159
65.905 22.653627
65.910 22.088917
65.915 21.29685
65.920 20.682117
65.925 20.655581
65.930 21.155371
65.935 21.548479
65.940 21.663422
65.945 21.823473
65.950 22.394297
65.955 22.880415
65.960 23.150747
65.965 22.534063
65.970 22.384415
65.975 21.8319
65.980 21.729721
65.985 21.109217
65.990 21.67823
65.995 21.906382
66.000 21.689089
66.005 21.311714
66.010 21.173534
66.015 20.876379
66.020 20.989309
66.025 20.009457
66.030 20.09017
66.035 20.275177
66.040 20.175997
66.045 20.182405
66.050 20.679047
66.055 21.081995
66.060 21.774252
66.065 21.831297
66.070 22.458019
66.075 23.328451
66.080 23.852293
66.085 23.826168
66.090 23.137695
66.095 22.594912
66.100 21.594654
66.105 20.947834
66.110 20.789354
66.115 20.306715
66.120 19.716652
66.125 19.692442
66.130 19.492384
66.135 19.647696
66.140 19.628386
66.145 19.770945
66.150 20.061565
66.155 20.212175
66.160 20.188208
66.165 19.9168
66.170 19.37249
66.175 18.875151
66.180 17.93355
66.185 17.441517
66.190 17.068106
66.195 17.517614
66.200 17.927898
66.205 18.263172
66.210 17.962271
66.215 18.104731
66.220 18.521074
66.225 18.509239
66.230 17.985828
66.235 18.560703
66.240 18.467281
66.245 19.188948
66.250 19.691961
66.255 18.945978
66.260 18.61034
66.265 18.879108
66.270 18.314238
66.275 17.672794
66.280 17.474377
66.285 17.811207
66.290 18.602411
66.295 18.829233
66.300 18.427017
66.305 18.53233
66.310 19.469925
66.315 19.41543
66.320 19.328426
66.325 19.276642
66.330 19.46439
66.335 19.553164
66.340 18.604929
66.345 17.943884
66.350 17.808466
66.355 17.151676
66.360 17.389847
66.365 17.819448
66.370 18.199528
66.375 17.938009
66.380 18.128738
66.385 18.26622
66.390 17.807774
66.395 17.224281
66.400 16.723141
66.405 16.799307
66.410 17.473549
66.415 17.298872
66.420 17.719101
66.425 18.946218
66.430 19.302164
66.435 19.499071
66.440 19.954002
66.445 19.764582
66.450 19.706951
66.455 19.249037
66.460 18.919365
66.465 19.026472
66.470 19.127518
66.475 18.502151
66.480 18.573227
66.485 18.815092
66.490 19.267822
66.495 19.173006
66.500 18.717714
66.505 18.3978
66.510 18.530104
66.515 18.316179
66.520 18.420139
66.525 18.389315
66.530 18.072214
66.535 17.836552
66.540 17.774687
66.545 18.58946
66.550 19.77737
66.555 19.250778
66.560 18.676346
66.565 19.255842
66.570 19.394371
66.575 19.251825
66.580 18.269922
66.585 17.656639
66.590 17.882355
66.595 18.881523
66.600 18.170614
66.605 18.411745
66.610 18.680613
66.615 18.840792
66.620 18.474155
66.625 18.305321
66.630 17.645996
66.635 18.101316
66.640 18.264549
66.645 18.331696
66.650 18.38294
66.655 18.362932
66.660 18.254721
66.665 18.183716
66.670 17.635342
66.675 17.631495
66.680 17.605955
66.685 17.856621
66.690 18.555113
66.695 18.827831
66.700 18.953545
66.705 18.95162
66.710 18.395008
66.715 18.416708
66.720 18.359688
66.725 18.049431
66.730 17.880068
66.735 17.774496
66.740 17.844208
66.745 18.170214
66.750 17.432243
66.755 16.765358
66.760 17.175249
66.765 17.339737
66.770 17.909082
66.775 18.591984
66.780 18.867996
66.785 19.673767
66.790 20.479343
66.795 19.833029
66.800 19.340765
66.805 19.029804
66.810 18.86121
66.815 18.545576
66.820 18.099819
66.825 18.02799
66.830 18.188753
66.835 18.222168
66.840 18.585705
66.845 18.226164
66.850 18.049583
66.855 17.985048
66.860 17.959763
66.865 18.258287
66.870 18.270111
66.875 18.474945
66.880 19.610888
66.885 20.084864
66.890 20.105883
66.895 19.833643
66.900 19.845945
66.905 19.698574
66.910 18.942326
66.915 18.632763
66.920 18.835701
66.925 19.076761
66.930 19.354803
66.935 19.620066
66.940 19.725266
66.945 19.810951
66.950 19.355928
66.955 18.964546
66.960 18.966253
66.965 18.655996
66.970 18.96677
66.975 18.644365
66.980 18.554243
66.985 18.878946
66.990 19.113237
66.995 19.070053
67.000 19.646254
67.005 19.901474
67.010 20.566925
67.015 20.979607
67.020 20.757401
67.025 20.602009
67.030 20.845512
67.035 20.832645
67.040 19.888199
67.045 19.111509
67.050 18.833303
67.055 18.513908
67.060 18.76853
67.065 18.323948
67.070 17.916845
67.075 18.967262
67.080 19.669348
67.085 20.541897
67.090 20.777769
67.095 20.617897
67.100 21.114546
67.105 20.853077
67.110 20.376574
67.115 19.997368
67.120 19.254772
67.125 19.339409
67.130 19.505598
67.135 18.680452
67.140 18.133915
67.145 17.344894
67.150 17.325529
67.155 17.274372
67.160 16.97303
67.165 16.974072
67.170 17.015879
67.175 17.255903
67.180 17.70656
67.185 17.723635
67.190 18.145123
67.195 18.285173
67.200 17.968494
67.205 18.362495
67.210 19.308155
67.215 19.677162
67.220 19.618635
67.225 19.436295
67.230 19.16161
67.235 19.320501
67.240 18.978226
67.245 18.009329
67.250 17.783354
67.255 18.004805
67.260 17.982605
67.265 18.722605
67.270 19.135712
67.275 19.296921
67.280 19.153435
67.285 18.323181
67.290 18.256031
67.295 18.372385
67.300 17.909914
67.305 17.372215
67.310 17.576283
67.315 18.446369
67.320 19.10339
67.325 18.873184
67.330 18.440857
67.335 18.215477
67.340 18.302956
67.345 18.04215
67.350 18.012499
67.355 18.324789
67.360 18.656628
67.365 19.017197
67.370 19.100983
67.375 19.400274
67.380 19.449131
67.385 19.325806
67.390 18.637953
67.395 18.342844
67.400 18.095999
67.405 18.216242
67.410 18.019047
67.415 18.189402
67.420 18.419777
67.425 18.400337
67.430 18.29841
67.435 18.45076
67.440 18.656178
67.445 18.582933
67.450 18.441082
67.455 17.957741
67.460 17.800394
67.465 17.645374
67.470 17.70129
67.475 17.597841
67.480 17.889738
67.485 18.093645
67.490 18.680294
67.495 19.463846
67.500 20.021805
67.505 20.350006
67.510 20.768553
67.515 20.614784
67.520 20.826565
67.525 20.99008
67.530 20.757288
67.535 20.694826
67.540 20.398458
67.545 20.184582
67.550 20.01565
67.555 19.51392
67.560 19.192862
67.565 19.201824
67.570 19.239744
67.575 19.176493
67.580 19.656263
67.585 20.528461
67.590 20.159925
67.595 20.262154
67.600 20.573172
67.605 20.275787
67.610 20.019196
67.615 19.37805
67.620 18.755377
67.625 19.849239
67.630 19.721491
67.635 19.549898
67.640 19.528635
67.645 20.023777
67.650 20.213806
67.655 20.343418
67.660 20.113989
67.665 20.69059
67.670 20.649197
67.675 20.134996
67.680 19.444626
67.685 19.395815
67.690 18.882582
67.695 18.76235
67.700 18.129059
67.705 18.826017
67.710 18.952873
67.715 18.905397
67.720 19.185528
67.725 19.568296
67.730 19.319723
67.735 18.984451
67.740 18.229702
67.745 18.078947
67.750 18.092913
67.755 17.205706
67.760 16.99728
67.765 17.350185
67.770 17.931713
67.775 18.411022
67.780 18.671202
67.785 18.365274
67.790 18.982985
67.795 18.611423
67.800 18.006279
67.805 17.703318
67.810 17.20447
67.815 16.88522
67.820 17.241844
67.825 16.953611
67.830 17.376909
67.835 17.259594
67.840 16.676544
67.845 16.695137
67.850 17.126371
67.855 17.124107
67.860 17.4104
67.865 17.34115
67.870 17.786192
67.875 18.692312
67.880 19.138374
67.885 18.987934
67.890 18.908152
67.895 18.591202
67.900 18.950764
67.905 18.303951
67.910 18.119019
67.915 18.615576
67.920 19.191446
67.925 19.385645
67.930 19.582472
67.935 19.530035
67.940 20.176931
67.945 19.842514
67.950 19.111513
67.955 19.38459
67.960 19.235281
67.965 19.706791
67.970 19.840923
67.975 19.66065
67.980 20.144646
67.985 20.783579
67.990 20.566999
67.995 20.394081
68.000 20.43948
68.005 20.510355
68.010 20.571541
68.015 20.638542
68.020 19.925203
68.025 19.238743
68.030 19.209091
68.035 18.717543
68.040 18.84984
68.045 19.064253
68.050 18.839304
68.055 19.121941
68.060 19.831909
68.065 20.11866
68.070 20.270971
68.075 20.6544
68.080 20.723314
68.085 21.322361
68.090 21.324549
68.095 21.294252
68.100 21.213614
68.105 21.093021
68.110 21.168324
68.115 21.227533
68.120 21.412014
68.125 21.975033
68.130 22.197458
68.135 21.960859
68.140 21.443314
68.145 21.100819
68.150 21.000408
68.155 20.441549
68.160 20.604996
68.165 20.268436
68.170 20.381721
68.175 21.192717
68.180 21.587828
68.185 21.833529
68.190 22.304386
68.195 21.947451
68.200 21.93981
68.205 21.81918
68.210 21.50699
68.215 21.178589
68.220 20.610577
68.225 19.720823
68.230 19.776012
68.235 20.353926
68.240 21.379135
68.245 22.189745
68.250 22.036367
68.255 22.134907
68.260 23.251118
68.265 23.630259
68.270 23.287363
68.275 22.451014
68.280 22.195019
68.285 22.799204
68.290 24.04003
68.295 24.053621
68.300 24.124912
68.305 24.512228
68.310 24.449751
68.315 24.306324
68.320 24.270685
68.325 23.79258
68.330 24.424208
68.335 24.74227
68.340 24.997747
68.345 25.964352
68.350 26.446537
68.355 26.989017
68.360 27.199196
68.365 26.832447
68.370 27.12652
68.375 28.216566
68.380 28.077953
68.385 29.083878
68.390 30.003033
68.395 30.243767
68.400 30.346443
68.405 30.536762
68.410 30.439621
68.415 32.136051
68.420 31.959776
68.425 31.324492
68.430 31.502203
68.435 31.930338
68.440 32.389931
68.445 32.437988
68.450 31.847824
68.455 32.79237
68.460 33.491798
68.465 34.911228
68.470 34.888054
68.475 34.759369
68.480 34.981174
68.485 36.084885
68.490 36.44957
68.495 37.153229
68.500 35.863567
68.505 35.937294
68.510 36.638298
68.515 36.44569
68.520 36.216335
68.525 35.398048
68.530 35.088322
68.535 36.014282
68.540 36.617249
68.545 36.797012
68.550 37.182991
68.555 36.524494
68.560 36.792564
68.565 37.663509
68.570 37.71162
68.575 37.327862
68.580 36.330048
68.585 35.93679
68.590 36.652046
68.595 36.855759
68.600 36.581913
68.605 36.623985
68.610 37.090637
68.615 38.300121
68.620 38.269051
68.625 37.972633
68.630 37.884525
68.635 38.179451
68.640 38.633907
68.645 38.293442
68.650 37.574814
68.655 37.784702
68.660 37.29295
68.665 37.236526
68.670 37.263618
68.675 36.592632
68.680 36.65419
68.685 36.820644
68.690 36.863419
68.695 36.983986
68.700 36.203987
68.705 35.960686
68.710 35.89809
68.715 35.854492
68.720 35.883717
68.725 34.974197
68.730 35.252605
68.735 35.874439
68.740 36.132225
68.745 35.911777
68.750 34.991543
68.755 34.86689
68.760 35.795723
68.765 35.850418
68.770 34.896935
68.775 34.46978
68.780 34.792103
68.785 35.540836
68.790 35.376793
68.795 35.306431
68.800 35.2654
68.805 35.670444
68.810 36.494133
68.815 36.650322
68.820 36.48037
68.825 36.298378
68.830 35.610325
68.835 35.647823
68.840 35.653828
68.845 35.212925
68.850 34.54372
68.855 34.49078
68.860 34.448254
68.865 33.790359
68.870 33.613998
68.875 33.072556
68.880 32.955948
68.885 32.881882
68.890 32.479576
68.895 32.528175
68.900 31.965813
68.905 31.20503
68.910 31.164736
68.915 31.811098
68.920 32.34988
68.925 32.480576
68.930 32.627186
68.935 33.127144
68.940 32.755329
68.945 32.47879
68.950 32.023941
68.955 32.122208
68.960 31.63884
68.965 31.420996
68.970 31.82465
68.975 32.071735
68.980 31.429152
68.985 30.63608
68.990 29.838837
68.995 29.666813
69.000 28.902931
69.005 28.097141
69.010 28.250278
69.015 27.657993
69.020 27.334282
69.025 27.346684
69.030 27.395571
69.035 27.005453
69.040 26.788616
69.045 26.42733
69.050 27.12088
69.055 27.551079
69.060 27.461308
69.065 27.366682
69.070 27.901255
69.075 27.564312
69.080 26.991991
69.085 26.917736
69.090 26.38221
69.095 26.563126
69.100 26.59144
69.105 25.70365
69.110 25.739771
69.115 25.936176
69.120 25.30068
69.125 24.920128
69.130 24.750387
69.135 24.738241
69.140 24.675797
69.145 24.381321
69.150 23.727762
69.155 23.040066
69.160 22.907171
69.165 22.922132
69.170 23.028181
69.175 22.878477
69.180 22.899837
69.185 23.350348
69.190 23.724516
69.195 23.442005
69.200 22.892981
69.205 22.705296
69.210 23.302029
69.215 23.144915
69.220 22.689045
69.225 22.404221
69.230 22.251362
69.235 22.239212
69.240 21.578571
69.245 20.070524
69.250 19.155926
69.255 18.853527
69.260 19.276505
69.265 19.072968
69.270 19.055264
69.275 19.256523
69.280 19.89572
69.285 20.057936
69.290 20.67207
69.295 20.723089
69.300 20.981937
69.305 21.602556
69.310 21.315233
69.315 21.533468
69.320 21.769852
69.325 21.221033
69.330 21.028122
69.335 20.533945
69.340 19.940006
69.345 19.884851
69.350 19.454712
69.355 18.900976
69.360 18.590313
69.365 18.423033
69.370 18.528021
69.375 18.727976
69.380 18.953438
69.385 19.250835
69.390 19.398424
69.395 19.423666
69.400 19.639656
69.405 19.387468
69.410 19.440477
69.415 20.156033
69.420 20.28689
69.425 20.433863
69.430 20.646126
69.435 20.320759
69.440 20.648813
69.445 20.168377
69.450 20.023142
69.455 19.692129
69.460 19.885033
69.465 19.915298
69.470 20.10623
69.475 20.22909
69.480 20.193457
69.485 20.059107
69.490 20.328535
69.495 20.194321
69.500 20.377394
69.505 20.061972
69.510 19.902494
69.515 19.973156
69.520 19.824739
69.525 19.418676
69.530 19.379932
69.535 19.612097
69.540 19.958893
69.545 20.272335
69.550 19.928963
69.555 20.121845
69.560 20.583309
69.565 20.981161
69.570 20.785009
69.575 20.227764
69.580 19.726112
69.585 19.624969
69.590 19.241142
69.595 18.407864
69.600 17.912313
69.605 17.698574
69.610 18.031672
69.615 18.040516
69.620 17.768652
69.625 17.780348
69.630 18.090029
69.635 17.429304
69.640 17.282774
69.645 17.385494
69.650 17.735233
69.655 18.639864
69.660 18.523071
69.665 18.629091
69.670 19.541458
69.675 19.358084
69.680 19.300133
69.685 19.202393
69.690 18.688885
69.695 18.72279
69.700 18.742809
69.705 18.989498
69.710 19.437746
69.715 18.699272
69.720 18.544073
69.725 18.730709
69.730 18.802111
69.735 18.778349
69.740 18.37253
69.745 18.402533
69.750 18.607338
69.755 18.200043
69.760 17.857462
69.765 17.748241
69.770 17.665129
69.775 17.8293
69.780 18.051744
69.785 18.13282
69.790 18.232519
69.795 18.591829
69.800 18.705538
69.805 18.907801
69.810 18.866518
69.815 18.438448
69.820 18.832586
69.825 19.436531
69.830 19.152676
69.835 19.276712
69.840 19.018267
69.845 19.158306
69.850 19.683113
69.855 19.585279
69.860 18.780876
69.865 18.962845
69.870 18.670595
69.875 18.880695
69.880 18.644833
69.885 18.362673
69.890 18.25601
69.895 18.79158
69.900 18.519888
69.905 18.176462
69.910 18.071835
69.915 18.222445
69.920 18.741625
69.925 18.201532
69.930 18.121805
69.935 17.889906
69.940 18.016838
69.945 17.557762
69.950 17.1588
69.955 16.968851
69.960 17.615124
69.965 17.411592
69.970 17.583269
69.975 17.695095
69.980 17.942436
69.985 18.170864
69.990 18.61528
69.995 18.495914
70.000 18.861883
70.005 19.095657
70.010 18.973234
70.015 19.215336
70.020 18.750923
70.025 18.487478
70.030 18.911192
70.035 18.734009
70.040 18.19615
70.045 17.948294
70.050 17.990444
70.055 18.256371
70.060 17.765581
70.065 17.677191
70.070 17.902288
70.075 18.568886
70.080 18.738735
70.085 18.392998
70.090 18.302471
70.095 18.537985
70.100 18.668327
70.105 18.404028
70.110 17.933607
70.115 18.678514
70.120 18.867992
70.125 19.497145
70.130 19.869804
70.135 19.993107
70.140 19.899572
70.145 19.901775
70.150 19.197739
70.155 18.783371
70.160 18.465687
70.165 18.056017
70.170 18.133823
70.175 18.651419
70.180 18.251822
70.185 18.255646
70.190 18.381088
70.195 18.499113
70.200 18.521166
70.205 18.372274
70.210 18.387056
70.215 18.543024
70.220 18.622557
70.225 18.693033
70.230 18.228647
70.235 18.090359
70.240 18.010391
70.245 17.748106
70.250 18.13579
70.255 17.878571
70.260 17.7855
70.265 17.575111
70.270 17.947409
70.275 18.2383
70.280 17.895412
70.285 18.262835
70.290 18.481781
70.295 18.597366
70.300 18.826355
70.305 18.206408
70.310 18.261353
70.315 18.982136
70.320 18.757488
70.325 18.668739
70.330 18.831087
70.335 18.73736
70.340 19.163425
70.345 19.159081
70.350 18.424072
70.355 18.267904
70.360 18.420631
70.365 18.844603
70.370 19.08493
70.375 18.68257
70.380 18.585337
70.385 19.18652
70.390 19.668312
70.395 19.996063
70.400 19.749588
70.405 19.719177
70.410 19.3853
70.415 19.32863
70.420 19.178728
70.425 18.423557
70.430 18.100187
70.435 18.123398
70.440 18.174419
70.445 18.83164
70.450 18.877935
70.455 18.860645
70.460 18.694437
70.465 18.046179
70.470 17.906523
70.475 18.352144
70.480 18.277975
70.485 18.06019
70.490 17.51512
70.495 17.196804
70.500 17.180748
70.505 17.516489
70.510 17.37324
70.515 17.228327
70.520 16.803499
70.525 17.355463
70.530 17.760967
70.535 17.469082
70.540 17.208832
70.545 16.850899
70.550 16.756559
70.555 16.854177
70.560 16.823191
70.565 16.942272
70.570 17.482113
70.575 17.236385
70.580 17.317402
70.585 17.475683
70.590 18.110447
70.595 18.238617
70.600 18.569086
70.605 18.343664
70.610 18.505932
70.615 18.369925
70.620 19.474087
70.625 19.436466
70.630 19.695005
70.635 20.004906
70.640 19.731152
70.645 19.481255
70.650 19.919538
70.655 19.570889
70.660 19.12105
70.665 18.32209
70.670 18.344601
70.675 18.520441
70.680 17.99115
70.685 17.817385
70.690 17.62517
70.695 18.428686
70.700 18.899918
70.705 18.713703
70.710 19.03252
70.715 19.267847
70.720 19.270348
70.725 18.769812
70.730 18.560982
70.735 18.140865
70.740 18.563786
70.745 18.973585
70.750 18.917278
70.755 18.840771
70.760 18.812391
70.765 18.654781
70.770 18.407997
70.775 17.587076
70.780 17.368252
70.785 17.137276
70.790 16.814741
70.795 16.980635
70.800 16.974369
70.805 17.270475
70.810 17.446507
70.815 17.326122
70.820 17.536627
70.825 17.469522
70.830 17.215412
70.835 17.078218
70.840 17.07897
70.845 17.844727
70.850 18.12912
70.855 18.531246
70.860 18.590202
70.865 18.396833
70.870 18.270195
70.875 18.198719
70.880 17.119242
70.885 16.31185
70.890 16.154724
70.895 16.436811
70.900 16.773199
70.905 16.876223
70.910 16.917093
70.915 16.850235
70.920 16.969055
70.925 17.039871
70.930 17.29355
70.935 17.381044
70.940 17.408739
70.945 17.407581
70.950 18.097267
70.955 18.345222
70.960 18.001478
70.965 17.564323
70.970 17.192545
70.975 16.813166
70.980 16.813139
70.985 16.841782
70.990 16.846941
70.995 16.918098
71.000 17.039202
71.005 17.75408
71.010 18.255909
71.015 18.42668
71.020 18.481466
71.025 18.589163
71.030 18.755695
71.035 18.812777
71.040 18.419239
71.045 18.676764
71.050 18.883442
71.055 18.982925
71.060 18.98843
71.065 19.111822
71.070 19.573292
71.075 19.735399
71.080 19.177729
71.085 18.866697
71.090 19.046907
71.095 19.396093
71.100 19.665531
71.105 19.087816
71.110 18.863884
71.115 18.687643
71.120 18.507322
71.125 17.842714
71.130 17.412252
71.135 17.416817
71.140 17.877394
71.145 17.840569
71.150 17.840326
71.155 17.983772
71.160 17.942083
71.165 17.954254
71.170 17.95993
71.175 17.559856
71.180 17.946508
71.185 18.639315
71.190 18.733711
71.195 18.61903
71.200 18.057791
71.205 18.091204
71.210 18.659731
71.215 17.954573
71.220 17.916821
71.225 18.312283
71.230 18.467451
71.235 18.612036
71.240 17.749722
71.245 17.256931
71.250 17.880939
71.255 17.755808
71.260 17.486195
71.265 18.115736
71.270 18.467852
71.275 18.601944
71.280 18.671225
71.285 18.501816
71.290 18.655087
71.295 18.223286
71.300 17.672672
71.305 17.376423
71.310 17.125135
71.315 16.789082
71.320 16.2332
71.325 15.751876
71.330 15.672573
71.335 15.74824
71.340 15.959045
71.345 16.804152
71.350 16.918966
71.355 17.264044
71.360 17.269978
71.365 16.987839
71.370 16.655558
71.375 17.017723
71.380 16.777143
71.385 16.595188
71.390 16.567804
71.395 17.010693
71.400 17.584488
71.405 18.219931
71.410 18.242418
71.415 18.068619
71.420 18.321871
71.425 18.640778
71.430 18.604084
71.435 18.593454
71.440 17.796797
71.445 18.11133
71.450 18.57402
71.455 18.981979
71.460 18.728668
71.465 18.292976
71.470 18.152328
71.475 18.648504
71.480 18.538555
71.485 18.77191
71.490 18.028795
71.495 18.259636
71.500 19.145437
71.505 19.323761
71.510 18.656641
71.515 18.166822
71.520 18.123114
71.525 18.422474
71.530 18.180285
71.535 17.802874
71.540 18.552839
71.545 19.278856
71.550 19.313259
71.555 18.852776
71.560 18.554104
71.565 17.896917
71.570 17.557816
71.575 16.988176
71.580 17.006632
71.585 17.206541
71.590 17.524298
71.595 18.038727
71.600 18.339804
71.605 18.696436
71.610 18.475809
71.615 17.817167
71.620 17.374914
71.625 16.830067
71.630 16.565369
71.635 16.996216
71.640 17.021877
71.645 17.149981
71.650 17.53163
71.655 17.82914
71.660 18.089819
71.665 18.35865
71.670 18.750998
71.675 19.036963
71.680 19.46493
71.685 19.741362
71.690 20.415741
71.695 20.530214
71.700 20.102474
71.705 19.907568
71.710 19.884233
71.715 19.413269
71.720 19.1681
71.725 18.275536
71.730 18.081652
71.735 17.698427
71.740 16.896816
71.745 16.752552
71.750 16.885849
71.755 17.407755
71.760 17.552189
71.765 17.992563
71.770 18.539642
71.775 19.263752
71.780 19.134604
71.785 18.778126
71.790 18.655405
71.795 19.022161
71.800 19.049749
71.805 18.396034
71.810 18.448584
71.815 18.675453
71.820 19.256847
71.825 19.290113
71.830 19.338499
71.835 18.782831
71.840 19.295607
71.845 19.727667
71.850 19.399818
71.855 18.760302
71.860 17.981339
71.865 18.038296
71.870 18.636663
71.875 18.242245
71.880 17.916708
71.885 17.842024
71.890 18.032341
71.895 18.203953
71.900 18.024769
71.905 17.831289
71.910 17.392159
71.915 17.392942
71.920 17.672743
71.925 18.133741
71.930 18.365536
71.935 17.949875
71.940 17.846279
71.945 17.857584
71.950 17.660557
71.955 17.204416
71.960 16.260006
71.965 16.587854
71.970 16.710905
71.975 16.512465
71.980 16.975344
71.985 17.268961
71.990 17.844419
71.995 18.367481
72.000 18.206589
72.005 18.495014
72.010 19.214748
72.015 19.123407
72.020 19.140245
72.025 18.920506
72.030 19.302109
72.035 18.812897
72.040 18.706738
72.045 18.232767
72.050 17.720825
72.055 17.624329
72.060 17.232105
72.065 17.210468
72.070 17.2129
72.075 17.340155
72.080 17.859619
72.085 18.191698
72.090 18.908146
72.095 18.578938
72.100 18.355789
72.105 18.631088
72.110 17.804392
72.115 17.896847
72.120 17.780302
72.125 17.694349
72.130 18.449934
72.135 18.498882
72.140 18.862724
72.145 18.662024
72.150 18.683573
72.155 19.004417
72.160 18.376663
72.165 17.800213
72.170 17.667366
72.175 17.683668
72.180 17.344378
72.185 16.469185
72.190 15.924223
72.195 16.505386
72.200 16.74321
72.205 16.47551
72.210 16.654924
72.215 16.652729
72.220 16.69743
72.225 16.857918
72.230 16.875219
72.235 17.0889
72.240 17.547695
72.245 18.116062
72.250 18.788721
72.255 18.704283
72.260 18.283522
72.265 17.764225
72.270 17.586208
72.275 17.924261
72.280 17.14448
72.285 17.64175
72.290 18.215582
72.295 17.925117
72.300 18.553617
72.305 18.290747
72.310 17.501486
72.315 17.761435
72.320 17.368355
72.325 17.704643
72.330 17.785736
72.335 17.593502
72.340 17.910538
72.345 17.937351
72.350 17.657978
72.355 17.361862
72.360 17.319374
72.365 17.709723
72.370 17.707447
72.375 17.667402
72.380 17.537701
72.385 17.218269
72.390 17.038906
72.395 16.958286
72.400 16.689905
72.405 16.764116
72.410 16.78241
72.415 17.060268
72.420 17.540091
72.425 17.616293
72.430 17.991947
72.435 17.618292
72.440 17.669073
72.445 17.797188
72.450 17.89497
72.455 17.515051
72.460 17.539284
72.465 18.303186
72.470 18.688555
72.475 18.455023
72.480 18.126417
72.485 17.762804
72.490 17.671625
72.495 16.666016
72.500 15.826072
72.505 15.819619
72.510 16.209612
72.515 16.925463
72.520 17.596489
72.525 18.255722
72.530 18.246817
72.535 18.570246
72.540 18.758636
72.545 18.424189
72.550 18.368853
72.555 18.145588
72.560 18.254593
72.565 18.357811
72.570 17.927246
72.575 17.975779
72.580 18.144129
72.585 18.359667
72.590 18.79447
72.595 18.786554
72.600 19.091951
72.605 19.242964
72.610 19.069189
72.615 18.767084
72.620 18.53071
72.625 17.943935
72.630 17.88868
72.635 17.746588
72.640 17.561125
72.645 17.652521
72.650 17.52169
72.655 17.580877
72.660 17.852251
72.665 17.502319
72.670 17.446629
72.675 16.813623
72.680 16.54369
72.685 16.441999
72.690 16.689167
72.695 17.463318
72.700 18.07044
72.705 18.390858
72.710 18.347292
72.715 18.586739
72.720 18.951677
72.725 18.538265
72.730 17.991497
72.735 16.961386
72.740 17.079758
72.745 17.14238
72.750 16.615967
72.755 16.515795
72.760 16.446676
72.765 16.482225
72.770 16.665125
72.775 16.445604
72.780 16.642879
72.785 16.923306
72.790 16.452217
72.795 16.69832
72.800 16.869892
72.805 17.124487
72.810 17.460674
72.815 17.305902
72.820 16.788208
72.825 16.469048
72.830 15.731336
72.835 15.196953
72.840 15.171003
72.845 15.321259
72.850 15.537847
72.855 15.991743
72.860 16.513308
72.865 17.077641
72.870 17.699606
72.875 17.92815
72.880 17.916166
72.885 17.553469
72.890 17.108994
72.895 16.907005
72.900 16.798851
72.905 16.917082
72.910 17.02911
72.915 17.294508
72.920 17.561625
72.925 17.318729
72.930 16.658569
72.935 16.400475
72.940 16.299442
72.945 15.694439
72.950 15.318629
72.955 15.144055
72.960 15.076102
72.965 15.664429
72.970 15.752934
72.975 15.854955
72.980 16.129755
72.985 16.653204
72.990 16.741785
72.995 17.726299
73.000 17.931667
