!@!!GADDS PLOTSO FILE: Chi integration type
!@!!Title/SampleName: map-9
!@!!Comment: ?
!@!!User: Bruker Instrument Administrator
!@!!Site: University of Illinois Chicago
!@!!Frame: map-9_01_000.gfrm
!@!!Wavelengths    1.54184   1.54056   1.54439
!@!!Frame angles: 2Theta: 63.000 Omega: 50.000 Phi: 0.000 Chi: 90.000
!@!!Integration range: 2Theta: 53.000 to 73.000  Gamma: -105.000 to -75.000
!@!!Integration method: bin normalized
!@!N
!@!SS
!@!M
!@!L 0.0 0.0 0.0 0.0
!@!XDegrees
!@!YCounts
53.000 6.653871
53.005 7.039416
53.010 7.289947
53.015 7.675916
53.020 7.567919
53.025 7.190376
53.030 7.53352
53.035 7.981952
53.040 7.545181
53.045 7.031255
53.050 6.634935
53.055 6.139869
53.060 6.103941
53.065 5.883283
53.070 6.130542
53.075 6.146811
53.080 6.60559
53.085 7.268708
53.090 8.000414
53.095 8.429343
53.100 8.397783
53.105 8.158449
53.110 8.019667
53.115 7.568841
53.120 6.827137
53.125 6.426172
53.130 6.570742
53.135 6.29062
53.140 6.33075
53.145 6.544867
53.150 6.686386
53.155 7.069616
53.160 6.889427
53.165 6.647746
53.170 6.679273
53.175 6.580008
53.180 6.466637
53.185 6.643303
53.190 6.447024
53.195 6.484273
53.200 6.706379
53.205 7.202886
53.210 7.338558
53.215 7.805995
53.220 7.603127
53.225 7.81979
53.230 7.950246
53.235 8.013487
53.240 7.64955
53.245 7.530412
53.250 7.171544
53.255 7.047942
53.260 6.93833
53.265 6.425827
53.270 6.408033
53.275 6.675759
53.280 6.678176
53.285 6.861356
53.290 6.953127
53.295 7.037458
53.300 7.581242
53.305 8.07115
53.310 8.216787
53.315 8.756907
53.320 8.523766
53.325 8.562138
53.330 8.936583
53.335 8.354159
53.340 7.937552
53.345 7.712448
53.350 7.237344
53.355 7.311104
53.360 7.136381
53.365 6.65547
53.370 6.945427
53.375 6.989348
53.380 7.01189
53.385 7.470497
53.390 7.313593
53.395 7.422745
53.400 7.561489
53.405 7.426627
53.410 7.395592
53.415 7.494251
53.420 7.450986
53.425 7.214034
53.430 7.460191
53.435 7.765968
53.440 7.989992
53.445 8.118823
53.450 8.105245
53.455 8.444389
53.460 8.374362
53.465 7.888713
53.470 7.500003
53.475 7.098108
53.480 6.67946
53.485 6.492744
53.490 6.572727
53.495 6.892728
53.500 7.224782
53.505 7.203496
53.510 7.285469
53.515 7.732347
53.520 7.861171
53.525 8.067349
53.530 7.661638
53.535 7.474002
53.540 7.701649
53.545 7.607807
53.550 7.43714
53.555 7.023462
53.560 6.767414
53.565 6.772562
53.570 7.088375
53.575 6.851772
53.580 6.781902
53.585 6.929095
53.590 6.771656
53.595 6.657602
53.600 6.74337
53.605 6.783108
53.610 7.249589
53.615 6.989421
53.620 6.960752
53.625 7.190674
53.630 7.406674
53.635 7.423538
53.640 7.426791
53.645 7.550262
53.650 7.480981
53.655 7.805153
53.660 7.858
53.665 7.730012
53.670 7.826663
53.675 7.95773
53.680 7.919277
53.685 8.178245
53.690 8.01981
53.695 7.902212
53.700 8.111256
53.705 7.926141
53.710 7.804216
53.715 7.879076
53.720 7.722014
53.725 7.438833
53.730 7.679612
53.735 7.347787
53.740 7.309402
53.745 7.331506
53.750 7.461686
53.755 7.982374
53.760 8.746035
53.765 8.802505
53.770 8.900611
53.775 8.71476
53.780 8.725135
53.785 8.425355
53.790 8.266763
53.795 8.348756
53.800 8.474996
53.805 8.745117
53.810 8.644899
53.815 8.544506
53.820 8.625745
53.825 8.164877
53.830 7.528504
53.835 7.185608
53.840 7.225076
53.845 7.382775
53.850 7.439212
53.855 7.745998
53.860 7.985101
53.865 8.093314
53.870 7.846072
53.875 7.951173
53.880 8.298104
53.885 8.495048
53.890 8.317427
53.895 8.232374
53.900 8.106735
53.905 8.351511
53.910 8.220362
53.915 7.482328
53.920 7.492809
53.925 7.32655
53.930 7.377359
53.935 7.453869
53.940 7.59684
53.945 7.989275
53.950 8.513799
53.955 8.206594
53.960 8.182755
53.965 8.563875
53.970 8.52805
53.975 8.015162
53.980 7.953764
53.985 7.487264
53.990 7.755009
53.995 7.364913
54.000 7.035761
54.005 7.246882
54.010 7.294717
54.015 6.864111
54.020 7.245371
54.025 7.393689
54.030 7.998621
54.035 8.349174
54.040 8.13873
54.045 8.406191
54.050 8.368691
54.055 8.066168
54.060 7.657684
54.065 6.93198
54.070 6.628279
54.075 6.469776
54.080 6.708877
54.085 6.931857
54.090 6.949437
54.095 7.310302
54.100 7.34139
54.105 7.294592
54.110 7.644735
54.115 7.381681
54.120 7.548112
54.125 7.565726
54.130 7.646943
54.135 8.132668
54.140 8.258569
54.145 8.440177
54.150 8.779596
54.155 9.066156
54.160 9.303657
54.165 9.312146
54.170 9.595788
54.175 9.398918
54.180 9.001799
54.185 8.348742
54.190 8.179208
54.195 8.145251
54.200 7.939567
54.205 7.712993
54.210 7.804933
54.215 7.729037
54.220 8.012494
54.225 7.682746
54.230 7.540164
54.235 8.011759
54.240 7.694067
54.245 7.74332
54.250 7.587629
54.255 7.788257
54.260 8.1212
54.265 8.139506
54.270 8.068362
54.275 8.02167
54.280 8.191211
54.285 8.434268
54.290 8.661429
54.295 8.921087
54.300 9.012828
54.305 9.189158
54.310 9.644506
54.315 9.593675
54.320 9.61273
54.325 9.133086
54.330 8.744477
54.335 8.512232
54.340 8.273689
54.345 8.265451
54.350 8.017859
54.355 7.93612
54.360 8.002555
54.365 8.188694
54.370 8.152009
54.375 8.176223
54.380 7.781254
54.385 7.99458
54.390 8.117402
54.395 7.866308
54.400 7.873291
54.405 7.80294
54.410 7.916493
54.415 8.106398
54.420 7.882308
54.425 8.002751
54.430 8.349032
54.435 7.947124
54.440 7.566396
54.445 7.601073
54.450 7.920024
54.455 7.808118
54.460 7.720069
54.465 7.512768
54.470 8.217699
54.475 8.898402
54.480 8.824664
54.485 8.722137
54.490 8.725467
54.495 8.817036
54.500 9.113579
54.505 9.155901
54.510 8.826088
54.515 8.941113
54.520 8.940607
54.525 9.052494
54.530 8.801044
54.535 8.558316
54.540 9.057224
54.545 9.090608
54.550 9.19568
54.555 9.376873
54.560 9.412799
54.565 9.774051
54.570 9.639146
54.575 8.910108
54.580 9.128713
54.585 9.163664
54.590 8.837269
54.595 8.408721
54.600 8.090446
54.605 8.294988
54.610 8.323331
54.615 7.935607
54.620 7.876507
54.625 8.214982
54.630 8.580599
54.635 8.47389
54.640 8.01095
54.645 7.815513
54.650 7.506908
54.655 7.259897
54.660 7.347499
54.665 7.39565
54.670 7.653781
54.675 8.008783
54.680 8.575207
54.685 9.158283
54.690 9.863934
54.695 10.230929
54.700 10.175393
54.705 10.109986
54.710 10.477954
54.715 10.147159
54.720 9.305942
54.725 8.692716
54.730 8.368935
54.735 8.432689
54.740 8.725511
54.745 8.707073
54.750 8.796618
54.755 8.936742
54.760 9.08784
54.765 9.015536
54.770 8.815746
54.775 8.181449
54.780 8.03443
54.785 8.149562
54.790 8.203609
54.795 7.810148
54.800 7.962584
54.805 8.313875
54.810 8.828879
54.815 8.623747
54.820 8.614328
54.825 8.570398
54.830 8.649216
54.835 8.332576
54.840 8.42152
54.845 8.648432
54.850 8.864815
54.855 9.151035
54.860 9.511814
54.865 9.705984
54.870 10.161213
54.875 10.35203
54.880 9.978779
54.885 10.023938
54.890 10.051196
54.895 9.924013
54.900 9.545558
54.905 9.319246
54.910 9.033653
54.915 8.952874
54.920 8.809937
54.925 8.668502
54.930 8.891139
54.935 8.748405
54.940 8.495493
54.945 8.803605
54.950 9.025156
54.955 9.287934
54.960 9.433657
54.965 9.241339
54.970 9.422823
54.975 9.241737
54.980 9.107527
54.985 8.938797
54.990 9.18193
54.995 9.67176
55.000 9.953522
55.005 10.495865
55.010 10.427671
55.015 10.520952
55.020 10.353013
55.025 9.868617
55.030 10.170052
55.035 10.11098
55.040 9.832014
55.045 10.315299
55.050 10.30299
55.055 10.405234
55.060 10.672027
55.065 10.121643
55.070 10.342215
55.075 10.227214
55.080 9.987667
55.085 9.990131
55.090 9.733858
55.095 9.346357
55.100 9.616384
55.105 9.807323
55.110 10.084326
55.115 10.162998
55.120 10.10748
55.125 10.176105
55.130 10.418335
55.135 10.124076
55.140 10.255541
55.145 10.345957
55.150 10.417154
55.155 10.878435
55.160 11.151071
55.165 11.367465
55.170 11.514277
55.175 10.901233
55.180 10.909966
55.185 11.463104
55.190 11.620371
55.195 11.320235
55.200 10.448111
55.205 10.270178
55.210 10.705233
55.215 10.176116
55.220 9.010323
55.225 8.746545
55.230 8.814439
55.235 9.466884
55.240 9.818394
55.245 9.905225
55.250 9.749551
55.255 9.95654
55.260 10.151015
55.265 10.323702
55.270 9.812352
55.275 9.121114
55.280 9.473471
55.285 9.727523
55.290 9.618347
55.295 9.373941
55.300 9.019207
55.305 8.968634
55.310 8.906025
55.315 8.402781
55.320 8.086905
55.325 7.829396
55.330 7.723247
55.335 7.749118
55.340 8.001607
55.345 7.782822
55.350 7.71475
55.355 7.802884
55.360 7.742009
55.365 7.475974
55.370 7.354955
55.375 7.146256
55.380 7.467788
55.385 7.843742
55.390 8.199927
55.395 8.209787
55.400 8.545489
55.405 9.064444
55.410 9.105829
55.415 8.954164
55.420 8.844398
55.425 8.77335
55.430 8.85412
55.435 9.262451
55.440 9.497835
55.445 10.08134
55.450 10.241087
55.455 9.880787
55.460 10.166403
55.465 10.375176
55.470 10.35979
55.475 10.093783
55.480 9.651812
55.485 9.806961
55.490 10.18192
55.495 10.387324
55.500 10.186436
55.505 9.827552
55.510 9.904661
55.515 9.858777
55.520 9.929723
55.525 10.104129
55.530 10.646441
55.535 10.784477
55.540 10.695218
55.545 10.434213
55.550 10.451337
55.555 10.083699
55.560 10.201097
55.565 9.932733
55.570 10.046984
55.575 10.334379
55.580 10.954673
55.585 11.188072
55.590 11.033851
55.595 10.590302
55.600 10.536917
55.605 10.428038
55.610 10.043057
55.615 9.586348
55.620 9.403247
55.625 9.763178
55.630 9.893447
55.635 10.284669
55.640 10.318039
55.645 10.169436
55.650 10.119649
55.655 10.432003
55.660 10.304621
55.665 9.764308
55.670 9.329572
55.675 9.186063
55.680 9.315918
55.685 9.111091
55.690 9.366783
55.695 9.703812
55.700 10.022683
55.705 9.974619
55.710 10.320429
55.715 10.739168
55.720 10.854074
55.725 10.049534
55.730 9.516142
55.735 9.191738
55.740 9.055592
55.745 9.076364
55.750 9.145756
55.755 9.180799
55.760 9.351321
55.765 9.200399
55.770 9.700604
55.775 10.186173
55.780 10.034528
55.785 10.170143
55.790 10.404343
55.795 10.95713
55.800 11.486341
55.805 11.434772
55.810 10.970615
55.815 10.397993
55.820 10.145687
55.825 10.119309
55.830 10.166642
55.835 9.866364
55.840 9.871777
55.845 10.163846
55.850 10.350135
55.855 10.691001
55.860 10.516823
55.865 10.156047
55.870 10.091316
55.875 9.806299
55.880 9.811106
55.885 9.789032
55.890 9.44375
55.895 10.197603
55.900 10.673403
55.905 11.098921
55.910 11.243057
55.915 11.462634
55.920 11.191141
55.925 11.195694
55.930 10.870182
55.935 11.081977
55.940 11.01518
55.945 11.188367
55.950 10.997781
55.955 11.112956
55.960 10.939976
55.965 10.520052
55.970 10.561524
55.975 10.138405
55.980 10.209471
55.985 10.408392
55.990 10.59308
55.995 10.737854
56.000 10.269752
56.005 9.958229
56.010 10.173729
56.015 9.739094
56.020 9.371042
56.025 9.620531
56.030 9.687808
56.035 9.841114
56.040 9.827782
56.045 9.622603
56.050 10.195878
56.055 10.075836
56.060 10.055965
56.065 10.206859
56.070 10.140457
56.075 10.006696
56.080 10.363422
56.085 10.235331
56.090 10.068295
56.095 9.629994
56.100 9.792978
56.105 10.078992
56.110 10.323569
56.115 10.193931
56.120 10.183843
56.125 10.34656
56.130 10.681158
56.135 10.134562
56.140 10.08149
56.145 9.865548
56.150 9.589062
56.155 9.794518
56.160 9.774543
56.165 9.825982
56.170 10.305215
56.175 10.60043
56.180 10.93652
56.185 10.903535
56.190 10.826324
56.195 10.610844
56.200 10.387357
56.205 10.162045
56.210 9.948563
56.215 10.061927
56.220 10.505864
56.225 10.717511
56.230 10.916708
56.235 11.274511
56.240 11.661448
56.245 12.028977
56.250 11.894172
56.255 12.129956
56.260 12.466248
56.265 12.555328
56.270 12.415185
56.275 11.993661
56.280 11.624586
56.285 11.453164
56.290 11.190246
56.295 10.883554
56.300 11.1949
56.305 11.516973
56.310 11.329946
56.315 11.863798
56.320 11.673563
56.325 11.487879
56.330 11.282142
56.335 11.417933
56.340 11.182804
56.345 11.110272
56.350 10.946537
56.355 10.838202
56.360 10.963093
56.365 10.916975
56.370 10.364185
56.375 10.165436
56.380 10.472326
56.385 10.765326
56.390 10.827557
56.395 10.652575
56.400 10.745822
56.405 10.89564
56.410 10.962149
56.415 10.814978
56.420 10.350043
56.425 11.206144
56.430 11.449534
56.435 11.357665
56.440 11.487101
56.445 11.62903
56.450 11.591013
56.455 12.006536
56.460 11.623215
56.465 12.153043
56.470 12.308826
56.475 12.189507
56.480 12.493193
56.485 12.735134
56.490 12.29332
56.495 11.741543
56.500 11.264151
56.505 11.566294
56.510 11.91131
56.515 11.34995
56.520 11.369246
56.525 11.867031
56.530 11.969928
56.535 12.124491
56.540 12.117311
56.545 11.572245
56.550 11.226128
56.555 10.438756
56.560 10.111861
56.565 10.184752
56.570 9.629339
56.575 9.829637
56.580 10.559252
56.585 11.156669
56.590 11.920212
56.595 12.335574
56.600 12.269511
56.605 12.07813
56.610 11.544883
56.615 11.054978
56.620 10.639103
56.625 9.904936
56.630 9.778195
56.635 9.931877
56.640 9.717551
56.645 9.474025
56.650 9.731085
56.655 10.099421
56.660 10.477013
56.665 10.630733
56.670 10.993603
56.675 11.884314
56.680 12.216718
56.685 12.733817
56.690 13.083116
56.695 12.826909
56.700 12.711049
56.705 12.474648
56.710 12.069098
56.715 11.891529
56.720 11.532222
56.725 11.646738
56.730 11.797336
56.735 11.883286
56.740 12.032949
56.745 12.019899
56.750 12.066327
56.755 12.025585
56.760 11.97111
56.765 11.706482
56.770 11.991855
56.775 12.025171
56.780 12.170193
56.785 12.701745
56.790 12.33709
56.795 12.262884
56.800 12.601522
56.805 12.322461
56.810 12.684244
56.815 12.751946
56.820 12.644291
56.825 12.993766
56.830 12.855727
56.835 12.485071
56.840 12.342035
56.845 12.026372
56.850 11.743763
56.855 11.678804
56.860 11.604776
56.865 11.557206
56.870 11.520284
56.875 11.838284
56.880 11.606937
56.885 11.38026
56.890 11.444949
56.895 11.676235
56.900 11.518998
56.905 11.583386
56.910 11.015989
56.915 11.307346
56.920 11.080045
56.925 10.89483
56.930 10.74913
56.935 11.408066
56.940 11.402204
56.945 11.446625
56.950 11.351561
56.955 11.472065
56.960 11.343925
56.965 11.15281
56.970 10.930256
56.975 11.304179
56.980 11.572645
56.985 12.294475
56.990 12.828157
56.995 12.962258
57.000 13.237704
57.005 13.447464
57.010 13.662041
57.015 13.172906
57.020 12.601608
57.025 12.410127
57.030 12.042337
57.035 12.025778
57.040 11.863779
57.045 11.55303
57.050 12.193035
57.055 12.041718
57.060 11.690845
57.065 11.933689
57.070 11.64371
57.075 11.67029
57.080 11.117898
57.085 10.406522
57.090 10.679847
57.095 11.075538
57.100 11.216898
57.105 11.088322
57.110 11.320335
57.115 11.87145
57.120 11.869864
57.125 11.723316
57.130 11.264839
57.135 11.130302
57.140 11.34683
57.145 11.705786
57.150 11.549365
57.155 11.716918
57.160 11.646869
57.165 11.699782
57.170 11.999629
57.175 11.947722
57.180 11.406853
57.185 11.366537
57.190 11.321774
57.195 11.580578
57.200 12.025066
57.205 11.517121
57.210 11.288981
57.215 12.188959
57.220 12.590923
57.225 12.469189
57.230 12.453894
57.235 12.285406
57.240 12.451628
57.245 12.569335
57.250 11.808382
57.255 11.403205
57.260 11.531855
57.265 11.606586
57.270 11.859795
57.275 12.146774
57.280 12.483048
57.285 12.467596
57.290 12.827083
57.295 13.155802
57.300 13.224098
57.305 13.141918
57.310 12.6811
57.315 12.532017
57.320 12.927649
57.325 12.78979
57.330 12.551349
57.335 12.572011
57.340 12.397985
57.345 12.635739
57.350 12.207617
57.355 12.19663
57.360 12.131741
57.365 12.212464
57.370 12.148531
57.375 12.450948
57.380 11.881151
57.385 11.400184
57.390 11.227057
57.395 11.531615
57.400 11.515286
57.405 11.461006
57.410 11.46965
57.415 12.157475
57.420 12.774778
57.425 12.806067
57.430 12.332401
57.435 12.541606
57.440 12.404973
57.445 12.381558
57.450 12.382414
57.455 12.308616
57.460 12.467202
57.465 12.384421
57.470 12.389301
57.475 12.607934
57.480 12.897966
57.485 12.697547
57.490 12.262086
57.495 11.919276
57.500 11.934153
57.505 11.586728
57.510 11.290998
57.515 10.93935
57.520 11.343711
57.525 11.740817
57.530 11.962021
57.535 12.266329
57.540 12.55619
57.545 12.770709
57.550 12.990404
57.555 12.96016
57.560 12.696844
57.565 12.723768
57.570 12.659056
57.575 12.326327
57.580 12.481298
57.585 12.537477
57.590 12.524188
57.595 12.918009
57.600 13.289006
57.605 13.576186
57.610 14.269631
57.615 14.621155
57.620 14.999204
57.625 15.243431
57.630 15.040722
57.635 14.598468
57.640 14.269547
57.645 13.53581
57.650 12.933152
57.655 12.435202
57.660 11.739198
57.665 11.752616
57.670 11.745636
57.675 12.038408
57.680 12.265479
57.685 12.684982
57.690 12.813594
57.695 13.619554
57.700 13.89334
57.705 13.749377
57.710 13.200216
57.715 12.453748
57.720 12.313022
57.725 12.790299
57.730 12.061668
57.735 12.009787
57.740 12.316758
57.745 12.493561
57.750 13.103405
57.755 12.846057
57.760 12.374071
57.765 12.522621
57.770 11.93676
57.775 11.9698
57.780 12.085681
57.785 12.151156
57.790 12.065517
57.795 12.107154
57.800 12.59001
57.805 12.899919
57.810 12.975035
57.815 13.072147
57.820 12.806167
57.825 12.996355
57.830 13.226827
57.835 13.338092
57.840 13.56303
57.845 13.408405
57.850 13.461606
57.855 13.307117
57.860 12.706426
57.865 12.451611
57.870 12.078723
57.875 11.980845
57.880 12.102354
57.885 12.159721
57.890 12.18717
57.895 12.41001
57.900 12.322276
57.905 12.602628
57.910 12.581227
57.915 12.547861
57.920 12.919893
57.925 13.466348
57.930 13.399659
57.935 13.595994
57.940 13.466362
57.945 13.312881
57.950 13.396502
57.955 13.078866
57.960 12.99202
57.965 13.16426
57.970 13.645297
57.975 14.394267
57.980 14.921162
57.985 15.366276
57.990 15.393541
57.995 15.693766
58.000 15.998504
58.005 15.883524
58.010 15.586943
58.015 15.196591
58.020 14.867074
58.025 14.697036
58.030 14.646174
58.035 14.359761
58.040 14.119431
58.045 13.538095
58.050 13.047979
58.055 13.264022
58.060 12.939565
58.065 12.460951
58.070 12.05199
58.075 11.741905
58.080 12.186482
58.085 12.601367
58.090 12.861608
58.095 13.007884
58.100 12.97952
58.105 13.05668
58.110 13.009564
58.115 12.861155
58.120 12.582974
58.125 12.404576
58.130 12.737263
58.135 13.107766
58.140 13.536172
58.145 13.915892
58.150 14.140712
58.155 14.757739
58.160 14.409091
58.165 14.069398
58.170 13.971668
58.175 13.654273
58.180 13.667862
58.185 13.285986
58.190 12.463404
58.195 12.422841
58.200 12.535732
58.205 12.073761
58.210 11.750035
58.215 11.727924
58.220 12.191123
58.225 12.388744
58.230 12.355634
58.235 12.658664
58.240 13.069067
58.245 13.340947
58.250 13.518362
58.255 13.132265
58.260 13.018164
58.265 12.840761
58.270 12.60089
58.275 12.271194
58.280 12.217134
58.285 11.96203
58.290 12.535443
58.295 12.732661
58.300 13.080884
58.305 13.295181
58.310 13.651031
58.315 13.43612
58.320 13.426827
58.325 13.040685
58.330 12.624372
58.335 12.369925
58.340 11.822001
58.345 11.428754
58.350 11.402946
58.355 11.502827
58.360 11.850363
58.365 11.827044
58.370 11.867521
58.375 12.070817
58.380 12.241714
58.385 12.113355
58.390 11.989546
58.395 12.177648
58.400 12.866524
58.405 13.418303
58.410 13.586283
58.415 13.584544
58.420 13.784876
58.425 13.586257
58.430 13.557563
58.435 13.573886
58.440 13.563457
58.445 13.729682
58.450 13.955935
58.455 14.260004
58.460 14.615864
58.465 15.14214
58.470 14.844624
58.475 14.902852
58.480 14.831893
58.485 14.793152
58.490 15.114731
58.495 15.602504
58.500 14.980337
58.505 14.471166
58.510 14.503872
58.515 14.439411
58.520 14.225122
58.525 13.584838
58.530 13.081167
58.535 13.152895
58.540 13.161741
58.545 12.868567
58.550 12.646938
58.555 12.864949
58.560 13.01943
58.565 12.672681
58.570 12.774346
58.575 13.258639
58.580 13.538073
58.585 13.690437
58.590 13.22782
58.595 12.92318
58.600 13.347303
58.605 13.459716
58.610 13.545523
58.615 13.506359
58.620 13.770158
58.625 14.256707
58.630 14.188718
58.635 13.762613
58.640 13.309833
58.645 12.886281
58.650 12.459817
58.655 11.784776
58.660 11.617615
58.665 11.589254
58.670 11.522459
58.675 11.414064
58.680 11.538791
58.685 12.58561
58.690 13.644929
58.695 14.022195
58.700 14.263421
58.705 14.110942
58.710 14.332744
58.715 14.293853
58.720 13.408031
58.725 13.101913
58.730 13.375928
58.735 13.626322
58.740 13.900058
58.745 13.967951
58.750 14.439897
58.755 14.420794
58.760 14.080854
58.765 13.617641
58.770 13.221508
58.775 12.980681
58.780 12.915781
58.785 12.749578
58.790 13.121523
58.795 13.552387
58.800 13.808587
58.805 14.825191
58.810 15.567746
58.815 15.738312
58.820 16.155457
58.825 15.921288
58.830 15.632745
58.835 14.717446
58.840 13.781645
58.845 13.620965
58.850 13.359655
58.855 12.81426
58.860 13.051308
58.865 13.163425
58.870 13.47948
58.875 14.278217
58.880 14.376433
58.885 14.654114
58.890 14.646918
58.895 14.451953
58.900 14.204172
58.905 13.832732
58.910 13.371778
58.915 13.229483
58.920 13.173085
58.925 13.18769
58.930 13.335105
58.935 13.900762
58.940 14.120989
58.945 14.044922
58.950 13.828982
58.955 13.700809
58.960 13.72103
58.965 13.686474
58.970 13.929391
58.975 14.160203
58.980 14.161487
58.985 14.705488
58.990 14.935137
58.995 15.110311
59.000 14.745305
59.005 14.397152
59.010 14.298644
59.015 14.189123
59.020 14.110545
59.025 14.214722
59.030 14.243466
59.035 14.652794
59.040 15.191305
59.045 15.433655
59.050 15.260145
59.055 15.386333
59.060 15.457182
59.065 15.341989
59.070 15.121458
59.075 14.947204
59.080 15.039304
59.085 14.960819
59.090 14.366111
59.095 13.84094
59.100 13.645249
59.105 13.443228
59.110 13.537575
59.115 13.954695
59.120 14.052642
59.125 14.228861
59.130 14.39242
59.135 14.757157
59.140 15.152741
59.145 15.10588
59.150 14.607944
59.155 14.117743
59.160 14.040045
59.165 14.402075
59.170 14.606691
59.175 14.50732
59.180 14.467787
59.185 14.399292
59.190 14.817435
59.195 14.711733
59.200 14.291902
59.205 13.774259
59.210 14.069773
59.215 13.728478
59.220 13.827847
59.225 13.777995
59.230 13.866985
59.235 14.344373
59.240 14.267889
59.245 13.982377
59.250 13.893433
59.255 13.874894
59.260 14.007282
59.265 13.936392
59.270 13.613738
59.275 13.334829
59.280 13.344786
59.285 13.416037
59.290 13.601868
59.295 14.072755
59.300 14.648969
59.305 15.251641
59.310 15.653104
59.315 16.222521
59.320 16.400116
59.325 16.639494
59.330 16.435644
59.335 16.245539
59.340 16.419622
59.345 16.629658
59.350 16.772326
59.355 17.362753
59.360 17.230452
59.365 16.93511
59.370 16.594681
59.375 15.930262
59.380 15.699531
59.385 15.331007
59.390 15.03035
59.395 15.357489
59.400 15.531533
59.405 15.230448
59.410 15.151552
59.415 15.313076
59.420 15.25774
59.425 14.856483
59.430 14.489969
59.435 14.375719
59.440 15.168674
59.445 15.220978
59.450 15.179954
59.455 15.449282
59.460 15.781084
59.465 16.490086
59.470 16.507862
59.475 15.905044
59.480 16.230867
59.485 16.513969
59.490 16.617874
59.495 16.517811
59.500 16.10533
59.505 15.997791
59.510 16.347252
59.515 15.920223
59.520 15.411101
59.525 15.242284
59.530 15.367528
59.535 14.91487
59.540 15.109282
59.545 15.555379
59.550 15.440637
59.555 15.700693
59.560 15.606358
59.565 16.140202
59.570 16.829302
59.575 17.015579
59.580 16.3874
59.585 16.269636
59.590 16.151926
59.595 16.238699
59.600 16.286835
59.605 16.193817
59.610 16.376738
59.615 16.775475
59.620 16.752703
59.625 17.224352
59.630 17.505722
59.635 16.929581
59.640 16.61974
59.645 16.562107
59.650 17.029556
59.655 17.54228
59.660 17.450014
59.665 17.328337
59.670 17.411823
59.675 17.53912
59.680 17.321171
59.685 16.62644
59.690 16.607119
59.695 16.562044
59.700 16.488464
59.705 16.602118
59.710 17.148451
59.715 17.305817
59.720 17.347824
59.725 16.918726
59.730 16.572685
59.735 16.522116
59.740 16.819065
59.745 16.330248
59.750 16.272978
59.755 16.505978
59.760 16.401491
59.765 16.885159
59.770 17.338003
59.775 17.250715
59.780 17.310738
59.785 17.871326
59.790 18.620483
59.795 19.120232
59.800 18.845562
59.805 18.126492
59.810 17.904993
59.815 17.810268
59.820 17.419168
59.825 17.029175
59.830 16.829872
59.835 16.839266
59.840 17.360323
59.845 17.489004
59.850 17.080938
59.855 16.979408
59.860 17.039753
59.865 17.137802
59.870 17.348661
59.875 17.619156
59.880 17.907267
59.885 17.832747
59.890 17.837784
59.895 17.940889
59.900 18.230556
59.905 18.580984
59.910 19.195736
59.915 19.969858
59.920 20.642296
59.925 20.710175
59.930 20.889908
59.935 21.0739
59.940 20.740755
59.945 20.367283
59.950 19.892639
59.955 19.906416
59.960 20.120176
59.965 19.869854
59.970 19.930784
59.975 20.103741
59.980 19.579031
59.985 19.102659
59.990 19.597137
59.995 19.540817
60.000 19.485079
60.005 19.047937
60.010 18.951498
60.015 19.248821
60.020 19.260778
60.025 19.491751
60.030 19.540066
60.035 19.251295
60.040 18.905727
60.045 19.133022
60.050 19.104742
60.055 19.185345
60.060 18.879856
60.065 19.209908
60.070 19.627459
60.075 20.204077
60.080 19.88521
60.085 19.871834
60.090 19.746899
60.095 19.546356
60.100 19.568897
60.105 19.697075
60.110 19.434052
60.115 19.247364
60.120 19.663223
60.125 19.881657
60.130 19.811092
60.135 19.741161
60.140 19.748013
60.145 20.078594
60.150 20.223293
60.155 19.837051
60.160 19.574251
60.165 19.442972
60.170 18.86517
60.175 18.853634
60.180 18.56534
60.185 18.576138
60.190 19.048286
60.195 19.428259
60.200 19.693438
60.205 20.430964
60.210 20.709785
60.215 20.881126
60.220 20.872385
60.225 20.572615
60.230 20.189793
60.235 20.208471
60.240 20.160864
60.245 19.907497
60.250 19.360512
60.255 19.050737
60.260 19.142969
60.265 19.507797
60.270 19.076218
60.275 19.206579
60.280 19.472815
60.285 20.17551
60.290 20.978237
60.295 21.152784
60.300 21.036043
60.305 21.309803
60.310 20.723444
60.315 20.145588
60.320 20.106749
60.325 19.451832
60.330 18.993547
60.335 19.111197
60.340 18.405787
60.345 18.140356
60.350 18.319361
60.355 17.814825
60.360 17.861532
60.365 17.964733
60.370 18.079082
60.375 18.65391
60.380 19.101276
60.385 19.302248
60.390 19.435961
60.395 19.566322
60.400 19.591642
60.405 19.7159
60.410 19.730904
60.415 19.579372
60.420 19.515985
60.425 19.34584
60.430 18.899736
60.435 18.679947
60.440 17.756971
60.445 17.653574
60.450 17.84412
60.455 17.621925
60.460 17.686398
60.465 17.710373
60.470 17.694437
60.475 18.797781
60.480 18.825274
60.485 18.702677
60.490 18.858347
60.495 18.706343
60.500 18.583803
60.505 18.461525
60.510 17.909784
60.515 17.830349
60.520 17.722685
60.525 17.373995
60.530 17.252697
60.535 16.905258
60.540 17.034704
60.545 17.523844
60.550 17.557838
60.555 17.95351
60.560 18.048355
60.565 17.837936
60.570 18.178274
60.575 18.184715
60.580 18.062275
60.585 18.058626
60.590 17.632158
60.595 18.318565
60.600 18.661152
60.605 18.317749
60.610 17.658417
60.615 17.163944
60.620 17.296919
60.625 17.490522
60.630 17.196884
60.635 17.446325
60.640 17.6422
60.645 17.65259
60.650 17.957954
60.655 17.956995
60.660 17.730862
60.665 17.78441
60.670 17.062719
60.675 17.23325
60.680 17.568548
60.685 16.844967
60.690 16.391544
60.695 16.328257
60.700 16.7507
60.705 17.738642
60.710 17.317099
60.715 17.526518
60.720 17.838636
60.725 18.279224
60.730 18.306013
60.735 17.745152
60.740 17.274666
60.745 17.328493
60.750 17.352879
60.755 17.539562
60.760 17.294985
60.765 17.037884
60.770 17.402618
60.775 17.552086
60.780 17.233458
60.785 16.397688
60.790 16.348026
60.795 16.814442
60.800 16.809736
60.805 16.492458
60.810 16.300406
60.815 16.435625
60.820 16.380062
60.825 16.315512
60.830 16.528254
60.835 16.448275
60.840 16.351759
60.845 16.490967
60.850 16.817425
60.855 17.301352
60.860 16.843216
60.865 16.17065
60.870 16.043798
60.875 15.716881
60.880 16.082756
60.885 15.953327
60.890 15.672057
60.895 15.836225
60.900 16.500156
60.905 17.039871
60.910 17.357801
60.915 16.705584
60.920 16.969576
60.925 17.055363
60.930 16.603672
60.935 16.214497
60.940 16.203735
60.945 16.211115
60.950 16.625479
60.955 16.078743
60.960 15.85861
60.965 15.916452
60.970 16.161266
60.975 16.229963
60.980 16.229502
60.985 15.649585
60.990 16.16346
60.995 16.57251
61.000 16.149738
61.005 15.80591
61.010 15.6643
61.015 15.440287
61.020 16.118587
61.025 15.843613
61.030 15.406548
61.035 15.812716
61.040 15.790542
61.045 15.55661
61.050 15.747984
61.055 15.499653
61.060 15.504872
61.065 15.570364
61.070 15.593133
61.075 15.448144
61.080 15.85717
61.085 15.951562
61.090 15.657019
61.095 15.861873
61.100 16.594187
61.105 16.45796
61.110 16.268553
61.115 15.709178
61.120 15.584215
61.125 15.917247
61.130 15.667775
61.135 15.204167
61.140 15.245638
61.145 15.306125
61.150 15.558018
61.155 15.882101
61.160 16.014349
61.165 16.172667
61.170 16.227999
61.175 16.221895
61.180 16.391539
61.185 16.415844
61.190 16.320524
61.195 15.604903
61.200 15.718708
61.205 15.676928
61.210 15.436084
61.215 15.590443
61.220 15.751749
61.225 15.979872
61.230 16.847866
61.235 16.918686
61.240 16.681147
61.245 16.605413
61.250 16.348551
61.255 16.307159
61.260 16.044315
61.265 15.124341
61.270 14.489945
61.275 14.774675
61.280 15.012165
61.285 15.023397
61.290 15.040356
61.295 14.93938
61.300 15.286892
61.305 15.717485
61.310 15.858817
61.315 16.163027
61.320 16.340679
61.325 16.136902
61.330 15.957196
61.335 16.067024
61.340 16.256495
61.345 16.164869
61.350 16.515192
61.355 16.031183
61.360 15.938078
61.365 16.15818
61.370 16.211571
61.375 16.078793
61.380 16.07093
61.385 15.473723
61.390 15.709059
61.395 15.937642
61.400 16.028002
61.405 16.365381
61.410 15.704865
61.415 15.538178
61.420 15.725252
61.425 15.439013
61.430 15.090281
61.435 14.612678
61.440 14.568685
61.445 15.336486
61.450 15.532233
61.455 15.869126
61.460 16.641689
61.465 17.339117
61.470 17.654325
61.475 17.342516
61.480 16.920702
61.485 16.991573
61.490 16.361004
61.495 16.274446
61.500 15.945646
61.505 15.948292
61.510 15.74795
61.515 15.961419
61.520 15.396957
61.525 15.356698
61.530 15.686
61.535 16.043428
61.540 15.656997
61.545 16.177582
61.550 16.398674
61.555 16.838951
61.560 17.104351
61.565 16.797764
61.570 17.142321
61.575 18.103662
61.580 18.055578
61.585 17.637472
61.590 17.786293
61.595 17.525505
61.600 16.907944
61.605 16.490484
61.610 16.055639
61.615 15.785253
61.620 16.218121
61.625 16.602375
61.630 16.58482
61.635 16.613329
61.640 16.32597
61.645 15.714804
61.650 15.468205
61.655 15.063453
61.660 14.593125
61.665 14.531082
61.670 14.747671
61.675 14.826116
61.680 15.154155
61.685 15.257594
61.690 15.608585
61.695 15.96084
61.700 16.078579
61.705 16.352245
61.710 16.472013
61.715 16.971535
61.720 17.215723
61.725 16.797855
61.730 16.413155
61.735 16.562029
61.740 16.503546
61.745 16.335691
61.750 16.389118
61.755 16.011972
61.760 15.829183
61.765 16.465275
61.770 16.486179
61.775 16.78072
61.780 16.800873
61.785 16.300091
61.790 16.607658
61.795 16.542009
61.800 15.613746
61.805 14.952724
61.810 15.159
61.815 15.344538
61.820 15.632829
61.825 15.592644
61.830 15.416358
61.835 15.51635
61.840 15.797023
61.845 14.731356
61.850 14.187475
61.855 13.803944
61.860 13.959719
61.865 14.462457
61.870 14.272018
61.875 14.09143
61.880 14.913502
61.885 15.408469
61.890 15.447362
61.895 15.758446
61.900 16.250156
61.905 16.471783
61.910 16.411638
61.915 16.20582
61.920 16.252935
61.925 17.324511
61.930 17.276373
61.935 16.989372
61.940 16.808987
61.945 16.996721
61.950 16.952494
61.955 16.685791
61.960 15.813417
61.965 15.333626
61.970 15.477146
61.975 15.655874
61.980 15.450832
61.985 15.228773
61.990 15.203715
61.995 15.029584
62.000 15.512851
62.005 15.256235
62.010 15.498152
62.015 15.442954
62.020 15.381626
62.025 15.118264
62.030 15.238888
62.035 15.427717
62.040 15.493661
62.045 15.578166
62.050 15.673073
62.055 15.861159
62.060 16.307343
62.065 15.76574
62.070 15.465124
62.075 15.322391
62.080 14.901351
62.085 14.807197
62.090 14.611069
62.095 14.47254
62.100 14.770715
62.105 14.882142
62.110 14.914288
62.115 15.278182
62.120 15.450812
62.125 16.09269
62.130 16.195473
62.135 16.67557
62.140 16.965549
62.145 17.081823
62.150 16.758062
62.155 17.22093
62.160 16.772774
62.165 17.188438
62.170 17.502762
62.175 17.827374
62.180 17.579304
62.185 17.37009
62.190 16.735895
62.195 16.762505
62.200 16.303362
62.205 15.209478
62.210 14.62785
62.215 15.123483
62.220 15.092551
62.225 14.713963
62.230 14.163592
62.235 14.202222
62.240 14.23626
62.245 14.218266
62.250 13.918414
62.255 14.097239
62.260 14.829438
62.265 15.720952
62.270 15.926154
62.275 16.141729
62.280 16.22365
62.285 16.431992
62.290 16.826916
62.295 16.763464
62.300 16.387964
62.305 16.84539
62.310 17.418362
62.315 17.162533
62.320 17.117031
62.325 17.369499
62.330 17.181679
62.335 17.345888
62.340 17.009163
62.345 16.119532
62.350 16.134476
62.355 15.94176
62.360 15.407527
62.365 15.619298
62.370 15.466614
62.375 14.545189
62.380 14.547574
62.385 14.586416
62.390 14.728118
62.395 14.568666
62.400 14.360149
62.405 14.402102
62.410 15.691265
62.415 16.484129
62.420 16.987198
62.425 17.162527
62.430 17.802198
62.435 18.122145
62.440 18.183308
62.445 17.393341
62.450 17.690908
62.455 17.903561
62.460 17.776079
62.465 17.086857
62.470 16.624891
62.475 16.562847
62.480 16.668465
62.485 16.014036
62.490 15.284002
62.495 14.995462
62.500 14.846378
62.505 14.555776
62.510 14.254054
62.515 14.615737
62.520 15.071196
62.525 15.251511
62.530 15.059808
62.535 15.117562
62.540 15.342651
62.545 15.112753
62.550 14.764317
62.555 14.411255
62.560 14.514009
62.565 14.938646
62.570 15.289582
62.575 15.477208
62.580 16.063923
62.585 15.664216
62.590 15.171845
62.595 15.085222
62.600 15.247183
62.605 15.239291
62.610 15.256495
62.615 15.06905
62.620 15.101493
62.625 15.756184
62.630 16.149023
62.635 15.790809
62.640 15.615601
62.645 15.780057
62.650 15.729398
62.655 15.882154
62.660 15.490865
62.665 15.118417
62.670 15.642195
62.675 15.993223
62.680 15.806334
62.685 15.714221
62.690 15.540872
62.695 15.997896
62.700 16.285305
62.705 16.056396
62.710 15.845134
62.715 16.018526
62.720 16.157894
62.725 16.85537
62.730 17.20322
62.735 17.373215
62.740 17.73555
62.745 17.964476
62.750 18.076456
62.755 18.415033
62.760 18.224836
62.765 18.027857
62.770 17.247072
62.775 16.868931
62.780 16.85227
62.785 16.867094
62.790 16.863119
62.795 16.648764
62.800 16.225595
62.805 16.591213
62.810 16.651146
62.815 16.779232
62.820 17.094305
62.825 17.135828
62.830 17.343494
62.835 17.599174
62.840 17.383602
62.845 17.279198
62.850 17.301334
62.855 16.87476
62.860 16.554678
62.865 15.774216
62.870 15.572553
62.875 15.347289
62.880 14.796032
62.885 14.053113
62.890 13.894797
62.895 13.70008
62.900 13.822649
62.905 14.495574
62.910 14.695299
62.915 14.760391
62.920 15.036696
62.925 15.204467
62.930 15.715977
62.935 16.612322
62.940 16.826128
62.945 17.297157
62.950 17.767271
62.955 18.110035
62.960 18.048326
62.965 17.841385
62.970 17.250475
62.975 16.882717
62.980 16.677422
62.985 16.271557
62.990 15.616066
62.995 16.0977
63.000 16.598385
63.005 17.201591
63.010 17.310635
63.015 17.418932
63.020 17.598753
63.025 17.600988
63.030 16.774693
63.035 16.260506
63.040 15.551924
63.045 15.317074
63.050 15.353781
63.055 15.449611
63.060 16.044962
63.065 16.715973
63.070 16.818707
63.075 17.175566
63.080 17.491514
63.085 17.300144
63.090 16.79685
63.095 16.273355
63.100 15.585434
63.105 15.52327
63.110 15.322906
63.115 15.044182
63.120 15.316233
63.125 15.80111
63.130 16.157316
63.135 16.526573
63.140 16.788103
63.145 17.220551
63.150 17.423124
63.155 17.733948
63.160 17.668318
63.165 17.571486
63.170 17.634977
63.175 17.494856
63.180 16.620783
63.185 16.166962
63.190 15.830906
63.195 15.37704
63.200 15.093738
63.205 14.801793
63.210 14.212643
63.215 14.235088
63.220 13.996498
63.225 14.200002
63.230 15.083158
63.235 15.363592
63.240 15.800896
63.245 15.533912
63.250 15.701664
63.255 16.279175
63.260 16.592949
63.265 16.210726
63.270 15.74174
63.275 15.600795
63.280 16.464348
63.285 16.674707
63.290 16.108742
63.295 15.879062
63.300 16.260805
63.305 16.810188
63.310 16.923584
63.315 17.382044
63.320 17.473005
63.325 17.175879
63.330 16.838413
63.335 16.681271
63.340 16.507416
63.345 16.295645
63.350 15.874785
63.355 15.831117
63.360 16.234304
63.365 16.195295
63.370 15.979008
63.375 16.064405
63.380 16.347452
63.385 16.058044
63.390 15.857636
63.395 15.70937
63.400 15.949494
63.405 15.917514
63.410 15.076468
63.415 14.848645
63.420 14.657325
63.425 14.318939
63.430 14.523294
63.435 14.794017
63.440 15.477038
63.445 16.516008
63.450 16.195166
63.455 16.727304
63.460 17.325884
63.465 17.456366
63.470 17.183603
63.475 16.985407
63.480 16.983278
63.485 17.225311
63.490 16.663702
63.495 16.927637
63.500 16.875315
63.505 17.350317
63.510 17.270264
63.515 16.692434
63.520 16.607792
63.525 16.900171
63.530 16.893679
63.535 17.310436
63.540 16.915949
63.545 16.92362
63.550 17.041058
63.555 17.010582
63.560 16.68108
63.565 16.23947
63.570 16.371283
63.575 17.294096
63.580 16.907009
63.585 16.88258
63.590 17.202997
63.595 17.048689
63.600 16.762386
63.605 15.529578
63.610 14.563178
63.615 14.724822
63.620 14.89244
63.625 14.781054
63.630 15.527286
63.635 15.752956
63.640 16.16511
63.645 15.706183
63.650 15.8523
63.655 15.82918
63.660 16.048449
63.665 16.084072
63.670 16.037943
63.675 15.888779
63.680 16.519669
63.685 16.253159
63.690 16.269587
63.695 16.033066
63.700 15.581072
63.705 15.409352
63.710 15.41241
63.715 15.306574
63.720 15.850509
63.725 15.774121
63.730 15.689362
63.735 15.878842
63.740 16.291401
63.745 16.738867
63.750 16.874155
63.755 16.790962
63.760 16.853992
63.765 17.159958
63.770 17.754253
63.775 17.929089
63.780 17.641264
63.785 17.107824
63.790 16.958168
63.795 17.007961
63.800 17.047407
63.805 17.06333
63.810 16.747339
63.815 17.086136
63.820 17.329464
63.825 17.518841
63.830 17.661793
63.835 17.081579
63.840 16.195171
63.845 16.093775
63.850 16.425415
63.855 16.180746
63.860 16.102962
63.865 16.18038
63.870 16.356672
63.875 16.664545
63.880 17.034986
63.885 17.259916
63.890 17.390818
63.895 16.994383
63.900 16.623558
63.905 16.414509
63.910 16.49893
63.915 16.520456
63.920 16.099215
63.925 16.064377
63.930 16.495924
63.935 17.024958
63.940 17.554155
63.945 17.305172
63.950 16.408985
63.955 16.542004
63.960 16.976959
63.965 17.419802
63.970 17.357252
63.975 17.025421
63.980 17.508997
63.985 17.836136
63.990 18.390818
63.995 18.694134
64.000 18.278822
64.005 18.089705
64.010 18.124041
64.015 18.180117
64.020 18.701834
64.025 18.686741
64.030 17.835758
64.035 18.119301
64.040 18.360418
64.045 19.029768
64.050 18.789387
64.055 18.207079
64.060 17.559816
64.065 17.785643
64.070 17.737125
64.075 17.245937
64.080 16.709997
64.085 16.415392
64.090 16.283096
64.095 16.525215
64.100 16.765476
64.105 16.604891
64.110 17.190292
64.115 18.117556
64.120 18.975222
64.125 19.163378
64.130 19.3046
64.135 19.715479
64.140 19.817003
64.145 19.352816
64.150 18.946543
64.155 18.354778
64.160 18.275501
64.165 17.814188
64.170 17.55303
64.175 17.594917
64.180 17.879782
64.185 17.589504
64.190 17.366186
64.195 17.425837
64.200 17.450573
64.205 17.024559
64.210 16.875221
64.215 17.095642
64.220 16.97942
64.225 17.14115
64.230 17.361101
64.235 17.803633
64.240 18.146715
64.245 17.770113
64.250 17.463516
64.255 17.492121
64.260 17.188469
64.265 16.862803
64.270 16.734976
64.275 16.726469
64.280 17.115461
64.285 17.099754
64.290 17.171803
64.295 18.037876
64.300 18.535864
64.305 18.562792
64.310 18.267849
64.315 18.504976
64.320 18.365717
64.325 18.258852
64.330 17.636509
64.335 17.224232
64.340 16.920828
64.345 17.017155
64.350 17.311649
64.355 17.796354
64.360 17.826653
64.365 17.357096
64.370 17.4986
64.375 18.236767
64.380 18.979589
64.385 18.534145
64.390 18.234518
64.395 18.521816
64.400 19.097599
64.405 18.991463
64.410 18.281603
64.415 17.580269
64.420 17.305998
64.425 17.937014
64.430 18.473873
64.435 18.567881
64.440 18.946928
64.445 19.055275
64.450 19.381393
64.455 19.972298
64.460 19.571894
64.465 18.879932
64.470 18.799274
64.475 18.435041
64.480 17.885315
64.485 17.283806
64.490 16.655703
64.495 16.56951
64.500 17.040627
64.505 16.731045
64.510 16.588326
64.515 16.860483
64.520 17.275225
64.525 17.550737
64.530 17.787601
64.535 18.053753
64.540 18.271027
64.545 18.152092
64.550 18.503078
64.555 19.020586
64.560 18.988102
64.565 18.769178
64.570 18.826099
64.575 19.095049
64.580 19.203934
64.585 19.203232
64.590 18.861252
64.595 18.637352
64.600 18.387812
64.605 17.94018
64.610 17.947178
64.615 18.210503
64.620 18.20079
64.625 17.763584
64.630 17.557825
64.635 17.198286
64.640 16.8053
64.645 16.273813
64.650 15.767601
64.655 15.488473
64.660 16.016996
64.665 16.717239
64.670 17.245417
64.675 17.487246
64.680 17.878798
64.685 18.275648
64.690 17.804117
64.695 17.666737
64.700 17.326609
64.705 17.301252
64.710 17.77343
64.715 17.822823
64.720 17.967197
64.725 18.747221
64.730 18.702221
64.735 18.242086
64.740 18.17268
64.745 17.846474
64.750 18.079433
64.755 17.967613
64.760 18.014044
64.765 18.507385
64.770 19.39019
64.775 19.913801
64.780 20.244007
64.785 20.071482
64.790 20.484787
64.795 19.920088
64.800 19.00338
64.805 18.211245
64.810 17.624308
64.815 17.479605
64.820 17.785906
64.825 17.068613
64.830 17.592806
64.835 18.039774
64.840 18.447851
64.845 18.566334
64.850 18.905439
64.855 18.668978
64.860 18.826904
64.865 18.303295
64.870 18.255341
64.875 18.301764
64.880 18.609728
64.885 18.530792
64.890 19.080238
64.895 19.717253
64.900 20.482485
64.905 20.5247
64.910 20.375635
64.915 20.494478
64.920 20.214855
64.925 19.910305
64.930 19.348082
64.935 19.220913
64.940 19.524006
64.945 19.291088
64.950 19.205252
64.955 18.978632
64.960 18.825958
64.965 19.334356
64.970 19.385366
64.975 19.441212
64.980 19.959921
64.985 20.23036
64.990 21.258087
64.995 21.433037
65.000 21.076576
65.005 21.270487
65.010 21.222296
65.015 21.290562
65.020 21.568966
65.025 21.625383
65.030 21.578421
65.035 21.474928
65.040 20.959291
65.045 20.985931
65.050 20.920387
65.055 19.940805
65.060 19.737127
65.065 20.098894
65.070 20.387306
65.075 20.664907
65.080 20.360149
65.085 20.476507
65.090 21.349432
65.095 21.621986
65.100 21.742083
65.105 21.575928
65.110 21.932467
65.115 22.68012
65.120 22.131126
65.125 22.191286
65.130 22.014637
65.135 22.229053
65.140 22.369005
65.145 22.459709
65.150 22.281078
65.155 22.494053
65.160 21.957455
65.165 21.880022
65.170 21.60367
65.175 22.406748
65.180 22.279741
65.185 22.292755
65.190 22.304953
65.195 22.147726
65.200 22.633852
65.205 22.732491
65.210 21.648411
65.215 21.255165
65.220 21.45141
65.225 21.794575
65.230 22.665546
65.235 22.589817
65.240 22.674879
65.245 23.001062
65.250 23.217976
65.255 23.093857
65.260 23.20693
65.265 23.100697
65.270 22.696777
65.275 22.833841
65.280 23.13036
65.285 23.2798
65.290 22.948353
65.295 22.390593
65.300 22.004217
65.305 22.100689
65.310 21.468475
65.315 21.015427
65.320 21.581722
65.325 21.721478
65.330 21.485077
65.335 21.239246
65.340 21.216707
65.345 21.921997
65.350 22.277248
65.355 21.898567
65.360 21.876816
65.365 22.226534
65.370 22.345825
65.375 21.986139
65.380 22.071482
65.385 22.007559
65.390 21.317049
65.395 21.107939
65.400 21.671782
65.405 21.966938
65.410 22.216406
65.415 22.477955
65.420 22.505312
65.425 22.858768
65.430 22.909594
65.435 22.66913
65.440 23.165277
65.445 23.630129
65.450 23.375542
65.455 23.661324
65.460 24.30162
65.465 24.717651
65.470 24.71649
65.475 24.805553
65.480 25.069214
65.485 25.744034
65.490 25.311895
65.495 24.600559
65.500 24.755213
65.505 24.761503
65.510 24.326487
65.515 23.966799
65.520 23.451538
65.525 23.75898
65.530 23.785286
65.535 23.73926
65.540 23.978836
65.545 24.171795
65.550 24.212311
65.555 23.890516
65.560 23.905682
65.565 25.061762
65.570 26.20459
65.575 26.582935
65.580 26.98502
65.585 27.467133
65.590 28.527647
65.595 29.52014
65.600 29.267632
65.605 28.691767
65.610 28.699306
65.615 28.615643
65.620 28.453472
65.625 28.27874
65.630 28.074398
65.635 27.916439
65.640 28.429461
65.645 29.585953
65.650 29.979561
65.655 30.712519
65.660 31.041599
65.665 31.215675
65.670 31.244917
65.675 30.95834
65.680 30.640039
65.685 30.786283
65.690 30.359339
65.695 30.297211
65.700 30.618036
65.705 31.336199
65.710 31.572212
65.715 31.274294
65.720 31.153414
65.725 31.401863
65.730 31.313419
65.735 30.873789
65.740 31.036495
65.745 30.968973
65.750 31.880737
65.755 32.443539
65.760 33.197948
65.765 33.470276
65.770 33.370159
65.775 33.22102
65.780 33.088642
65.785 33.201786
65.790 33.073601
65.795 33.020508
65.800 33.289799
65.805 33.985325
65.810 34.53064
65.815 34.936771
65.820 35.458916
65.825 35.432751
65.830 35.741875
65.835 36.287411
65.840 36.326416
65.845 35.609097
65.850 35.12484
65.855 35.132576
65.860 35.303844
65.865 36.073544
65.870 35.809441
65.875 35.721508
65.880 36.467808
65.885 37.132744
65.890 37.465935
65.895 37.668903
65.900 36.93594
65.905 37.674892
65.910 38.005238
65.915 38.19825
65.920 37.857555
65.925 38.010185
65.930 37.886837
65.935 38.2122
65.940 38.075741
65.945 37.536983
65.950 37.154591
65.955 37.335518
65.960 37.654984
65.965 37.868237
65.970 38.139591
65.975 38.10516
65.980 38.517471
65.985 39.3018
65.990 38.464371
65.995 37.67244
66.000 37.748844
66.005 37.596066
66.010 37.598194
66.015 37.020981
66.020 37.056293
66.025 37.864777
66.030 38.151218
66.035 37.795574
66.040 37.504696
66.045 37.983868
66.050 38.493095
66.055 38.707539
66.060 38.795856
66.065 37.960361
66.070 38.23093
66.075 38.710011
66.080 38.123627
66.085 37.596722
66.090 37.259281
66.095 36.870186
66.100 36.921841
66.105 35.949848
66.110 35.681267
66.115 36.035999
66.120 35.61903
66.125 34.884495
66.130 34.848507
66.135 35.440861
66.140 35.311615
66.145 35.258823
66.150 35.486752
66.155 35.537811
66.160 36.18248
66.165 36.936035
66.170 36.468086
66.175 37.123104
66.180 36.96701
66.185 36.334763
66.190 36.586769
66.195 36.337799
66.200 35.819218
66.205 36.071888
66.210 35.658512
66.215 34.75
66.220 33.945156
66.225 33.240612
66.230 33.231358
66.235 32.940563
66.240 32.120373
66.245 31.435211
66.250 32.326763
66.255 32.450459
66.260 32.620533
66.265 32.455952
66.270 32.811123
66.275 33.117016
66.280 32.870712
66.285 32.549915
66.290 32.534451
66.295 32.425858
66.300 31.599735
66.305 31.755001
66.310 32.347118
66.315 33.299969
66.320 34.197124
66.325 34.776535
66.330 34.699207
66.335 34.615551
66.340 33.261745
66.345 31.824856
66.350 30.677927
66.355 29.900249
66.360 29.253723
66.365 28.911255
66.370 28.985031
66.375 28.697889
66.380 28.860567
66.385 28.994152
66.390 28.558928
66.395 28.558825
66.400 28.313162
66.405 27.837444
66.410 27.678219
66.415 27.424589
66.420 26.913374
66.425 27.59285
66.430 27.623083
66.435 27.563908
66.440 28.023893
66.445 28.748972
66.450 29.40139
66.455 29.155739
66.460 28.738203
66.465 28.714624
66.470 29.055056
66.475 28.783066
66.480 28.347054
66.485 28.35009
66.490 28.882658
66.495 28.829876
66.500 28.784437
66.505 28.815353
66.510 29.18565
66.515 28.924368
66.520 28.344049
66.525 27.334574
66.530 26.851788
66.535 26.971514
66.540 27.254566
66.545 26.650335
66.550 27.182724
66.555 27.080669
66.560 27.645342
66.565 27.81176
66.570 27.613977
66.575 26.96158
66.580 26.477911
66.585 26.113071
66.590 26.731939
66.595 26.709517
66.600 27.027527
66.605 27.045073
66.610 27.08889
66.615 26.975798
66.620 25.954485
66.625 25.360151
66.630 24.994421
66.635 23.627548
66.640 22.782646
66.645 22.333397
66.650 22.361877
66.655 23.007454
66.660 22.530548
66.665 22.448635
66.670 23.08012
66.675 23.175123
66.680 23.666985
66.685 23.61058
66.690 23.248348
66.695 23.499182
66.700 23.381922
66.705 23.886141
66.710 24.505379
66.715 24.39253
66.720 24.547558
66.725 24.747185
66.730 24.276596
66.735 23.957912
66.740 23.107723
66.745 22.479019
66.750 22.868816
66.755 22.678305
66.760 22.1343
66.765 22.377541
66.770 22.16209
66.775 22.520973
66.780 22.832081
66.785 22.039623
66.790 21.44017
66.795 21.603661
66.800 21.344858
66.805 20.985918
66.810 20.647562
66.815 20.145363
66.820 20.647589
66.825 20.930777
66.830 20.807013
66.835 20.975931
66.840 21.720648
66.845 21.935135
66.850 22.254658
66.855 21.698771
66.860 21.924711
66.865 22.569622
66.870 22.709763
66.875 22.623974
66.880 22.565445
66.885 22.736729
66.890 22.955782
66.895 23.113178
66.900 22.144905
66.905 22.175795
66.910 22.362906
66.915 22.219151
66.920 21.908068
66.925 21.930317
66.930 21.345104
66.935 21.529537
66.940 20.691126
66.945 20.050892
66.950 19.870342
66.955 20.239868
66.960 19.993961
66.965 20.400885
66.970 20.452492
66.975 20.884222
66.980 21.05784
66.985 21.084967
66.990 20.73595
66.995 21.016865
67.000 21.460629
67.005 22.107517
67.010 22.517881
67.015 22.400021
67.020 22.364218
67.025 22.437128
67.030 22.24588
67.035 21.705439
67.040 21.642509
67.045 21.400034
67.050 21.5448
67.055 22.135237
67.060 21.944944
67.065 21.370987
67.070 20.968399
67.075 20.901962
67.080 20.404507
67.085 20.593998
67.090 20.179279
67.095 20.20797
67.100 20.826828
67.105 20.512484
67.110 20.571178
67.115 21.390486
67.120 21.257061
67.125 20.818224
67.130 20.142265
67.135 20.069515
67.140 19.678247
67.145 19.313507
67.150 19.030083
67.155 19.312157
67.160 19.991875
67.165 20.603996
67.170 20.894751
67.175 22.08139
67.180 22.246361
67.185 22.01918
67.190 21.738997
67.195 21.777208
67.200 21.493212
67.205 21.153618
67.210 20.605215
67.215 20.335831
67.220 20.343794
67.225 20.456202
67.230 20.374271
67.235 20.182417
67.240 21.023863
67.245 21.478518
67.250 22.023861
67.255 22.633522
67.260 22.925922
67.265 23.564178
67.270 23.827452
67.275 22.915895
67.280 22.703176
67.285 22.109653
67.290 21.409462
67.295 20.365187
67.300 19.476217
67.305 19.262245
67.310 19.440472
67.315 18.942709
67.320 19.112799
67.325 19.085361
67.330 19.637684
67.335 20.09836
67.340 20.321356
67.345 20.088753
67.350 20.647255
67.355 20.718548
67.360 20.981216
67.365 21.456991
67.370 21.750109
67.375 21.879356
67.380 22.60216
67.385 22.563066
67.390 22.269323
67.395 22.260612
67.400 21.916422
67.405 20.987402
67.410 20.870304
67.415 21.179386
67.420 20.759937
67.425 21.075502
67.430 20.858036
67.435 20.793497
67.440 21.049911
67.445 20.832123
67.450 19.923384
67.455 20.339758
67.460 20.398397
67.465 20.052565
67.470 19.807907
67.475 20.054342
67.480 20.514559
67.485 21.175417
67.490 21.182335
67.495 21.350554
67.500 21.992002
67.505 22.264021
67.510 21.841204
67.515 22.214344
67.520 21.766872
67.525 21.233088
67.530 21.049273
67.535 20.736214
67.540 20.822601
67.545 20.795336
67.550 20.084755
67.555 20.242188
67.560 20.13192
67.565 19.909267
67.570 20.157423
67.575 19.91663
67.580 20.159042
67.585 20.162313
67.590 19.85358
67.595 20.12216
67.600 20.011211
67.605 19.608999
67.610 20.0495
67.615 19.989594
67.620 20.143995
67.625 20.840998
67.630 21.616787
67.635 21.520266
67.640 21.337481
67.645 20.983442
67.650 21.074429
67.655 21.073992
67.660 20.89365
67.665 20.601517
67.670 21.237782
67.675 21.46163
67.680 21.450962
67.685 21.545763
67.690 21.383762
67.695 21.144705
67.700 20.750711
67.705 20.044161
67.710 20.162111
67.715 20.296888
67.720 19.796425
67.725 20.353119
67.730 19.991648
67.735 20.015724
67.740 20.900478
67.745 20.762835
67.750 20.519857
67.755 20.389685
67.760 19.971609
67.765 20.167387
67.770 20.294924
67.775 20.02821
67.780 20.455334
67.785 20.362249
67.790 20.227947
67.795 19.937672
67.800 20.462582
67.805 20.313007
67.810 20.12925
67.815 20.058014
67.820 20.261219
67.825 20.553574
67.830 20.601797
67.835 20.257683
67.840 19.832951
67.845 19.995163
67.850 19.714964
67.855 19.712957
67.860 19.803652
67.865 19.968317
67.870 20.399061
67.875 20.205849
67.880 19.68952
67.885 20.027863
67.890 20.162275
67.895 20.258074
67.900 20.498055
67.905 20.643827
67.910 21.117271
67.915 21.484756
67.920 21.158068
67.925 20.82229
67.930 20.985476
67.935 20.984341
67.940 20.973459
67.945 20.911993
67.950 20.870184
67.955 20.925205
67.960 21.1374
67.965 20.418659
67.970 19.896059
67.975 19.911354
67.980 20.129511
67.985 20.620155
67.990 21.021372
67.995 21.218525
68.000 21.357702
68.005 21.2654
68.010 21.175812
68.015 20.774155
68.020 20.978365
68.025 20.260275
68.030 19.785391
68.035 20.392124
68.040 20.722797
68.045 20.180635
68.050 20.033218
68.055 19.536375
68.060 20.136608
68.065 20.551586
68.070 20.757753
68.075 20.729523
68.080 21.040438
68.085 21.072479
68.090 20.398333
68.095 19.744572
68.100 19.813658
68.105 19.212887
68.110 18.948915
68.115 18.75713
68.120 18.692522
68.125 19.521719
68.130 19.852146
68.135 19.791458
68.140 20.055351
68.145 20.051809
68.150 20.574799
68.155 20.735098
68.160 20.694435
68.165 20.542858
68.170 19.730207
68.175 19.882147
68.180 20.370306
68.185 20.503046
68.190 20.007803
68.195 19.964664
68.200 19.899555
68.205 20.63368
68.210 21.020559
68.215 21.510664
68.220 21.492155
68.225 22.011768
68.230 21.944014
68.235 21.621353
68.240 20.876419
68.245 19.870224
68.250 19.233633
68.255 19.278431
68.260 19.297901
68.265 19.722515
68.270 20.494791
68.275 21.403816
68.280 21.659464
68.285 21.634291
68.290 21.460638
68.295 21.220991
68.300 20.651949
68.305 20.428549
68.310 20.030849
68.315 20.055672
68.320 19.941002
68.325 19.96101
68.330 20.682993
68.335 21.23945
68.340 21.221254
68.345 21.354759
68.350 20.997612
68.355 20.804636
68.360 20.849392
68.365 20.261818
68.370 19.753538
68.375 19.493267
68.380 19.042366
68.385 19.325764
68.390 19.201982
68.395 19.668148
68.400 19.067959
68.405 19.017683
68.410 19.358078
68.415 19.841871
68.420 19.548195
68.425 19.656078
68.430 19.472595
68.435 19.570135
68.440 19.882084
68.445 19.473583
68.450 19.507751
68.455 20.257288
68.460 20.311935
68.465 20.061071
68.470 20.926622
68.475 20.814377
68.480 20.887327
68.485 20.981216
68.490 20.582062
68.495 20.224094
68.500 20.308651
68.505 19.776997
68.510 19.784472
68.515 19.63501
68.520 19.184273
68.525 19.130976
68.530 20.017422
68.535 20.306454
68.540 20.306387
68.545 20.4314
68.550 20.766409
68.555 21.278137
68.560 21.479525
68.565 20.995316
68.570 21.103743
68.575 21.680159
68.580 22.102297
68.585 22.415262
68.590 22.716015
68.595 22.42967
68.600 22.452652
68.605 22.324629
68.610 22.270021
68.615 22.022463
68.620 21.623796
68.625 20.807278
68.630 20.460964
68.635 20.094555
68.640 19.917368
68.645 19.810982
68.650 19.975706
68.655 19.755108
68.660 20.178282
68.665 20.452024
68.670 20.610476
68.675 20.149052
68.680 19.497005
68.685 19.831125
68.690 20.006548
68.695 19.762863
68.700 19.721718
68.705 19.368578
68.710 19.331854
68.715 19.267353
68.720 19.193295
68.725 19.394823
68.730 19.331154
68.735 19.556742
68.740 19.726606
68.745 20.614746
68.750 20.391314
68.755 20.221043
68.760 20.521143
68.765 20.920279
68.770 20.549856
68.775 20.213886
68.780 20.174519
68.785 20.062225
68.790 19.83392
68.795 19.280533
68.800 19.660574
68.805 20.323183
68.810 20.35144
68.815 20.350367
68.820 20.704088
68.825 20.886822
68.830 20.781645
68.835 20.099421
68.840 20.150349
68.845 20.723822
68.850 20.716516
68.855 20.708454
68.860 21.13188
68.865 21.867298
68.870 21.609858
68.875 21.114054
68.880 20.788803
68.885 20.569487
68.890 20.542171
68.895 20.899405
68.900 21.612602
68.905 22.052109
68.910 23.005962
68.915 23.186865
68.920 23.315973
68.925 23.511162
68.930 23.09532
68.935 23.347824
68.940 23.129219
68.945 23.007919
68.950 23.03931
68.955 22.715296
68.960 22.570572
68.965 22.485266
68.970 22.102369
68.975 22.806824
68.980 22.069809
68.985 22.214531
68.990 22.957163
68.995 22.817535
69.000 22.488121
69.005 22.34964
69.010 22.401937
69.015 22.739143
69.020 22.830498
69.025 22.837799
69.030 23.016302
69.035 23.264116
69.040 23.456219
69.045 23.324453
69.050 23.238083
69.055 22.618475
69.060 22.636606
69.065 23.304302
69.070 23.565348
69.075 23.387264
69.080 23.52598
69.085 24.354353
69.090 24.782404
69.095 24.451662
69.100 24.086176
69.105 24.131777
69.110 24.563732
69.115 25.472769
69.120 25.165182
69.125 25.158337
69.130 25.563938
69.135 25.659874
69.140 26.096678
69.145 25.713785
69.150 24.248236
69.155 23.906544
69.160 23.577354
69.165 23.413469
69.170 23.177256
69.175 22.840008
69.180 23.118746
69.185 23.718004
69.190 23.389576
69.195 23.397493
69.200 23.095879
69.205 23.193573
69.210 23.347149
69.215 23.408379
69.220 24.109592
69.225 24.858568
69.230 25.43652
69.235 25.886093
69.240 25.95064
69.245 26.322868
69.250 26.124655
69.255 25.985825
69.260 26.283659
69.265 26.57686
69.270 26.586489
69.275 25.978367
69.280 26.272612
69.285 26.493643
69.290 26.797565
69.295 26.597445
69.300 25.898111
69.305 25.732506
69.310 26.170088
69.315 25.751833
69.320 25.856617
69.325 25.754725
69.330 26.340963
69.335 26.542641
69.340 27.347322
69.345 28.681383
69.350 29.515892
69.355 28.963076
69.360 28.320192
69.365 29.279537
69.370 29.048317
69.375 28.783764
69.380 28.406633
69.385 28.219881
69.390 29.041412
69.395 28.840054
69.400 27.666346
69.405 28.184183
69.410 28.198065
69.415 28.118525
69.420 27.700369
69.425 28.038273
69.430 28.647587
69.435 29.24275
69.440 29.256664
69.445 29.544758
69.450 29.767124
69.455 30.247551
69.460 29.990953
69.465 29.55472
69.470 29.328266
69.475 29.250286
69.480 29.277697
69.485 29.299908
69.490 29.313013
69.495 29.203228
69.500 29.774233
69.505 30.095514
69.510 30.089628
69.515 29.479565
69.520 29.046522
69.525 29.110695
69.530 29.151447
69.535 28.710361
69.540 28.750553
69.545 28.814436
69.550 29.038477
69.555 29.413534
69.560 29.019184
69.565 29.514153
69.570 29.351397
69.575 28.900999
69.580 28.44208
69.585 27.97229
69.590 27.473909
69.595 27.327627
69.600 27.633198
69.605 27.903555
69.610 28.245068
69.615 28.313406
69.620 28.33548
69.625 29.398539
69.630 30.07111
69.635 29.813488
69.640 29.685917
69.645 28.96567
69.650 29.173882
69.655 28.445427
69.660 27.372734
69.665 26.23031
69.670 25.536926
69.675 26.067957
69.680 25.444941
69.685 25.103979
69.690 25.588629
69.695 25.181679
69.700 25.805866
69.705 25.495428
69.710 25.367016
69.715 25.780111
69.720 25.692583
69.725 25.609774
69.730 26.646839
69.735 26.867506
69.740 26.781141
69.745 26.906504
69.750 26.845823
69.755 27.438797
69.760 27.535242
69.765 26.769361
69.770 26.907686
69.775 27.313168
69.780 26.998259
69.785 27.633011
69.790 27.376518
69.795 27.063187
69.800 26.667812
69.805 25.86944
69.810 25.998709
69.815 26.945633
69.820 25.789703
69.825 25.667351
69.830 25.601589
69.835 25.847984
69.840 25.156464
69.845 24.273926
69.850 23.415855
69.855 23.169098
69.860 22.541838
69.865 22.180569
69.870 22.960329
69.875 23.481831
69.880 22.983908
69.885 23.397478
69.890 24.347536
69.895 25.085234
69.900 25.231209
69.905 24.380993
69.910 25.018908
69.915 25.118788
69.920 24.881102
69.925 24.696337
69.930 24.426153
69.935 24.454163
69.940 24.229319
69.945 23.190313
69.950 23.623453
69.955 23.56752
69.960 23.482494
69.965 23.351221
69.970 22.688917
69.975 22.505777
69.980 22.6026
69.985 22.512899
69.990 22.455063
69.995 22.0445
70.000 21.905619
70.005 22.129284
70.010 21.989016
70.015 21.83477
70.020 21.399502
70.025 21.12858
70.030 21.823999
70.035 22.123573
70.040 21.818954
70.045 22.260353
70.050 22.612045
70.055 22.644791
70.060 22.257706
70.065 21.260859
70.070 21.00794
70.075 21.310017
70.080 21.463415
70.085 21.126509
70.090 20.932741
70.095 20.916132
70.100 20.831173
70.105 20.692913
70.110 20.562235
70.115 20.246296
70.120 20.130781
70.125 20.225229
70.130 20.67671
70.135 21.452168
70.140 21.907892
70.145 22.184658
70.150 23.289621
70.155 23.382273
70.160 23.0177
70.165 22.451252
70.170 21.626055
70.175 21.583347
70.180 21.034765
70.185 20.953993
70.190 21.28046
70.195 21.626801
70.200 21.624552
70.205 21.533447
70.210 21.026079
70.215 20.538916
70.220 20.035374
70.225 19.428335
70.230 20.343348
70.235 20.526087
70.240 20.624846
70.245 20.638571
70.250 20.60585
70.255 20.587746
70.260 20.701515
70.265 19.718927
70.270 19.324005
70.275 18.947956
70.280 19.177193
70.285 19.285902
70.290 18.87262
70.295 18.710903
70.300 18.473345
70.305 18.794434
70.310 18.929752
70.315 18.448076
70.320 18.343271
70.325 17.994192
70.330 18.04932
70.335 17.748449
70.340 17.538059
70.345 17.186153
70.350 17.743452
70.355 17.958635
70.360 17.979006
70.365 17.860443
70.370 17.921886
70.375 17.731504
70.380 18.528513
70.385 18.5653
70.390 18.26029
70.395 18.46946
70.400 18.577486
70.405 18.589798
70.410 19.162518
70.415 18.66254
70.420 18.688692
70.425 18.959723
70.430 19.536436
70.435 19.85915
70.440 19.907593
70.445 20.047077
70.450 19.773808
70.455 20.09161
70.460 20.357121
70.465 19.841753
70.470 19.843031
70.475 19.686718
70.480 19.504507
70.485 19.453159
70.490 18.460686
70.495 18.371105
70.500 18.605572
70.505 18.906893
70.510 18.461926
70.515 18.104795
70.520 18.711882
70.525 19.017853
70.530 18.60535
70.535 18.632095
70.540 18.705318
70.545 18.857805
70.550 18.416237
70.555 18.069641
70.560 17.881899
70.565 17.830513
70.570 17.687649
70.575 18.006454
70.580 18.523823
70.585 18.391047
70.590 18.694662
70.595 18.865938
70.600 18.842987
70.605 18.682993
70.610 18.71608
70.615 18.653439
70.620 18.375505
70.625 18.494804
70.630 18.067324
70.635 18.659613
70.640 18.511404
70.645 18.051996
70.650 18.325346
70.655 18.788771
70.660 18.42802
70.665 18.444963
70.670 18.484478
70.675 18.626282
70.680 18.890757
70.685 18.892025
70.690 19.263498
70.695 19.784916
70.700 19.458788
70.705 19.193335
70.710 18.963106
70.715 18.131697
70.720 18.138046
70.725 18.256819
70.730 17.799747
70.735 17.998953
70.740 18.06345
70.745 18.621323
70.750 18.907005
70.755 18.580193
70.760 18.436058
70.765 18.796112
70.770 19.067472
70.775 18.652584
70.780 18.649216
70.785 18.468403
70.790 18.411682
70.795 18.187128
70.800 18.041435
70.805 17.976305
70.810 18.220324
70.815 18.89575
70.820 18.999699
70.825 19.385332
70.830 19.47603
70.835 19.298513
70.840 19.37377
70.845 18.889912
70.850 18.167164
70.855 18.502377
70.860 18.094452
70.865 18.35157
70.870 18.372673
70.875 18.201263
70.880 18.365866
70.885 18.267662
70.890 18.915285
70.895 18.848059
70.900 19.001129
70.905 19.409441
70.910 19.394236
70.915 19.709829
70.920 19.531935
70.925 18.925611
70.930 18.735933
70.935 18.43442
70.940 18.608492
70.945 18.003956
70.950 17.681171
70.955 17.652235
70.960 17.645737
70.965 17.315168
70.970 17.159508
70.975 17.62302
70.980 17.848043
70.985 17.915529
70.990 17.427523
70.995 17.801147
71.000 18.295988
71.005 18.249281
71.010 18.700998
71.015 19.510683
71.020 19.766586
71.025 20.400995
71.030 20.423176
71.035 20.212776
71.040 19.819328
71.045 19.381912
71.050 19.341864
71.055 19.104513
71.060 18.837034
71.065 18.72176
71.070 18.230232
71.075 17.603462
71.080 17.080299
71.085 17.109892
71.090 17.221622
71.095 17.531906
71.100 17.725882
71.105 17.957697
71.110 18.340853
71.115 18.583969
71.120 18.70784
71.125 18.691284
71.130 18.229826
71.135 18.385668
71.140 18.874983
71.145 19.142637
71.150 19.026741
71.155 19.035587
71.160 19.413237
71.165 19.563839
71.170 19.738598
71.175 19.57029
71.180 19.434483
71.185 19.499956
71.190 19.139372
71.195 18.958481
71.200 19.193165
71.205 19.059286
71.210 19.555542
71.215 19.380886
71.220 18.583164
71.225 18.165464
71.230 18.544201
71.235 18.179155
71.240 17.525558
71.245 17.54541
71.250 17.940323
71.255 18.754778
71.260 18.726551
71.265 18.315479
71.270 19.0226
71.275 19.117773
71.280 18.753418
71.285 18.791948
71.290 19.079685
71.295 19.006346
71.300 18.702284
71.305 18.432468
71.310 19.156
71.315 19.021566
71.320 19.086254
71.325 18.622019
71.330 19.39756
71.335 19.247
71.340 19.083767
71.345 18.650152
71.350 18.18989
71.355 17.7384
71.360 17.949236
71.365 17.331535
71.370 17.274103
71.375 17.170387
71.380 16.793898
71.385 16.612396
71.390 16.888903
71.395 16.12052
71.400 16.307186
71.405 16.647804
71.410 16.923395
71.415 18.227428
71.420 18.472153
71.425 18.657518
71.430 19.220732
71.435 18.413988
71.440 17.532806
71.445 17.579092
71.450 17.143476
71.455 17.049028
71.460 16.547482
71.465 16.229391
71.470 17.4111
71.475 17.807579
71.480 17.770342
71.485 17.466717
71.490 17.529947
71.495 17.705143
71.500 18.03957
71.505 18.106874
71.510 17.727329
71.515 17.600401
71.520 18.012938
71.525 18.04215
71.530 18.286293
71.535 18.488577
71.540 18.714369
71.545 19.22644
71.550 19.303038
71.555 19.17264
71.560 19.170647
71.565 18.565119
71.570 17.699799
71.575 17.820599
71.580 17.650192
71.585 17.632053
71.590 17.897497
71.595 17.740936
71.600 18.51314
71.605 18.66703
71.610 18.142748
71.615 17.81085
71.620 17.445663
71.625 17.088556
71.630 16.95491
71.635 16.610632
71.640 16.565271
71.645 16.758615
71.650 17.307283
71.655 17.37747
71.660 17.71567
71.665 18.121305
71.670 18.395447
71.675 18.361992
71.680 18.893139
71.685 18.887352
71.690 19.094233
71.695 19.346773
71.700 19.434057
71.705 19.521673
71.710 19.031536
71.715 18.60326
71.720 18.415113
71.725 18.222599
71.730 17.727846
71.735 17.085787
71.740 17.652264
71.745 18.128437
71.750 17.759256
71.755 18.293575
71.760 18.386976
71.765 19.346712
71.770 20.01969
71.775 19.951979
71.780 19.465719
71.785 19.522867
71.790 19.182007
71.795 19.067289
71.800 18.423052
71.805 17.825405
71.810 17.825459
71.815 18.209261
71.820 18.008993
71.825 17.699581
71.830 17.732183
71.835 18.053732
71.840 18.44261
71.845 18.740608
71.850 19.068996
71.855 19.09519
71.860 18.760572
71.865 18.414389
71.870 17.939695
71.875 17.870035
71.880 17.156809
71.885 16.525471
71.890 17.041346
71.895 17.762148
71.900 18.358339
71.905 17.924923
71.910 17.820009
71.915 18.120382
71.920 18.585108
71.925 18.71578
71.930 18.492031
71.935 18.478748
71.940 18.734951
71.945 18.917929
71.950 18.944801
71.955 19.096699
71.960 18.78196
71.965 18.738102
71.970 18.84153
71.975 18.632839
71.980 18.699184
71.985 18.986795
71.990 19.033678
71.995 19.115561
72.000 19.101076
72.005 19.25581
72.010 18.795197
72.015 18.175703
72.020 17.960274
72.025 17.274044
72.030 17.692234
72.035 17.944937
72.040 17.98019
72.045 18.613726
72.050 18.833309
72.055 19.259308
72.060 19.283617
72.065 19.208532
72.070 19.381655
72.075 19.215433
72.080 19.196772
72.085 19.067423
72.090 18.898062
72.095 18.821947
72.100 18.365723
72.105 18.571955
72.110 18.280891
72.115 18.812422
72.120 18.71666
72.125 19.46973
72.130 19.290352
72.135 19.248384
72.140 19.055525
72.145 18.494293
72.150 17.924772
72.155 17.454752
72.160 16.469357
72.165 16.339666
72.170 16.018347
72.175 16.644629
72.180 17.154713
72.185 17.174217
72.190 17.909321
72.195 18.239124
72.200 18.559931
72.205 18.323622
72.210 18.038313
72.215 17.965607
72.220 18.365908
72.225 17.745552
72.230 18.073278
72.235 18.067827
72.240 18.190702
72.245 18.182049
72.250 18.012999
72.255 18.152113
72.260 18.42173
72.265 18.25177
72.270 17.992197
72.275 17.699766
72.280 18.019154
72.285 17.965418
72.290 17.63591
72.295 17.656181
72.300 17.310823
72.305 17.617683
72.310 17.73794
72.315 17.879103
72.320 18.407688
72.325 18.917633
72.330 19.636389
72.335 20.451002
72.340 20.320673
72.345 19.909536
72.350 19.65398
72.355 19.032978
72.360 18.368193
72.365 17.599432
72.370 17.396334
72.375 17.808891
72.380 18.260801
72.385 18.247213
72.390 17.508705
72.395 17.127048
72.400 17.194942
72.405 16.838928
72.410 16.982674
72.415 17.09832
72.420 18.13772
72.425 18.874996
72.430 18.881388
72.435 18.801605
72.440 18.777145
72.445 18.802406
72.450 18.647453
72.455 18.311596
72.460 18.318981
72.465 19.120256
72.470 19.713039
72.475 19.543673
72.480 19.204342
72.485 19.03507
72.490 18.922201
72.495 18.804193
72.500 18.167301
72.505 17.878742
72.510 18.016777
72.515 18.178936
72.520 18.924992
72.525 18.817858
72.530 19.097174
72.535 18.856318
72.540 18.711554
72.545 17.788254
72.550 17.369719
72.555 17.444317
72.560 17.637344
72.565 17.440994
72.570 17.857748
72.575 18.69549
72.580 19.061054
72.585 19.137938
72.590 18.740242
72.595 18.74103
72.600 18.697567
72.605 18.583208
72.610 17.805784
72.615 18.061441
72.620 17.867363
72.625 17.343868
72.630 16.934769
72.635 16.862309
72.640 17.382408
72.645 17.499039
72.650 17.354151
72.655 17.325903
72.660 17.693712
72.665 18.190382
72.670 18.138199
72.675 17.548046
72.680 16.946072
72.685 17.210014
72.690 17.927835
72.695 17.873755
72.700 17.625408
72.705 17.339695
72.710 17.847488
72.715 17.611504
72.720 16.889069
72.725 16.463036
72.730 16.738386
72.735 16.326456
72.740 16.671864
72.745 16.64542
72.750 16.714949
72.755 16.694616
72.760 16.620955
72.765 16.753017
72.770 17.348488
72.775 17.844748
72.780 18.064554
72.785 18.500776
72.790 18.523079
72.795 18.592262
72.800 18.113955
72.805 17.570375
72.810 17.043278
72.815 16.88588
72.820 17.231758
72.825 16.999474
72.830 17.080688
72.835 17.079706
72.840 17.042004
72.845 17.420286
72.850 17.620525
72.855 17.539812
72.860 16.748148
72.865 16.840218
72.870 17.269053
72.875 16.893978
72.880 16.469227
72.885 15.611482
72.890 15.903353
72.895 16.857235
72.900 16.507128
72.905 16.474443
72.910 16.830353
72.915 17.234419
72.920 17.800524
72.925 18.149656
72.930 17.793983
72.935 17.810266
72.940 17.922493
72.945 17.9494
72.950 17.883982
72.955 17.498144
72.960 17.067125
72.965 17.29401
72.970 17.20261
72.975 17.143711
72.980 17.424936
72.985 17.021713
72.990 17.108704
72.995 17.717766
73.000 18.468971
