!@!!GADDS PLOTSO FILE: Chi integration type
!@!!Title/SampleName: map-32
!@!!Comment: ?
!@!!User: Bruker Instrument Administrator
!@!!Site: University of Illinois Chicago
!@!!Frame: map-32_01_000.gfrm
!@!!Wavelengths    1.54184   1.54056   1.54439
!@!!Frame angles: 2Theta: 63.000 Omega: 50.000 Phi: 0.000 Chi: 90.000
!@!!Integration range: 2Theta: 53.000 to 73.000  Gamma: -105.000 to -75.000
!@!!Integration method: bin normalized
!@!N
!@!SS
!@!M
!@!L 0.0 0.0 0.0 0.0
!@!XDegrees
!@!YCounts
53.000 9.116201
53.005 8.801966
53.010 9.103482
53.015 9.21412
53.020 9.521747
53.025 9.605778
53.030 9.914927
53.035 9.821458
53.040 9.609144
53.045 9.513648
53.050 9.083407
53.055 8.734741
53.060 8.487841
53.065 8.565702
53.070 9.081777
53.075 9.759387
53.080 10.218644
53.085 10.910365
53.090 11.156393
53.095 11.276253
53.100 11.531099
53.105 11.805745
53.110 11.577385
53.115 11.504328
53.120 11.497686
53.125 11.560546
53.130 11.19211
53.135 10.862882
53.140 10.984275
53.145 11.181199
53.150 11.144968
53.155 11.479652
53.160 12.157406
53.165 12.351407
53.170 11.893284
53.175 11.547036
53.180 11.81006
53.185 11.917078
53.190 11.487264
53.195 11.027911
53.200 11.448805
53.205 11.834551
53.210 11.766405
53.215 11.813355
53.220 12.102595
53.225 12.244184
53.230 12.22532
53.235 11.797137
53.240 11.657772
53.245 11.588176
53.250 11.46974
53.255 10.945387
53.260 11.00972
53.265 10.907428
53.270 10.929503
53.275 10.89992
53.280 10.624637
53.285 11.061879
53.290 11.212063
53.295 11.438526
53.300 11.312249
53.305 10.525579
53.310 10.42382
53.315 10.439621
53.320 10.203806
53.325 10.267688
53.330 9.988544
53.335 10.306452
53.340 11.043193
53.345 11.509201
53.350 11.575392
53.355 11.429708
53.360 11.176172
53.365 10.9838
53.370 10.869961
53.375 10.780117
53.380 10.63759
53.385 10.482914
53.390 10.473561
53.395 10.908468
53.400 11.236798
53.405 11.441519
53.410 11.274096
53.415 11.061276
53.420 11.272235
53.425 11.443555
53.430 11.098077
53.435 11.171821
53.440 11.003292
53.445 10.795674
53.450 10.990026
53.455 10.773413
53.460 10.30734
53.465 10.161007
53.470 10.145658
53.475 10.180387
53.480 10.429743
53.485 10.356158
53.490 10.41551
53.495 10.417737
53.500 10.244334
53.505 9.969029
53.510 9.812051
53.515 9.520942
53.520 9.527419
53.525 10.075588
53.530 11.216762
53.535 11.84357
53.540 12.192381
53.545 11.90632
53.550 12.47109
53.555 12.034218
53.560 11.427174
53.565 11.152774
53.570 11.148505
53.575 11.193348
53.580 11.108265
53.585 11.012115
53.590 11.289205
53.595 10.961194
53.600 10.221768
53.605 10.246671
53.610 10.582294
53.615 11.329675
53.620 11.718569
53.625 11.947535
53.630 12.681646
53.635 12.916291
53.640 12.217369
53.645 11.557154
53.650 10.904138
53.655 10.653851
53.660 10.506521
53.665 10.338546
53.670 10.636788
53.675 11.098397
53.680 11.220641
53.685 11.673596
53.690 11.516529
53.695 11.316701
53.700 11.062255
53.705 11.091087
53.710 11.032423
53.715 11.311473
53.720 10.808803
53.725 10.981978
53.730 10.950872
53.735 11.054626
53.740 11.024763
53.745 11.407028
53.750 11.807736
53.755 11.6472
53.760 11.335045
53.765 11.345517
53.770 11.206891
53.775 11.055243
53.780 10.245116
53.785 9.917193
53.790 10.385029
53.795 10.727746
53.800 11.127217
53.805 11.705574
53.810 12.260337
53.815 12.373491
53.820 12.364352
53.825 12.41409
53.830 12.402449
53.835 12.26299
53.840 11.753686
53.845 11.136506
53.850 10.843102
53.855 11.0724
53.860 11.315022
53.865 11.116297
53.870 10.811757
53.875 10.431554
53.880 10.490365
53.885 10.596895
53.890 10.289791
53.895 10.230968
53.900 10.233974
53.905 10.383149
53.910 11.26371
53.915 11.560502
53.920 11.962781
53.925 11.766003
53.930 11.828447
53.935 11.906826
53.940 11.900873
53.945 11.844324
53.950 12.0468
53.955 11.991626
53.960 11.621148
53.965 11.159126
53.970 11.018773
53.975 10.812805
53.980 10.523921
53.985 10.162864
53.990 9.680523
53.995 9.816536
54.000 9.858693
54.005 10.138594
54.010 10.402493
54.015 10.362913
54.020 10.840048
54.025 11.384068
54.030 11.582477
54.035 11.876515
54.040 11.982935
54.045 11.893452
54.050 11.780176
54.055 11.192162
54.060 10.891408
54.065 10.5748
54.070 10.370424
54.075 9.969934
54.080 10.301438
54.085 10.424764
54.090 10.940237
54.095 11.688697
54.100 12.090239
54.105 12.102953
54.110 12.474788
54.115 12.161336
54.120 11.81752
54.125 11.660382
54.130 11.377189
54.135 11.894682
54.140 12.171007
54.145 12.022236
54.150 12.108657
54.155 12.341934
54.160 12.1766
54.165 12.166317
54.170 11.736824
54.175 11.318941
54.180 11.52942
54.185 11.671087
54.190 11.917474
54.195 11.722015
54.200 11.375076
54.205 11.031755
54.210 11.263378
54.215 11.591748
54.220 11.716183
54.225 11.915111
54.230 12.553928
54.235 12.997235
54.240 13.477149
54.245 13.476813
54.250 13.136363
54.255 13.073746
54.260 12.952886
54.265 12.670861
54.270 12.645623
54.275 12.45919
54.280 11.745737
54.285 11.31422
54.290 10.916606
54.295 10.801847
54.300 10.695826
54.305 10.980916
54.310 11.10349
54.315 11.767486
54.320 12.234315
54.325 12.402136
54.330 12.52984
54.335 12.309804
54.340 12.25011
54.345 12.468454
54.350 12.346146
54.355 12.156403
54.360 12.167189
54.365 12.245894
54.370 12.807037
54.375 12.639117
54.380 12.245088
54.385 12.208193
54.390 12.207178
54.395 12.132928
54.400 12.208404
54.405 11.778201
54.410 11.705232
54.415 11.878801
54.420 11.857283
54.425 11.405063
54.430 11.296803
54.435 11.215021
54.440 11.200963
54.445 11.613467
54.450 11.557823
54.455 11.96054
54.460 12.422981
54.465 12.352614
54.470 12.456276
54.475 12.594656
54.480 12.493085
54.485 12.683807
54.490 12.803817
54.495 12.742212
54.500 12.750878
54.505 12.446972
54.510 12.122854
54.515 12.259846
54.520 12.407323
54.525 12.616708
54.530 12.581784
54.535 12.391617
54.540 11.973786
54.545 11.845458
54.550 11.618991
54.555 11.639262
54.560 11.427578
54.565 11.428371
54.570 11.632035
54.575 12.355074
54.580 12.209432
54.585 11.887525
54.590 11.429263
54.595 11.041143
54.600 10.753586
54.605 10.190611
54.610 9.9894
54.615 10.372072
54.620 10.5054
54.625 11.187379
54.630 11.770773
54.635 11.908515
54.640 11.927598
54.645 11.417053
54.650 11.42183
54.655 11.200186
54.660 10.703725
54.665 11.009803
54.670 11.602961
54.675 12.594881
54.680 12.988329
54.685 13.296952
54.690 13.244933
54.695 12.983697
54.700 12.7552
54.705 12.349798
54.710 11.781379
54.715 11.532745
54.720 11.212253
54.725 11.442632
54.730 11.30026
54.735 11.130385
54.740 11.452974
54.745 11.587713
54.750 11.565553
54.755 12.04814
54.760 12.692103
54.765 13.017583
54.770 13.093448
54.775 12.915306
54.780 12.967868
54.785 12.632876
54.790 11.749212
54.795 10.995586
54.800 10.917448
54.805 10.675119
54.810 10.44547
54.815 10.554073
54.820 11.107081
54.825 11.549658
54.830 11.735884
54.835 11.382093
54.840 11.308475
54.845 11.291183
54.850 11.557487
54.855 11.614299
54.860 11.690317
54.865 11.989286
54.870 12.760082
54.875 13.264413
54.880 13.403422
54.885 12.997638
54.890 12.700459
54.895 12.640375
54.900 12.60345
54.905 12.317784
54.910 12.204922
54.915 11.916473
54.920 11.746438
54.925 11.971929
54.930 12.139024
54.935 12.098468
54.940 11.755852
54.945 11.711979
54.950 11.899802
54.955 11.691894
54.960 11.123608
54.965 10.830304
54.970 10.964874
54.975 11.18155
54.980 11.567616
54.985 11.728233
54.990 11.829314
54.995 11.887151
55.000 12.08908
55.005 11.632712
55.010 11.272177
55.015 11.003456
55.020 11.538319
55.025 12.499463
55.030 12.792572
55.035 13.027766
55.040 13.27236
55.045 13.490433
55.050 13.462743
55.055 13.329063
55.060 13.077958
55.065 12.960108
55.070 13.117384
55.075 13.303883
55.080 13.434805
55.085 13.038028
55.090 12.648513
55.095 12.354294
55.100 12.404245
55.105 12.48397
55.110 12.883596
55.115 13.037511
55.120 13.139761
55.125 13.662906
55.130 13.81667
55.135 14.043633
55.140 13.784701
55.145 12.894975
55.150 12.956955
55.155 12.699551
55.160 12.396152
55.165 12.527863
55.170 12.122425
55.175 12.331643
55.180 12.572622
55.185 12.251886
55.190 12.705611
55.195 12.734344
55.200 12.486179
55.205 12.17639
55.210 11.953111
55.215 11.569881
55.220 11.37525
55.225 10.704222
55.230 10.226914
55.235 10.161921
55.240 10.284948
55.245 10.970596
55.250 11.624142
55.255 11.788223
55.260 12.380094
55.265 13.009809
55.270 13.269002
55.275 13.227981
55.280 12.606105
55.285 12.759122
55.290 13.17533
55.295 13.118685
55.300 12.444672
55.305 12.391476
55.310 12.370767
55.315 12.412615
55.320 12.099432
55.325 11.859955
55.330 11.478197
55.335 11.858455
55.340 12.044074
55.345 12.190739
55.350 12.478419
55.355 12.608997
55.360 12.985352
55.365 13.379297
55.370 13.191757
55.375 13.147588
55.380 12.926173
55.385 13.094716
55.390 13.113328
55.395 12.966921
55.400 12.631627
55.405 12.648251
55.410 12.570371
55.415 12.515457
55.420 12.584973
55.425 12.67776
55.430 12.421827
55.435 12.958435
55.440 13.192893
55.445 13.494401
55.450 14.364459
55.455 14.372749
55.460 14.602224
55.465 14.857563
55.470 14.440333
55.475 14.04435
55.480 13.730408
55.485 12.8996
55.490 12.529126
55.495 12.406428
55.500 12.53478
55.505 12.88225
55.510 13.437133
55.515 13.531026
55.520 13.900166
55.525 14.059837
55.530 13.654191
55.535 13.784501
55.540 13.861493
55.545 13.465014
55.550 13.388693
55.555 13.000112
55.560 12.964386
55.565 13.204119
55.570 13.451255
55.575 13.659223
55.580 14.311548
55.585 14.80959
55.590 14.936201
55.595 15.226092
55.600 15.328019
55.605 14.453729
55.610 13.878724
55.615 13.335585
55.620 12.604499
55.625 12.664383
55.630 12.489266
55.635 12.572163
55.640 12.917407
55.645 13.020045
55.650 13.054446
55.655 13.024939
55.660 12.978261
55.665 12.045809
55.670 11.6484
55.675 11.57373
55.680 11.819206
55.685 12.3673
55.690 12.629831
55.695 12.789233
55.700 13.464991
55.705 13.551819
55.710 13.882806
55.715 13.583427
55.720 13.522121
55.725 13.403823
55.730 13.497617
55.735 13.213124
55.740 12.794701
55.745 12.069379
55.750 12.064332
55.755 11.979712
55.760 12.200742
55.765 12.212521
55.770 12.306002
55.775 12.393329
55.780 12.613479
55.785 12.122501
55.790 11.704679
55.795 11.323651
55.800 11.531348
55.805 11.978796
55.810 12.151307
55.815 12.396069
55.820 13.089683
55.825 13.820755
55.830 14.109962
55.835 14.434577
55.840 15.108135
55.845 15.413797
55.850 15.182678
55.855 15.037298
55.860 14.970599
55.865 15.267289
55.870 14.399797
55.875 13.94872
55.880 13.804332
55.885 13.855211
55.890 13.907103
55.895 13.594471
55.900 13.547707
55.905 13.812485
55.910 13.978261
55.915 14.054376
55.920 13.550064
55.925 12.992746
55.930 12.730117
55.935 12.614271
55.940 12.720241
55.945 12.774059
55.950 12.971374
55.955 13.081347
55.960 13.372249
55.965 13.242778
55.970 13.380238
55.975 13.569461
55.980 13.596081
55.985 13.541611
55.990 14.000699
55.995 14.214272
56.000 14.56822
56.005 14.458764
56.010 14.023812
56.015 13.537566
56.020 13.451006
56.025 13.292349
56.030 13.004235
56.035 13.006648
56.040 12.650661
56.045 12.871068
56.050 12.865396
56.055 12.831395
56.060 12.685342
56.065 13.183495
56.070 12.941089
56.075 12.925082
56.080 13.122353
56.085 13.490675
56.090 13.456305
56.095 13.384592
56.100 12.818666
56.105 12.391383
56.110 12.25692
56.115 12.199294
56.120 12.229272
56.125 12.82972
56.130 13.269493
56.135 13.202477
56.140 13.439446
56.145 13.812337
56.150 13.614461
56.155 13.356538
56.160 12.713146
56.165 12.930103
56.170 13.660847
56.175 13.775938
56.180 13.419694
56.185 13.35767
56.190 13.582968
56.195 13.647581
56.200 13.789101
56.205 13.660938
56.210 13.715168
56.215 14.515121
56.220 14.285905
56.225 14.431258
56.230 14.986095
56.235 14.607689
56.240 15.005569
56.245 15.17269
56.250 15.209105
56.255 15.68806
56.260 15.224624
56.265 14.648285
56.270 14.963799
56.275 15.042068
56.280 14.891227
56.285 14.520061
56.290 14.647041
56.295 14.717552
56.300 14.866737
56.305 14.449955
56.310 13.85033
56.315 14.489381
56.320 14.662929
56.325 14.285746
56.330 14.400009
56.335 14.088286
56.340 14.476049
56.345 14.387052
56.350 13.867888
56.355 13.594012
56.360 13.808377
56.365 13.812067
56.370 13.83776
56.375 13.873406
56.380 14.175434
56.385 14.18177
56.390 14.068011
56.395 14.196914
56.400 13.67721
56.405 13.454874
56.410 12.978506
56.415 12.591554
56.420 12.398907
56.425 12.835963
56.430 13.570479
56.435 14.351288
56.440 14.041132
56.445 14.205488
56.450 14.471744
56.455 14.513476
56.460 14.441458
56.465 13.555688
56.470 13.708991
56.475 13.997184
56.480 13.889542
56.485 13.794275
56.490 13.95623
56.495 13.680186
56.500 13.815865
56.505 13.890891
56.510 14.161582
56.515 14.003908
56.520 14.281407
56.525 14.12857
56.530 14.257932
56.535 14.124738
56.540 13.691777
56.545 13.679396
56.550 13.976734
56.555 13.830931
56.560 13.672098
56.565 14.083123
56.570 14.257279
56.575 14.678785
56.580 14.57315
56.585 13.705953
56.590 13.749337
56.595 14.143798
56.600 13.908668
56.605 13.758965
56.610 13.508314
56.615 13.540334
56.620 14.49918
56.625 13.977167
56.630 13.698233
56.635 13.891188
56.640 13.815079
56.645 13.817179
56.650 14.503568
56.655 14.448464
56.660 15.01736
56.665 15.570244
56.670 15.543162
56.675 15.50713
56.680 15.193805
56.685 14.82332
56.690 15.163756
56.695 14.847349
56.700 14.746128
56.705 14.429762
56.710 14.674434
56.715 14.711246
56.720 14.910838
56.725 15.028558
56.730 14.693425
56.735 14.58713
56.740 14.575489
56.745 14.818584
56.750 15.237535
56.755 14.41755
56.760 13.995332
56.765 14.779375
56.770 15.148691
56.775 15.600597
56.780 15.367182
56.785 15.136716
56.790 15.852199
56.795 16.702818
56.800 16.387032
56.805 15.93085
56.810 15.542409
56.815 15.511382
56.820 15.757716
56.825 15.665536
56.830 14.795631
56.835 14.711758
56.840 14.59842
56.845 14.528163
56.850 14.710032
56.855 14.420792
56.860 14.485602
56.865 14.724065
56.870 15.287539
56.875 15.663167
56.880 15.846319
56.885 16.055725
56.890 16.335051
56.895 16.447733
56.900 16.719496
56.905 16.211126
56.910 15.877206
56.915 16.071827
56.920 15.791416
56.925 15.136361
56.930 14.858079
56.935 14.657841
56.940 14.747946
56.945 14.728831
56.950 14.439383
56.955 13.906753
56.960 13.972406
56.965 14.377083
56.970 14.130351
56.975 14.17244
56.980 13.962813
56.985 13.756163
56.990 14.508754
56.995 14.804938
57.000 14.329369
57.005 14.685695
57.010 15.079927
57.015 15.776362
57.020 16.089355
57.025 15.892259
57.030 15.662449
57.035 15.669827
57.040 15.398496
57.045 15.353941
57.050 15.032393
57.055 14.891031
57.060 14.857295
57.065 14.921474
57.070 15.094357
57.075 14.969984
57.080 14.690824
57.085 14.648874
57.090 14.972753
57.095 14.923442
57.100 15.102006
57.105 14.700521
57.110 14.696163
57.115 14.924898
57.120 14.713262
57.125 14.522216
57.130 14.279645
57.135 14.097798
57.140 14.275979
57.145 14.43854
57.150 14.634582
57.155 15.082712
57.160 15.178006
57.165 15.385946
57.170 15.260381
57.175 15.143446
57.180 15.480139
57.185 15.08711
57.190 14.940813
57.195 14.732377
57.200 14.645116
57.205 14.974096
57.210 15.439407
57.215 14.676012
57.220 14.80409
57.225 14.491335
57.230 14.588211
57.235 14.596003
57.240 14.816902
57.245 14.013534
57.250 14.710546
57.255 14.832018
57.260 14.923157
57.265 14.843603
57.270 14.754078
57.275 14.513656
57.280 14.576837
57.285 14.712839
57.290 15.147297
57.295 15.34553
57.300 15.19926
57.305 15.35738
57.310 15.709727
57.315 15.911247
57.320 15.537561
57.325 15.728964
57.330 16.023718
57.335 15.940685
57.340 15.887298
57.345 15.892146
57.350 15.613178
57.355 15.62933
57.360 15.033556
57.365 14.652441
57.370 15.234726
57.375 15.347899
57.380 15.235102
57.385 15.02832
57.390 15.136054
57.395 15.207463
57.400 15.645374
57.405 15.489311
57.410 15.324962
57.415 15.49842
57.420 15.873176
57.425 15.806069
57.430 15.516459
57.435 15.496193
57.440 15.430072
57.445 15.714959
57.450 15.594529
57.455 15.317198
57.460 15.021277
57.465 14.86533
57.470 15.00065
57.475 14.945736
57.480 14.662989
57.485 14.873002
57.490 15.267989
57.495 15.825729
57.500 16.0774
57.505 16.003714
57.510 16.437517
57.515 17.064911
57.520 16.931023
57.525 16.595633
57.530 16.025362
57.535 15.615222
57.540 14.781802
57.545 14.268961
57.550 13.934616
57.555 14.39893
57.560 14.727548
57.565 15.095451
57.570 15.769095
57.575 16.045898
57.580 16.048994
57.585 15.867772
57.590 16.084784
57.595 16.297138
57.600 16.843756
57.605 16.772966
57.610 17.053257
57.615 17.073467
57.620 17.45499
57.625 17.433311
57.630 17.336168
57.635 15.973959
57.640 15.778237
57.645 15.632997
57.650 15.4436
57.655 15.513363
57.660 15.599828
57.665 16.153837
57.670 16.99597
57.675 17.237156
57.680 17.416199
57.685 17.500645
57.690 17.0732
57.695 16.716118
57.700 16.554071
57.705 16.457766
57.710 16.45978
57.715 16.462622
57.720 16.667633
57.725 16.992193
57.730 16.822363
57.735 16.609564
57.740 16.692165
57.745 16.642776
57.750 16.662344
57.755 16.278915
57.760 15.974848
57.765 15.875971
57.770 15.736383
57.775 16.161316
57.780 16.188608
57.785 16.378023
57.790 16.808037
57.795 16.76615
57.800 16.537647
57.805 16.609993
57.810 16.614573
57.815 16.808952
57.820 17.521944
57.825 17.493837
57.830 17.83959
57.835 18.248905
57.840 18.181398
57.845 17.985031
57.850 17.69837
57.855 17.147303
57.860 16.861895
57.865 16.953825
57.870 16.825724
57.875 17.27417
57.880 17.24637
57.885 17.274052
57.890 17.230051
57.895 17.02117
57.900 16.541578
57.905 17.21241
57.910 17.28208
57.915 17.469086
57.920 17.462784
57.925 17.200178
57.930 17.362827
57.935 17.621958
57.940 17.471256
57.945 17.221363
57.950 16.864637
57.955 16.846701
57.960 16.94644
57.965 17.021255
57.970 16.906155
57.975 16.251627
57.980 16.175682
57.985 16.784185
57.990 17.105625
57.995 17.16852
58.000 17.267191
58.005 17.097383
58.010 17.565182
58.015 17.552197
58.020 16.970003
58.025 16.82987
58.030 17.563482
58.035 17.343328
58.040 17.606676
58.045 17.602732
58.050 17.714514
58.055 17.797575
58.060 18.292377
58.065 17.447161
58.070 17.63236
58.075 17.497448
58.080 16.991047
58.085 17.216297
58.090 17.624821
58.095 17.406597
58.100 17.912668
58.105 18.446449
58.110 18.901176
58.115 19.491261
58.120 19.226398
58.125 19.33877
58.130 19.138248
58.135 18.958611
58.140 18.845961
58.145 18.848694
58.150 19.451214
58.155 19.002928
58.160 18.899242
58.165 19.782963
58.170 20.113655
58.175 19.837288
58.180 19.914051
58.185 19.721367
58.190 19.86898
58.195 19.970882
58.200 19.713987
58.205 20.097767
58.210 20.449478
58.215 19.786388
58.220 19.553225
58.225 19.294464
58.230 18.763863
58.235 18.425011
58.240 18.489008
58.245 19.259474
58.250 19.879271
58.255 20.344654
58.260 20.287779
58.265 20.566803
58.270 20.786932
58.275 20.497328
58.280 20.897961
58.285 20.724728
58.290 20.540564
58.295 21.096006
58.300 21.273636
58.305 21.312702
58.310 21.089809
58.315 20.228424
58.320 20.43409
58.325 20.912695
58.330 21.922361
58.335 22.630379
58.340 22.47776
58.345 21.994387
58.350 23.007534
58.355 23.565079
58.360 23.980465
58.365 23.025532
58.370 22.491692
58.375 22.616943
58.380 23.21394
58.385 22.74087
58.390 23.32729
58.395 23.213072
58.400 23.881525
58.405 24.840969
58.410 25.686541
58.415 26.72551
58.420 27.127859
58.425 27.134926
58.430 27.868347
58.435 28.30266
58.440 28.694565
58.445 28.1915
58.450 27.617085
58.455 27.560524
58.460 27.649845
58.465 27.540314
58.470 27.049267
58.475 26.103388
58.480 26.440405
58.485 26.688259
58.490 27.563808
58.495 28.277313
58.500 28.472454
58.505 28.329296
58.510 28.653538
58.515 28.495569
58.520 28.151943
58.525 27.884169
58.530 27.316612
58.535 27.547956
58.540 28.333252
58.545 28.878851
58.550 28.946779
58.555 29.30315
58.560 29.707737
58.565 30.362478
58.570 30.167131
58.575 30.111431
58.580 30.167841
58.585 30.55117
58.590 30.663528
58.595 29.964603
58.600 29.385599
58.605 28.558601
58.610 27.907795
58.615 27.489489
58.620 27.242916
58.625 27.367512
58.630 27.680746
58.635 28.378063
58.640 29.173025
58.645 29.960871
58.650 29.72941
58.655 29.67617
58.660 30.140631
58.665 29.149784
58.670 28.408504
58.675 27.94306
58.680 27.22155
58.685 27.412325
58.690 27.35021
58.695 27.059265
58.700 27.057058
58.705 26.881273
58.710 26.352749
58.715 26.123178
58.720 26.220858
58.725 26.436766
58.730 26.221972
58.735 26.905649
58.740 27.202263
58.745 28.029749
58.750 28.860559
58.755 29.393921
58.760 29.463713
58.765 28.813711
58.770 28.180748
58.775 27.943769
58.780 27.608063
58.785 26.89809
58.790 26.330265
58.795 25.579134
58.800 25.574736
58.805 25.685369
58.810 25.635681
58.815 25.202318
58.820 25.062489
58.825 24.830038
58.830 24.760015
58.835 24.263821
58.840 24.163565
58.845 24.654718
58.850 24.851793
58.855 24.585827
58.860 24.750923
58.865 24.691788
58.870 24.577187
58.875 24.216839
58.880 23.132139
58.885 22.723045
58.890 22.479347
58.895 22.107866
58.900 22.153385
58.905 22.074406
58.910 22.078693
58.915 21.78157
58.920 21.836493
58.925 22.065012
58.930 21.6113
58.935 20.933489
58.940 20.271614
58.945 19.423634
58.950 19.551746
58.955 19.376968
58.960 18.839102
58.965 18.964481
58.970 19.339012
58.975 19.379581
58.980 19.380602
58.985 19.74962
58.990 19.872211
58.995 20.680368
59.000 21.12381
59.005 21.449116
59.010 22.199415
59.015 22.976515
59.020 23.094646
59.025 23.073927
59.030 22.342007
59.035 21.897335
59.040 21.726292
59.045 21.349606
59.050 20.593496
59.055 20.324177
59.060 19.980179
59.065 19.953026
59.070 20.210711
59.075 20.075186
59.080 20.544697
59.085 20.569595
59.090 20.389656
59.095 20.811512
59.100 20.939398
59.105 20.560223
59.110 20.677172
59.115 20.091129
59.120 19.3116
59.125 19.713848
59.130 19.935556
59.135 19.476974
59.140 19.234787
59.145 19.022455
59.150 18.761396
59.155 19.572628
59.160 18.914078
59.165 18.19446
59.170 18.774004
59.175 18.722044
59.180 18.204222
59.185 18.787048
59.190 18.967484
59.195 19.120289
59.200 19.183218
59.205 18.585266
59.210 18.833725
59.215 19.734947
59.220 20.052622
59.225 19.651194
59.230 19.788849
59.235 19.864777
59.240 20.649727
59.245 21.264101
59.250 20.763014
59.255 19.861927
59.260 19.928835
59.265 19.637354
59.270 19.401802
59.275 19.059006
59.280 18.180431
59.285 17.700689
59.290 17.895185
59.295 18.350456
59.300 18.788433
59.305 18.916761
59.310 18.698673
59.315 19.048431
59.320 19.621908
59.325 19.726631
59.330 19.59594
59.335 19.283293
59.340 18.52107
59.345 18.895935
59.350 19.215063
59.355 18.984064
59.360 19.579069
59.365 19.849695
59.370 19.752174
59.375 19.43158
59.380 19.083513
59.385 19.261602
59.390 19.910074
59.395 19.69453
59.400 19.789982
59.405 20.185791
59.410 20.878588
59.415 20.482948
59.420 19.529243
59.425 19.354731
59.430 18.933266
59.435 18.873407
59.440 19.68186
59.445 19.747805
59.450 19.749252
59.455 19.871447
59.460 19.533014
59.465 19.6479
59.470 19.335182
59.475 18.795736
59.480 19.046806
59.485 19.583122
59.490 19.792212
59.495 19.423744
59.500 19.877193
59.505 20.177368
59.510 20.3624
59.515 20.523333
59.520 20.543962
59.525 20.514427
59.530 20.249046
59.535 19.302002
59.540 18.378454
59.545 17.757103
59.550 17.675146
59.555 17.646711
59.560 17.954166
59.565 18.809057
59.570 19.409334
59.575 19.833927
59.580 19.685772
59.585 19.348103
59.590 19.663889
59.595 18.695267
59.600 17.843742
59.605 17.28614
59.610 17.223232
59.615 17.906294
59.620 17.778963
59.625 17.500935
59.630 17.297705
59.635 17.171911
59.640 17.100241
59.645 17.266232
59.650 17.716183
59.655 17.435274
59.660 17.551369
59.665 18.653372
59.670 18.838007
59.675 19.051725
59.680 18.738165
59.685 18.115194
59.690 18.201614
59.695 18.229889
59.700 18.263712
59.705 18.303118
59.710 18.653315
59.715 18.69404
59.720 18.587164
59.725 18.540356
59.730 18.921188
59.735 18.922676
59.740 18.810558
59.745 18.634501
59.750 18.66851
59.755 18.881907
59.760 18.965055
59.765 18.641596
59.770 18.587151
59.775 19.178839
59.780 19.019804
59.785 18.819229
59.790 18.715401
59.795 19.206211
59.800 18.921381
59.805 18.242413
59.810 17.931293
59.815 18.719955
59.820 19.1984
59.825 19.224504
59.830 18.744339
59.835 18.774136
59.840 18.972921
59.845 18.747295
59.850 18.157011
59.855 17.59919
59.860 17.372747
59.865 17.754063
59.870 17.623501
59.875 17.829199
59.880 18.388577
59.885 18.440483
59.890 18.435883
59.895 18.533751
59.900 18.133581
59.905 18.124189
59.910 17.7938
59.915 17.414661
59.920 18.359121
59.925 18.948879
59.930 18.820545
59.935 18.973455
59.940 19.287292
59.945 19.655617
59.950 19.181824
59.955 17.766716
59.960 17.163208
59.965 17.236311
59.970 16.937054
59.975 17.086576
59.980 17.252035
59.985 17.824978
59.990 18.618549
59.995 18.524109
60.000 18.155111
60.005 18.092985
60.010 18.02401
60.015 17.958406
60.020 17.639555
60.025 17.610764
60.030 17.795162
60.035 18.084866
60.040 18.255697
60.045 18.237503
60.050 18.370495
60.055 17.916939
60.060 17.601786
60.065 17.468658
60.070 16.930641
60.075 16.660322
60.080 16.272663
60.085 15.580058
60.090 16.175173
60.095 16.370043
60.100 16.874386
60.105 17.241358
60.110 17.186769
60.115 17.103518
60.120 17.673347
60.125 17.401787
60.130 16.86875
60.135 17.040249
60.140 17.483555
60.145 18.191513
60.150 18.037035
60.155 17.552561
60.160 17.401928
60.165 17.477831
60.170 17.135683
60.175 16.970852
60.180 16.470543
60.185 16.529058
60.190 16.825666
60.195 17.143677
60.200 16.775875
60.205 16.562805
60.210 16.296186
60.215 16.46805
60.220 16.727839
60.225 16.798166
60.230 16.944036
60.235 17.607849
60.240 17.815809
60.245 18.369631
60.250 18.411121
60.255 17.76512
60.260 17.714037
60.265 17.815367
60.270 17.836246
60.275 17.804316
60.280 17.3533
60.285 17.420935
60.290 18.079893
60.295 18.23834
60.300 18.116348
60.305 17.983496
60.310 18.027626
60.315 18.659206
60.320 18.696589
60.325 18.579388
60.330 18.061584
60.335 18.143225
60.340 17.987846
60.345 17.608616
60.350 17.839527
60.355 18.041824
60.360 17.974501
60.365 18.059214
60.370 18.172945
60.375 18.123985
60.380 17.5923
60.385 17.262827
60.390 17.005033
60.395 16.917181
60.400 16.7153
60.405 16.671328
60.410 16.693531
60.415 16.694937
60.420 16.244625
60.425 16.11688
60.430 16.279793
60.435 16.050943
60.440 15.687685
60.445 15.84251
60.450 16.00894
60.455 16.355856
60.460 16.928169
60.465 17.103275
60.470 17.695547
60.475 18.220299
60.480 18.073627
60.485 17.875378
60.490 17.619019
60.495 16.845957
60.500 16.382118
60.505 16.158993
60.510 15.744626
60.515 15.653175
60.520 15.863381
60.525 15.951657
60.530 16.190683
60.535 16.167763
60.540 16.139898
60.545 16.123924
60.550 15.921886
60.555 16.445131
60.560 16.610933
60.565 16.791363
60.570 17.051027
60.575 17.056017
60.580 17.57272
60.585 18.498922
60.590 18.093781
60.595 18.177805
60.600 18.017384
60.605 18.229591
60.610 18.372225
60.615 17.92104
60.620 17.511456
60.625 17.30435
60.630 17.286276
60.635 17.348963
60.640 16.980183
60.645 16.754721
60.650 16.958714
60.655 17.158829
60.660 17.596569
60.665 17.478642
60.670 17.086657
60.675 17.089214
60.680 16.9853
60.685 16.800575
60.690 16.290119
60.695 15.952051
60.700 15.852046
60.705 16.190279
60.710 16.329679
60.715 16.882929
60.720 16.987806
60.725 16.969486
60.730 16.760742
60.735 17.105951
60.740 17.381449
60.745 17.013775
60.750 16.42108
60.755 15.92261
60.760 15.848598
60.765 16.317511
60.770 16.479784
60.775 16.310081
60.780 16.577681
60.785 17.014978
60.790 17.032656
60.795 17.256834
60.800 16.712502
60.805 16.261522
60.810 15.995193
60.815 15.876896
60.820 16.021984
60.825 16.670565
60.830 16.956356
60.835 16.877542
60.840 17.071819
60.845 17.049192
60.850 16.925289
60.855 16.987349
60.860 16.760195
60.865 16.740744
60.870 16.518925
60.875 16.753626
60.880 16.655113
60.885 16.335522
60.890 16.193806
60.895 15.918571
60.900 15.675094
60.905 16.583345
60.910 16.464746
60.915 17.308138
60.920 17.530596
60.925 17.258482
60.930 17.477772
60.935 17.260176
60.940 16.637663
60.945 16.501776
60.950 16.544912
60.955 16.800529
60.960 16.512903
60.965 16.366987
60.970 16.530415
60.975 16.806969
60.980 16.26025
60.985 15.924809
60.990 15.794742
60.995 16.273401
61.000 16.25251
61.005 15.987321
61.010 15.448555
61.015 15.573238
61.020 15.742931
61.025 15.918297
61.030 15.989354
61.035 16.29389
61.040 16.628555
61.045 16.843203
61.050 17.033052
61.055 16.68392
61.060 16.990719
61.065 16.883638
61.070 17.11319
61.075 17.532204
61.080 17.646887
61.085 17.762861
61.090 18.558756
61.095 19.029356
61.100 19.587147
61.105 19.204844
61.110 18.934158
61.115 19.055336
61.120 19.000059
61.125 18.392647
61.130 17.628134
61.135 17.47098
61.140 17.749296
61.145 18.112829
61.150 18.374191
61.155 18.747301
61.160 18.415411
61.165 18.028311
61.170 18.002893
61.175 17.633928
61.180 16.977015
61.185 16.74474
61.190 16.880842
61.195 17.325766
61.200 17.936195
61.205 18.127424
61.210 18.717085
61.215 19.169886
61.220 19.043667
61.225 18.433092
61.230 17.810844
61.235 17.189287
61.240 17.188511
61.245 16.867182
61.250 16.864656
61.255 16.404829
61.260 16.915312
61.265 17.549927
61.270 18.08049
61.275 18.282654
61.280 18.163902
61.285 18.061338
61.290 18.002729
61.295 17.495684
61.300 17.873339
61.305 17.956493
61.310 17.610006
61.315 17.929155
61.320 18.13694
61.325 18.549784
61.330 18.475916
61.335 17.79052
61.340 17.004238
61.345 16.708311
61.350 16.302898
61.355 16.383173
61.360 16.244619
61.365 16.464302
61.370 16.907087
61.375 17.213444
61.380 18.263462
61.385 18.282009
61.390 18.145632
61.395 18.829033
61.400 18.475538
61.405 17.909981
61.410 17.508299
61.415 16.536779
61.420 16.678635
61.425 16.510666
61.430 16.528952
61.435 17.08531
61.440 17.661432
61.445 18.253527
61.450 18.631351
61.455 18.915588
61.460 19.056093
61.465 18.279518
61.470 17.881054
61.475 17.779436
61.480 17.606045
61.485 16.969706
61.490 16.506433
61.495 16.088898
61.500 16.460936
61.505 16.310743
61.510 15.911847
61.515 16.181261
61.520 17.014399
61.525 17.263832
61.530 17.365446
61.535 17.666719
61.540 17.688711
61.545 17.666107
61.550 17.96557
61.555 17.750811
61.560 17.689463
61.565 17.952175
61.570 17.522636
61.575 17.855448
61.580 18.037453
61.585 17.030638
61.590 16.845705
61.595 16.788757
61.600 16.383101
61.605 16.210928
61.610 16.592297
61.615 16.983395
61.620 17.204758
61.625 16.906549
61.630 16.465572
61.635 16.817118
61.640 16.867506
61.645 16.922859
61.650 16.889141
61.655 17.007847
61.660 17.167664
61.665 17.433167
61.670 17.14744
61.675 17.48185
61.680 17.131811
61.685 16.456348
61.690 16.514505
61.695 17.152411
61.700 17.044571
61.705 17.209902
61.710 16.985765
61.715 17.180635
61.720 17.095795
61.725 17.047749
61.730 17.360439
61.735 17.389389
61.740 17.603722
61.745 17.648109
61.750 17.733706
61.755 18.223598
61.760 18.319141
61.765 17.981823
61.770 18.156879
61.775 18.429081
61.780 18.663252
61.785 18.831989
61.790 19.113018
61.795 19.615078
61.800 19.573576
61.805 19.592028
61.810 19.636578
61.815 19.71977
61.820 19.612207
61.825 19.909651
61.830 19.348486
61.835 19.532408
61.840 19.293938
61.845 18.765114
61.850 18.630587
61.855 18.481449
61.860 18.048862
61.865 18.302389
61.870 18.376848
61.875 18.752506
61.880 18.583504
61.885 18.036636
61.890 17.925463
61.895 17.806524
61.900 17.403061
61.905 17.463484
61.910 17.218981
61.915 17.419256
61.920 18.053732
61.925 18.2953
61.930 18.700073
61.935 18.919083
61.940 18.497538
61.945 19.031757
61.950 19.511135
61.955 19.484692
61.960 18.173923
61.965 17.291338
61.970 17.132526
61.975 17.507853
61.980 17.252989
61.985 16.834385
61.990 17.153229
61.995 18.525921
62.000 18.809275
62.005 18.924999
62.010 19.045212
62.015 18.872297
62.020 18.697075
62.025 18.161943
62.030 17.873081
62.035 17.87656
62.040 18.009975
62.045 17.617535
62.050 17.533983
62.055 17.909512
62.060 18.037817
62.065 18.031805
62.070 18.369865
62.075 17.935513
62.080 17.957296
62.085 18.16296
62.090 18.049824
62.095 17.825027
62.100 17.465517
62.105 17.342924
62.110 17.827721
62.115 17.68585
62.120 17.436523
62.125 17.01602
62.130 17.33856
62.135 18.265812
62.140 18.473511
62.145 18.472332
62.150 18.750845
62.155 18.841833
62.160 19.275223
62.165 19.359434
62.170 18.86722
62.175 18.733419
62.180 18.88409
62.185 19.175299
62.190 19.384197
62.195 19.149305
62.200 18.678116
62.205 18.337337
62.210 18.611834
62.215 18.304998
62.220 17.713766
62.225 17.227245
62.230 16.987963
62.235 17.046003
62.240 17.229342
62.245 16.417833
62.250 15.760712
62.255 15.916717
62.260 16.157465
62.265 16.510847
62.270 16.28536
62.275 16.463308
62.280 16.885836
62.285 17.573309
62.290 18.118605
62.295 18.020393
62.300 18.000719
62.305 18.02235
62.310 17.664627
62.315 17.545053
62.320 16.924314
62.325 16.120331
62.330 16.179132
62.335 15.953547
62.340 16.135324
62.345 16.03108
62.350 16.061537
62.355 16.005585
62.360 16.484201
62.365 16.182186
62.370 16.250427
62.375 15.936459
62.380 16.18388
62.385 16.531176
62.390 16.94137
62.395 16.922617
62.400 17.136551
62.405 17.460295
62.410 17.993204
62.415 18.394236
62.420 18.434467
62.425 17.676739
62.430 17.741152
62.435 18.051739
62.440 17.645199
62.445 17.632072
62.450 17.501011
62.455 17.45295
62.460 18.04159
62.465 18.307579
62.470 18.085503
62.475 18.502171
62.480 18.548048
62.485 18.312021
62.490 18.171865
62.495 18.061445
62.500 18.146111
62.505 18.369337
62.510 18.530834
62.515 18.512575
62.520 18.934908
62.525 19.394428
62.530 19.11792
62.535 18.761215
62.540 18.527254
62.545 17.995966
62.550 18.094984
62.555 17.980526
62.560 17.83149
62.565 18.020647
62.570 18.38286
62.575 18.447584
62.580 18.37302
62.585 17.40638
62.590 16.964417
62.595 17.200579
62.600 17.237589
62.605 16.944807
62.610 16.385502
62.615 16.576664
62.620 17.681818
62.625 18.399582
62.630 19.065903
62.635 19.179594
62.640 19.134596
62.645 19.917154
62.650 19.892937
62.655 19.166948
62.660 18.553246
62.665 17.779238
62.670 17.869843
62.675 18.23558
62.680 17.983198
62.685 17.922157
62.690 18.62208
62.695 18.901308
62.700 18.774862
62.705 18.568647
62.710 18.824324
62.715 18.976906
62.720 19.212955
62.725 19.010845
62.730 19.053377
62.735 18.653805
62.740 18.64337
62.745 17.920834
62.750 18.046225
62.755 17.211617
62.760 16.752333
62.765 16.839813
62.770 17.231731
62.775 17.029137
62.780 17.220587
62.785 17.199545
62.790 17.606556
62.795 17.700256
62.800 17.104229
62.805 17.253708
62.810 16.993626
62.815 16.625334
62.820 16.659277
62.825 16.854254
62.830 17.111719
62.835 17.462999
62.840 17.35141
62.845 17.447042
62.850 18.016787
62.855 18.165047
62.860 17.855656
62.865 17.694246
62.870 17.649679
62.875 17.948816
62.880 18.343267
62.885 18.300701
62.890 17.977425
62.895 18.397438
62.900 18.947136
62.905 19.13822
62.910 18.397333
62.915 17.86931
62.920 17.147379
62.925 16.841593
62.930 16.523102
62.935 16.668114
62.940 16.606905
62.945 16.941488
62.950 17.282814
62.955 18.046913
62.960 18.293684
62.965 18.290934
62.970 17.882992
62.975 18.394554
62.980 19.016129
62.985 19.338642
62.990 19.650513
62.995 19.95808
63.000 20.345968
63.005 20.637545
63.010 20.763828
63.015 20.463776
63.020 20.320328
63.025 19.865448
63.030 19.773733
63.035 19.404608
63.040 19.104471
63.045 18.766258
63.050 18.690327
63.055 18.478399
63.060 18.486328
63.065 18.342136
63.070 18.456295
63.075 17.96954
63.080 17.895027
63.085 18.285305
63.090 18.334696
63.095 18.613165
63.100 19.052412
63.105 19.110582
63.110 18.999784
63.115 19.399857
63.120 18.819147
63.125 19.31793
63.130 19.525337
63.135 19.378771
63.140 19.262079
63.145 19.018284
63.150 18.876886
63.155 19.23493
63.160 18.615559
63.165 18.061789
63.170 17.907015
63.175 18.035814
63.180 18.506639
63.185 18.467352
63.190 18.582432
63.195 18.473423
63.200 17.880426
63.205 17.109188
63.210 16.586975
63.215 16.81749
63.220 17.239645
63.225 17.255774
63.230 18.239927
63.235 19.1089
63.240 19.818676
63.245 20.047674
63.250 19.876919
63.255 19.254354
63.260 19.042192
63.265 18.46887
63.270 18.090036
63.275 17.993484
63.280 18.396919
63.285 18.357698
63.290 18.80134
63.295 18.72826
63.300 18.823528
63.305 19.253864
63.310 19.255314
63.315 18.885138
63.320 18.76107
63.325 18.554375
63.330 18.383152
63.335 17.88633
63.340 17.616026
63.345 17.194618
63.350 17.652924
63.355 18.148289
63.360 19.130743
63.365 19.843948
63.370 20.061159
63.375 20.350834
63.380 20.616991
63.385 20.273714
63.390 20.334183
63.395 19.20413
63.400 18.138529
63.405 17.866282
63.410 17.807695
63.415 17.683081
63.420 18.292889
63.425 18.314167
63.430 18.858452
63.435 19.842661
63.440 20.353687
63.445 21.014084
63.450 21.514656
63.455 20.942135
63.460 20.022768
63.465 20.110868
63.470 19.853874
63.475 19.972187
63.480 19.709579
63.485 19.953859
63.490 20.4095
63.495 20.776213
63.500 20.622263
63.505 21.206882
63.510 21.446148
63.515 21.069431
63.520 20.58382
63.525 20.428339
63.530 20.640539
63.535 20.791494
63.540 20.236542
63.545 19.802431
63.550 19.730122
63.555 19.621023
63.560 20.308197
63.565 20.722628
63.570 20.733671
63.575 20.894012
63.580 20.972383
63.585 21.33913
63.590 21.631134
63.595 20.288794
63.600 19.325232
63.605 18.86404
63.610 18.84177
63.615 18.819178
63.620 18.513453
63.625 18.188383
63.630 18.414423
63.635 18.697081
63.640 19.021706
63.645 19.323402
63.650 19.781683
63.655 19.949926
63.660 20.547573
63.665 20.679068
63.670 20.491644
63.675 19.971884
63.680 18.9503
63.685 18.921032
63.690 19.040943
63.695 19.022627
63.700 19.313158
63.705 19.209227
63.710 19.271601
63.715 19.924576
63.720 19.88014
63.725 19.98267
63.730 19.846783
63.735 20.654013
63.740 21.288055
63.745 21.502281
63.750 21.455528
63.755 21.405609
63.760 21.104389
63.765 21.006544
63.770 20.184011
63.775 20.001232
63.780 20.299353
63.785 20.493225
63.790 20.273705
63.795 20.103024
63.800 20.071922
63.805 20.790806
63.810 21.054752
63.815 21.317711
63.820 20.998226
63.825 21.031979
63.830 21.53792
63.835 21.919159
63.840 22.094444
63.845 22.084923
63.850 22.156118
63.855 22.393028
63.860 22.567772
63.865 22.743876
63.870 22.517727
63.875 21.698797
63.880 21.993748
63.885 22.309885
63.890 22.906754
63.895 23.076815
63.900 23.565401
63.905 23.724192
63.910 24.518282
63.915 24.084955
63.920 23.963482
63.925 23.273848
63.930 23.175892
63.935 22.926159
63.940 23.519957
63.945 24.555513
63.950 25.257376
63.955 26.2047
63.960 26.917643
63.965 27.237774
63.970 26.98731
63.975 27.263826
63.980 27.089607
63.985 27.300705
63.990 27.061859
63.995 27.601564
64.000 28.146126
64.005 29.037436
64.010 29.621391
64.015 30.10162
64.020 29.944807
64.025 29.894188
64.030 29.809677
64.035 29.48687
64.040 29.239363
64.045 28.884052
64.050 28.750227
64.055 28.913597
64.060 29.31567
64.065 30.120268
64.070 31.376257
64.075 31.587097
64.080 31.696747
64.085 32.137829
64.090 32.490753
64.095 32.201847
64.100 31.882065
64.105 31.354931
64.110 31.275023
64.115 31.438673
64.120 31.304998
64.125 31.155622
64.130 31.277618
64.135 31.223587
64.140 31.168907
64.145 31.427715
64.150 31.365812
64.155 31.173903
64.160 31.469435
64.165 31.512413
64.170 31.516617
64.175 31.09664
64.180 31.326918
64.185 31.609295
64.190 31.977472
64.195 31.739933
64.200 31.475016
64.205 30.931259
64.210 31.121237
64.215 30.538996
64.220 30.102024
64.225 30.448792
64.230 31.26824
64.235 32.134869
64.240 32.56258
64.245 33.182831
64.250 33.733082
64.255 34.321838
64.260 34.103218
64.265 33.665565
64.270 33.849384
64.275 33.953308
64.280 33.160496
64.285 33.116066
64.290 33.296608
64.295 33.20554
64.300 34.037807
64.305 33.622143
64.310 33.598728
64.315 33.740582
64.320 33.898544
64.325 33.584694
64.330 34.067444
64.335 33.377151
64.340 33.211433
64.345 33.547112
64.350 34.13599
64.355 34.302109
64.360 34.343967
64.365 33.836502
64.370 34.126698
64.375 34.010059
64.380 33.70079
64.385 33.462959
64.390 33.12114
64.395 33.164139
64.400 33.304626
64.405 33.251957
64.410 33.602306
64.415 33.455276
64.420 33.834518
64.425 33.932671
64.430 33.386246
64.435 33.445843
64.440 33.37698
64.445 33.665657
64.450 33.544868
64.455 32.452011
64.460 32.113422
64.465 32.293701
64.470 31.297684
64.475 30.483311
64.480 30.0499
64.485 30.102709
64.490 30.047585
64.495 29.516556
64.500 29.336943
64.505 29.012337
64.510 28.325478
64.515 27.749744
64.520 27.175468
64.525 26.68227
64.530 26.575193
64.535 25.67625
64.540 26.021549
64.545 26.083685
64.550 25.173023
64.555 25.221668
64.560 25.294456
64.565 25.534243
64.570 26.478374
64.575 27.451742
64.580 28.314079
64.585 28.839071
64.590 28.556999
64.595 28.933926
64.600 28.735579
64.605 27.61191
64.610 26.185999
64.615 25.83296
64.620 26.558571
64.625 26.765903
64.630 26.01844
64.635 25.514128
64.640 25.45747
64.645 25.978605
64.650 26.004103
64.655 25.49387
64.660 25.533819
64.665 25.89707
64.670 25.920816
64.675 25.326242
64.680 24.872948
64.685 24.07163
64.690 23.595301
64.695 23.47567
64.700 23.303734
64.705 22.941935
64.710 23.448027
64.715 23.969839
64.720 24.111591
64.725 23.907173
64.730 23.771557
64.735 23.841932
64.740 24.117865
64.745 23.827221
64.750 23.188774
64.755 23.30596
64.760 23.49383
64.765 23.600016
64.770 23.447939
64.775 22.940182
64.780 22.069344
64.785 21.347073
64.790 20.955219
64.795 21.207771
64.800 21.552624
64.805 21.905024
64.810 22.058191
64.815 22.405315
64.820 23.234755
64.825 23.101772
64.830 23.13073
64.835 22.710833
64.840 22.304167
64.845 21.870249
64.850 21.839973
64.855 22.005718
64.860 22.386122
64.865 21.851852
64.870 21.164005
64.875 20.928738
64.880 22.105234
64.885 22.923384
64.890 22.824064
64.895 23.328899
64.900 23.62575
64.905 23.933613
64.910 24.307266
64.915 23.89152
64.920 23.912029
64.925 23.724558
64.930 23.055443
64.935 22.840231
64.940 23.402887
64.945 22.841829
64.950 22.276564
64.955 21.989807
64.960 21.987408
64.965 22.489176
64.970 23.080095
64.975 23.178514
64.980 23.830362
64.985 25.020386
64.990 25.616564
64.995 25.807037
65.000 25.758533
65.005 25.623093
65.010 25.238194
65.015 25.657005
65.020 24.743389
65.025 23.771938
65.030 23.55257
65.035 23.059603
65.040 23.228857
65.045 23.288607
65.050 22.876593
65.055 22.939224
65.060 24.027067
65.065 24.271717
65.070 24.664568
65.075 24.540545
65.080 24.672279
65.085 24.712585
65.090 24.282
65.095 23.637564
65.100 23.077091
65.105 22.948235
65.110 23.325109
65.115 23.135138
65.120 23.066311
65.125 23.56885
65.130 24.18751
65.135 24.890762
65.140 24.778107
65.145 24.699621
65.150 24.990103
65.155 25.093548
65.160 25.077314
65.165 24.789572
65.170 24.547728
65.175 24.40168
65.180 24.112768
65.185 23.796982
65.190 23.889362
65.195 24.296537
65.200 24.801697
65.205 24.963957
65.210 24.947283
65.215 24.705311
65.220 25.026899
65.225 25.063105
65.230 24.670237
65.235 24.386665
65.240 24.242422
65.245 24.015862
65.250 24.281633
65.255 23.956228
65.260 23.813787
65.265 23.863787
65.270 23.780401
65.275 23.754845
65.280 23.878019
65.285 23.925274
65.290 24.533714
65.295 25.218071
65.300 25.666426
65.305 26.444811
65.310 26.562235
65.315 26.542767
65.320 26.553888
65.325 25.6812
65.330 25.152674
65.335 24.696455
65.340 23.714142
65.345 24.334929
65.350 24.849703
65.355 24.563736
65.360 24.803064
65.365 25.07296
65.370 25.913523
65.375 26.886154
65.380 27.340174
65.385 27.721941
65.390 28.456928
65.395 28.810513
65.400 28.875967
65.405 28.77408
65.410 28.596395
65.415 27.707947
65.420 27.347204
65.425 27.398193
65.430 27.311987
65.435 27.001234
65.440 27.146816
65.445 26.884403
65.450 26.486458
65.455 26.173794
65.460 26.234028
65.465 26.877104
65.470 26.923927
65.475 26.216467
65.480 26.013073
65.485 26.405714
65.490 26.478106
65.495 26.78504
65.500 27.294535
65.505 27.376059
65.510 27.517593
65.515 28.264587
65.520 28.513908
65.525 28.824495
65.530 28.320656
65.535 27.680054
65.540 28.158545
65.545 28.68119
65.550 29.090164
65.555 29.501989
65.560 29.678999
65.565 29.722824
65.570 30.32922
65.575 30.939459
65.580 31.427237
65.585 30.83868
65.590 31.025463
65.595 31.425276
65.600 31.744661
65.605 30.926128
65.610 30.184885
65.615 30.569635
65.620 31.649712
65.625 31.707518
65.630 31.243637
65.635 31.284054
65.640 31.298477
65.645 31.524012
65.650 31.370888
65.655 30.724348
65.660 30.000944
65.665 29.849161
65.670 29.942907
65.675 30.411968
65.680 31.370527
65.685 32.214451
65.690 32.756451
65.695 33.380383
65.700 33.783848
65.705 33.784763
65.710 33.817627
65.715 32.810596
65.720 32.364033
65.725 32.821354
65.730 33.749321
65.735 34.786568
65.740 34.832737
65.745 34.919258
65.750 35.997883
65.755 36.782505
65.760 36.625229
65.765 35.99638
65.770 35.376419
65.775 35.113579
65.780 34.977551
65.785 34.805878
65.790 34.043362
65.795 34.466877
65.800 34.660515
65.805 35.061985
65.810 35.404045
65.815 35.283623
65.820 35.412758
65.825 35.492149
65.830 35.357914
65.835 35.44453
65.840 35.393898
65.845 35.474621
65.850 35.474384
65.855 35.732483
65.860 35.229897
65.865 34.332539
65.870 34.290096
65.875 35.104549
65.880 35.809166
65.885 36.179176
65.890 35.454861
65.895 35.945534
65.900 37.166943
65.905 37.591286
65.910 37.349415
65.915 37.386547
65.920 38.087662
65.925 38.588799
65.930 38.52076
65.935 39.114655
65.940 38.493607
65.945 37.655502
65.950 36.757839
65.955 36.07848
65.960 36.193672
65.965 35.695755
65.970 34.595474
65.975 34.201305
65.980 34.248444
65.985 34.767731
65.990 34.599804
65.995 35.47242
66.000 36.528786
66.005 36.998501
66.010 37.887154
66.015 39.344864
66.020 39.276752
66.025 39.582893
66.030 39.45248
66.035 38.736027
66.040 39.258488
66.045 39.178764
66.050 38.368336
66.055 38.300816
66.060 37.972607
66.065 37.342091
66.070 36.915722
66.075 36.041401
66.080 36.239471
66.085 36.66988
66.090 37.318962
66.095 37.327877
66.100 38.046619
66.105 38.207245
66.110 38.242809
66.115 37.731449
66.120 36.426315
66.125 36.034081
66.130 35.852318
66.135 36.022697
66.140 36.494312
66.145 36.987072
66.150 37.280769
66.155 37.654198
66.160 37.609451
66.165 37.537762
66.170 37.867065
66.175 37.938496
66.180 38.102772
66.185 38.516689
66.190 38.093662
66.195 38.452087
66.200 38.445675
66.205 37.652241
66.210 37.13868
66.215 36.48885
66.220 36.528465
66.225 36.166355
66.230 35.486866
66.235 35.606335
66.240 34.340973
66.245 34.396751
66.250 34.546215
66.255 34.748543
66.260 34.450275
66.265 34.729298
66.270 34.496323
66.275 35.157757
66.280 34.874737
66.285 33.760956
66.290 33.691212
66.295 34.89333
66.300 34.803116
66.305 34.470005
66.310 34.316708
66.315 34.228294
66.320 34.525204
66.325 33.919323
66.330 33.167286
66.335 33.339367
66.340 33.344658
66.345 33.070595
66.350 32.107353
66.355 31.329012
66.360 30.963196
66.365 30.710131
66.370 30.175699
66.375 29.590008
66.380 29.313604
66.385 29.783504
66.390 30.162271
66.395 29.723881
66.400 29.669125
66.405 29.572765
66.410 30.061127
66.415 30.452099
66.420 30.313097
66.425 30.408709
66.430 30.901896
66.435 30.973228
66.440 31.054432
66.445 30.941589
66.450 30.840771
66.455 30.161467
66.460 29.861956
66.465 29.38349
66.470 28.90037
66.475 28.294361
66.480 27.807589
66.485 27.541723
66.490 27.668785
66.495 28.400976
66.500 28.814301
66.505 28.748272
66.510 28.907755
66.515 28.722916
66.520 28.343079
66.525 28.25831
66.530 27.776104
66.535 27.150887
66.540 26.879782
66.545 26.163683
66.550 25.580473
66.555 25.288876
66.560 25.160051
66.565 24.832462
66.570 24.590721
66.575 24.089729
66.580 24.097664
66.585 24.003605
66.590 23.72784
66.595 23.106947
66.600 22.920042
66.605 23.377544
66.610 23.738558
66.615 23.687199
66.620 24.445135
66.625 24.746183
66.630 25.118921
66.635 24.973253
66.640 25.151516
66.645 24.570911
66.650 24.008135
66.655 23.114794
66.660 22.497622
66.665 21.827774
66.670 21.729933
66.675 20.79121
66.680 20.376816
66.685 20.405346
66.690 20.476971
66.695 21.167313
66.700 21.404734
66.705 21.457598
66.710 21.52948
66.715 21.929274
66.720 22.250525
66.725 21.440125
66.730 21.030807
66.735 20.689024
66.740 20.935041
66.745 21.474627
66.750 21.514072
66.755 20.776289
66.760 21.514996
66.765 21.751108
66.770 21.368118
66.775 20.87669
66.780 20.813868
66.785 21.106417
66.790 20.984472
66.795 20.64473
66.800 20.412107
66.805 20.880804
66.810 21.111729
66.815 21.075731
66.820 21.249542
66.825 21.664082
66.830 21.401045
66.835 21.029274
66.840 21.061487
66.845 20.877983
66.850 20.949286
66.855 20.318138
66.860 20.288065
66.865 20.768351
66.870 20.899858
66.875 20.868357
66.880 20.809565
66.885 20.206661
66.890 20.013096
66.895 19.9816
66.900 19.425055
66.905 18.808306
66.910 18.431808
66.915 18.349617
66.920 18.540993
66.925 18.51915
66.930 18.360882
66.935 19.07815
66.940 19.364502
66.945 19.929958
66.950 20.230547
66.955 20.090603
66.960 20.465172
66.965 20.524513
66.970 20.283564
66.975 21.032127
66.980 21.080494
66.985 21.05616
66.990 21.126904
66.995 20.456308
67.000 19.407888
67.005 19.264282
67.010 19.15658
67.015 18.726072
67.020 18.701643
67.025 18.963779
67.030 19.738447
67.035 20.788481
67.040 21.16818
67.045 21.261909
67.050 21.629519
67.055 21.798836
67.060 22.184464
67.065 22.492052
67.070 22.247458
67.075 21.956226
67.080 21.629671
67.085 21.391846
67.090 21.408667
67.095 21.675747
67.100 21.059151
67.105 20.944256
67.110 21.23963
67.115 21.513119
67.120 21.81282
67.125 21.070604
67.130 20.468258
67.135 20.611988
67.140 20.192369
67.145 19.91938
67.150 19.077948
67.155 18.978464
67.160 19.506903
67.165 19.529757
67.170 19.403242
67.175 19.313046
67.180 19.67207
67.185 19.929338
67.190 19.897642
67.195 19.422417
67.200 19.469709
67.205 19.354521
67.210 19.44673
67.215 19.533976
67.220 20.107779
67.225 20.544369
67.230 21.154003
67.235 21.178175
67.240 21.628807
67.245 21.210939
67.250 20.684576
67.255 20.519846
67.260 20.19857
67.265 19.837467
67.270 19.923386
67.275 19.956715
67.280 20.136618
67.285 20.067404
67.290 19.697309
67.295 19.323235
67.300 19.310228
67.305 19.599989
67.310 19.694107
67.315 19.366564
67.320 19.34049
67.325 19.133678
67.330 18.611385
67.335 18.189217
67.340 18.264908
67.345 18.963938
67.350 19.316475
67.355 19.390619
67.360 19.804937
67.365 20.47801
67.370 20.688871
67.375 20.647303
67.380 20.325125
67.385 19.928446
67.390 19.732956
67.395 19.455902
67.400 19.428852
67.405 19.34515
67.410 18.763586
67.415 18.636467
67.420 18.869389
67.425 18.939758
67.430 19.285669
67.435 19.194948
67.440 19.337595
67.445 19.652311
67.450 19.968031
67.455 20.186049
67.460 20.411417
67.465 20.089439
67.470 20.104187
67.475 20.263008
67.480 19.877331
67.485 19.736526
67.490 19.785074
67.495 19.203659
67.500 19.359871
67.505 19.809671
67.510 19.520294
67.515 19.982731
67.520 20.12908
67.525 20.296085
67.530 20.505091
67.535 20.170767
67.540 19.620659
67.545 19.57937
67.550 19.393143
67.555 19.544836
67.560 19.670439
67.565 19.841476
67.570 19.694563
67.575 19.360718
67.580 19.636906
67.585 19.564138
67.590 19.173628
67.595 19.636087
67.600 19.845392
67.605 20.64625
67.610 21.095116
67.615 20.868601
67.620 21.052305
67.625 21.547213
67.630 20.314631
67.635 19.794641
67.640 19.22633
67.645 18.974495
67.650 18.860872
67.655 19.28371
67.660 18.614922
67.665 18.647846
67.670 18.503901
67.675 18.89476
67.680 19.523163
67.685 19.643549
67.690 18.643354
67.695 19.077642
67.700 19.346113
67.705 19.436575
67.710 19.325193
67.715 18.757742
67.720 18.67182
67.725 19.638439
67.730 20.014944
67.735 20.656313
67.740 20.626661
67.745 20.90304
67.750 21.338007
67.755 21.085873
67.760 20.192253
67.765 20.273249
67.770 20.561577
67.775 20.873009
67.780 20.782932
67.785 20.568729
67.790 21.01803
67.795 21.149149
67.800 20.58403
67.805 20.705177
67.810 20.673841
67.815 20.202791
67.820 20.488039
67.825 20.515852
67.830 20.348007
67.835 20.231373
67.840 18.726133
67.845 18.593115
67.850 18.596447
67.855 18.098459
67.860 18.131706
67.865 18.402264
67.870 18.655418
67.875 19.482119
67.880 19.2314
67.885 19.18269
67.890 18.732418
67.895 18.604404
67.900 18.268042
67.905 18.43014
67.910 18.591478
67.915 18.685469
67.920 19.073454
67.925 19.403362
67.930 19.140139
67.935 18.876907
67.940 18.809765
67.945 18.822609
67.950 19.149416
67.955 19.597103
67.960 19.855286
67.965 19.912611
67.970 20.192099
67.975 20.313711
67.980 20.831402
67.985 20.512125
67.990 20.717123
67.995 20.585346
68.000 20.931387
68.005 21.263563
68.010 20.674011
68.015 20.356335
68.020 20.486523
68.025 20.186871
68.030 20.468338
68.035 20.760172
68.040 21.475016
68.045 22.406279
68.050 22.398424
68.055 22.181475
68.060 22.287256
68.065 22.429935
68.070 22.255123
68.075 21.382099
68.080 19.975157
68.085 19.986267
68.090 20.152517
68.095 19.937412
68.100 19.694035
68.105 19.107458
68.110 19.309525
68.115 19.681902
68.120 19.598143
68.125 19.549175
68.130 19.592138
68.135 19.866678
68.140 20.357004
68.145 20.890043
68.150 21.095451
68.155 21.064342
68.160 20.65764
68.165 20.316002
68.170 19.632109
68.175 19.162464
68.180 18.734171
68.185 18.943859
68.190 19.769794
68.195 20.36569
68.200 20.443726
68.205 21.169655
68.210 21.413181
68.215 21.872091
68.220 22.042633
68.225 21.458729
68.230 20.920792
68.235 20.583759
68.240 19.915043
68.245 20.011095
68.250 20.216812
68.255 19.572752
68.260 19.36916
68.265 19.673046
68.270 20.004097
68.275 20.509802
68.280 19.959209
68.285 19.165302
68.290 19.741455
68.295 20.112894
68.300 19.861876
68.305 19.632643
68.310 19.243465
68.315 19.28891
68.320 19.402134
68.325 19.062021
68.330 18.857151
68.335 19.425575
68.340 19.710608
68.345 19.486586
68.350 19.677954
68.355 19.653301
68.360 19.60564
68.365 19.393484
68.370 19.666206
68.375 19.85944
68.380 20.651146
68.385 21.460646
68.390 21.652094
68.395 21.405138
68.400 21.105581
68.405 20.231506
68.410 20.20978
68.415 20.088001
68.420 19.652538
68.425 19.527878
68.430 20.328959
68.435 20.639189
68.440 21.199921
68.445 21.281364
68.450 21.90387
68.455 22.130545
68.460 22.199024
68.465 22.059376
68.470 21.897789
68.475 21.785669
68.480 21.44887
68.485 21.255877
68.490 21.044868
68.495 21.383574
68.500 21.7918
68.505 21.476072
68.510 21.02107
68.515 21.447573
68.520 21.366079
68.525 20.823402
68.530 20.451609
68.535 20.420658
68.540 20.704826
68.545 21.170094
68.550 21.136106
68.555 20.791107
68.560 21.129799
68.565 21.842752
68.570 22.393093
68.575 22.614916
68.580 22.281273
68.585 22.141111
68.590 22.417206
68.595 22.611172
68.600 22.07394
68.605 21.598921
68.610 21.482826
68.615 21.409576
68.620 21.569895
68.625 21.829466
68.630 22.036608
68.635 22.496777
68.640 23.305307
68.645 23.687965
68.650 23.906727
68.655 24.473387
68.660 25.018845
68.665 25.390154
68.670 25.403736
68.675 25.60676
68.680 25.829407
68.685 26.173679
68.690 26.1119
68.695 26.520851
68.700 26.650938
68.705 26.945923
68.710 26.996124
68.715 26.649532
68.720 26.423832
68.725 26.12541
68.730 25.987783
68.735 26.066153
68.740 26.336262
68.745 26.295849
68.750 26.810978
68.755 27.150782
68.760 27.664427
68.765 27.748072
68.770 27.846365
68.775 27.440571
68.780 27.845879
68.785 28.258034
68.790 27.881044
68.795 27.914492
68.800 27.109573
68.805 26.936691
68.810 27.109314
68.815 27.14518
68.820 27.108553
68.825 27.833197
68.830 27.468756
68.835 28.245667
68.840 28.462605
68.845 28.617985
68.850 28.450167
68.855 28.53434
68.860 28.013626
68.865 27.995441
68.870 27.723396
68.875 26.953688
68.880 26.610104
68.885 26.629889
68.890 26.718546
68.895 26.972422
68.900 27.729771
68.905 28.561893
68.910 28.792496
68.915 29.328672
68.920 29.798761
68.925 29.892502
68.930 30.264513
68.935 30.81295
68.940 30.546494
68.945 30.504673
68.950 30.262943
68.955 30.404644
68.960 30.537704
68.965 30.310783
68.970 29.797142
68.975 30.159637
68.980 30.885096
68.985 30.902493
68.990 30.70422
68.995 31.260391
69.000 31.487078
69.005 30.710073
69.010 30.010578
69.015 29.387371
69.020 29.660715
69.025 30.401831
69.030 30.418894
69.035 30.240196
69.040 30.7586
69.045 31.37232
69.050 31.618151
69.055 31.393803
69.060 31.033205
69.065 30.448687
69.070 30.241129
69.075 30.054337
69.080 30.202425
69.085 30.832663
69.090 30.225389
69.095 29.952511
69.100 31.756042
69.105 32.460411
69.110 33.260994
69.115 33.07906
69.120 32.941956
69.125 33.584061
69.130 33.903961
69.135 33.027935
69.140 33.315971
69.145 33.034649
69.150 32.970108
69.155 33.048157
69.160 33.288044
69.165 33.062618
69.170 33.085133
69.175 32.835979
69.180 32.672436
69.185 33.062588
69.190 32.792576
69.195 32.487869
69.200 32.602375
69.205 32.197002
69.210 31.909975
69.215 31.865543
69.220 32.49247
69.225 32.424801
69.230 32.376675
69.235 31.948313
69.240 32.176811
69.245 32.630493
69.250 32.356197
69.255 31.823542
69.260 31.604618
69.265 31.673632
69.270 31.818293
69.275 31.914928
69.280 31.746159
69.285 31.230473
69.290 30.72584
69.295 30.976477
69.300 31.450268
69.305 31.935165
69.310 31.822439
69.315 32.386917
69.320 33.405922
69.325 33.860027
69.330 33.015034
69.335 31.963751
69.340 31.291843
69.345 30.905369
69.350 30.566164
69.355 30.774706
69.360 31.129004
69.365 31.990065
69.370 32.215302
69.375 32.443745
69.380 32.405869
69.385 31.851023
69.390 31.803188
69.395 31.377838
69.400 30.773132
69.405 30.499514
69.410 30.312002
69.415 30.794378
69.420 30.081194
69.425 29.957863
69.430 29.988205
69.435 30.719219
69.440 31.002296
69.445 30.914848
69.450 31.024197
69.455 31.244871
69.460 31.264339
69.465 31.53158
69.470 30.803276
69.475 31.040941
69.480 31.387829
69.485 31.63339
69.490 31.392262
69.495 30.219688
69.500 30.289112
69.505 30.342747
69.510 29.737675
69.515 28.563379
69.520 28.124325
69.525 28.519724
69.530 28.176949
69.535 27.746019
69.540 27.739635
69.545 28.607738
69.550 29.217529
69.555 28.636683
69.560 28.87804
69.565 29.622082
69.570 29.705297
69.575 29.668436
69.580 29.310789
69.585 29.532343
69.590 29.696571
69.595 29.238926
69.600 28.504719
69.605 27.85421
69.610 27.641169
69.615 27.28933
69.620 27.010654
69.625 26.675762
69.630 27.052658
69.635 27.923439
69.640 27.751402
69.645 27.45727
69.650 27.392586
69.655 27.078976
69.660 27.895443
69.665 27.594872
69.670 27.382696
69.675 27.746933
69.680 27.782537
69.685 28.017191
69.690 28.189894
69.695 27.71693
69.700 27.20859
69.705 26.686363
69.710 26.244921
69.715 25.930048
69.720 25.98702
69.725 25.750557
69.730 25.504641
69.735 25.375755
69.740 25.53278
69.745 25.860857
69.750 25.686438
69.755 25.751141
69.760 25.939377
69.765 25.579185
69.770 25.529987
69.775 25.572474
69.780 25.841127
69.785 25.569603
69.790 24.978441
69.795 24.752853
69.800 25.125076
69.805 25.078545
69.810 24.805447
69.815 24.766834
69.820 24.24966
69.825 23.287664
69.830 23.265554
69.835 22.949194
69.840 22.908611
69.845 22.436256
69.850 22.29425
69.855 23.228561
69.860 23.848974
69.865 23.833292
69.870 24.024431
69.875 24.153269
69.880 24.146391
69.885 23.851433
69.890 23.477966
69.895 22.909817
69.900 22.957073
69.905 22.577509
69.910 22.237808
69.915 22.343081
69.920 22.423719
69.925 21.349182
69.930 20.964142
69.935 20.469425
69.940 20.70381
69.945 20.882771
69.950 20.576063
69.955 20.903364
69.960 22.257654
69.965 22.542606
69.970 22.651869
69.975 22.304626
69.980 22.181875
69.985 21.90748
69.990 21.56263
69.995 21.265327
70.000 21.213343
70.005 21.089146
70.010 20.51108
70.015 20.121437
70.020 19.844526
70.025 19.6404
70.030 19.950466
70.035 19.929213
70.040 19.906504
70.045 20.257366
70.050 20.476032
70.055 20.469061
70.060 20.386885
70.065 20.107317
70.070 20.699535
70.075 20.660358
70.080 20.720749
70.085 20.416584
70.090 20.98135
70.095 20.926954
70.100 20.420698
70.105 19.84812
70.110 19.986914
70.115 20.273275
70.120 20.465584
70.125 20.324635
70.130 20.3524
70.135 21.1416
70.140 21.433466
70.145 21.079275
70.150 20.434153
70.155 20.691378
70.160 20.470146
70.165 20.466022
70.170 19.644506
70.175 19.473722
70.180 19.703867
70.185 20.637972
70.190 20.143444
70.195 19.968546
70.200 19.888435
70.205 19.634726
70.210 19.858492
70.215 19.67495
70.220 20.018421
70.225 19.639065
70.230 19.350525
70.235 18.86537
70.240 18.357569
70.245 18.553062
70.250 18.734367
70.255 18.449106
70.260 18.820053
70.265 18.952444
70.270 19.094603
70.275 19.278368
70.280 19.16251
70.285 18.224012
70.290 17.907429
70.295 18.099279
70.300 18.052462
70.305 18.816889
70.310 19.175852
70.315 18.730234
70.320 18.970722
70.325 18.928051
70.330 19.102499
70.335 19.363396
70.340 19.346094
70.345 19.717922
70.350 20.470491
70.355 20.89468
70.360 20.216526
70.365 20.298107
70.370 19.955891
70.375 18.926296
70.380 18.743231
70.385 18.274994
70.390 18.098341
70.395 18.449972
70.400 17.866716
70.405 18.214172
70.410 18.288424
70.415 17.480118
70.420 18.03548
70.425 18.698343
70.430 19.29372
70.435 19.521441
70.440 20.062176
70.445 20.564516
70.450 20.719301
70.455 20.491922
70.460 19.797119
70.465 19.77644
70.470 19.755945
70.475 18.736645
70.480 18.513426
70.485 18.599348
70.490 18.513166
70.495 18.329849
70.500 17.969509
70.505 18.754051
70.510 19.23839
70.515 19.592663
70.520 19.106081
70.525 18.673771
70.530 18.492636
70.535 17.860682
70.540 17.124113
70.545 17.212751
70.550 17.768456
70.555 19.056311
70.560 20.236673
70.565 21.041195
70.570 21.308468
70.575 21.20994
70.580 21.582939
70.585 20.773878
70.590 19.702599
70.595 19.341837
70.600 19.126083
70.605 19.493599
70.610 19.551445
70.615 18.424997
70.620 18.518894
70.625 18.648359
70.630 18.269726
70.635 17.774927
70.640 17.710928
70.645 17.917105
70.650 19.430798
70.655 19.439642
70.660 19.762571
70.665 20.173975
70.670 20.635384
70.675 21.083239
70.680 20.590416
70.685 19.804676
70.690 20.24847
70.695 20.448669
70.700 20.330229
70.705 19.66473
70.710 19.233772
70.715 19.583502
70.720 19.466852
70.725 18.782612
70.730 18.206604
70.735 18.594887
70.740 18.93502
70.745 18.894753
70.750 18.836884
70.755 19.032015
70.760 19.207874
70.765 19.325541
70.770 19.444492
70.775 19.289999
70.780 19.331966
70.785 18.492878
70.790 18.865683
70.795 18.78359
70.800 18.514378
70.805 18.444942
70.810 18.537016
70.815 18.678894
70.820 19.331491
70.825 18.379572
70.830 18.879074
70.835 19.516102
70.840 19.230104
70.845 19.413948
70.850 19.002865
70.855 18.853741
70.860 19.067223
70.865 19.316252
70.870 19.474545
70.875 19.004002
70.880 18.985224
70.885 18.678474
70.890 18.837561
70.895 18.943493
70.900 18.637634
70.905 18.328676
70.910 19.122812
70.915 19.553022
70.920 19.865908
70.925 19.747442
70.930 19.486374
70.935 19.522753
70.940 19.19614
70.945 18.908718
70.950 18.713221
70.955 18.696865
70.960 18.07165
70.965 17.443989
70.970 17.49139
70.975 17.966728
70.980 18.015665
70.985 18.148378
70.990 18.328339
70.995 18.311762
71.000 18.267305
71.005 18.306082
71.010 17.862909
71.015 17.491587
71.020 17.34236
71.025 18.256979
71.030 18.994316
71.035 19.234663
71.040 19.730064
71.045 20.1766
71.050 20.980516
71.055 21.290812
71.060 20.822826
71.065 20.655909
71.070 20.546099
71.075 20.432409
71.080 20.265886
71.085 19.367504
71.090 19.060955
71.095 19.421421
71.100 19.32873
71.105 18.872511
71.110 18.44347
71.115 18.459709
71.120 18.723335
71.125 18.500235
71.130 18.377541
71.135 18.753958
71.140 19.161207
71.145 18.951023
71.150 18.580925
71.155 18.668482
71.160 18.965937
71.165 19.314323
71.170 19.534563
71.175 19.92721
71.180 20.210457
71.185 20.396109
71.190 20.135874
71.195 19.910332
71.200 20.058096
71.205 20.135946
71.210 19.508036
71.215 19.469152
71.220 19.627077
71.225 19.76531
71.230 19.357588
71.235 18.483757
71.240 18.376932
71.245 18.89913
71.250 19.051018
71.255 19.455965
71.260 19.3022
71.265 19.659725
71.270 20.165243
71.275 19.584217
71.280 19.384441
71.285 18.517653
71.290 18.459169
71.295 18.165749
71.300 17.524496
71.305 17.156757
71.310 17.118231
71.315 16.888325
71.320 17.436226
71.325 17.513029
71.330 18.741447
71.335 19.472357
71.340 19.866947
71.345 19.7619
71.350 19.670137
71.355 19.662722
71.360 19.054487
71.365 17.583639
71.370 17.492897
71.375 17.509281
71.380 17.252756
71.385 17.16761
71.390 16.917919
71.395 17.354538
71.400 18.216049
71.405 18.111059
71.410 17.807398
71.415 18.034912
71.420 18.480917
71.425 18.721071
71.430 18.104181
71.435 18.162132
71.440 17.701679
71.445 18.081253
71.450 18.342493
71.455 18.321119
71.460 18.4603
71.465 19.323675
71.470 20.187048
71.475 20.85231
71.480 21.346487
71.485 21.371719
71.490 21.102287
71.495 20.941717
71.500 20.883263
71.505 20.583122
71.510 20.463606
71.515 20.088663
71.520 20.011002
71.525 20.318239
71.530 20.304409
71.535 19.93593
71.540 19.598175
71.545 18.743139
71.550 19.418402
71.555 19.301424
71.560 19.249802
71.565 18.571857
71.570 18.474239
71.575 18.666452
71.580 19.03904
71.585 19.046806
71.590 19.158165
71.595 19.428656
71.600 19.090611
71.605 18.103989
71.610 17.990183
71.615 17.708527
71.620 17.796671
71.625 17.990541
71.630 17.696201
71.635 18.439358
71.640 18.882498
71.645 19.460926
71.650 19.501558
71.655 18.714237
71.660 18.205149
71.665 18.238878
71.670 18.249237
71.675 18.335468
71.680 18.096256
71.685 17.778334
71.690 17.906399
71.695 18.662073
71.700 18.853741
71.705 19.164722
71.710 19.592585
71.715 19.543127
71.720 19.916035
71.725 19.818472
71.730 19.35582
71.735 18.977989
71.740 18.695078
71.745 18.516102
71.750 18.322821
71.755 18.254913
71.760 18.068716
71.765 18.731791
71.770 18.91004
71.775 18.577913
71.780 18.75942
71.785 18.706779
71.790 18.811193
71.795 19.369307
71.800 19.304626
71.805 19.291628
71.810 19.369633
71.815 18.781069
71.820 19.308901
71.825 19.318804
71.830 19.08913
71.835 18.875032
71.840 18.898081
71.845 19.102221
71.850 19.517721
71.855 19.109735
71.860 18.805695
71.865 19.099825
71.870 19.193182
71.875 19.29977
71.880 18.837025
71.885 19.410929
71.890 19.558525
71.895 19.079365
71.900 18.338394
71.905 18.449108
71.910 18.643036
71.915 18.700108
71.920 18.87133
71.925 18.677206
71.930 19.349619
71.935 19.622894
71.940 19.998276
71.945 19.833082
71.950 19.387321
71.955 18.7971
71.960 19.436298
71.965 19.419462
71.970 18.949575
71.975 18.180569
71.980 18.444582
71.985 18.948891
71.990 19.130123
71.995 19.012032
72.000 18.926159
72.005 19.138121
72.010 19.270634
72.015 19.550762
72.020 19.775314
72.025 19.705099
72.030 19.438635
72.035 19.305836
72.040 19.564959
72.045 19.715302
72.050 18.796268
72.055 18.921713
72.060 19.037868
72.065 19.070295
72.070 19.372778
72.075 18.953842
72.080 18.583899
72.085 18.550104
72.090 18.171738
72.095 17.719967
72.100 17.499384
72.105 17.415161
72.110 17.723959
72.115 17.723528
72.120 17.559391
72.125 17.150734
72.130 17.091925
72.135 17.174625
72.140 17.045673
72.145 16.774555
72.150 17.614227
72.155 17.729137
72.160 18.128992
72.165 18.320889
72.170 18.041403
72.175 18.318039
72.180 18.297319
72.185 18.109953
72.190 18.209682
72.195 18.530228
72.200 19.23937
72.205 19.148016
72.210 18.766701
72.215 19.131289
72.220 18.781446
72.225 18.966866
72.230 19.087097
72.235 18.590988
72.240 19.210043
72.245 19.285904
72.250 18.809309
72.255 18.830196
72.260 18.482025
72.265 18.31493
72.270 17.905704
72.275 17.524776
72.280 17.488775
72.285 17.531412
72.290 17.403894
72.295 17.361977
72.300 18.141077
72.305 18.027485
72.310 17.366739
72.315 17.353712
72.320 17.027405
72.325 17.074244
72.330 16.792177
72.335 16.20648
72.340 16.292433
72.345 16.775345
72.350 17.755508
72.355 18.203604
72.360 17.79438
72.365 17.713818
72.370 17.634951
72.375 17.875849
72.380 17.644772
72.385 16.819208
72.390 17.525436
72.395 17.845942
72.400 18.170927
72.405 18.849997
72.410 19.328447
72.415 19.963631
72.420 19.907585
72.425 19.230276
72.430 19.424711
72.435 19.521217
72.440 19.085234
72.445 18.785826
72.450 18.701769
72.455 18.397125
72.460 18.442366
72.465 18.177118
72.470 18.087748
72.475 18.395866
72.480 18.196224
72.485 18.813108
72.490 19.030058
72.495 19.05681
72.500 19.40526
72.505 18.967459
72.510 18.421585
72.515 18.236588
72.520 18.81719
72.525 19.116072
72.530 18.985603
72.535 18.96813
72.540 19.321037
72.545 19.517809
72.550 19.093523
72.555 18.877325
72.560 18.449547
72.565 18.439026
72.570 18.031115
72.575 17.711348
72.580 17.679436
72.585 17.603626
72.590 17.874739
72.595 18.467682
72.600 18.719284
72.605 18.959803
72.610 18.968605
72.615 19.33305
72.620 18.89851
72.625 18.399702
72.630 17.940205
72.635 18.356256
72.640 18.836256
72.645 19.414978
72.650 19.323734
72.655 19.76457
72.660 20.370687
72.665 20.06114
72.670 19.736372
72.675 19.213163
72.680 18.644093
72.685 18.703335
72.690 18.656055
72.695 18.642405
72.700 19.109764
72.705 18.598486
72.710 18.147629
72.715 18.131931
72.720 17.999809
72.725 17.328659
72.730 16.982803
72.735 16.907162
72.740 17.36014
72.745 17.813723
72.750 17.894791
72.755 17.654732
72.760 17.511892
72.765 17.727571
72.770 17.687004
72.775 17.280262
72.780 16.824322
72.785 17.213356
72.790 18.026716
72.795 18.371077
72.800 17.928383
72.805 17.811592
72.810 17.954596
72.815 17.407597
72.820 16.419497
72.825 15.536912
72.830 14.874095
72.835 15.419389
72.840 15.993715
72.845 16.136572
72.850 16.818413
72.855 16.870764
72.860 17.27949
72.865 17.121439
72.870 16.701504
72.875 16.432497
72.880 16.656492
72.885 16.597075
72.890 16.540056
72.895 16.830326
72.900 17.049841
72.905 17.571665
72.910 17.584707
72.915 17.09613
72.920 16.829643
72.925 17.317663
72.930 17.485186
72.935 17.744509
72.940 17.422619
72.945 17.502705
72.950 18.085024
72.955 18.499367
72.960 18.301107
72.965 17.766235
72.970 17.268852
72.975 17.253513
72.980 17.660513
72.985 17.459656
72.990 17.052834
72.995 17.28821
73.000 17.355398
