!@!!GADDS PLOTSO FILE: Chi integration type
!@!!Title/SampleName: map-13c
!@!!Comment: ?
!@!!User: Bruker Instrument Administrator
!@!!Site: University of Illinois Chicago
!@!!Frame: map-13c_01_000.gfrm
!@!!Wavelengths    1.54184   1.54056   1.54439
!@!!Frame angles: 2Theta: 63.000 Omega: 50.000 Phi: 0.000 Chi: 90.000
!@!!Integration range: 2Theta: 53.000 to 73.000  Gamma: -105.000 to -75.000
!@!!Integration method: bin normalized
!@!N
!@!SS
!@!M
!@!L 0.0 0.0 0.0 0.0
!@!XDegrees
!@!YCounts
53.000 10.499804
53.005 10.814927
53.010 10.650167
53.015 10.528845
53.020 10.823771
53.025 10.680898
53.030 10.622468
53.035 10.581598
53.040 10.886326
53.045 10.988796
53.050 11.035799
53.055 10.944529
53.060 11.084435
53.065 11.204229
53.070 11.149534
53.075 10.930431
53.080 10.868833
53.085 10.87058
53.090 11.137848
53.095 10.984082
53.100 11.046549
53.105 11.253338
53.110 11.631872
53.115 11.563249
53.120 10.977361
53.125 10.4471
53.130 10.532494
53.135 10.805359
53.140 10.610771
53.145 9.8746
53.150 9.984961
53.155 10.701979
53.160 10.996368
53.165 10.471749
53.170 10.202485
53.175 10.4938
53.180 10.46523
53.185 10.668444
53.190 10.659915
53.195 10.994094
53.200 11.063971
53.205 11.139879
53.210 11.308669
53.215 11.279626
53.220 10.968039
53.225 10.784792
53.230 10.504916
53.235 10.702767
53.240 10.719335
53.245 10.378203
53.250 10.365552
53.255 10.410759
53.260 10.599722
53.265 10.797304
53.270 9.988284
53.275 9.626496
53.280 9.863585
53.285 9.756763
53.290 9.529815
53.295 9.458395
53.300 9.345204
53.305 9.768973
53.310 10.01691
53.315 9.994411
53.320 10.965955
53.325 11.486854
53.330 11.66475
53.335 12.0313
53.340 12.119201
53.345 12.393043
53.350 12.19832
53.355 11.538275
53.360 11.093873
53.365 10.944998
53.370 11.290902
53.375 11.25727
53.380 10.864835
53.385 10.872685
53.390 10.668854
53.395 10.65299
53.400 10.466373
53.405 10.081836
53.410 10.137365
53.415 10.677047
53.420 10.886107
53.425 10.909881
53.430 11.248772
53.435 11.376166
53.440 11.491263
53.445 11.714562
53.450 11.771777
53.455 11.642948
53.460 11.793964
53.465 12.220012
53.470 11.999432
53.475 12.036885
53.480 11.732938
53.485 11.424723
53.490 11.986604
53.495 11.855761
53.500 11.581344
53.505 11.583647
53.510 11.684536
53.515 12.101631
53.520 12.649797
53.525 12.202127
53.530 11.667777
53.535 11.411638
53.540 11.055062
53.545 10.600139
53.550 10.090991
53.555 10.314695
53.560 10.872702
53.565 11.414801
53.570 11.379557
53.575 11.816371
53.580 12.03198
53.585 11.859044
53.590 11.317494
53.595 10.717155
53.600 10.696137
53.605 11.034765
53.610 11.46759
53.615 11.720465
53.620 11.565223
53.625 11.450874
53.630 11.03404
53.635 10.608307
53.640 10.205315
53.645 9.669053
53.650 9.759576
53.655 10.202778
53.660 10.907279
53.665 11.678298
53.670 11.914491
53.675 12.022079
53.680 12.283097
53.685 11.995177
53.690 12.065718
53.695 12.084423
53.700 11.785108
53.705 11.899172
53.710 11.896078
53.715 11.894094
53.720 12.505543
53.725 12.099792
53.730 12.520189
53.735 12.985387
53.740 12.890629
53.745 13.180417
53.750 12.961191
53.755 12.336922
53.760 11.968642
53.765 11.452013
53.770 11.11346
53.775 11.204641
53.780 10.927527
53.785 10.821778
53.790 10.474934
53.795 9.981518
53.800 10.084335
53.805 10.360931
53.810 10.221551
53.815 10.076255
53.820 9.946956
53.825 10.329737
53.830 10.472933
53.835 10.560396
53.840 10.317486
53.845 10.162148
53.850 10.109166
53.855 10.06948
53.860 10.449018
53.865 10.46662
53.870 10.46111
53.875 10.864765
53.880 11.335502
53.885 11.44146
53.890 11.752263
53.895 11.818069
53.900 11.722787
53.905 11.411691
53.910 10.908772
53.915 10.338216
53.920 10.620451
53.925 10.179646
53.930 10.107674
53.935 10.480216
53.940 11.150986
53.945 12.048181
53.950 12.163116
53.955 12.207158
53.960 12.563353
53.965 12.601447
53.970 12.267966
53.975 11.589631
53.980 11.574471
53.985 11.82185
53.990 11.549429
53.995 10.982133
54.000 10.828603
54.005 10.972983
54.010 10.985759
54.015 10.484468
54.020 10.420159
54.025 10.58776
54.030 11.72792
54.035 12.087893
54.040 12.154487
54.045 11.818141
54.050 11.833238
54.055 11.760298
54.060 11.258151
54.065 10.458439
54.070 10.513852
54.075 10.951743
54.080 11.716112
54.085 12.095274
54.090 12.254072
54.095 12.479912
54.100 12.742175
54.105 12.416188
54.110 12.038778
54.115 11.877417
54.120 11.734195
54.125 11.723552
54.130 11.510317
54.135 11.623225
54.140 12.004093
54.145 11.861226
54.150 11.757056
54.155 11.870466
54.160 11.771991
54.165 11.384633
54.170 11.467075
54.175 11.354901
54.180 11.26178
54.185 11.460625
54.190 11.655827
54.195 11.753964
54.200 12.445117
54.205 12.244904
54.210 12.451238
54.215 12.328265
54.220 11.665131
54.225 11.546472
54.230 12.043633
54.235 11.761397
54.240 11.471002
54.245 11.869283
54.250 12.559036
54.255 13.342941
54.260 13.901828
54.265 13.545309
54.270 13.25861
54.275 13.262232
54.280 12.955912
54.285 12.21282
54.290 11.915598
54.295 11.57589
54.300 11.396514
54.305 11.579886
54.310 11.336738
54.315 11.408602
54.320 11.631097
54.325 11.109307
54.330 10.858736
54.335 11.059118
54.340 11.110771
54.345 11.44618
54.350 11.625654
54.355 11.628419
54.360 11.976649
54.365 12.086951
54.370 12.047292
54.375 12.199905
54.380 12.021736
54.385 12.008963
54.390 11.850583
54.395 11.930923
54.400 12.10455
54.405 12.234173
54.410 12.01613
54.415 11.829817
54.420 12.041157
54.425 12.280594
54.430 12.329196
54.435 12.534091
54.440 12.663495
54.445 12.709564
54.450 12.646536
54.455 12.543691
54.460 12.348342
54.465 12.098644
54.470 11.594875
54.475 11.422816
54.480 11.597602
54.485 10.923563
54.490 10.960674
54.495 11.435934
54.500 11.911758
54.505 11.756956
54.510 11.705067
54.515 11.93327
54.520 12.185725
54.525 12.15979
54.530 11.60237
54.535 11.762904
54.540 12.340173
54.545 12.33515
54.550 12.034378
54.555 12.210349
54.560 12.205795
54.565 12.088614
54.570 11.960175
54.575 11.792873
54.580 11.808332
54.585 11.941248
54.590 11.498321
54.595 11.162858
54.600 10.964417
54.605 10.97597
54.610 11.028396
54.615 11.096581
54.620 11.633802
54.625 11.89616
54.630 12.221642
54.635 12.494678
54.640 12.311071
54.645 12.088536
54.650 12.022862
54.655 12.218129
54.660 12.371928
54.665 12.390817
54.670 12.101665
54.675 11.932429
54.680 12.110834
54.685 12.133433
54.690 12.051324
54.695 11.451235
54.700 11.494524
54.705 11.787472
54.710 12.29348
54.715 11.883986
54.720 11.540306
54.725 11.389908
54.730 11.707695
54.735 11.582554
54.740 11.184637
54.745 11.456841
54.750 12.222346
54.755 12.706882
54.760 13.11454
54.765 13.14994
54.770 13.173256
54.775 12.558156
54.780 12.414787
54.785 11.57676
54.790 11.066053
54.795 10.686941
54.800 10.85227
54.805 11.258296
54.810 11.983488
54.815 12.142404
54.820 12.743251
54.825 12.879379
54.830 12.72258
54.835 12.377521
54.840 12.287511
54.845 11.818133
54.850 11.883906
54.855 11.87271
54.860 12.027587
54.865 12.245328
54.870 12.574569
54.875 12.734077
54.880 12.372962
54.885 12.275442
54.890 12.010011
54.895 11.618642
54.900 11.493886
54.905 11.608654
54.910 11.530981
54.915 12.392186
54.920 12.172969
54.925 12.47072
54.930 12.980466
54.935 13.442656
54.940 13.321643
54.945 13.638596
54.950 13.80391
54.955 13.728992
54.960 13.265574
54.965 12.983404
54.970 12.564018
54.975 12.218218
54.980 11.476769
54.985 11.099701
54.990 11.282071
54.995 11.128233
55.000 11.395856
55.005 11.72766
55.010 12.356757
55.015 12.594597
55.020 12.783805
55.025 12.964316
55.030 13.309078
55.035 12.716308
55.040 11.948207
55.045 11.822629
55.050 11.223948
55.055 11.216681
55.060 11.256989
55.065 11.552011
55.070 12.017696
55.075 12.07498
55.080 11.98052
55.085 12.250755
55.090 12.254085
55.095 12.59013
55.100 12.631162
55.105 12.599052
55.110 12.7498
55.115 12.730867
55.120 12.567928
55.125 12.08236
55.130 11.423043
55.135 11.18543
55.140 11.196186
55.145 11.352179
55.150 11.182923
55.155 11.684452
55.160 11.995644
55.165 12.102187
55.170 12.174387
55.175 12.42685
55.180 12.713899
55.185 12.989621
55.190 12.337441
55.195 11.874393
55.200 11.951184
55.205 12.261662
55.210 11.918027
55.215 11.880337
55.220 11.569787
55.225 11.982652
55.230 12.572859
55.235 13.016644
55.240 13.049767
55.245 13.262511
55.250 13.182798
55.255 13.578988
55.260 13.716529
55.265 13.654884
55.270 13.488836
55.275 13.60858
55.280 13.678903
55.285 13.982649
55.290 13.541162
55.295 13.211805
55.300 12.639272
55.305 12.093294
55.310 12.076489
55.315 11.779946
55.320 11.323005
55.325 11.882585
55.330 12.629104
55.335 13.349314
55.340 13.647
55.345 13.64773
55.350 13.636743
55.355 13.778177
55.360 13.671099
55.365 13.257754
55.370 12.730495
55.375 12.591032
55.380 12.430984
55.385 12.709137
55.390 12.412968
55.395 12.265789
55.400 12.521337
55.405 12.685799
55.410 12.639267
55.415 12.685223
55.420 12.804986
55.425 13.76334
55.430 13.742087
55.435 14.020269
55.440 14.198891
55.445 14.433443
55.450 14.463669
55.455 14.261311
55.460 13.491823
55.465 13.236454
55.470 13.141407
55.475 13.096282
55.480 12.451838
55.485 12.246666
55.490 12.459565
55.495 12.312956
55.500 11.855457
55.505 11.82774
55.510 11.962476
55.515 12.547817
55.520 12.621861
55.525 12.728716
55.530 13.63396
55.535 13.483204
55.540 13.313443
55.545 13.195812
55.550 13.494129
55.555 13.890553
55.560 13.50002
55.565 13.043101
55.570 13.17394
55.575 12.710875
55.580 12.954268
55.585 12.974472
55.590 12.692428
55.595 13.098239
55.600 13.164978
55.605 13.312477
55.610 13.752502
55.615 13.399104
55.620 12.897382
55.625 12.974367
55.630 12.744126
55.635 12.99801
55.640 12.867226
55.645 13.486485
55.650 13.475238
55.655 13.715808
55.660 13.519819
55.665 13.43191
55.670 12.584881
55.675 12.471189
55.680 11.695017
55.685 11.501173
55.690 11.199741
55.695 11.403579
55.700 11.146648
55.705 12.007247
55.710 12.067556
55.715 12.026073
55.720 12.592904
55.725 12.915077
55.730 12.988661
55.735 13.895963
55.740 14.00554
55.745 14.117798
55.750 14.519456
55.755 14.457265
55.760 14.326
55.765 13.626675
55.770 12.929091
55.775 12.844155
55.780 12.728852
55.785 12.665675
55.790 12.384705
55.795 12.358809
55.800 12.610582
55.805 12.107708
55.810 12.3361
55.815 12.452422
55.820 12.833327
55.825 13.367385
55.830 13.911627
55.835 14.910667
55.840 15.233104
55.845 15.340675
55.850 15.84
55.855 15.506787
55.860 14.828728
55.865 14.378426
55.870 13.773003
55.875 13.800056
55.880 13.610429
55.885 13.069198
55.890 12.738391
55.895 13.283566
55.900 13.471052
55.905 13.627631
55.910 13.354474
55.915 13.239738
55.920 13.460589
55.925 13.507257
55.930 13.384954
55.935 13.704123
55.940 13.986455
55.945 14.312918
55.950 14.707497
55.955 14.700828
55.960 14.838968
55.965 14.729124
55.970 14.652714
55.975 14.255002
55.980 13.843039
55.985 13.630342
55.990 13.40266
55.995 13.111342
56.000 13.020837
56.005 13.180684
56.010 13.822083
56.015 13.783325
56.020 13.904917
56.025 14.101098
56.030 14.484799
56.035 14.500029
56.040 14.267632
56.045 14.376883
56.050 14.6045
56.055 14.186701
56.060 13.72107
56.065 13.48915
56.070 13.233148
56.075 13.279715
56.080 12.892046
56.085 13.34602
56.090 13.741687
56.095 14.334694
56.100 14.910745
56.105 15.275973
56.110 15.399368
56.115 15.09746
56.120 14.32213
56.125 14.121386
56.130 13.708288
56.135 12.78739
56.140 12.603122
56.145 12.130953
56.150 12.640326
56.155 12.804348
56.160 12.50715
56.165 12.592271
56.170 13.152317
56.175 13.303792
56.180 13.31695
56.185 13.500527
56.190 14.123337
56.195 14.560238
56.200 14.62434
56.205 14.428135
56.210 13.643079
56.215 13.580662
56.220 13.421529
56.225 13.707322
56.230 13.998392
56.235 14.101278
56.240 13.844571
56.245 14.54396
56.250 14.608219
56.255 14.45501
56.260 14.067112
56.265 13.901519
56.270 14.058543
56.275 14.406424
56.280 14.13844
56.285 14.295599
56.290 14.414953
56.295 14.051809
56.300 13.999912
56.305 13.845716
56.310 13.866077
56.315 14.211924
56.320 13.725326
56.325 13.522973
56.330 13.134714
56.335 12.942978
56.340 12.718364
56.345 12.490515
56.350 12.860276
56.355 13.26648
56.360 13.372798
56.365 13.688863
56.370 13.90468
56.375 14.370093
56.380 14.315679
56.385 14.092402
56.390 14.032796
56.395 13.662151
56.400 13.899199
56.405 13.712227
56.410 13.187949
56.415 13.166231
56.420 12.696862
56.425 12.335643
56.430 12.670617
56.435 12.600285
56.440 13.140924
56.445 13.336268
56.450 13.560758
56.455 13.657208
56.460 14.038795
56.465 14.217894
56.470 14.389205
56.475 13.934264
56.480 13.862533
56.485 13.556826
56.490 14.265141
56.495 14.132116
56.500 13.532471
56.505 13.198569
56.510 13.535277
56.515 13.533618
56.520 13.115192
56.525 12.737666
56.530 12.992389
56.535 13.033466
56.540 13.282192
56.545 13.38668
56.550 13.661391
56.555 13.599385
56.560 13.385002
56.565 13.57469
56.570 14.305312
56.575 14.148602
56.580 13.971116
56.585 13.701448
56.590 14.452614
56.595 14.77369
56.600 14.421625
56.605 13.764488
56.610 13.249292
56.615 13.507839
56.620 13.337433
56.625 13.071114
56.630 13.326028
56.635 14.133908
56.640 14.775667
56.645 15.216272
56.650 15.005864
56.655 15.714755
56.660 16.251951
56.665 16.114248
56.670 15.631261
56.675 15.826456
56.680 16.164234
56.685 16.536346
56.690 16.121845
56.695 15.557179
56.700 15.267361
56.705 15.379389
56.710 15.093137
56.715 14.69957
56.720 14.43759
56.725 14.449164
56.730 14.790054
56.735 14.458755
56.740 14.348679
56.745 14.545835
56.750 14.637568
56.755 15.029202
56.760 15.149089
56.765 14.772672
56.770 15.764174
56.775 15.942411
56.780 15.884186
56.785 16.522593
56.790 16.327822
56.795 16.292997
56.800 16.457823
56.805 16.551754
56.810 16.392809
56.815 16.026968
56.820 16.299316
56.825 16.471153
56.830 16.144711
56.835 16.083899
56.840 15.50224
56.845 15.826137
56.850 15.64503
56.855 14.942598
56.860 14.799267
56.865 14.86799
56.870 14.660258
56.875 14.496943
56.880 14.792902
56.885 14.732964
56.890 14.723677
56.895 14.830202
56.900 15.202533
56.905 15.413663
56.910 15.338744
56.915 15.150556
56.920 15.1876
56.925 15.297371
56.930 15.192749
56.935 14.910975
56.940 14.663512
56.945 14.611418
56.950 14.39664
56.955 14.300854
56.960 13.951032
56.965 13.84483
56.970 14.478562
56.975 14.470015
56.980 14.302678
56.985 14.372998
56.990 14.624869
56.995 15.105106
57.000 14.940875
57.005 14.588646
57.010 14.868373
57.015 15.302897
57.020 15.112274
57.025 14.394108
57.030 14.198596
57.035 13.956563
57.040 13.486357
57.045 12.679962
57.050 12.572943
57.055 13.010463
57.060 13.154015
57.065 12.945817
57.070 13.249176
57.075 13.836309
57.080 14.457801
57.085 14.178493
57.090 14.127355
57.095 14.176829
57.100 14.378379
57.105 14.614932
57.110 14.869555
57.115 14.887031
57.120 14.895977
57.125 14.771675
57.130 15.07826
57.135 15.502673
57.140 15.5709
57.145 15.42178
57.150 16.289837
57.155 17.046261
57.160 17.245787
57.165 16.903656
57.170 16.790953
57.175 16.788895
57.180 16.236416
57.185 15.347381
57.190 14.541821
57.195 15.039509
57.200 15.526005
57.205 15.05884
57.210 15.419532
57.215 15.506254
57.220 15.528559
57.225 15.201946
57.230 14.52771
57.235 14.623164
57.240 14.826262
57.245 14.278575
57.250 14.2242
57.255 14.393695
57.260 15.034295
57.265 15.807571
57.270 15.620316
57.275 15.099082
57.280 14.988647
57.285 15.181066
57.290 15.59694
57.295 15.548256
57.300 15.602021
57.305 16.751389
57.310 17.451363
57.315 17.495274
57.320 17.600218
57.325 17.157486
57.330 17.369232
57.335 16.810638
57.340 16.367895
57.345 16.28311
57.350 16.269049
57.355 16.332327
57.360 15.998729
57.365 15.978695
57.370 15.848974
57.375 15.576579
57.380 15.436234
57.385 15.391346
57.390 15.424026
57.395 15.693211
57.400 15.394626
57.405 15.825819
57.410 16.236349
57.415 16.195229
57.420 16.744833
57.425 16.722012
57.430 16.633263
57.435 16.681038
57.440 16.440733
57.445 16.294434
57.450 17.255627
57.455 17.009659
57.460 16.906691
57.465 17.241032
57.470 17.302429
57.475 17.013493
57.480 16.621052
57.485 16.36553
57.490 16.503038
57.495 17.003695
57.500 17.080061
57.505 17.156612
57.510 17.286465
57.515 17.599903
57.520 17.168701
57.525 16.729855
57.530 16.249506
57.535 16.319338
57.540 16.189455
57.545 15.902437
57.550 15.773646
57.555 15.736652
57.560 16.362988
57.565 17.12015
57.570 17.093422
57.575 17.6257
57.580 17.747721
57.585 17.568941
57.590 18.116196
57.595 17.764374
57.600 17.177458
57.605 17.238707
57.610 16.754431
57.615 16.807144
57.620 16.846687
57.625 15.86626
57.630 15.614966
57.635 15.216949
57.640 14.973106
57.645 15.209006
57.650 15.267452
57.655 15.715355
57.660 17.442436
57.665 17.52916
57.670 17.78545
57.675 18.174372
57.680 18.439539
57.685 18.421625
57.690 18.154303
57.695 17.193518
57.700 17.49419
57.705 16.974798
57.710 16.894537
57.715 17.062843
57.720 17.054783
57.725 16.984108
57.730 16.89119
57.735 16.872009
57.740 17.14665
57.745 16.989454
57.750 17.124775
57.755 17.410688
57.760 17.775442
57.765 18.352282
57.770 18.485394
57.775 18.505449
57.780 18.086264
57.785 17.717325
57.790 17.515387
57.795 17.581299
57.800 17.260454
57.805 17.596075
57.810 17.720325
57.815 18.001202
57.820 18.348459
57.825 18.538122
57.830 18.603395
57.835 18.731987
57.840 18.72331
57.845 18.562979
57.850 18.652935
57.855 18.39872
57.860 17.952114
57.865 17.592751
57.870 17.588591
57.875 17.413643
57.880 18.060556
57.885 18.506889
57.890 18.47855
57.895 18.421394
57.900 18.028008
57.905 17.771351
57.910 17.7272
57.915 16.848871
57.920 15.857562
57.925 15.823437
57.930 16.130436
57.935 16.584352
57.940 16.50164
57.945 16.519619
57.950 16.693157
57.955 16.964865
57.960 16.810556
57.965 16.24004
57.970 16.056219
57.975 16.152269
57.980 16.014103
57.985 16.170179
57.990 16.368649
57.995 16.637321
58.000 17.063957
58.005 16.74799
58.010 16.408331
58.015 16.370628
58.020 16.63661
58.025 17.188158
58.030 17.358416
58.035 17.170931
58.040 17.652576
58.045 18.036282
58.050 18.228563
58.055 18.00596
58.060 18.07637
58.065 18.483902
58.070 18.83127
58.075 19.194921
58.080 18.971123
58.085 18.907349
58.090 18.988762
58.095 18.676682
58.100 18.38171
58.105 18.376862
58.110 18.610897
58.115 18.595989
58.120 18.520475
58.125 17.966982
58.130 18.083319
58.135 17.883924
58.140 18.058933
58.145 18.353371
58.150 19.105589
58.155 19.098288
58.160 19.78974
58.165 19.850746
58.170 20.197496
58.175 20.196091
58.180 19.651489
58.185 19.401087
58.190 20.168705
58.195 19.994127
58.200 20.574268
58.205 20.200113
58.210 20.594063
58.215 20.89888
58.220 21.635809
58.225 21.860975
58.230 22.045479
58.235 21.89035
58.240 22.146448
58.245 22.288654
58.250 22.374573
58.255 21.554834
58.260 21.641293
58.265 21.545538
58.270 21.489729
58.275 21.537367
58.280 20.849762
58.285 21.00185
58.290 21.787731
58.295 21.7094
58.300 21.991415
58.305 22.692705
58.310 23.107172
58.315 23.896566
58.320 24.446316
58.325 24.213818
58.330 24.49824
58.335 25.367626
58.340 25.536943
58.345 25.879009
58.350 26.346945
58.355 26.867943
58.360 27.141754
58.365 27.400299
58.370 26.881701
58.375 26.967924
58.380 26.918436
58.385 27.249346
58.390 27.817078
58.395 28.189182
58.400 27.993341
58.405 27.763571
58.410 28.122742
58.415 28.271296
58.420 28.437777
58.425 28.237692
58.430 29.031466
58.435 29.972746
58.440 30.894461
58.445 31.200081
58.450 31.327003
58.455 30.913963
58.460 30.72434
58.465 30.079035
58.470 29.972242
58.475 29.493437
58.480 29.361898
58.485 29.780073
58.490 29.668558
58.495 29.994921
58.500 30.586676
58.505 30.594334
58.510 30.928728
58.515 30.247997
58.520 29.528538
58.525 29.696451
58.530 29.714052
58.535 29.416506
58.540 29.672859
58.545 30.311302
58.550 31.28343
58.555 32.344482
58.560 32.143162
58.565 31.584457
58.570 31.064316
58.575 30.34631
58.580 29.18384
58.585 29.032606
58.590 28.711105
58.595 29.730452
58.600 30.318247
58.605 30.472334
58.610 30.713394
58.615 31.0404
58.620 31.373417
58.625 31.442589
58.630 31.326214
58.635 31.147722
58.640 31.882868
58.645 32.510643
58.650 31.831593
58.655 31.03866
58.660 30.713846
58.665 30.339907
58.670 30.527763
58.675 29.922915
58.680 29.279642
58.685 29.844294
58.690 30.191973
58.695 30.182259
58.700 29.829725
58.705 29.524574
58.710 29.433323
58.715 29.881397
58.720 29.384836
58.725 29.766422
58.730 29.51589
58.735 29.151833
58.740 29.161068
58.745 28.236773
58.750 27.949244
58.755 28.009874
58.760 27.336042
58.765 27.183083
58.770 26.910313
58.775 26.073193
58.780 25.876652
58.785 26.014847
58.790 25.816118
58.795 25.809435
58.800 25.427605
58.805 25.248585
58.810 26.339079
58.815 26.729939
58.820 25.764446
58.825 25.064667
58.830 25.045744
58.835 25.703161
58.840 25.300802
58.845 24.8125
58.850 24.763611
58.855 25.308477
58.860 25.668022
58.865 24.471836
58.870 22.289761
58.875 21.243923
58.880 20.648857
58.885 20.131001
58.890 19.745037
58.895 19.520197
58.900 20.328857
58.905 21.08786
58.910 21.654556
58.915 21.530981
58.920 21.327616
58.925 21.228094
58.930 21.012377
58.935 20.55687
58.940 20.256207
58.945 19.989634
58.950 19.499065
58.955 19.070127
58.960 19.341953
58.965 19.204235
58.970 19.129185
58.975 19.66095
58.980 20.508747
58.985 21.311068
58.990 21.643526
58.995 21.431715
59.000 21.650917
59.005 22.10425
59.010 21.944027
59.015 21.825851
59.020 21.242313
59.025 21.091328
59.030 21.242399
59.035 20.78096
59.040 20.760235
59.045 20.656364
59.050 20.299513
59.055 20.059353
59.060 20.180727
59.065 20.569921
59.070 21.044174
59.075 21.071712
59.080 21.240974
59.085 21.292988
59.090 21.519917
59.095 21.386826
59.100 21.262562
59.105 20.868654
59.110 19.922184
59.115 19.53537
59.120 19.747738
59.125 20.119179
59.130 19.890701
59.135 19.698891
59.140 20.12915
59.145 20.735292
59.150 20.561872
59.155 19.916002
59.160 19.299387
59.165 18.709524
59.170 18.43902
59.175 17.883232
59.180 17.79162
59.185 17.801325
59.190 17.868883
59.195 18.309849
59.200 18.869274
59.205 19.06695
59.210 19.017851
59.215 18.00849
59.220 17.77969
59.225 17.702906
59.230 17.689207
59.235 17.46093
59.240 16.890358
59.245 17.001326
59.250 16.910604
59.255 16.501862
59.260 16.423304
59.265 16.127062
59.270 16.28574
59.275 16.857029
59.280 16.901583
59.285 17.773998
59.290 18.36331
59.295 18.339632
59.300 18.562031
59.305 18.225948
59.310 18.037134
59.315 18.519102
59.320 17.629898
59.325 17.262506
59.330 17.204144
59.335 16.962843
59.340 17.079344
59.345 16.716787
59.350 16.441545
59.355 17.265682
59.360 17.20056
59.365 17.041243
59.370 16.783741
59.375 17.027493
59.380 17.050932
59.385 17.226076
59.390 17.459572
59.395 18.013264
59.400 18.788122
59.405 18.801239
59.410 18.597277
59.415 18.736704
59.420 18.416597
59.425 18.113363
59.430 18.081528
59.435 17.360083
59.440 17.750664
59.445 18.108891
59.450 17.959106
59.455 18.062819
59.460 18.245667
59.465 17.81576
59.470 17.961178
59.475 18.008114
59.480 17.196388
59.485 17.205648
59.490 16.983582
59.495 16.64521
59.500 17.212513
59.505 17.071711
59.510 16.609652
59.515 16.781101
59.520 17.119265
59.525 17.067989
59.530 17.084518
59.535 17.047747
59.540 17.170912
59.545 17.932957
59.550 18.116842
59.555 17.732861
59.560 17.654186
59.565 17.329418
59.570 17.159443
59.575 16.944269
59.580 16.606812
59.585 16.452707
59.590 16.598263
59.595 16.886063
59.600 17.118439
59.605 17.009645
59.610 17.240404
59.615 17.672365
59.620 17.319265
59.625 17.325365
59.630 17.762756
59.635 17.856695
59.640 17.6371
59.645 16.873432
59.650 16.526484
59.655 16.977974
59.660 17.057755
59.665 16.80533
59.670 17.040218
59.675 17.449299
59.680 17.428883
59.685 17.085691
59.690 16.805599
59.695 16.586775
59.700 16.20435
59.705 15.788862
59.710 16.018126
59.715 16.626118
59.720 17.018415
59.725 17.474115
59.730 17.478365
59.735 17.377136
59.740 17.394047
59.745 16.948483
59.750 16.188555
59.755 15.856794
59.760 15.215543
59.765 15.002978
59.770 14.64502
59.775 14.38498
59.780 14.527827
59.785 14.818298
59.790 14.924999
59.795 15.462496
59.800 16.195402
59.805 16.370193
59.810 16.779099
59.815 17.382147
59.820 17.446466
59.825 17.536848
59.830 17.480776
59.835 17.024418
59.840 17.062729
59.845 17.013037
59.850 16.592104
59.855 16.555864
59.860 16.201921
59.865 15.740797
59.870 15.203927
59.875 15.121489
59.880 14.733683
59.885 14.582038
59.890 14.505434
59.895 14.908411
59.900 15.161988
59.905 15.600633
59.910 15.641741
59.915 15.860814
59.920 15.976485
59.925 16.203587
59.930 15.804752
59.935 16.086777
59.940 16.418352
59.945 16.888935
59.950 16.999102
59.955 17.328167
59.960 17.242558
59.965 17.755507
59.970 17.673079
59.975 17.239883
59.980 16.958807
59.985 17.026249
59.990 16.76104
59.995 16.87805
60.000 16.343208
60.005 16.859375
60.010 16.960463
60.015 16.656559
60.020 16.821144
60.025 16.979122
60.030 17.213078
60.035 17.275118
60.040 16.705996
60.045 17.262472
60.050 17.383276
60.055 17.099106
60.060 17.123817
60.065 17.142462
60.070 17.355257
60.075 17.458111
60.080 17.154837
60.085 17.247061
60.090 17.008366
60.095 16.858438
60.100 17.109591
60.105 17.417826
60.110 17.131271
60.115 17.38373
60.120 17.732422
60.125 17.925341
60.130 17.706614
60.135 17.844431
60.140 18.416187
60.145 18.476683
60.150 18.066021
60.155 18.17905
60.160 18.188334
60.165 18.105438
60.170 17.082705
60.175 15.785485
60.180 15.347521
60.185 15.241481
60.190 15.227738
60.195 15.76138
60.200 16.181705
60.205 16.579048
60.210 17.24041
60.215 17.847065
60.220 17.999884
60.225 17.385668
60.230 17.24534
60.235 17.281471
60.240 17.07996
60.245 17.033844
60.250 16.844221
60.255 17.36591
60.260 17.821032
60.265 17.519196
60.270 17.47563
60.275 17.582794
60.280 17.403898
60.285 17.756987
60.290 17.120739
60.295 16.521294
60.300 16.861383
60.305 17.131926
60.310 17.28636
60.315 17.089512
60.320 16.650303
60.325 17.40733
60.330 17.5385
60.335 17.055433
60.340 16.918583
60.345 17.35272
60.350 17.70413
60.355 17.636251
60.360 17.083496
60.365 17.2064
60.370 17.066153
60.375 16.784958
60.380 16.237902
60.385 16.069614
60.390 16.43331
60.395 17.105671
60.400 17.000484
60.405 17.595938
60.410 17.573212
60.415 17.589758
60.420 17.859911
60.425 17.413492
60.430 17.144726
60.435 17.269342
60.440 17.579906
60.445 17.799603
60.450 18.067724
60.455 17.832952
60.460 17.364681
60.465 17.2064
60.470 17.353439
60.475 17.054487
60.480 16.954811
60.485 16.900763
60.490 17.079647
60.495 17.970348
60.500 18.805906
60.505 19.323515
60.510 18.756807
60.515 18.898895
60.520 19.219591
60.525 19.475252
60.530 19.058037
60.535 18.586815
60.540 18.581846
60.545 18.95612
60.550 18.910645
60.555 18.381903
60.560 18.015699
60.565 18.147657
60.570 17.926245
60.575 17.438889
60.580 17.396532
60.585 16.754669
60.590 16.718418
60.595 17.002035
60.600 16.878387
60.605 16.728363
60.610 16.510202
60.615 16.942404
60.620 17.165089
60.625 17.342743
60.630 16.993355
60.635 16.751543
60.640 16.34963
60.645 16.907055
60.650 17.121096
60.655 17.101381
60.660 16.815702
60.665 16.609243
60.670 16.61795
60.675 16.604403
60.680 16.056734
60.685 15.447193
60.690 15.816381
60.695 16.447596
60.700 16.384617
60.705 16.474186
60.710 16.549372
60.715 16.349455
60.720 16.66781
60.725 16.570843
60.730 15.995204
60.735 16.291315
60.740 16.225494
60.745 16.263266
60.750 16.346128
60.755 16.38806
60.760 17.010632
60.765 17.265438
60.770 17.198082
60.775 17.522728
60.780 18.007807
60.785 18.028622
60.790 17.295918
60.795 15.985081
60.800 15.46609
60.805 15.696032
60.810 16.144552
60.815 15.891815
60.820 15.851738
60.825 16.352846
60.830 17.091959
60.835 17.712856
60.840 17.23979
60.845 17.333059
60.850 17.627949
60.855 18.209209
60.860 18.450609
60.865 18.463535
60.870 18.339008
60.875 18.44203
60.880 17.843277
60.885 17.062012
60.890 16.327
60.895 15.684154
60.900 15.614861
60.905 15.683651
60.910 15.907981
60.915 16.112759
60.920 16.779041
60.925 17.222244
60.930 17.978806
60.935 18.060995
60.940 17.937536
60.945 17.668264
60.950 17.064659
60.955 16.67123
60.960 16.206097
60.965 15.985298
60.970 15.74976
60.975 15.829175
60.980 15.683722
60.985 16.090021
60.990 16.668951
60.995 16.705812
61.000 16.384205
61.005 16.280619
61.010 16.062449
61.015 16.197449
61.020 16.082924
61.025 15.346035
61.030 14.847847
61.035 15.198567
61.040 15.742315
61.045 15.954668
61.050 16.18465
61.055 15.498476
61.060 15.561601
61.065 16.093624
61.070 16.207668
61.075 16.207487
61.080 16.231852
61.085 16.670652
61.090 18.028858
61.095 18.512827
61.100 18.572109
61.105 18.634846
61.110 18.399851
61.115 18.19482
61.120 17.505398
61.125 17.091419
61.130 17.015827
61.135 16.631708
61.140 16.187876
61.145 16.449711
61.150 16.360249
61.155 15.903874
61.160 15.905401
61.165 15.941368
61.170 16.386099
61.175 16.478373
61.180 16.346111
61.185 16.47892
61.190 16.896221
61.195 16.808695
61.200 17.647764
61.205 17.926439
61.210 17.998636
61.215 18.283966
61.220 18.509346
61.225 18.524288
61.230 18.447685
61.235 17.679049
61.240 17.260794
61.245 17.168283
61.250 17.21397
61.255 17.169941
61.260 17.210068
61.265 17.306749
61.270 16.882862
61.275 16.617943
61.280 16.556644
61.285 16.543638
61.290 16.419493
61.295 16.852549
61.300 17.295773
61.305 17.609373
61.310 17.500326
61.315 17.412146
61.320 17.605022
61.325 18.374756
61.330 18.467674
61.335 17.660946
61.340 17.385595
61.345 17.021551
61.350 17.077814
61.355 17.057194
61.360 16.742512
61.365 16.2572
61.370 16.500954
61.375 17.268963
61.380 17.460337
61.385 17.866108
61.390 17.890245
61.395 18.073763
61.400 18.167999
61.405 18.115128
61.410 17.810188
61.415 17.941881
61.420 16.988544
61.425 16.557634
61.430 16.281534
61.435 16.280472
61.440 16.062294
61.445 16.122526
61.450 16.566214
61.455 17.211163
61.460 17.112484
61.465 17.082127
61.470 17.288061
61.475 17.922888
61.480 17.98975
61.485 18.209831
61.490 18.829048
61.495 19.125153
61.500 18.937101
61.505 19.301804
61.510 19.312338
61.515 18.927198
61.520 18.335051
61.525 17.804783
61.530 17.859644
61.535 17.317728
61.540 16.726511
61.545 16.990196
61.550 17.690626
61.555 18.406534
61.560 18.303415
61.565 18.076294
61.570 18.878778
61.575 19.184464
61.580 18.631979
61.585 17.70034
61.590 16.809578
61.595 16.701044
61.600 16.979662
61.605 17.225615
61.610 17.543777
61.615 17.603418
61.620 18.101152
61.625 18.559086
61.630 18.777414
61.635 18.664719
61.640 18.591549
61.645 18.375017
61.650 18.664949
61.655 18.210274
61.660 18.107145
61.665 18.288887
61.670 18.524965
61.675 18.205709
61.680 18.094721
61.685 17.816996
61.690 17.921173
61.695 17.522072
61.700 16.976677
61.705 16.544922
61.710 16.267984
61.715 16.232229
61.720 16.56307
61.725 16.226046
61.730 16.24008
61.735 16.028013
61.740 16.091146
61.745 16.258986
61.750 15.905066
61.755 15.692402
61.760 16.413555
61.765 16.556557
61.770 17.11108
61.775 17.335987
61.780 17.010893
61.785 17.287806
61.790 17.896597
61.795 17.821316
61.800 18.034081
61.805 18.499495
61.810 18.494068
61.815 19.008472
61.820 18.859331
61.825 18.444263
61.830 18.078703
61.835 17.467911
61.840 16.909872
61.845 16.788893
61.850 16.505804
61.855 17.183033
61.860 17.399889
61.865 17.981838
61.870 18.060894
61.875 17.326666
61.880 17.273718
61.885 17.988209
61.890 18.07243
61.895 17.638662
61.900 17.20542
61.905 17.497133
61.910 17.988688
61.915 18.068192
61.920 17.223457
61.925 16.584145
61.930 16.404119
61.935 16.509134
61.940 17.279009
61.945 17.675104
61.950 17.612885
61.955 17.663305
61.960 17.801725
61.965 18.185526
61.970 18.02911
61.975 17.197212
61.980 17.225451
61.985 17.098944
61.990 16.587828
61.995 16.418968
62.000 16.037106
62.005 16.160204
62.010 16.130074
62.015 15.985847
62.020 16.722054
62.025 17.516817
62.030 17.799223
62.035 17.882967
62.040 18.13262
62.045 18.344927
62.050 18.367533
62.055 17.839466
62.060 17.428728
62.065 17.880705
62.070 18.236044
62.075 18.143295
62.080 17.573069
62.085 17.012041
62.090 17.251513
62.095 17.243961
62.100 16.320133
62.105 15.760057
62.110 15.796992
62.115 16.636305
62.120 16.875721
62.125 17.169317
62.130 16.871277
62.135 16.596334
62.140 17.264341
62.145 17.622358
62.150 17.515553
62.155 17.410324
62.160 17.164745
62.165 18.084589
62.170 19.41083
62.175 19.753969
62.180 18.956451
62.185 18.724121
62.190 19.078966
62.195 19.351841
62.200 18.695562
62.205 17.850477
62.210 17.52849
62.215 17.866472
62.220 17.868355
62.225 17.922832
62.230 17.786575
62.235 18.132566
62.240 18.419338
62.245 18.556271
62.250 18.703831
62.255 18.676741
62.260 18.466085
62.265 18.313572
62.270 17.984938
62.275 17.933208
62.280 18.031967
62.285 18.482307
62.290 18.501057
62.295 18.109186
62.300 18.382786
62.305 18.514332
62.310 18.528902
62.315 17.813753
62.320 17.131073
62.325 17.067043
62.330 16.961908
62.335 16.446966
62.340 15.885505
62.345 15.789854
62.350 16.044636
62.355 16.232031
62.360 16.28615
62.365 16.221584
62.370 16.323126
62.375 16.196234
62.380 15.996746
62.385 16.203371
62.390 16.461433
62.395 16.817715
62.400 17.13451
62.405 17.424515
62.410 18.503756
62.415 19.02342
62.420 18.876316
62.425 18.784197
62.430 18.500143
62.435 18.559113
62.440 18.905996
62.445 18.807318
62.450 18.701181
62.455 18.619164
62.460 18.51984
62.465 18.831699
62.470 18.732998
62.475 18.817341
62.480 18.520369
62.485 17.968689
62.490 17.6495
62.495 18.144024
62.500 18.263041
62.505 18.20343
62.510 17.793903
62.515 17.664635
62.520 17.80768
62.525 18.244579
62.530 17.547684
62.535 16.984142
62.540 16.839457
62.545 16.773779
62.550 17.122618
62.555 17.19594
62.560 16.60277
62.565 16.450474
62.570 16.863291
62.575 16.810438
62.580 16.674059
62.585 16.620407
62.590 16.10504
62.595 16.340174
62.600 17.121658
62.605 17.350319
62.610 17.893555
62.615 17.832808
62.620 18.109905
62.625 18.842302
62.630 19.310347
62.635 19.312914
62.640 19.344624
62.645 19.226725
62.650 19.736647
62.655 19.671415
62.660 19.626743
62.665 19.024437
62.670 18.325335
62.675 18.085457
62.680 18.07795
62.685 17.593203
62.690 17.952394
62.695 17.736649
62.700 17.347967
62.705 17.59351
62.710 17.599262
62.715 17.311089
62.720 17.358917
62.725 16.757999
62.730 17.212543
62.735 18.215946
62.740 18.339876
62.745 18.438881
62.750 18.72397
62.755 19.055794
62.760 19.121719
62.765 18.640825
62.770 18.061672
62.775 18.357361
62.780 18.538549
62.785 18.468874
62.790 18.165033
62.795 18.647261
62.800 18.62533
62.805 18.839203
62.810 18.444473
62.815 18.209885
62.820 18.309269
62.825 18.41494
62.830 18.167665
62.835 18.393156
62.840 18.119278
62.845 17.774635
62.850 17.431957
62.855 17.557667
62.860 17.990875
62.865 17.967354
62.870 17.521988
62.875 17.857338
62.880 18.545311
62.885 19.440584
62.890 19.250032
62.895 18.840977
62.900 18.488928
62.905 18.905844
62.910 19.048079
62.915 18.569683
62.920 18.573135
62.925 18.56221
62.930 18.334238
62.935 19.156311
62.940 18.734018
62.945 18.034328
62.950 17.528355
62.955 17.513996
62.960 17.742172
62.965 17.817196
62.970 17.34091
62.975 18.159828
62.980 18.926229
62.985 19.858696
62.990 19.543322
62.995 19.360876
63.000 19.718643
63.005 19.941109
63.010 19.935757
63.015 19.444845
63.020 19.320818
63.025 19.224594
63.030 18.724758
63.035 18.670458
63.040 18.686131
63.045 18.185745
63.050 17.931942
63.055 17.920504
63.060 18.234602
63.065 18.822332
63.070 18.883123
63.075 19.411806
63.080 20.346386
63.085 21.027515
63.090 20.876453
63.095 20.590649
63.100 20.460468
63.105 20.27022
63.110 19.60721
63.115 18.633507
63.120 17.510719
63.125 17.585175
63.130 17.739042
63.135 17.912798
63.140 18.246761
63.145 17.95812
63.150 18.254412
63.155 19.121605
63.160 19.058395
63.165 19.434637
63.170 18.905909
63.175 18.859245
63.180 18.523548
63.185 18.261614
63.190 18.246014
63.195 17.88887
63.200 17.582237
63.205 17.473995
63.210 16.88422
63.215 17.277315
63.220 17.214542
63.225 16.532806
63.230 16.409763
63.235 16.473932
63.240 16.822521
63.245 17.187223
63.250 17.070162
63.255 17.579647
63.260 18.454493
63.265 18.838823
63.270 18.566029
63.275 18.806213
63.280 19.428249
63.285 19.974749
63.290 19.661999
63.295 19.179249
63.300 19.364162
63.305 19.984617
63.310 20.091373
63.315 19.510603
63.320 19.308363
63.325 19.759018
63.330 19.727676
63.335 18.901472
63.340 18.361448
63.345 18.188326
63.350 18.954327
63.355 19.007135
63.360 18.681917
63.365 19.019224
63.370 19.940464
63.375 20.445145
63.380 20.516792
63.385 19.851187
63.390 19.303808
63.395 18.612774
63.400 18.241505
63.405 18.341211
63.410 18.221889
63.415 17.921921
63.420 18.719538
63.425 19.565485
63.430 20.677353
63.435 20.800758
63.440 20.664701
63.445 20.675999
63.450 20.912069
63.455 20.563032
63.460 20.108377
63.465 20.096109
63.470 20.060144
63.475 19.815485
63.480 19.675928
63.485 19.409935
63.490 19.27812
63.495 19.530666
63.500 18.760761
63.505 18.98839
63.510 18.772223
63.515 18.569853
63.520 18.578419
63.525 18.621014
63.530 18.737825
63.535 19.273151
63.540 19.717604
63.545 20.370209
63.550 20.486685
63.555 20.34326
63.560 20.483044
63.565 20.60862
63.570 20.530729
63.575 20.68675
63.580 20.058125
63.585 20.14823
63.590 20.091982
63.595 20.30076
63.600 19.806671
63.605 19.964735
63.610 19.809343
63.615 20.308912
63.620 20.817291
63.625 20.686346
63.630 20.866175
63.635 21.908781
63.640 21.764421
63.645 21.142559
63.650 20.742142
63.655 20.505659
63.660 21.036831
63.665 20.652218
63.670 19.633139
63.675 19.541862
63.680 20.009439
63.685 20.803061
63.690 21.031103
63.695 21.342564
63.700 22.070007
63.705 22.617599
63.710 22.706305
63.715 22.740452
63.720 22.237988
63.725 22.039986
63.730 22.004429
63.735 22.365826
63.740 21.840841
63.745 21.78586
63.750 21.770033
63.755 21.661253
63.760 21.55205
63.765 21.200033
63.770 20.447731
63.775 21.471016
63.780 22.004992
63.785 22.471643
63.790 22.195271
63.795 22.790689
63.800 23.524769
63.805 24.154341
63.810 23.842112
63.815 23.281927
63.820 22.451859
63.825 22.525028
63.830 22.552465
63.835 22.54619
63.840 22.119585
63.845 22.220524
63.850 23.138319
63.855 23.804813
63.860 24.892937
63.865 25.133875
63.870 25.251486
63.875 25.3353
63.880 25.508652
63.885 26.199043
63.890 26.729643
63.895 26.173933
63.900 25.732965
63.905 25.627501
63.910 26.843805
63.915 26.809267
63.920 26.087276
63.925 26.232964
63.930 26.848307
63.935 27.074001
63.940 27.149225
63.945 27.027237
63.950 27.411331
63.955 28.294807
63.960 28.972019
63.965 29.019257
63.970 29.233988
63.975 29.860882
63.980 30.296595
63.985 30.593143
63.990 30.179636
63.995 29.516367
64.000 30.550098
64.005 31.401129
64.010 32.517109
64.015 33.071186
64.020 33.777092
64.025 35.004734
64.030 36.262997
64.035 36.415257
64.040 35.987568
64.045 35.225533
64.050 35.368988
64.055 34.984913
64.060 34.587151
64.065 34.256962
64.070 34.189266
64.075 34.867081
64.080 34.92057
64.085 34.940361
64.090 35.09404
64.095 34.533249
64.100 34.375683
64.105 33.667561
64.110 32.934685
64.115 33.308331
64.120 33.612885
64.125 33.828789
64.130 35.037838
64.135 35.204266
64.140 35.841846
64.145 36.986042
64.150 36.838642
64.155 36.576584
64.160 36.479656
64.165 36.288143
64.170 36.620716
64.175 36.208344
64.180 35.755806
64.185 35.513897
64.190 35.664093
64.195 35.273369
64.200 34.763004
64.205 34.054237
64.210 34.500137
64.215 34.421867
64.220 35.114597
64.225 36.093594
64.230 37.193607
64.235 37.550617
64.240 37.492474
64.245 36.797016
64.250 36.466965
64.255 36.133499
64.260 35.183666
64.265 34.430817
64.270 34.426342
64.275 35.101158
64.280 35.987305
64.285 36.947647
64.290 36.316784
64.295 36.4058
64.300 36.530472
64.305 36.188305
64.310 36.111073
64.315 36.370125
64.320 35.410328
64.325 34.714054
64.330 33.677818
64.335 34.053158
64.340 34.248699
64.345 33.786545
64.350 33.790676
64.355 33.812912
64.360 33.163868
64.365 32.763313
64.370 31.453648
64.375 30.812433
64.380 29.819159
64.385 28.890396
64.390 28.712637
64.395 29.575102
64.400 30.058784
64.405 29.894249
64.410 30.357174
64.415 30.4853
64.420 30.35523
64.425 30.70842
64.430 30.901049
64.435 30.697647
64.440 31.119242
64.445 31.309883
64.450 31.453659
64.455 30.802649
64.460 30.437672
64.465 30.423817
64.470 29.557388
64.475 28.814209
64.480 28.635321
64.485 28.489555
64.490 28.614464
64.495 28.236738
64.500 27.892939
64.505 28.212601
64.510 27.886583
64.515 27.322109
64.520 27.330345
64.525 27.631252
64.530 27.604073
64.535 27.735809
64.540 27.657438
64.545 27.622547
64.550 27.494797
64.555 27.174343
64.560 27.039566
64.565 26.259882
64.570 24.982536
64.575 24.310225
64.580 23.910685
64.585 23.945211
64.590 23.8316
64.595 23.363377
64.600 23.918161
64.605 24.75609
64.610 25.542732
64.615 25.682451
64.620 24.901283
64.625 24.208981
64.630 23.980949
64.635 23.442009
64.640 23.070055
64.645 22.527609
64.650 22.657612
64.655 22.931644
64.660 23.216774
64.665 23.191286
64.670 22.873579
64.675 22.583626
64.680 22.327087
64.685 22.745638
64.690 23.268599
64.695 23.535524
64.700 23.240507
64.705 23.774834
64.710 24.577147
64.715 25.485334
64.720 24.650421
64.725 24.417891
64.730 24.453987
64.735 25.322983
64.740 25.309782
64.745 24.23823
64.750 23.953646
64.755 23.953293
64.760 23.254028
64.765 23.392509
64.770 22.748758
64.775 22.040297
64.780 22.104752
64.785 21.663839
64.790 21.857115
64.795 21.773281
64.800 21.493181
64.805 21.695324
64.810 21.496107
64.815 21.299543
64.820 21.385685
64.825 21.978176
64.830 22.735664
64.835 23.211147
64.840 23.443182
64.845 23.381811
64.850 24.035822
64.855 23.635172
64.860 23.154318
64.865 22.516031
64.870 21.846619
64.875 22.039028
64.880 22.543808
64.885 22.014233
64.890 22.130892
64.895 21.805645
64.900 21.527306
64.905 21.172529
64.910 21.318443
64.915 21.668301
64.920 21.956554
64.925 22.002171
64.930 21.874737
64.935 22.434313
64.940 22.277294
64.945 21.47238
64.950 20.634432
64.955 20.110985
64.960 19.542448
64.965 19.302588
64.970 19.240231
64.975 19.593376
64.980 20.213621
64.985 20.528811
64.990 21.27128
64.995 21.826683
65.000 22.733572
65.005 22.916073
65.010 23.21179
65.015 23.149923
65.020 23.388777
65.025 23.088188
65.030 23.154638
65.035 23.064699
65.040 23.253725
65.045 23.174805
65.050 23.487911
65.055 23.262892
65.060 23.298866
65.065 23.376291
65.070 23.530615
65.075 23.516735
65.080 23.616983
65.085 23.143007
65.090 22.830868
65.095 22.712919
65.100 22.96151
65.105 23.052746
65.110 22.893204
65.115 22.59564
65.120 22.848099
65.125 23.337032
65.130 23.627466
65.135 22.962242
65.140 22.304483
65.145 22.064356
65.150 21.494522
65.155 20.957273
65.160 20.563641
65.165 20.580589
65.170 20.875154
65.175 21.00699
65.180 21.048998
65.185 21.535986
65.190 21.345085
65.195 21.547741
65.200 21.52195
65.205 20.838055
65.210 20.788841
65.215 20.786413
65.220 20.98831
65.225 21.819788
65.230 21.818602
65.235 21.860807
65.240 22.946836
65.245 23.626749
65.250 23.486847
65.255 23.049776
65.260 22.944687
65.265 23.077738
65.270 23.041035
65.275 22.378983
65.280 22.414274
65.285 23.068609
65.290 23.390244
65.295 23.115993
65.300 22.34239
65.305 22.470535
65.310 22.640963
65.315 21.992285
65.320 21.734222
65.325 21.725454
65.330 22.092976
65.335 23.045416
65.340 22.97357
65.345 23.176123
65.350 23.218782
65.355 23.481333
65.360 22.935009
65.365 22.389626
65.370 22.393324
65.375 22.019917
65.380 21.676252
65.385 21.723446
65.390 22.100437
65.395 22.405582
65.400 22.122208
65.405 21.135845
65.410 21.451693
65.415 21.629404
65.420 21.579788
65.425 21.288258
65.430 21.913815
65.435 22.537979
65.440 23.664707
65.445 24.281609
65.450 24.365047
65.455 24.616564
65.460 24.633289
65.465 24.385746
65.470 24.25935
65.475 23.978294
65.480 23.635036
65.485 24.448486
65.490 24.27404
65.495 23.840349
65.500 23.544571
65.505 23.484074
65.510 23.553694
65.515 23.825073
65.520 23.230204
65.525 23.762831
65.530 24.015478
65.535 24.378391
65.540 24.796144
65.545 25.493162
65.550 25.405409
65.555 25.202641
65.560 24.582602
65.565 24.651823
65.570 24.648684
65.575 24.708649
65.580 24.523705
65.585 24.632463
65.590 24.935465
65.595 25.351768
65.600 25.709253
65.605 26.625574
65.610 27.123577
65.615 27.486156
65.620 29.032484
65.625 29.567972
65.630 29.826262
65.635 29.519825
65.640 29.979666
65.645 30.00857
65.650 29.746655
65.655 29.054512
65.660 29.118486
65.665 29.984573
65.670 30.16386
65.675 29.25238
65.680 29.789368
65.685 29.946524
65.690 30.587072
65.695 31.846827
65.700 32.322903
65.705 32.363716
65.710 32.370373
65.715 32.181614
65.720 32.005455
65.725 31.539209
65.730 31.655302
65.735 31.424208
65.740 31.640593
65.745 32.864712
65.750 33.707401
65.755 34.42651
65.760 33.856903
65.765 33.776268
65.770 34.253029
65.775 35.118092
65.780 35.083664
65.785 35.010944
65.790 35.299076
65.795 35.82407
65.800 35.619804
65.805 36.116425
65.810 36.522186
65.815 36.67728
65.820 36.710037
65.825 35.963787
65.830 36.459717
65.835 36.697594
65.840 36.574398
65.845 36.447926
65.850 36.051167
65.855 36.461239
65.860 38.342419
65.865 38.794228
65.870 38.616669
65.875 38.492096
65.880 38.313343
65.885 38.26796
65.890 39.125568
65.895 38.639999
65.900 39.197113
65.905 39.417179
65.910 39.261753
65.915 38.994057
65.920 38.853889
65.925 38.342316
65.930 38.120583
65.935 37.964325
65.940 37.953739
65.945 38.013317
65.950 38.067402
65.955 39.122738
65.960 39.580879
65.965 39.210758
65.970 39.420052
65.975 40.094231
65.980 41.599739
65.985 42.082169
65.990 41.458614
65.995 41.533047
66.000 41.725525
66.005 40.74118
66.010 40.135353
66.015 40.174538
66.020 40.534107
66.025 40.546459
66.030 41.218178
66.035 41.338387
66.040 42.113476
66.045 42.755257
66.050 41.264359
66.055 40.797832
66.060 40.05505
66.065 40.325684
66.070 40.804115
66.075 40.932426
66.080 40.457077
66.085 41.345818
66.090 41.279045
66.095 40.46056
66.100 39.707996
66.105 39.473701
66.110 39.13406
66.115 38.685459
66.120 37.411491
66.125 38.030396
66.130 38.647217
66.135 38.161716
66.140 37.799713
66.145 37.402832
66.150 38.04657
66.155 38.599819
66.160 38.746883
66.165 39.506039
66.170 40.134426
66.175 40.409786
66.180 40.631031
66.185 39.944126
66.190 39.860046
66.195 39.557068
66.200 39.205791
66.205 38.73877
66.210 38.034298
66.215 37.776531
66.220 38.071476
66.225 37.480408
66.230 36.50074
66.235 35.848282
66.240 34.81044
66.245 34.75169
66.250 34.489578
66.255 34.902355
66.260 35.40844
66.265 35.1614
66.270 35.547928
66.275 35.582634
66.280 35.489834
66.285 36.032265
66.290 35.479694
66.295 35.187366
66.300 36.01302
66.305 35.491444
66.310 35.050602
66.315 34.455597
66.320 33.216061
66.325 33.460682
66.330 33.059288
66.335 32.129971
66.340 31.330448
66.345 31.358099
66.350 31.975958
66.355 32.244892
66.360 31.376612
66.365 31.177959
66.370 31.092854
66.375 30.613031
66.380 30.703739
66.385 29.806597
66.390 28.632639
66.395 28.493126
66.400 28.444769
66.405 28.238602
66.410 28.214453
66.415 27.809145
66.420 28.045401
66.425 28.525496
66.430 28.603813
66.435 28.281002
66.440 28.298445
66.445 27.402447
66.450 26.613909
66.455 25.791945
66.460 25.446535
66.465 24.903841
66.470 25.206102
66.475 24.726141
66.480 24.797291
66.485 24.771126
66.490 24.636599
66.495 24.983631
66.500 24.914364
66.505 25.013851
66.510 25.99897
66.515 26.107853
66.520 26.499079
66.525 26.73596
66.530 26.58919
66.535 26.214199
66.540 25.540392
66.545 24.675436
66.550 24.742439
66.555 24.124666
66.560 23.995436
66.565 24.364679
66.570 24.777079
66.575 24.725
66.580 24.459221
66.585 23.587107
66.590 23.391285
66.595 23.267719
66.600 22.567497
66.605 22.247087
66.610 22.088619
66.615 21.854471
66.620 21.549902
66.625 21.189768
66.630 20.879633
66.635 20.051184
66.640 19.668238
66.645 19.979113
66.650 19.772406
66.655 20.21965
66.660 19.776369
66.665 19.716455
66.670 20.495485
66.675 21.188019
66.680 21.252901
66.685 20.985607
66.690 20.597506
66.695 20.923618
66.700 20.947769
66.705 20.688175
66.710 19.901157
66.715 19.91448
66.720 20.617046
66.725 20.982941
66.730 20.849741
66.735 20.385431
66.740 20.541071
66.745 20.777666
66.750 20.792814
66.755 20.472303
66.760 20.313335
66.765 20.093763
66.770 20.462336
66.775 20.42799
66.780 20.338043
66.785 20.168783
66.790 19.828642
66.795 19.372112
66.800 19.508139
66.805 19.319473
66.810 18.387634
66.815 17.824642
66.820 17.748922
66.825 18.297457
66.830 18.984959
66.835 18.724844
66.840 19.267015
66.845 20.345739
66.850 20.696232
66.855 20.646891
66.860 19.828175
66.865 19.240589
66.870 19.008509
66.875 18.493093
66.880 18.710066
66.885 19.290617
66.890 19.210108
66.895 19.422745
66.900 20.580629
66.905 20.202251
66.910 20.161249
66.915 19.360441
66.920 18.738575
66.925 18.991367
66.930 18.890713
66.935 18.647009
66.940 18.863068
66.945 18.57539
66.950 18.16168
66.955 18.035772
66.960 18.136379
66.965 18.300051
66.970 18.128777
66.975 18.066898
66.980 18.215834
66.985 18.345032
66.990 18.722328
66.995 18.91971
67.000 18.252096
67.005 18.175886
67.010 18.403345
67.015 18.690294
67.020 19.215925
67.025 18.907703
67.030 18.962032
67.035 19.982838
67.040 19.939611
67.045 20.205276
67.050 20.410467
67.055 19.990341
67.060 20.060034
67.065 19.771055
67.070 19.242014
67.075 19.608227
67.080 19.915543
67.085 19.844975
67.090 20.517155
67.095 20.544847
67.100 20.197201
67.105 20.32733
67.110 20.103928
67.115 20.230236
67.120 20.47501
67.125 20.213808
67.130 20.166542
67.135 20.324858
67.140 19.683668
67.145 19.337183
67.150 19.172674
67.155 18.985792
67.160 18.640408
67.165 19.021627
67.170 19.535089
67.175 19.609024
67.180 19.540794
67.185 19.167128
67.190 19.239859
67.195 19.038364
67.200 18.689747
67.205 19.104427
67.210 19.627459
67.215 19.583469
67.220 19.800837
67.225 19.895176
67.230 20.191225
67.235 20.13484
67.240 19.272722
67.245 18.693579
67.250 18.582029
67.255 18.953897
67.260 19.389997
67.265 19.164434
67.270 19.305073
67.275 20.133587
67.280 20.28187
67.285 19.715034
67.290 18.939034
67.295 18.178696
67.300 18.280975
67.305 18.213629
67.310 17.939268
67.315 18.984159
67.320 19.341864
67.325 19.155663
67.330 19.130476
67.335 19.161282
67.340 19.113438
67.345 18.865004
67.350 18.286341
67.355 18.471481
67.360 19.33667
67.365 20.058622
67.370 20.18874
67.375 20.553234
67.380 20.893089
67.385 21.17915
67.390 21.237375
67.395 21.002115
67.400 21.282637
67.405 21.35862
67.410 21.296127
67.415 21.333168
67.420 21.239552
67.425 20.702436
67.430 20.247078
67.435 19.910816
67.440 19.567427
67.445 19.604788
67.450 19.375319
67.455 19.642824
67.460 20.056097
67.465 20.098667
67.470 20.158333
67.475 20.132402
67.480 20.042345
67.485 19.337133
67.490 18.951656
67.495 18.846905
67.500 19.184658
67.505 19.365143
67.510 19.279974
67.515 19.468521
67.520 20.334621
67.525 20.293352
67.530 20.799698
67.535 20.687506
67.540 20.52956
67.545 20.83626
67.550 20.379
67.555 20.308617
67.560 20.380405
67.565 19.743549
67.570 19.542534
67.575 19.18894
67.580 18.586679
67.585 19.090395
67.590 18.991764
67.595 19.324926
67.600 19.281528
67.605 19.008724
67.610 19.160528
67.615 19.376774
67.620 19.37031
67.625 19.744457
67.630 19.760155
67.635 19.793957
67.640 19.800531
67.645 19.454897
67.650 19.116367
67.655 18.900621
67.660 18.606438
67.665 18.355568
67.670 18.838305
67.675 19.470177
67.680 19.954763
67.685 20.507425
67.690 20.083086
67.695 20.051489
67.700 20.093197
67.705 20.033022
67.710 19.860552
67.715 19.609728
67.720 19.656672
67.725 19.352009
67.730 19.27903
67.735 19.394226
67.740 18.639263
67.745 18.080021
67.750 18.141909
67.755 17.548212
67.760 17.945845
67.765 18.239557
67.770 18.151217
67.775 18.869049
67.780 19.753618
67.785 19.813238
67.790 20.439362
67.795 20.515993
67.800 20.165487
67.805 20.279097
67.810 19.684803
67.815 19.530935
67.820 19.580584
67.825 19.148281
67.830 18.991842
67.835 18.782581
67.840 18.522652
67.845 18.341612
67.850 18.43252
67.855 18.546337
67.860 18.572989
67.865 18.766798
67.870 18.667364
67.875 18.847771
67.880 18.971811
67.885 18.402281
67.890 18.742172
67.895 19.494497
67.900 19.723774
67.905 19.97761
67.910 20.490574
67.915 20.596588
67.920 20.515903
67.925 19.699263
67.930 19.117029
67.935 19.176369
67.940 19.351593
67.945 19.318142
67.950 19.37009
67.955 19.747122
67.960 20.269608
67.965 20.248203
67.970 20.157614
67.975 20.131773
67.980 19.655748
67.985 19.415827
67.990 18.80077
67.995 19.183815
68.000 19.451075
68.005 19.511835
68.010 19.658819
68.015 19.563379
68.020 19.764078
68.025 20.266546
68.030 19.628227
68.035 19.101639
68.040 19.083847
68.045 18.979876
68.050 19.159075
68.055 19.184298
68.060 19.122768
68.065 19.195486
68.070 19.411772
68.075 19.118267
68.080 19.53689
68.085 19.588095
68.090 19.49497
68.095 19.343714
68.100 19.431551
68.105 20.44359
68.110 20.812937
68.115 20.919474
68.120 20.716009
68.125 20.965555
68.130 21.210266
68.135 21.260986
68.140 20.961176
68.145 21.014523
68.150 21.004589
68.155 21.171564
68.160 20.943878
68.165 20.941456
68.170 20.220478
68.175 20.073685
68.180 19.803179
68.185 19.464611
68.190 19.672264
68.195 19.906467
68.200 20.460413
68.205 21.223162
68.210 21.640755
68.215 22.277956
68.220 22.456169
68.225 22.196148
68.230 21.219664
68.235 20.679941
68.240 20.447462
68.245 20.213114
68.250 20.325209
68.255 19.746016
68.260 20.069504
68.265 20.965784
68.270 21.391352
68.275 21.609169
68.280 21.494747
68.285 21.45377
68.290 21.79521
68.295 21.88002
68.300 21.524984
68.305 21.599339
68.310 21.593262
68.315 21.533958
68.320 20.67938
68.325 20.838915
68.330 20.680677
68.335 20.488373
68.340 20.467432
68.345 19.974277
68.350 20.272467
68.355 20.413496
68.360 20.105469
68.365 20.384222
68.370 20.883186
68.375 21.001146
68.380 21.394966
68.385 21.291603
68.390 21.528769
68.395 21.351036
68.400 20.73238
68.405 20.363077
68.410 20.266178
68.415 20.578571
68.420 20.670502
68.425 21.112316
68.430 21.533504
68.435 21.975624
68.440 22.278875
68.445 22.417408
68.450 22.211031
68.455 22.310675
68.460 22.39283
68.465 22.849087
68.470 22.230368
68.475 21.356426
68.480 20.865192
68.485 20.624891
68.490 20.257107
68.495 20.321423
68.500 20.670631
68.505 20.685276
68.510 20.94496
68.515 20.928818
68.520 21.486437
68.525 21.626551
68.530 21.287888
68.535 21.052322
68.540 21.739182
68.545 21.998648
68.550 22.222376
68.555 22.360109
68.560 22.377319
68.565 22.193747
68.570 22.090227
68.575 21.781488
68.580 21.926296
68.585 21.770834
68.590 21.358965
68.595 20.991331
68.600 21.42783
68.605 21.579739
68.610 21.272938
68.615 21.291401
68.620 21.428541
68.625 21.825386
68.630 22.609642
68.635 22.709597
68.640 22.542297
68.645 22.576353
68.650 22.539022
68.655 22.457216
68.660 22.065165
68.665 21.599417
68.670 21.350023
68.675 21.742981
68.680 22.169394
68.685 22.588049
68.690 22.500332
68.695 22.94146
68.700 23.116547
68.705 23.86727
68.710 24.377985
68.715 24.567659
68.720 24.083542
68.725 24.715981
68.730 24.9748
68.735 24.871172
68.740 24.354641
68.745 24.051641
68.750 24.112675
68.755 24.198895
68.760 24.184769
68.765 24.281658
68.770 24.672026
68.775 24.436949
68.780 24.288187
68.785 24.483662
68.790 24.390881
68.795 24.08083
68.800 24.084776
68.805 24.37359
68.810 25.361338
68.815 25.459417
68.820 25.427771
68.825 25.561729
68.830 26.013742
68.835 25.548752
68.840 25.259094
68.845 25.761501
68.850 26.007074
68.855 26.400513
68.860 27.019688
68.865 28.61566
68.870 29.431341
68.875 28.721069
68.880 28.03577
68.885 28.217737
68.890 28.148987
68.895 27.714382
68.900 26.715225
68.905 27.039124
68.910 28.031607
68.915 28.724222
68.920 29.718615
68.925 30.311964
68.930 30.409166
68.935 31.022585
68.940 31.224312
68.945 30.767544
68.950 30.6677
68.955 30.779684
68.960 30.659594
68.965 30.815266
68.970 31.069569
68.975 31.287931
68.980 31.823532
68.985 31.557894
68.990 31.378319
68.995 32.123501
69.000 33.324379
69.005 33.573917
69.010 33.84988
69.015 33.967564
69.020 34.358353
69.025 34.798492
69.030 34.467327
69.035 34.064838
69.040 34.477478
69.045 34.289078
69.050 34.224251
69.055 34.265633
69.060 33.779041
69.065 33.773846
69.070 33.810619
69.075 33.339436
69.080 33.535866
69.085 33.501965
69.090 33.665268
69.095 33.92252
69.100 34.458473
69.105 34.550228
69.110 34.849052
69.115 34.542759
69.120 34.260479
69.125 34.383343
69.130 34.689899
69.135 34.652233
69.140 35.623989
69.145 35.752216
69.150 35.725067
69.155 36.290455
69.160 35.469963
69.165 35.00613
69.170 35.130398
69.175 33.883968
69.180 34.372036
69.185 35.223938
69.190 35.657772
69.195 35.39426
69.200 34.510094
69.205 34.092773
69.210 34.893585
69.215 34.255024
69.220 34.217697
69.225 34.985413
69.230 36.48531
69.235 37.358685
69.240 37.904243
69.245 37.386265
69.250 37.202785
69.255 36.759113
69.260 36.213226
69.265 35.719772
69.270 35.970013
69.275 36.000553
69.280 36.33046
69.285 36.802292
69.290 36.709976
69.295 36.679192
69.300 36.011009
69.305 35.716972
69.310 35.887009
69.315 35.619003
69.320 35.63818
69.325 34.99176
69.330 34.932995
69.335 34.839115
69.340 33.974106
69.345 34.460804
69.350 34.438427
69.355 34.423271
69.360 33.99194
69.365 34.422333
69.370 34.336411
69.375 33.746761
69.380 32.697769
69.385 32.597725
69.390 32.625313
69.395 31.922146
69.400 30.985729
69.405 30.869087
69.410 30.499748
69.415 30.291243
69.420 29.874857
69.425 29.817207
69.430 30.010815
69.435 30.479086
69.440 31.004759
69.445 32.047966
69.450 31.61331
69.455 32.120312
69.460 32.12661
69.465 32.06625
69.470 31.416336
69.475 31.024708
69.480 30.199585
69.485 30.052765
69.490 29.070723
69.495 29.112047
69.500 29.565891
69.505 30.067953
69.510 30.613491
69.515 30.609711
69.520 30.397266
69.525 30.363373
69.530 29.802156
69.535 29.324657
69.540 29.28451
69.545 28.082458
69.550 28.616812
69.555 29.298132
69.560 29.512951
69.565 28.912746
69.570 28.647076
69.575 28.523954
69.580 28.769018
69.585 27.81271
69.590 27.653692
69.595 27.418516
69.600 27.715546
69.605 27.152039
69.610 26.862917
69.615 26.975071
69.620 27.316154
69.625 26.7187
69.630 27.21871
69.635 27.007402
69.640 26.675259
69.645 26.396145
69.650 26.250134
69.655 26.735426
69.660 26.489971
69.665 25.459448
69.670 25.13789
69.675 25.136473
69.680 24.703329
69.685 23.855328
69.690 22.520185
69.695 22.571501
69.700 23.595541
69.705 23.706066
69.710 24.182518
69.715 24.493063
69.720 24.757357
69.725 25.235876
69.730 24.380318
69.735 24.043539
69.740 24.312485
69.745 24.479345
69.750 24.345163
69.755 24.274633
69.760 24.08552
69.765 24.031782
69.770 23.615599
69.775 23.013647
69.780 22.928383
69.785 23.397594
69.790 22.847202
69.795 22.26779
69.800 21.976542
69.805 21.666214
69.810 21.782328
69.815 21.601154
69.820 20.996134
69.825 21.133446
69.830 21.570488
69.835 21.999159
69.840 22.156515
69.845 22.399157
69.850 22.389971
69.855 22.602087
69.860 22.969147
69.865 22.946827
69.870 23.009457
69.875 22.99556
69.880 22.284342
69.885 22.335461
69.890 21.843489
69.895 21.455694
69.900 21.746584
69.905 22.348999
69.910 22.274065
69.915 22.418118
69.920 22.353455
69.925 22.630436
69.930 21.798674
69.935 21.566574
69.940 21.33606
69.945 21.050289
69.950 20.742525
69.955 20.664106
69.960 20.644152
69.965 21.23036
69.970 20.687021
69.975 20.260292
69.980 20.337986
69.985 19.883892
69.990 19.416319
69.995 19.225353
70.000 18.97823
70.005 19.082678
70.010 19.417894
70.015 19.711426
70.020 19.734213
70.025 20.474113
70.030 20.324398
70.035 20.394251
70.040 19.917589
70.045 19.644655
70.050 19.329435
70.055 19.685841
70.060 19.453602
70.065 20.219704
70.070 20.228493
70.075 20.156185
70.080 20.455347
70.085 20.612474
70.090 19.960485
70.095 19.100719
70.100 18.38913
70.105 17.797306
70.110 17.835564
70.115 17.630287
70.120 17.886358
70.125 18.765608
70.130 19.31687
70.135 19.069649
70.140 19.115582
70.145 19.316032
70.150 19.475428
70.155 19.515615
70.160 19.347057
70.165 19.933821
70.170 20.15904
70.175 20.325026
70.180 20.389809
70.185 20.709108
70.190 20.339586
70.195 19.804453
70.200 18.973192
70.205 19.161629
70.210 19.140772
70.215 18.782768
70.220 18.774811
70.225 18.701576
70.230 18.89345
70.235 19.230591
70.240 19.754616
70.245 20.275454
70.250 20.012325
70.255 19.584558
70.260 19.44437
70.265 19.55978
70.270 19.416983
70.275 19.506662
70.280 19.206017
70.285 18.954264
70.290 19.670105
70.295 20.001965
70.300 20.01506
70.305 19.558573
70.310 18.502375
70.315 19.172985
70.320 19.405573
70.325 18.932041
70.330 18.895857
70.335 18.519083
70.340 18.613396
70.345 18.677284
70.350 18.380495
70.355 17.804773
70.360 17.639751
70.365 17.729229
70.370 18.270914
70.375 18.627769
70.380 18.555067
70.385 19.039722
70.390 19.451832
70.395 19.461086
70.400 19.101309
70.405 19.497807
70.410 20.098566
70.415 19.647226
70.420 19.051584
70.425 18.900539
70.430 18.803465
70.435 18.70586
70.440 17.609695
70.445 16.725901
70.450 17.061426
70.455 16.680656
70.460 16.828255
70.465 17.288303
70.470 17.724987
70.475 18.307487
70.480 19.232212
70.485 19.388884
70.490 19.872534
70.495 19.600222
70.500 19.809589
70.505 19.77331
70.510 19.533005
70.515 19.065056
70.520 18.619669
70.525 18.268833
70.530 18.570471
70.535 18.53108
70.540 19.001755
70.545 19.223589
70.550 19.608067
70.555 19.555693
70.560 19.524755
70.565 18.755959
70.570 18.138472
70.575 17.863811
70.580 17.694536
70.585 17.649446
70.590 17.930841
70.595 18.294666
70.600 18.886667
70.605 19.07147
70.610 18.886995
70.615 19.189171
70.620 19.671871
70.625 19.095976
70.630 18.949209
70.635 19.267534
70.640 19.127909
70.645 19.209879
70.650 19.008076
70.655 19.295233
70.660 19.698154
70.665 19.329842
70.670 19.37854
70.675 19.330814
70.680 18.870914
70.685 18.869352
70.690 18.825624
70.695 19.074022
70.700 19.610287
70.705 20.103291
70.710 20.495947
70.715 20.863792
70.720 20.477888
70.725 20.659847
70.730 20.601187
70.735 20.34515
70.740 19.63077
70.745 19.517895
70.750 19.898077
70.755 20.231188
70.760 20.401161
70.765 19.824591
70.770 19.298464
70.775 19.019176
70.780 18.706745
70.785 17.80541
70.790 17.876766
70.795 17.744396
70.800 17.743212
70.805 18.203411
70.810 18.239836
70.815 18.704098
70.820 19.222427
70.825 18.811207
70.830 18.676399
70.835 19.303381
70.840 19.963989
70.845 20.487379
70.850 20.916246
70.855 20.555878
70.860 20.522951
70.865 20.450781
70.870 19.828482
70.875 19.509163
70.880 19.069273
70.885 19.003473
70.890 19.155945
70.895 19.314781
70.900 19.748663
70.905 19.615822
70.910 19.138754
70.915 19.466303
70.920 19.05917
70.925 19.326334
70.930 18.89963
70.935 18.851963
70.940 18.952358
70.945 18.687233
70.950 18.087519
70.955 18.469719
70.960 19.100578
70.965 19.13353
70.970 19.501644
70.975 19.785374
70.980 20.163805
70.985 19.940956
70.990 19.124687
70.995 18.879671
71.000 18.896664
71.005 18.522509
71.010 18.419043
71.015 19.040417
71.020 19.855646
71.025 19.830128
71.030 19.536705
71.035 19.678291
71.040 19.612825
71.045 19.43829
71.050 18.567091
71.055 17.671953
71.060 17.267973
71.065 17.31143
71.070 17.121437
71.075 16.945757
71.080 17.229219
71.085 18.252115
71.090 18.854158
71.095 19.10103
71.100 18.613619
71.105 18.432911
71.110 17.86096
71.115 17.400396
71.120 16.789593
71.125 17.214163
71.130 17.679333
71.135 18.083059
71.140 18.674185
71.145 19.106216
71.150 19.31274
71.155 19.150595
71.160 18.489258
71.165 18.464569
71.170 18.639126
71.175 19.097567
71.180 19.278847
71.185 19.118568
71.190 19.40539
71.195 19.104319
71.200 19.02006
71.205 19.172905
71.210 18.983883
71.215 19.438814
71.220 19.390747
71.225 19.736944
71.230 20.552309
71.235 20.495525
71.240 20.240131
71.245 20.259928
71.250 20.541388
71.255 20.571318
71.260 19.833353
71.265 19.989111
71.270 19.935339
71.275 19.981268
71.280 19.689423
71.285 19.541998
71.290 19.96847
71.295 20.029314
71.300 19.645285
71.305 19.6082
71.310 19.937185
71.315 19.554834
71.320 18.962517
71.325 18.518591
71.330 18.695454
71.335 18.680563
71.340 18.243038
71.345 18.022701
71.350 18.300688
71.355 19.08551
71.360 19.046318
71.365 17.969334
71.370 18.098017
71.375 17.898954
71.380 18.043114
71.385 17.894091
71.390 17.7407
71.395 17.925133
71.400 18.308273
71.405 18.342937
71.410 18.921427
71.415 18.954165
71.420 19.261904
71.425 19.520683
71.430 19.511831
71.435 19.140112
71.440 19.308798
71.445 18.706951
71.450 18.077942
71.455 17.654188
71.460 17.392662
71.465 18.041355
71.470 18.004864
71.475 17.851171
71.480 17.89794
71.485 18.177973
71.490 18.204758
71.495 18.344078
71.500 18.90764
71.505 19.323837
71.510 19.187016
71.515 19.30238
71.520 19.217617
71.525 19.559273
71.530 19.368071
71.535 18.766264
71.540 19.279978
71.545 19.196043
71.550 18.666882
71.555 18.863993
71.560 18.629705
71.565 18.336555
71.570 18.212431
71.575 17.686159
71.580 17.85828
71.585 18.042259
71.590 17.820871
71.595 18.092121
71.600 17.907475
71.605 17.280426
71.610 17.632292
71.615 17.675066
71.620 17.841551
71.625 18.056797
71.630 18.469812
71.635 19.085005
71.640 19.477825
71.645 19.142567
71.650 19.390821
71.655 18.821577
71.660 18.557049
71.665 18.187357
71.670 18.560291
71.675 19.424356
71.680 19.674498
71.685 19.196749
71.690 19.495554
71.695 19.25573
71.700 19.187672
71.705 18.600533
71.710 18.042528
71.715 18.215151
71.720 18.244894
71.725 18.269522
71.730 18.650633
71.735 19.228958
71.740 19.594345
71.745 19.427025
71.750 20.018791
71.755 20.259308
71.760 20.153776
71.765 19.974285
71.770 19.577715
71.775 19.590166
71.780 19.718706
71.785 19.133055
71.790 19.296793
71.795 19.201307
71.800 19.059578
71.805 19.475891
71.810 19.325508
71.815 19.086132
71.820 18.972118
71.825 18.877031
71.830 18.809156
71.835 18.370562
71.840 18.358707
71.845 18.639042
71.850 18.454174
71.855 18.453617
71.860 18.83988
71.865 19.092302
71.870 18.752554
71.875 18.279768
71.880 18.017559
71.885 18.368404
71.890 18.039444
71.895 17.526953
71.900 17.525349
71.905 17.89032
71.910 18.083281
71.915 18.343864
71.920 18.702255
71.925 19.005245
71.930 19.445032
71.935 19.948709
71.940 20.070078
71.945 19.456621
71.950 19.085783
71.955 18.918571
71.960 18.909655
71.965 18.504478
71.970 17.758968
71.975 18.028114
71.980 18.227165
71.985 18.070562
71.990 17.968052
71.995 18.310215
72.000 18.347342
72.005 18.296074
72.010 18.391256
72.015 18.67848
72.020 19.311939
72.025 19.253023
72.030 18.855541
72.035 19.237183
72.040 19.043444
72.045 18.858889
72.050 18.975477
72.055 18.518261
72.060 18.554356
72.065 18.793547
72.070 18.772642
72.075 19.305969
72.080 19.578627
72.085 19.570908
72.090 19.203274
72.095 19.159954
72.100 18.906033
72.105 19.331833
72.110 18.953638
72.115 18.764336
72.120 19.395267
72.125 19.775606
72.130 19.949198
72.135 19.884552
72.140 19.809519
72.145 19.675173
72.150 19.40485
72.155 19.328907
72.160 19.193333
72.165 18.757702
72.170 19.153355
72.175 18.570904
72.180 19.122442
72.185 18.919519
72.190 18.540335
72.195 18.701508
72.200 18.81332
72.205 18.487206
72.210 18.758333
72.215 18.530607
72.220 17.969957
72.225 18.312044
72.230 18.692944
72.235 18.95677
72.240 18.997734
72.245 19.021437
72.250 19.335215
72.255 19.668287
72.260 19.215498
72.265 19.296663
72.270 18.972406
72.275 18.455509
72.280 17.976696
72.285 18.104118
72.290 18.270279
72.295 18.442106
72.300 17.772736
72.305 18.100353
72.310 18.650633
72.315 18.559683
72.320 18.620132
72.325 18.598955
72.330 18.568666
72.335 19.299593
72.340 19.406193
72.345 19.72887
72.350 19.847216
72.355 19.911951
72.360 19.399206
72.365 19.031742
72.370 18.52458
72.375 18.203617
72.380 18.053787
72.385 17.824192
72.390 17.527311
72.395 17.67136
72.400 18.206625
72.405 18.588234
72.410 18.247578
72.415 18.149319
72.420 17.480307
72.425 18.007162
72.430 18.259865
72.435 18.258972
72.440 17.860363
72.445 17.594547
72.450 17.987329
72.455 18.213869
72.460 17.79508
72.465 17.239805
72.470 17.385382
72.475 17.312145
72.480 17.370119
72.485 17.373362
72.490 17.409872
72.495 17.414946
72.500 16.995512
72.505 16.717834
72.510 16.96172
72.515 16.881676
72.520 16.484716
72.525 16.488022
72.530 16.895029
72.535 17.467978
72.540 17.865936
72.545 18.000261
72.550 18.35494
72.555 18.608219
72.560 18.375711
72.565 18.433857
72.570 17.796619
72.575 17.968658
72.580 18.427477
72.585 18.197914
72.590 18.301931
72.595 18.526506
72.600 18.915545
72.605 18.965397
72.610 18.547789
72.615 18.242704
72.620 18.439705
72.625 18.169827
72.630 18.053793
72.635 17.464939
72.640 17.578886
72.645 17.556089
72.650 17.930426
72.655 17.887203
72.660 18.012285
72.665 17.37171
72.670 17.931965
72.675 17.976593
72.680 17.755472
72.685 17.572943
72.690 17.913748
72.695 18.323267
72.700 18.915533
72.705 19.036455
72.710 19.213808
72.715 19.331587
72.720 18.802792
72.725 18.526499
72.730 18.50172
72.735 18.062395
72.740 17.547249
72.745 18.093155
72.750 18.225006
72.755 18.598114
72.760 18.497761
72.765 18.604576
72.770 19.107903
72.775 18.421276
72.780 17.678991
72.785 18.01195
72.790 18.085524
72.795 18.186604
72.800 17.747477
72.805 17.569334
72.810 17.473364
72.815 17.809673
72.820 17.510946
72.825 17.297823
72.830 17.283407
72.835 17.445929
72.840 17.693588
72.845 18.054737
72.850 18.025423
72.855 17.90003
72.860 17.126669
72.865 16.504654
72.870 16.138498
72.875 15.928915
72.880 15.475571
72.885 15.260306
72.890 15.904186
72.895 16.335129
72.900 16.90082
72.905 17.730238
72.910 18.013506
72.915 18.30644
72.920 17.866142
72.925 17.724989
72.930 18.040829
72.935 18.222828
72.940 18.167992
72.945 18.190725
72.950 17.723162
72.955 17.544285
72.960 17.182858
72.965 17.096775
72.970 16.842604
72.975 16.342993
72.980 16.414507
72.985 17.156881
72.990 17.603632
72.995 17.486559
73.000 16.869572
