!@!!GADDS PLOTSO FILE: Chi integration type
!@!!Title/SampleName: map-9c
!@!!Comment: ?
!@!!User: Bruker Instrument Administrator
!@!!Site: University of Illinois Chicago
!@!!Frame: map-9c_01_000.gfrm
!@!!Wavelengths    1.54184   1.54056   1.54439
!@!!Frame angles: 2Theta: 63.000 Omega: 50.000 Phi: 0.000 Chi: 90.000
!@!!Integration range: 2Theta: 53.000 to 73.000  Gamma: -105.000 to -75.000
!@!!Integration method: bin normalized
!@!N
!@!SS
!@!M
!@!L 0.0 0.0 0.0 0.0
!@!XDegrees
!@!YCounts
53.000 10.957586
53.005 10.854918
53.010 10.364046
53.015 10.190031
53.020 10.162377
53.025 9.623638
53.030 9.346632
53.035 9.261326
53.040 9.162214
53.045 9.026057
53.050 8.793159
53.055 9.026349
53.060 9.316752
53.065 9.920101
53.070 10.228042
53.075 10.392126
53.080 10.507936
53.085 10.473158
53.090 10.574346
53.095 10.366833
53.100 10.31521
53.105 10.088077
53.110 10.353892
53.115 10.317166
53.120 10.206416
53.125 10.205012
53.130 10.228676
53.135 10.274866
53.140 10.243078
53.145 9.706711
53.150 9.614029
53.155 9.792855
53.160 9.88077
53.165 9.74165
53.170 9.296574
53.175 9.48899
53.180 9.701285
53.185 9.737807
53.190 9.410455
53.195 9.612095
53.200 9.635115
53.205 9.915651
53.210 10.479923
53.215 9.987551
53.220 9.469087
53.225 9.523167
53.230 8.980489
53.235 8.957954
53.240 8.475474
53.245 8.279142
53.250 8.842021
53.255 9.24197
53.260 9.196203
53.265 9.361619
53.270 9.431808
53.275 9.590272
53.280 9.67345
53.285 9.889499
53.290 9.986319
53.295 10.252483
53.300 10.787808
53.305 10.869897
53.310 10.873542
53.315 11.034276
53.320 10.980204
53.325 11.162179
53.330 11.047104
53.335 10.442119
53.340 10.105959
53.345 9.817835
53.350 9.963744
53.355 9.990655
53.360 9.766997
53.365 9.931127
53.370 10.290055
53.375 10.724362
53.380 10.816318
53.385 10.433348
53.390 10.41479
53.395 10.09102
53.400 9.855565
53.405 10.026303
53.410 9.883737
53.415 9.450945
53.420 9.441376
53.425 9.684141
53.430 10.123163
53.435 10.429061
53.440 10.404388
53.445 10.532751
53.450 10.957839
53.455 10.944057
53.460 10.739564
53.465 10.587245
53.470 10.270911
53.475 10.366971
53.480 10.060826
53.485 10.106142
53.490 10.40365
53.495 10.248112
53.500 10.200359
53.505 10.159616
53.510 9.908101
53.515 9.829906
53.520 9.343211
53.525 8.941644
53.530 8.756091
53.535 8.864915
53.540 8.801896
53.545 8.706047
53.550 8.662274
53.555 9.184245
53.560 9.768426
53.565 10.549598
53.570 10.785802
53.575 11.254264
53.580 11.401575
53.585 11.594589
53.590 10.950074
53.595 10.727047
53.600 10.44578
53.605 10.504421
53.610 10.779063
53.615 10.792109
53.620 10.760546
53.625 11.201822
53.630 11.144996
53.635 10.997409
53.640 10.987242
53.645 10.939584
53.650 11.384709
53.655 11.654675
53.660 11.666913
53.665 11.831324
53.670 11.519114
53.675 11.358167
53.680 11.238937
53.685 10.975905
53.690 10.591085
53.695 10.812463
53.700 10.82455
53.705 10.798649
53.710 10.814223
53.715 10.728795
53.720 10.452347
53.725 10.298009
53.730 10.077173
53.735 10.064301
53.740 10.388897
53.745 10.490086
53.750 10.736362
53.755 11.073104
53.760 11.184518
53.765 10.847394
53.770 10.551142
53.775 10.470063
53.780 10.572414
53.785 11.077454
53.790 11.354957
53.795 11.046177
53.800 11.192477
53.805 11.430552
53.810 10.776403
53.815 10.070575
53.820 9.084656
53.825 8.95673
53.830 9.144882
53.835 8.705363
53.840 8.681969
53.845 8.95244
53.850 9.099858
53.855 9.395103
53.860 9.860658
53.865 9.887307
53.870 10.218018
53.875 10.124847
53.880 10.506056
53.885 10.89924
53.890 11.156981
53.895 11.353215
53.900 11.641486
53.905 11.749493
53.910 11.526902
53.915 11.437153
53.920 11.603561
53.925 11.416924
53.930 11.023819
53.935 10.663001
53.940 10.870711
53.945 11.139052
53.950 10.792993
53.955 10.383554
53.960 10.647201
53.965 11.14769
53.970 11.289116
53.975 11.637669
53.980 11.824266
53.985 12.016306
53.990 11.858178
53.995 11.901639
54.000 12.126242
54.005 11.902451
54.010 11.260813
54.015 10.79715
54.020 10.990852
54.025 11.282638
54.030 11.188868
54.035 10.612226
54.040 10.434648
54.045 10.735278
54.050 11.549926
54.055 12.16851
54.060 11.886971
54.065 11.982495
54.070 12.410827
54.075 12.755372
54.080 13.244644
54.085 12.78493
54.090 12.268106
54.095 12.247041
54.100 12.513032
54.105 12.988383
54.110 12.717639
54.115 11.93901
54.120 11.435146
54.125 11.768604
54.130 11.531486
54.135 11.11449
54.140 10.69852
54.145 10.605564
54.150 11.283945
54.155 11.767214
54.160 11.434872
54.165 10.700924
54.170 10.272378
54.175 10.314898
54.180 10.20479
54.185 10.166361
54.190 10.002264
54.195 10.205182
54.200 10.410343
54.205 10.689363
54.210 11.287423
54.215 11.198412
54.220 10.82252
54.225 10.643148
54.230 10.696298
54.235 11.042565
54.240 11.249415
54.245 10.693405
54.250 10.442906
54.255 10.962858
54.260 11.328772
54.265 11.503113
54.270 11.802246
54.275 11.419881
54.280 12.332344
54.285 12.955737
54.290 12.546567
54.295 12.842678
54.300 12.84933
54.305 12.536036
54.310 12.661782
54.315 12.346979
54.320 12.49846
54.325 12.573436
54.330 12.04474
54.335 11.439939
54.340 11.139381
54.345 10.699773
54.350 10.819909
54.355 10.710091
54.360 10.618678
54.365 10.769049
54.370 10.833728
54.375 11.099088
54.380 11.073164
54.385 10.434254
54.390 10.700434
54.395 10.691874
54.400 10.744615
54.405 10.870865
54.410 11.100945
54.415 11.247334
54.420 11.633942
54.425 11.2753
54.430 11.462476
54.435 11.590503
54.440 11.732789
54.445 11.543373
54.450 11.591573
54.455 11.056144
54.460 11.199753
54.465 11.054144
54.470 11.372619
54.475 11.43489
54.480 11.412621
54.485 10.886596
54.490 10.937889
54.495 10.97947
54.500 11.005921
54.505 10.26081
54.510 10.245711
54.515 10.545375
54.520 10.950485
54.525 11.208493
54.530 10.88448
54.535 11.304852
54.540 11.90764
54.545 12.354017
54.550 12.363896
54.555 12.610949
54.560 12.37857
54.565 12.647225
54.570 12.509217
54.575 12.062783
54.580 12.061256
54.585 12.091815
54.590 12.076723
54.595 12.116858
54.600 11.893027
54.605 11.92135
54.610 11.850654
54.615 11.256577
54.620 11.112313
54.625 10.904318
54.630 11.028974
54.635 11.389115
54.640 11.46874
54.645 11.011691
54.650 11.086411
54.655 11.073497
54.660 11.228995
54.665 11.413925
54.670 11.421032
54.675 11.349933
54.680 11.800758
54.685 12.15568
54.690 12.550035
54.695 12.776246
54.700 12.716803
54.705 12.39843
54.710 12.170343
54.715 12.007818
54.720 11.614186
54.725 11.391111
54.730 11.409986
54.735 11.231097
54.740 12.086846
54.745 13.108796
54.750 13.215158
54.755 13.141615
54.760 12.785202
54.765 11.775404
54.770 11.770209
54.775 10.744409
54.780 10.052301
54.785 10.290386
54.790 10.513329
54.795 10.962346
54.800 11.667966
54.805 11.683283
54.810 11.921418
54.815 12.074329
54.820 12.064034
54.825 12.109283
54.830 11.815636
54.835 11.821974
54.840 11.615915
54.845 12.055938
54.850 12.359221
54.855 12.192726
54.860 12.293765
54.865 12.482314
54.870 12.008919
54.875 12.003732
54.880 11.421486
54.885 11.025662
54.890 10.933154
54.895 10.342813
54.900 10.237638
54.905 10.498744
54.910 10.898888
54.915 11.348899
54.920 11.825819
54.925 11.923474
54.930 12.426067
54.935 12.615595
54.940 12.280772
54.945 11.541018
54.950 10.786226
54.955 10.025474
54.960 9.566381
54.965 9.543131
54.970 9.987992
54.975 10.531573
54.980 11.594915
54.985 12.490967
54.990 13.258897
54.995 13.572901
55.000 13.402849
55.005 12.914334
55.010 12.415812
55.015 12.140098
55.020 12.226615
55.025 12.384411
55.030 12.416642
55.035 12.689262
55.040 12.830894
55.045 12.943605
55.050 12.62754
55.055 12.426441
55.060 12.089697
55.065 11.839763
55.070 11.649663
55.075 11.719285
55.080 11.821003
55.085 11.830772
55.090 11.734798
55.095 12.204944
55.100 12.703086
55.105 12.717557
55.110 13.082541
55.115 13.093649
55.120 13.315108
55.125 12.79112
55.130 12.127498
55.135 11.625863
55.140 11.972631
55.145 11.678577
55.150 11.32692
55.155 11.57861
55.160 12.204673
55.165 12.690508
55.170 13.100053
55.175 12.831635
55.180 12.948927
55.185 13.105934
55.190 12.814247
55.195 12.862995
55.200 12.770825
55.205 12.432886
55.210 12.463617
55.215 12.500852
55.220 12.29812
55.225 11.877973
55.230 11.87158
55.235 11.669231
55.240 11.486583
55.245 11.035327
55.250 10.715449
55.255 11.29425
55.260 11.416287
55.265 11.470687
55.270 11.48247
55.275 11.800596
55.280 12.013283
55.285 12.109287
55.290 11.813719
55.295 12.164794
55.300 11.789896
55.305 11.973091
55.310 11.952583
55.315 12.160574
55.320 12.218496
55.325 12.056385
55.330 11.706342
55.335 11.809786
55.340 11.601169
55.345 11.436183
55.350 11.500554
55.355 11.695313
55.360 11.895779
55.365 12.574642
55.370 12.958016
55.375 13.50893
55.380 13.427297
55.385 13.360376
55.390 12.905776
55.395 12.436081
55.400 11.792119
55.405 11.445183
55.410 11.297168
55.415 11.044609
55.420 11.309361
55.425 12.243992
55.430 12.647478
55.435 12.949479
55.440 13.302561
55.445 12.732531
55.450 12.421754
55.455 12.103293
55.460 11.580353
55.465 11.546827
55.470 11.534234
55.475 11.791978
55.480 12.796017
55.485 13.604877
55.490 13.597116
55.495 13.363696
55.500 13.306106
55.505 13.052943
55.510 12.660587
55.515 12.299317
55.520 12.203398
55.525 12.241701
55.530 12.0984
55.535 11.914262
55.540 11.80605
55.545 11.676178
55.550 11.309766
55.555 11.281787
55.560 11.140185
55.565 11.175556
55.570 11.348701
55.575 11.685054
55.580 11.828243
55.585 12.331274
55.590 12.702279
55.595 13.182194
55.600 13.592092
55.605 13.483303
55.610 13.380229
55.615 13.247253
55.620 12.640607
55.625 12.632614
55.630 12.54285
55.635 12.330734
55.640 12.135873
55.645 12.193681
55.650 12.402645
55.655 12.238223
55.660 11.807971
55.665 11.919427
55.670 11.78213
55.675 12.094702
55.680 12.222306
55.685 12.461453
55.690 12.848159
55.695 12.811851
55.700 12.478687
55.705 12.927433
55.710 12.581538
55.715 12.364357
55.720 12.750245
55.725 12.961243
55.730 13.052622
55.735 13.640162
55.740 13.616878
55.745 14.106981
55.750 14.09447
55.755 13.79342
55.760 13.154016
55.765 12.489559
55.770 11.764297
55.775 11.909524
55.780 12.184855
55.785 12.008717
55.790 12.323281
55.795 13.118071
55.800 13.754652
55.805 14.028988
55.810 13.588363
55.815 13.422091
55.820 13.914763
55.825 14.266199
55.830 13.790661
55.835 13.935431
55.840 13.943906
55.845 14.401625
55.850 14.45547
55.855 13.711379
55.860 13.618523
55.865 14.222919
55.870 14.481682
55.875 14.728941
55.880 14.459587
55.885 14.50048
55.890 14.674392
55.895 14.129094
55.900 13.933845
55.905 13.200717
55.910 12.807824
55.915 12.856749
55.920 12.844949
55.925 13.01909
55.930 13.693658
55.935 13.696877
55.940 14.584908
55.945 14.697191
55.950 14.487497
55.955 14.778717
55.960 14.471054
55.965 13.835311
55.970 13.842423
55.975 13.67353
55.980 13.825395
55.985 13.631844
55.990 13.50815
55.995 13.139836
56.000 13.348262
56.005 12.839068
56.010 12.735653
56.015 12.824762
56.020 12.917675
56.025 12.282827
56.030 12.692868
56.035 12.701947
56.040 12.444965
56.045 12.201615
56.050 11.924637
56.055 12.236492
56.060 13.043199
56.065 13.401415
56.070 13.332615
56.075 13.519956
56.080 13.182611
56.085 13.41378
56.090 13.312676
56.095 13.522291
56.100 13.153342
56.105 13.63693
56.110 14.052967
56.115 14.582697
56.120 14.205674
56.125 13.528712
56.130 13.648335
56.135 14.203528
56.140 14.307465
56.145 13.967113
56.150 13.7654
56.155 13.998682
56.160 14.223868
56.165 13.774252
56.170 13.816706
56.175 13.63435
56.180 13.699327
56.185 13.179938
56.190 13.073076
56.195 13.036489
56.200 12.987619
56.205 12.883188
56.210 13.290728
56.215 13.202633
56.220 13.687961
56.225 13.63649
56.230 13.789549
56.235 13.557873
56.240 13.419394
56.245 13.273605
56.250 13.132706
56.255 13.173995
56.260 13.173735
56.265 13.09568
56.270 12.73545
56.275 12.616771
56.280 12.497352
56.285 12.268405
56.290 12.839438
56.295 13.358672
56.300 13.546803
56.305 13.746781
56.310 13.516469
56.315 13.846122
56.320 14.880365
56.325 14.621651
56.330 14.266268
56.335 14.401331
56.340 14.384585
56.345 14.460094
56.350 13.868369
56.355 13.254806
56.360 12.344954
56.365 12.21118
56.370 12.258788
56.375 12.632798
56.380 12.525322
56.385 12.966846
56.390 13.346511
56.395 14.198134
56.400 14.236241
56.405 13.899254
56.410 13.623499
56.415 13.94354
56.420 13.938315
56.425 13.705994
56.430 13.825706
56.435 13.673403
56.440 14.068931
56.445 14.180952
56.450 13.891746
56.455 13.546257
56.460 13.288565
56.465 13.301163
56.470 13.227596
56.475 12.578867
56.480 12.296038
56.485 12.148484
56.490 12.784649
56.495 12.811429
56.500 12.353685
56.505 12.675971
56.510 13.071733
56.515 13.255127
56.520 12.844458
56.525 12.36835
56.530 12.891387
56.535 13.514853
56.540 13.569736
56.545 13.602009
56.550 13.699466
56.555 13.913323
56.560 13.816363
56.565 13.250017
56.570 12.402593
56.575 12.007162
56.580 11.930559
56.585 12.476253
56.590 13.1076
56.595 13.263006
56.600 13.529936
56.605 14.281012
56.610 14.677849
56.615 14.710306
56.620 14.308527
56.625 14.518569
56.630 14.285029
56.635 14.034625
56.640 13.393331
56.645 13.223421
56.650 13.737123
56.655 13.720218
56.660 13.372045
56.665 13.419459
56.670 13.525448
56.675 13.829042
56.680 13.570415
56.685 12.858981
56.690 13.045292
56.695 12.809313
56.700 12.684515
56.705 12.747353
56.710 12.810463
56.715 12.574494
56.720 12.588965
56.725 12.40795
56.730 12.947665
56.735 12.997448
56.740 13.457148
56.745 13.488862
56.750 13.842269
56.755 13.834622
56.760 13.782568
56.765 13.713809
56.770 13.770278
56.775 13.750491
56.780 14.0182
56.785 14.023188
56.790 14.227142
56.795 14.477699
56.800 14.947334
56.805 15.138195
56.810 14.693564
56.815 14.256323
56.820 13.950506
56.825 13.879779
56.830 14.005176
56.835 13.534586
56.840 13.138804
56.845 13.687281
56.850 13.924326
56.855 14.007216
56.860 13.446724
56.865 13.129023
56.870 13.987937
56.875 14.112664
56.880 13.954504
56.885 14.36357
56.890 14.60906
56.895 15.071972
56.900 15.340967
56.905 14.869146
56.910 14.579462
56.915 14.89328
56.920 15.350229
56.925 15.697298
56.930 15.546302
56.935 14.612677
56.940 14.115416
56.945 14.51456
56.950 13.946572
56.955 13.35772
56.960 12.71512
56.965 12.563807
56.970 12.895103
56.975 13.448276
56.980 13.617171
56.985 13.989765
56.990 14.092436
56.995 14.293061
57.000 14.130198
57.005 14.217091
57.010 13.97749
57.015 13.466249
57.020 13.301552
57.025 13.674162
57.030 13.758826
57.035 13.912664
57.040 13.936788
57.045 13.935717
57.050 13.593525
57.055 13.491241
57.060 13.468313
57.065 13.443032
57.070 13.139889
57.075 13.639263
57.080 14.243399
57.085 14.335989
57.090 14.134233
57.095 14.192813
57.100 14.585071
57.105 15.132275
57.110 14.710455
57.115 14.345211
57.120 14.600464
57.125 14.409499
57.130 14.111297
57.135 14.013396
57.140 13.674823
57.145 13.152504
57.150 13.26064
57.155 13.226849
57.160 13.371971
57.165 13.717687
57.170 13.447357
57.175 13.712351
57.180 14.169644
57.185 14.19169
57.190 15.2709
57.195 15.523544
57.200 15.601354
57.205 16.121939
57.210 16.308899
57.215 16.031403
57.220 15.519036
57.225 14.369597
57.230 13.909167
57.235 13.472341
57.240 13.040318
57.245 13.410663
57.250 14.25602
57.255 14.130122
57.260 14.577524
57.265 14.618684
57.270 14.966931
57.275 14.878956
57.280 14.220224
57.285 14.104585
57.290 14.547659
57.295 14.803528
57.300 15.859209
57.305 16.024647
57.310 15.586944
57.315 15.931414
57.320 15.822268
57.325 15.884758
57.330 15.603784
57.335 14.804198
57.340 14.679082
57.345 14.892278
57.350 14.75397
57.355 14.75594
57.360 14.43793
57.365 13.796903
57.370 13.596692
57.375 13.83049
57.380 13.691405
57.385 13.851977
57.390 14.079187
57.395 14.386613
57.400 14.67373
57.405 14.76834
57.410 15.004311
57.415 15.497861
57.420 15.64641
57.425 15.576517
57.430 15.560736
57.435 15.848527
57.440 16.112791
57.445 15.794126
57.450 16.071205
57.455 15.575429
57.460 14.955242
57.465 15.083766
57.470 15.400488
57.475 15.349474
57.480 15.53177
57.485 15.278374
57.490 16.100857
57.495 17.021507
57.500 16.896616
57.505 17.011229
57.510 17.063005
57.515 16.996712
57.520 16.504772
57.525 16.099726
57.530 15.522757
57.535 15.440331
57.540 15.090338
57.545 15.210584
57.550 15.055647
57.555 14.349609
57.560 13.923892
57.565 14.189518
57.570 14.567491
57.575 14.394087
57.580 14.358815
57.585 14.832806
57.590 15.957642
57.595 16.351763
57.600 16.597912
57.605 16.521221
57.610 16.666599
57.615 16.689518
57.620 16.519609
57.625 16.296953
57.630 16.616135
57.635 16.664671
57.640 16.785603
57.645 16.881929
57.650 17.057327
57.655 17.444204
57.660 17.408079
57.665 17.013618
57.670 16.266699
57.675 16.018108
57.680 16.078119
57.685 16.216646
57.690 16.115175
57.695 16.252308
57.700 16.154999
57.705 16.28779
57.710 16.27438
57.715 16.0427
57.720 15.526615
57.725 15.582596
57.730 15.305024
57.735 15.693526
57.740 16.05685
57.745 16.429428
57.750 16.932688
57.755 17.116312
57.760 16.793016
57.765 16.178738
57.770 16.251944
57.775 16.708433
57.780 16.374813
57.785 15.792421
57.790 15.753264
57.795 15.903235
57.800 16.022051
57.805 15.666287
57.810 14.859347
57.815 15.092557
57.820 15.397341
57.825 15.34578
57.830 15.708396
57.835 15.903394
57.840 15.613922
57.845 15.428464
57.850 15.336555
57.855 15.104964
57.860 14.852613
57.865 14.95754
57.870 15.553944
57.875 16.078024
57.880 16.34366
57.885 16.470551
57.890 16.739872
57.895 16.675449
57.900 16.723213
57.905 16.654417
57.910 16.439165
57.915 16.471823
57.920 16.648281
57.925 16.740158
57.930 16.726606
57.935 15.947444
57.940 15.882221
57.945 15.948436
57.950 15.816518
57.955 15.583396
57.960 15.677225
57.965 16.114704
57.970 16.236464
57.975 16.103571
57.980 15.916979
57.985 15.861501
57.990 15.794682
57.995 15.65479
58.000 15.568505
58.005 15.302837
58.010 15.958422
58.015 17.143133
58.020 17.491213
58.025 17.6432
58.030 17.887417
58.035 17.824717
58.040 18.083908
58.045 17.81567
58.050 17.187088
58.055 17.07704
58.060 17.481501
58.065 17.635559
58.070 18.278553
58.075 18.7442
58.080 18.618649
58.085 18.641069
58.090 18.326687
58.095 17.909098
58.100 17.951433
58.105 18.171396
58.110 18.259357
58.115 18.037025
58.120 18.212873
58.125 18.226109
58.130 18.045082
58.135 17.750877
58.140 18.115473
58.145 17.983944
58.150 18.106688
58.155 18.284269
58.160 18.557014
58.165 19.106091
58.170 19.191948
58.175 18.537842
58.180 18.011858
58.185 18.111465
58.190 18.334869
58.195 18.395346
58.200 18.382662
58.205 18.76635
58.210 18.730774
58.215 18.873566
58.220 18.767612
58.225 18.447994
58.230 18.423733
58.235 18.338501
58.240 18.074583
58.245 17.865259
58.250 18.171156
58.255 18.415245
58.260 18.935141
58.265 19.373272
58.270 19.539614
58.275 19.841814
58.280 20.521814
58.285 20.569799
58.290 20.386345
58.295 19.918884
58.300 19.673237
58.305 19.459932
58.310 19.573854
58.315 20.092697
58.320 20.67342
58.325 21.019112
58.330 21.58835
58.335 21.884451
58.340 22.301373
58.345 22.767504
58.350 22.687338
58.355 22.902691
58.360 22.795664
58.365 22.890707
58.370 23.597353
58.375 23.732542
58.380 23.407806
58.385 22.503561
58.390 22.449808
58.395 23.386997
58.400 23.569229
58.405 23.410191
58.410 23.410707
58.415 23.938444
58.420 25.552416
58.425 25.866226
58.430 26.191433
58.435 26.418541
58.440 26.36199
58.445 26.944944
58.450 26.765854
58.455 26.516495
58.460 26.735004
58.465 26.290485
58.470 26.669844
58.475 27.222624
58.480 27.432068
58.485 28.014254
58.490 28.18713
58.495 28.703993
58.500 29.509388
58.505 29.735653
58.510 30.481136
58.515 30.781582
58.520 30.964731
58.525 31.795198
58.530 31.747025
58.535 32.070534
58.540 32.02557
58.545 31.094025
58.550 30.91781
58.555 30.387554
58.560 29.859144
58.565 29.664505
58.570 29.600199
58.575 30.139975
58.580 30.286415
58.585 31.396294
58.590 32.412819
58.595 33.244377
58.600 34.058178
58.605 33.8479
58.610 33.994209
58.615 34.349148
58.620 33.786633
58.625 33.797924
58.630 34.197746
58.635 33.833828
58.640 33.70853
58.645 33.801773
58.650 34.040455
58.655 34.29171
58.660 34.358418
58.665 33.311386
58.670 32.846569
58.675 33.20509
58.680 33.065315
58.685 32.772884
58.690 32.408516
58.695 31.893467
58.700 32.261879
58.705 32.489853
58.710 32.193115
58.715 31.890764
58.720 32.584698
58.725 32.366608
58.730 31.978689
58.735 31.112873
58.740 30.655664
58.745 30.070225
58.750 29.383451
58.755 28.071339
58.760 28.12389
58.765 28.414392
58.770 28.705206
58.775 28.705969
58.780 29.123718
58.785 28.987322
58.790 28.852587
58.795 28.545099
58.800 27.063913
58.805 26.370665
58.810 25.112562
58.815 23.758223
58.820 23.595968
58.825 22.729279
58.830 21.738104
58.835 21.217813
58.840 20.982227
58.845 21.398876
58.850 21.661613
58.855 21.740915
58.860 22.193197
58.865 22.960512
58.870 23.848667
58.875 23.790468
58.880 23.361132
58.885 23.236998
58.890 23.087166
58.895 23.096943
58.900 22.927906
58.905 22.2771
58.910 22.641537
58.915 22.540817
58.920 22.111671
58.925 21.655003
58.930 21.422482
58.935 21.364319
58.940 21.61664
58.945 21.665258
58.950 21.48465
58.955 21.508986
58.960 21.337334
58.965 21.359354
58.970 21.100874
58.975 20.904568
58.980 20.491283
58.985 20.342705
58.990 20.413486
58.995 20.273605
59.000 19.749699
59.005 19.361877
59.010 18.911167
59.015 18.674726
59.020 18.812696
59.025 18.794313
59.030 19.034859
59.035 19.685537
59.040 19.500023
59.045 19.835941
59.050 20.049156
59.055 20.142235
59.060 20.2349
59.065 20.331444
59.070 20.029871
59.075 19.896402
59.080 19.617069
59.085 18.956347
59.090 18.457352
59.095 17.39032
59.100 16.564547
59.105 16.211384
59.110 15.956133
59.115 15.530687
59.120 15.133029
59.125 15.159346
59.130 15.536699
59.135 15.493305
59.140 15.277251
59.145 15.033254
59.150 15.431731
59.155 16.381472
59.160 16.365591
59.165 16.837984
59.170 17.487064
59.175 17.87833
59.180 18.540939
59.185 19.11841
59.190 18.813498
59.195 18.862732
59.200 18.501476
59.205 17.69986
59.210 17.696102
59.215 17.040884
59.220 16.123789
59.225 16.264854
59.230 16.39904
59.235 16.836397
59.240 17.139324
59.245 17.349842
59.250 17.129408
59.255 17.320349
59.260 17.234522
59.265 16.99925
59.270 16.322977
59.275 16.383921
59.280 15.725495
59.285 15.402802
59.290 15.148911
59.295 14.82245
59.300 15.115556
59.305 15.750059
59.310 15.944693
59.315 16.418882
59.320 16.326103
59.325 16.821415
59.330 17.559578
59.335 17.317432
59.340 17.223579
59.345 16.983076
59.350 17.153536
59.355 17.244474
59.360 16.54043
59.365 16.341848
59.370 16.637402
59.375 16.629524
59.380 16.493343
59.385 16.185795
59.390 16.376925
59.395 16.468262
59.400 15.802388
59.405 15.412758
59.410 15.355947
59.415 15.860527
59.420 16.474892
59.425 16.687239
59.430 17.151333
59.435 17.222582
59.440 17.55409
59.445 17.897917
59.450 17.68611
59.455 16.956005
59.460 16.716156
59.465 16.371244
59.470 16.582788
59.475 16.16243
59.480 15.907177
59.485 16.123989
59.490 16.225037
59.495 16.004416
59.500 16.186861
59.505 16.049513
59.510 16.115704
59.515 16.282682
59.520 16.30772
59.525 16.318371
59.530 15.870499
59.535 15.865857
59.540 16.347452
59.545 16.261023
59.550 15.932889
59.555 15.99202
59.560 16.494534
59.565 16.917398
59.570 16.673414
59.575 16.266672
59.580 16.599476
59.585 16.767775
59.590 16.663031
59.595 16.456226
59.600 16.022879
59.605 15.438478
59.610 15.453281
59.615 15.400446
59.620 15.196238
59.625 14.77917
59.630 15.01682
59.635 15.953831
59.640 16.025957
59.645 16.193848
59.650 15.948485
59.655 15.770625
59.660 16.109762
59.665 16.080166
59.670 16.245296
59.675 16.986902
59.680 17.090368
59.685 16.991917
59.690 17.149096
59.695 17.120066
59.700 17.462742
59.705 17.268061
59.710 17.391241
59.715 17.235916
59.720 17.213417
59.725 16.819025
59.730 17.061852
59.735 16.937456
59.740 16.7659
59.745 15.971229
59.750 15.903359
59.755 16.166157
59.760 16.464798
59.765 16.235403
59.770 15.93799
59.775 15.669741
59.780 15.893785
59.785 15.940984
59.790 15.973874
59.795 15.796504
59.800 15.853011
59.805 16.191269
59.810 16.626717
59.815 16.807617
59.820 16.830084
59.825 16.806896
59.830 16.799974
59.835 16.936245
59.840 17.157782
59.845 17.006117
59.850 16.805502
59.855 16.599558
59.860 16.730549
59.865 16.92131
59.870 16.465824
59.875 15.566916
59.880 16.119583
59.885 16.72385
59.890 17.230412
59.895 17.175165
59.900 17.097668
59.905 17.048998
59.910 17.584133
59.915 17.219734
59.920 16.57501
59.925 16.098284
59.930 15.627592
59.935 15.398194
59.940 15.704753
59.945 15.705542
59.950 16.100634
59.955 15.884458
59.960 16.154428
59.965 16.520599
59.970 16.696644
59.975 16.585098
59.980 15.793898
59.985 15.150472
59.990 15.506269
59.995 15.567073
60.000 15.495342
60.005 15.348061
60.010 15.556199
60.015 16.285759
60.020 16.381411
60.025 16.623634
60.030 16.481731
60.035 17.026955
60.040 17.160368
60.045 16.597786
60.050 16.262238
60.055 16.561373
60.060 16.682501
60.065 16.904421
60.070 16.485701
60.075 16.317675
60.080 16.693106
60.085 17.099815
60.090 17.138866
60.095 16.635607
60.100 16.383028
60.105 16.397532
60.110 16.332983
60.115 16.148506
60.120 14.98887
60.125 14.877354
60.130 14.879378
60.135 14.537231
60.140 14.195345
60.145 13.763125
60.150 14.431433
60.155 15.392858
60.160 15.079007
60.165 15.294151
60.170 15.245729
60.175 15.432373
60.180 16.104816
60.185 16.071356
60.190 15.933535
60.195 16.043949
60.200 15.889377
60.205 16.619699
60.210 16.938444
60.215 16.472469
60.220 15.818038
60.225 15.950933
60.230 16.337831
60.235 16.237009
60.240 15.832727
60.245 15.900642
60.250 16.277943
60.255 16.169466
60.260 16.259003
60.265 16.078836
60.270 16.212898
60.275 16.264137
60.280 16.355951
60.285 16.349131
60.290 16.557171
60.295 16.228148
60.300 16.409718
60.305 16.335266
60.310 16.48263
60.315 16.094887
60.320 16.254221
60.325 16.313248
60.330 16.332628
60.335 16.336098
60.340 16.327665
60.345 15.998223
60.350 15.555241
60.355 15.486773
60.360 15.141462
60.365 14.722504
60.370 14.733811
60.375 15.021049
60.380 15.064168
60.385 15.441508
60.390 15.127339
60.395 15.69436
60.400 15.299759
60.405 15.033202
60.410 14.814498
60.415 15.467739
60.420 15.697859
60.425 15.545866
60.430 15.498712
60.435 16.21459
60.440 16.602081
60.445 16.454483
60.450 16.099237
60.455 16.073973
60.460 16.712013
60.465 16.655935
60.470 16.337206
60.475 16.333632
60.480 17.028774
60.485 17.26042
60.490 17.388031
60.495 17.458633
60.500 17.901581
60.505 18.547825
60.510 18.232803
60.515 17.331129
60.520 16.709375
60.525 16.309839
60.530 16.215405
60.535 16.09041
60.540 15.505622
60.545 15.801682
60.550 15.759788
60.555 15.928116
60.560 15.886151
60.565 15.941833
60.570 16.865219
60.575 16.796648
60.580 16.861401
60.585 17.465715
60.590 17.263739
60.595 17.499378
60.600 17.064596
60.605 16.296114
60.610 17.055315
60.615 17.297817
60.620 16.936687
60.625 17.139711
60.630 17.015738
60.635 17.219772
60.640 17.05883
60.645 16.595181
60.650 16.320116
60.655 16.471928
60.660 17.081427
60.665 17.280933
60.670 17.611937
60.675 17.322945
60.680 17.100054
60.685 17.222042
60.690 17.210737
60.695 16.6178
60.700 16.187649
60.705 15.478851
60.710 15.901712
60.715 16.435133
60.720 16.517027
60.725 16.347206
60.730 16.301819
60.735 16.458977
60.740 16.765446
60.745 16.825256
60.750 16.831133
60.755 16.987061
60.760 17.102468
60.765 16.756306
60.770 16.873764
60.775 16.887415
60.780 16.974731
60.785 16.342449
60.790 16.148975
60.795 16.742056
60.800 16.836691
60.805 16.717211
60.810 16.089325
60.815 15.636168
60.820 16.059074
60.825 16.852306
60.830 17.002775
60.835 17.354052
60.840 17.443367
60.845 17.649988
60.850 17.948948
60.855 17.909931
60.860 16.93804
60.865 16.424419
60.870 16.259487
60.875 15.932998
60.880 15.464886
60.885 14.768396
60.890 15.269268
60.895 15.391889
60.900 15.400742
60.905 16.015112
60.910 16.681923
60.915 17.176107
60.920 17.080805
60.925 16.620485
60.930 16.662231
60.935 17.47978
60.940 17.82325
60.945 17.909264
60.950 18.505714
60.955 18.707836
60.960 18.252647
60.965 18.099417
60.970 17.217747
60.975 16.136454
60.980 15.381949
60.985 15.259439
60.990 15.244967
60.995 15.302667
61.000 14.942523
61.005 14.766562
61.010 15.14569
61.015 15.214791
61.020 15.189298
61.025 15.474676
61.030 15.757579
61.035 16.578362
61.040 17.596384
61.045 17.607971
61.050 18.284304
61.055 18.028545
61.060 17.284473
61.065 17.22834
61.070 17.310431
61.075 16.794151
61.080 16.876818
61.085 16.393673
61.090 16.259254
61.095 16.438108
61.100 16.602829
61.105 16.808231
61.110 16.501379
61.115 16.617582
61.120 16.853554
61.125 17.65855
61.130 18.052992
61.135 17.697937
61.140 16.828012
61.145 17.019831
61.150 16.909561
61.155 16.729567
61.160 16.286112
61.165 16.541344
61.170 17.255047
61.175 17.988321
61.180 18.173031
61.185 18.49226
61.190 18.487762
61.195 18.424204
61.200 18.002922
61.205 17.648569
61.210 17.32436
61.215 17.466402
61.220 17.688313
61.225 18.295546
61.230 18.524233
61.235 18.325499
61.240 17.920818
61.245 17.875824
61.250 17.254595
61.255 16.740299
61.260 16.012981
61.265 15.437597
61.270 15.967246
61.275 16.306995
61.280 16.119246
61.285 16.355682
61.290 16.753777
61.295 17.249203
61.300 17.956509
61.305 17.446482
61.310 17.205685
61.315 17.37953
61.320 17.189186
61.325 16.671453
61.330 16.474739
61.335 16.237389
61.340 16.448126
61.345 16.916473
61.350 16.983171
61.355 17.05764
61.360 17.809593
61.365 18.21604
61.370 18.376102
61.375 18.711998
61.380 18.003889
61.385 17.867056
61.390 17.548786
61.395 17.281973
61.400 16.403948
61.405 16.144464
61.410 15.630418
61.415 15.690419
61.420 16.187077
61.425 16.323582
61.430 15.945532
61.435 16.496065
61.440 16.486689
61.445 16.895189
61.450 17.127832
61.455 16.958725
61.460 17.438147
61.465 17.62715
61.470 17.68671
61.475 17.824533
61.480 18.021793
61.485 17.520288
61.490 17.545166
61.495 17.041883
61.500 17.024576
61.505 16.834284
61.510 17.217861
61.515 16.791267
61.520 16.52092
61.525 16.101564
61.530 16.208616
61.535 15.794791
61.540 15.88041
61.545 15.535269
61.550 15.778798
61.555 16.743334
61.560 17.40799
61.565 17.948895
61.570 18.490488
61.575 18.519806
61.580 18.974825
61.585 19.343569
61.590 19.109337
61.595 18.352137
61.600 17.890791
61.605 18.128252
61.610 18.11549
61.615 17.707804
61.620 17.125729
61.625 16.969072
61.630 16.860352
61.635 16.777493
61.640 16.798656
61.645 16.888256
61.650 17.059416
61.655 17.310318
61.660 17.081217
61.665 17.166756
61.670 17.28891
61.675 16.633402
61.680 15.964554
61.685 15.400309
61.690 15.28824
61.695 15.275946
61.700 15.089273
61.705 15.050309
61.710 15.243235
61.715 15.370772
61.720 15.408401
61.725 15.549972
61.730 15.995962
61.735 16.277538
61.740 16.027849
61.745 15.806307
61.750 15.647718
61.755 16.145361
61.760 16.210026
61.765 16.352907
61.770 16.749407
61.775 17.249218
61.780 17.250486
61.785 17.288074
61.790 17.257341
61.795 17.246092
61.800 16.923035
61.805 16.170576
61.810 16.083347
61.815 16.707275
61.820 17.17981
61.825 17.214005
61.830 16.899755
61.835 17.149607
61.840 17.701078
61.845 17.379156
61.850 16.885841
61.855 17.132792
61.860 16.831549
61.865 17.401945
61.870 16.672318
61.875 16.548023
61.880 16.979479
61.885 17.298485
61.890 17.06172
61.895 17.003229
61.900 17.128614
61.905 17.403673
61.910 17.456556
61.915 17.449203
61.920 17.72332
61.925 18.442236
61.930 18.106062
61.935 18.011967
61.940 18.417076
61.945 18.416227
61.950 18.143721
61.955 17.499233
61.960 16.716494
61.965 17.41185
61.970 17.581413
61.975 17.183165
61.980 16.622562
61.985 16.656225
61.990 16.441584
61.995 16.694036
62.000 16.895529
62.005 16.587276
62.010 16.812693
62.015 17.274647
62.020 17.039806
62.025 17.175192
62.030 16.809464
62.035 16.051516
62.040 16.090782
62.045 16.377798
62.050 16.995787
62.055 17.16818
62.060 17.385323
62.065 17.481733
62.070 17.393803
62.075 17.325594
62.080 16.769081
62.085 16.035749
62.090 15.87536
62.095 15.901913
62.100 15.924592
62.105 15.99921
62.110 16.022461
62.115 16.472767
62.120 16.858633
62.125 18.216274
62.130 18.542398
62.135 18.480238
62.140 18.336037
62.145 18.07155
62.150 17.992384
62.155 17.85886
62.160 17.168304
62.165 17.554365
62.170 18.078608
62.175 18.704689
62.180 19.19453
62.185 19.155243
62.190 18.850679
62.195 18.140312
62.200 17.288998
62.205 16.71616
62.210 15.968976
62.215 15.396426
62.220 15.121215
62.225 15.212152
62.230 15.468899
62.235 15.862275
62.240 16.586475
62.245 16.96595
62.250 16.789421
62.255 16.765987
62.260 16.662014
62.265 17.043631
62.270 16.877586
62.275 16.253769
62.280 16.4589
62.285 16.578205
62.290 16.821648
62.295 16.792444
62.300 16.646397
62.305 16.840111
62.310 17.320356
62.315 17.018213
62.320 17.101471
62.325 17.148487
62.330 17.409554
62.335 17.51977
62.340 17.446037
62.345 17.374817
62.350 18.144505
62.355 18.648882
62.360 18.773655
62.365 18.833874
62.370 19.152739
62.375 19.045403
62.380 18.618124
62.385 18.013
62.390 17.629236
62.395 17.547956
62.400 17.693918
62.405 17.129848
62.410 17.122089
62.415 17.024067
62.420 17.666233
62.425 17.883797
62.430 17.974636
62.435 17.630108
62.440 17.647909
62.445 18.305164
62.450 18.981274
62.455 18.903038
62.460 19.060165
62.465 19.058743
62.470 18.845348
62.475 18.998344
62.480 18.98741
62.485 18.799795
62.490 18.784124
62.495 18.572298
62.500 18.471855
62.505 18.363281
62.510 18.3876
62.515 17.526573
62.520 17.394707
62.525 17.609476
62.530 17.82312
62.535 17.721968
62.540 17.817995
62.545 17.436693
62.550 17.278032
62.555 17.004091
62.560 16.483864
62.565 16.219524
62.570 16.177231
62.575 16.157131
62.580 16.146854
62.585 16.386915
62.590 16.819752
62.595 17.109629
62.600 17.234102
62.605 17.048872
62.610 16.942959
62.615 17.018913
62.620 16.948877
62.625 16.566332
62.630 16.872658
62.635 16.72333
62.640 16.819632
62.645 17.040613
62.650 17.324684
62.655 18.129805
62.660 17.765558
62.665 17.056355
62.670 17.309214
62.675 17.004744
62.680 16.531233
62.685 16.24622
62.690 15.525668
62.695 16.012909
62.700 16.343769
62.705 15.912544
62.710 16.467718
62.715 16.957584
62.720 16.892225
62.725 16.717642
62.730 16.704887
62.735 16.94433
62.740 17.021849
62.745 17.245121
62.750 17.082108
62.755 17.752016
62.760 18.455257
62.765 18.268938
62.770 18.04583
62.775 18.19593
62.780 18.05953
62.785 18.290365
62.790 17.60239
62.795 17.422678
62.800 17.22003
62.805 17.161064
62.810 16.724537
62.815 16.692781
62.820 16.741779
62.825 17.248343
62.830 17.118439
62.835 17.118593
62.840 17.53261
62.845 17.868484
62.850 17.757051
62.855 17.279985
62.860 16.901892
62.865 16.907539
62.870 16.322346
62.875 16.04108
62.880 16.293192
62.885 16.376505
62.890 16.358315
62.895 15.8268
62.900 16.346806
62.905 17.274086
62.910 17.404249
62.915 17.442314
62.920 17.409098
62.925 17.800301
62.930 17.822224
62.935 17.278145
62.940 17.211525
62.945 17.119057
62.950 16.568903
62.955 16.467133
62.960 16.218384
62.965 17.067102
62.970 17.237396
62.975 17.055397
62.980 17.334099
62.985 18.208336
62.990 19.250937
62.995 19.583391
63.000 18.933342
63.005 18.04777
63.010 17.871895
63.015 17.315443
63.020 16.130627
63.025 15.210906
63.030 15.315821
63.035 15.670626
63.040 16.460636
63.045 16.790096
63.050 16.57452
63.055 16.867443
63.060 17.14179
63.065 16.940588
63.070 16.664928
63.075 16.219904
63.080 15.908083
63.085 15.798611
63.090 15.82853
63.095 15.555321
63.100 15.858234
63.105 16.439344
63.110 16.584425
63.115 16.952724
63.120 17.415327
63.125 17.721449
63.130 17.712427
63.135 17.25992
63.140 17.205891
63.145 17.415638
63.150 17.706451
63.155 18.196646
63.160 18.436558
63.165 18.842325
63.170 19.366468
63.175 19.257244
63.180 19.214783
63.185 18.915239
63.190 18.432068
63.195 18.523537
63.200 18.449503
63.205 18.317381
63.210 18.448689
63.215 18.305557
63.220 18.074526
63.225 17.942566
63.230 17.183483
63.235 16.96874
63.240 16.741859
63.245 16.19166
63.250 16.189302
63.255 16.435684
63.260 16.877697
63.265 17.240974
63.270 17.281015
63.275 17.187935
63.280 17.259155
63.285 17.439489
63.290 17.168255
63.295 16.978371
63.300 17.370047
63.305 17.475796
63.310 17.899235
63.315 18.216837
63.320 17.91371
63.325 17.714977
63.330 17.718462
63.335 18.105862
63.340 18.112883
63.345 18.190422
63.350 18.304169
63.355 18.507292
63.360 18.969872
63.365 18.860277
63.370 18.560797
63.375 19.122263
63.380 18.919914
63.385 18.878136
63.390 18.878002
63.395 18.575235
63.400 18.482826
63.405 18.167198
63.410 17.770706
63.415 17.78463
63.420 18.152996
63.425 18.59606
63.430 18.681765
63.435 18.787279
63.440 18.845551
63.445 18.604296
63.450 18.691927
63.455 18.525558
63.460 18.553799
63.465 18.568306
63.470 18.019697
63.475 18.313509
63.480 18.344095
63.485 18.328537
63.490 18.601927
63.495 18.734125
63.500 19.002573
63.505 20.09634
63.510 19.930803
63.515 19.851377
63.520 19.645405
63.525 19.043808
63.530 18.465536
63.535 19.007181
63.540 19.019175
63.545 19.196491
63.550 19.020096
63.555 19.097879
63.560 19.549576
63.565 20.278366
63.570 19.013805
63.575 18.103601
63.580 17.686026
63.585 18.022726
63.590 17.989676
63.595 17.707794
63.600 17.863487
63.605 18.581953
63.610 19.024008
63.615 19.313665
63.620 19.634962
63.625 19.540617
63.630 19.278227
63.635 19.217049
63.640 19.701303
63.645 20.179401
63.650 20.648058
63.655 20.742344
63.660 21.602261
63.665 21.331028
63.670 21.296827
63.675 21.100939
63.680 20.639229
63.685 20.219841
63.690 19.978403
63.695 19.562073
63.700 19.943619
63.705 19.472584
63.710 18.941902
63.715 19.343353
63.720 19.469177
63.725 19.316309
63.730 19.757584
63.735 20.189604
63.740 20.732901
63.745 20.874928
63.750 20.728024
63.755 20.517048
63.760 20.376642
63.765 19.932116
63.770 19.312969
63.775 19.033676
63.780 19.552494
63.785 19.750032
63.790 20.143816
63.795 20.601326
63.800 20.670849
63.805 21.41461
63.810 21.975056
63.815 22.005178
63.820 21.756342
63.825 21.522411
63.830 21.837984
63.835 22.415344
63.840 22.528582
63.845 22.233183
63.850 21.848396
63.855 21.875982
63.860 21.963861
63.865 21.585798
63.870 21.500084
63.875 21.777052
63.880 21.991764
63.885 22.569294
63.890 22.694895
63.895 22.79908
63.900 23.124615
63.905 23.301809
63.910 22.941278
63.915 23.245579
63.920 22.932455
63.925 22.582272
63.930 23.028629
63.935 23.07391
63.940 22.931124
63.945 23.803139
63.950 23.776989
63.955 24.338013
63.960 25.346138
63.965 25.324503
63.970 26.029619
63.975 26.312027
63.980 26.141552
63.985 26.546404
63.990 26.641117
63.995 26.837799
64.000 27.5112
64.005 27.320837
64.010 28.140009
64.015 28.803604
64.020 29.421579
64.025 30.285086
64.030 30.995775
64.035 31.0485
64.040 31.756653
64.045 32.11134
64.050 32.717007
64.055 31.760468
64.060 31.077135
64.065 30.529724
64.070 30.550386
64.075 30.008556
64.080 29.493095
64.085 29.558348
64.090 30.397329
64.095 30.990063
64.100 31.342655
64.105 31.3913
64.110 32.11248
64.115 33.111504
64.120 33.805241
64.125 34.218884
64.130 34.079304
64.135 34.865612
64.140 35.694592
64.145 35.483776
64.150 35.178593
64.155 35.18383
64.160 35.279675
64.165 35.739155
64.170 35.922348
64.175 35.905987
64.180 35.435898
64.185 35.422363
64.190 34.347095
64.195 34.189102
64.200 34.007969
64.205 33.866749
64.210 34.059624
64.215 34.615215
64.220 34.76297
64.225 35.695915
64.230 37.003139
64.235 37.4394
64.240 37.74614
64.245 38.498436
64.250 39.229801
64.255 40.282585
64.260 40.663849
64.265 40.224003
64.270 39.82658
64.275 38.885971
64.280 38.241875
64.285 37.947159
64.290 36.824074
64.295 36.6702
64.300 37.045689
64.305 37.248829
64.310 37.789364
64.315 37.378933
64.320 36.784157
64.325 37.513992
64.330 37.523895
64.335 36.633686
64.340 36.416805
64.345 35.784935
64.350 36.015568
64.355 36.14045
64.360 35.975163
64.365 35.994724
64.370 36.070557
64.375 35.84174
64.380 36.594727
64.385 36.939137
64.390 37.178261
64.395 37.810974
64.400 38.100426
64.405 38.286655
64.410 39.537025
64.415 39.499031
64.420 39.531544
64.425 39.205662
64.430 38.186069
64.435 37.992908
64.440 37.655254
64.445 37.236774
64.450 37.676388
64.455 37.443092
64.460 38.077919
64.465 37.83831
64.470 36.965153
64.475 36.369316
64.480 35.951725
64.485 35.272095
64.490 34.527935
64.495 33.138844
64.500 32.14275
64.505 31.553885
64.510 31.523045
64.515 31.102026
64.520 30.610109
64.525 30.63357
64.530 30.438679
64.535 30.033663
64.540 30.039143
64.545 30.000969
64.550 29.212297
64.555 29.136797
64.560 29.087381
64.565 29.417133
64.570 29.662012
64.575 29.616344
64.580 29.783989
64.585 29.828882
64.590 29.425694
64.595 29.902222
64.600 29.45706
64.605 29.424412
64.610 30.202768
64.615 29.969034
64.620 30.0399
64.625 29.63533
64.630 28.130562
64.635 27.552568
64.640 27.048555
64.645 26.140448
64.650 26.038061
64.655 25.572859
64.660 25.784506
64.665 25.853018
64.670 26.029209
64.675 25.631968
64.680 25.070461
64.685 24.133579
64.690 23.506144
64.695 23.229345
64.700 23.582199
64.705 23.623039
64.710 23.437243
64.715 23.058237
64.720 23.027563
64.725 23.445927
64.730 23.51099
64.735 22.969364
64.740 22.610271
64.745 22.024784
64.750 22.076395
64.755 22.429333
64.760 22.224365
64.765 22.676632
64.770 22.845877
64.775 23.546757
64.780 23.950872
64.785 23.784843
64.790 23.279793
64.795 23.092794
64.800 22.605738
64.805 22.789299
64.810 22.487499
64.815 22.095247
64.820 22.410049
64.825 22.425837
64.830 22.991716
64.835 23.056511
64.840 22.749899
64.845 22.409121
64.850 22.026476
64.855 21.407026
64.860 21.136267
64.865 20.74728
64.870 20.731073
64.875 20.807089
64.880 20.837702
64.885 21.74172
64.890 22.276068
64.895 22.632008
64.900 22.153059
64.905 22.430277
64.910 22.277439
64.915 22.792578
64.920 22.783018
64.925 22.615263
64.930 22.676174
64.935 22.877331
64.940 22.898571
64.945 22.892872
64.950 22.271263
64.955 22.125023
64.960 21.845779
64.965 22.204887
64.970 22.51882
64.975 21.821424
64.980 21.92522
64.985 23.078953
64.990 23.7131
64.995 23.740364
65.000 23.413733
65.005 23.716778
65.010 24.328402
65.015 24.816509
65.020 24.832966
65.025 24.883348
65.030 25.192293
65.035 25.518723
65.040 25.475714
65.045 26.025414
65.050 26.103622
65.055 24.889572
65.060 24.617153
65.065 24.635944
65.070 24.41111
65.075 24.197832
65.080 23.399433
65.085 22.996305
65.090 23.43313
65.095 24.076239
65.100 24.180294
65.105 23.296759
65.110 23.653641
65.115 24.581245
65.120 25.101475
65.125 25.28828
65.130 24.860743
65.135 24.927017
65.140 25.770098
65.145 25.498938
65.150 25.698219
65.155 25.276022
65.160 25.507576
65.165 25.513857
65.170 25.604301
65.175 26.518021
65.180 26.044247
65.185 25.368565
65.190 25.603697
65.195 26.019632
65.200 25.866911
65.205 25.622984
65.210 25.038794
65.215 25.600302
65.220 26.175888
65.225 26.128923
65.230 25.63917
65.235 25.524086
65.240 25.790689
65.245 26.231573
65.250 25.971741
65.255 25.719494
65.260 25.680767
65.265 25.95145
65.270 26.457489
65.275 26.24132
65.280 25.990019
65.285 26.007023
65.290 25.636124
65.295 25.687008
65.300 25.258224
65.305 24.744194
65.310 24.573856
65.315 24.160471
65.320 24.498003
65.325 24.696529
65.330 24.545801
65.335 25.458412
65.340 26.40135
65.345 26.056442
65.350 26.386671
65.355 26.568213
65.360 26.705751
65.365 26.564104
65.370 25.932796
65.375 25.881796
65.380 26.243835
65.385 26.035017
65.390 26.115677
65.395 26.645458
65.400 27.213402
65.405 27.163416
65.410 26.992983
65.415 28.111685
65.420 28.1506
65.425 27.941168
65.430 28.077612
65.435 27.701942
65.440 28.589972
65.445 28.894121
65.450 29.128313
65.455 28.755526
65.460 28.417862
65.465 28.124187
65.470 28.400347
65.475 27.782547
65.480 27.19029
65.485 26.477425
65.490 26.640718
65.495 27.354353
65.500 27.371252
65.505 27.551388
65.510 28.082699
65.515 28.307941
65.520 28.580498
65.525 28.654934
65.530 28.518866
65.535 28.958923
65.540 29.281115
65.545 28.685572
65.550 28.520601
65.555 28.573467
65.560 28.867485
65.565 29.285294
65.570 29.527885
65.575 29.515793
65.580 31.132483
65.585 31.323959
65.590 31.749563
65.595 31.850515
65.600 32.368675
65.605 33.147179
65.610 33.081238
65.615 32.82584
65.620 33.146152
65.625 32.750053
65.630 32.793781
65.635 31.55547
65.640 31.037067
65.645 31.080427
65.650 31.064058
65.655 30.970909
65.660 31.566439
65.665 32.365978
65.670 33.363995
65.675 33.478855
65.680 33.914272
65.685 34.339394
65.690 34.71677
65.695 35.461338
65.700 35.80975
65.705 35.344139
65.710 35.338993
65.715 35.692352
65.720 36.388977
65.725 36.625088
65.730 36.265385
65.735 35.99593
65.740 36.353561
65.745 36.70208
65.750 36.982891
65.755 36.465042
65.760 36.578629
65.765 36.250484
65.770 36.406662
65.775 36.674362
65.780 37.122757
65.785 37.114685
65.790 37.584728
65.795 37.329708
65.800 37.288204
65.805 37.276974
65.810 36.629826
65.815 35.765739
65.820 35.959763
65.825 36.224098
65.830 36.470505
65.835 36.525696
65.840 36.334061
65.845 37.064541
65.850 36.541759
65.855 36.049068
65.860 36.112694
65.865 36.159782
65.870 36.82552
65.875 37.642029
65.880 37.955219
65.885 38.014332
65.890 37.787762
65.895 37.341908
65.900 36.895744
65.905 36.944302
65.910 36.369072
65.915 36.17667
65.920 36.634209
65.925 37.876572
65.930 38.157326
65.935 38.096092
65.940 37.017986
65.945 36.648991
65.950 36.873386
65.955 37.416027
65.960 36.631561
65.965 36.984756
65.970 36.867825
65.975 36.526382
65.980 36.222267
65.985 36.197109
65.990 35.445831
65.995 34.270676
66.000 33.882607
66.005 33.819683
66.010 33.873535
66.015 34.030853
66.020 33.178364
66.025 33.236187
66.030 33.643085
66.035 33.454285
66.040 33.32729
66.045 34.086483
66.050 34.10033
66.055 34.376564
66.060 34.077686
66.065 33.986046
66.070 33.947994
66.075 34.100883
66.080 33.722462
66.085 32.844246
66.090 32.895149
66.095 32.623562
66.100 33.182087
66.105 33.500725
66.110 33.378906
66.115 32.792946
66.120 32.805336
66.125 33.214249
66.130 33.154495
66.135 32.020664
66.140 31.779724
66.145 31.532993
66.150 31.037903
66.155 30.796644
66.160 29.934677
66.165 30.116219
66.170 29.304733
66.175 29.546873
66.180 29.939745
66.185 30.747561
66.190 31.134003
66.195 30.942728
66.200 31.159157
66.205 31.124752
66.210 30.321436
66.215 29.242626
66.220 28.540012
66.225 28.495604
66.230 27.853495
66.235 27.153316
66.240 27.327753
66.245 27.103951
66.250 27.721327
66.255 27.800943
66.260 27.400995
66.265 27.959589
66.270 28.043108
66.275 28.732351
66.280 28.878487
66.285 28.740232
66.290 28.573362
66.295 28.540157
66.300 28.315487
66.305 27.64422
66.310 27.180311
66.315 27.753263
66.320 27.990053
66.325 28.231089
66.330 28.271013
66.335 28.275372
66.340 27.821095
66.345 26.873104
66.350 26.169441
66.355 25.549896
66.360 25.627018
66.365 24.984587
66.370 24.505619
66.375 24.66695
66.380 24.148928
66.385 23.426256
66.390 22.591475
66.395 22.013067
66.400 22.629156
66.405 22.905653
66.410 23.509012
66.415 23.844595
66.420 24.635155
66.425 25.056881
66.430 24.94529
66.435 24.389097
66.440 24.163471
66.445 24.373943
66.450 24.717098
66.455 24.415205
66.460 24.526381
66.465 24.95956
66.470 25.461311
66.475 24.818695
66.480 23.782839
66.485 23.397402
66.490 23.154066
66.495 23.523565
66.500 23.445709
66.505 23.241096
66.510 22.938524
66.515 22.974169
66.520 22.926098
66.525 22.470629
66.530 21.731577
66.535 20.803677
66.540 20.828205
66.545 21.18615
66.550 21.038359
66.555 20.876993
66.560 21.01774
66.565 21.291367
66.570 21.873838
66.575 21.935577
66.580 22.199251
66.585 22.481113
66.590 22.223097
66.595 22.294203
66.600 22.234642
66.605 21.663223
66.610 21.168003
66.615 20.768965
66.620 20.349392
66.625 20.238756
66.630 20.177122
66.635 19.893475
66.640 19.522608
66.645 19.586214
66.650 19.265503
66.655 18.932785
66.660 18.838949
66.665 18.968805
66.670 19.315346
66.675 19.287882
66.680 19.566603
66.685 20.423622
66.690 21.408686
66.695 21.554018
66.700 20.885759
66.705 20.703211
66.710 20.843786
66.715 20.737787
66.720 20.293167
66.725 19.367044
66.730 18.832808
66.735 18.744764
66.740 18.413303
66.745 18.034178
66.750 17.859522
66.755 17.713903
66.760 18.400167
66.765 19.17144
66.770 19.792759
66.775 20.547737
66.780 20.841633
66.785 20.98275
66.790 20.921692
66.795 20.869989
66.800 20.548147
66.805 20.245615
66.810 20.170502
66.815 20.080139
66.820 19.982609
66.825 19.515097
66.830 19.456282
66.835 19.008652
66.840 19.210909
66.845 19.338078
66.850 19.303398
66.855 18.969143
66.860 18.497698
66.865 18.309212
66.870 18.539238
66.875 17.901329
66.880 17.561176
66.885 17.584454
66.890 18.119421
66.895 19.09519
66.900 18.617401
66.905 18.331293
66.910 18.524513
66.915 18.795824
66.920 18.388468
66.925 18.013142
66.930 17.578905
66.935 18.007353
66.940 18.615213
66.945 18.888983
66.950 18.795942
66.955 18.954315
66.960 19.308138
66.965 19.731556
66.970 20.188908
66.975 20.257423
66.980 20.247862
66.985 20.34811
66.990 20.363163
66.995 20.481091
67.000 20.483007
67.005 20.48707
67.010 20.123259
67.015 19.838093
67.020 19.492258
67.025 19.314682
67.030 19.363087
67.035 19.675266
67.040 19.292112
67.045 19.24556
67.050 19.180704
67.055 19.523794
67.060 19.222534
67.065 18.485144
67.070 17.425398
67.075 17.599756
67.080 17.088299
67.085 17.463322
67.090 17.62245
67.095 18.002794
67.100 18.520445
67.105 18.913296
67.110 18.92598
67.115 19.696281
67.120 20.286354
67.125 20.082052
67.130 20.11297
67.135 20.324013
67.140 20.359512
67.145 20.466749
67.150 19.875452
67.155 19.252293
67.160 19.786575
67.165 19.557085
67.170 19.858576
67.175 20.188004
67.180 20.002295
67.185 19.82069
67.190 19.730976
67.195 19.484241
67.200 19.365463
67.205 18.479937
67.210 18.11252
67.215 18.498369
67.220 18.644028
67.225 18.37966
67.230 18.354553
67.235 18.37018
67.240 18.784489
67.245 18.416536
67.250 18.046175
67.255 18.450342
67.260 18.71423
67.265 18.795872
67.270 18.857782
67.275 18.694098
67.280 18.908134
67.285 19.253084
67.290 18.534517
67.295 18.27496
67.300 18.303272
67.305 18.450464
67.310 18.576319
67.315 18.037006
67.320 17.879642
67.325 18.63341
67.330 18.735781
67.335 17.964701
67.340 17.62466
67.345 17.537189
67.350 18.212986
67.355 18.210459
67.360 18.107595
67.365 18.195292
67.370 18.51313
67.375 18.726749
67.380 19.356676
67.385 19.24321
67.390 19.196878
67.395 19.398283
67.400 19.477297
67.405 19.493326
67.410 19.232702
67.415 18.551977
67.420 18.229635
67.425 17.716341
67.430 16.865273
67.435 16.742754
67.440 16.693649
67.445 16.979675
67.450 17.494509
67.455 17.811291
67.460 18.050106
67.465 18.640793
67.470 19.002302
67.475 19.126173
67.480 19.003914
67.485 19.219254
67.490 19.792255
67.495 20.006912
67.500 19.689121
67.505 19.310156
67.510 19.064751
67.515 18.699158
67.520 18.32864
67.525 18.138567
67.530 18.063374
67.535 18.154493
67.540 18.746759
67.545 18.641977
67.550 19.020067
67.555 18.509439
67.560 18.388985
67.565 18.738962
67.570 18.986279
67.575 19.289797
67.580 19.977476
67.585 20.208313
67.590 20.470058
67.595 20.952797
67.600 20.760492
67.605 19.909683
67.610 19.580587
67.615 19.261139
67.620 19.809202
67.625 20.461983
67.630 20.59742
67.635 21.32439
67.640 21.643215
67.645 21.051006
67.650 21.040638
67.655 20.146626
67.660 19.533207
67.665 18.998083
67.670 18.172346
67.675 18.47934
67.680 19.351013
67.685 20.135098
67.690 19.714911
67.695 20.046013
67.700 20.208778
67.705 20.652433
67.710 20.109478
67.715 19.739599
67.720 18.727427
67.725 18.708502
67.730 18.317564
67.735 18.69652
67.740 18.964844
67.745 19.417103
67.750 19.207895
67.755 19.153589
67.760 19.248466
67.765 19.239391
67.770 19.047379
67.775 18.599739
67.780 18.594727
67.785 18.883118
67.790 19.19722
67.795 19.657007
67.800 19.769146
67.805 19.71562
67.810 19.686935
67.815 19.520029
67.820 19.488176
67.825 19.671309
67.830 19.730001
67.835 18.913588
67.840 18.936497
67.845 18.406334
67.850 18.437927
67.855 18.90374
67.860 18.973246
67.865 18.749821
67.870 19.16077
67.875 19.333822
67.880 19.780464
67.885 19.731316
67.890 19.261011
67.895 19.056856
67.900 19.004484
67.905 18.764694
67.910 18.618248
67.915 18.452435
67.920 18.203581
67.925 18.207417
67.930 18.089682
67.935 18.013874
67.940 18.008602
67.945 18.140993
67.950 18.356129
67.955 18.764278
67.960 18.878517
67.965 18.76955
67.970 18.778088
67.975 19.062035
67.980 18.8799
67.985 18.909727
67.990 18.813894
67.995 18.797215
68.000 19.061417
68.005 19.061153
68.010 19.260963
68.015 19.211723
68.020 18.934372
68.025 18.879036
68.030 19.278042
68.035 19.803293
68.040 20.378391
68.045 20.240585
68.050 20.465876
68.055 20.403597
68.060 20.086086
68.065 19.464111
68.070 18.894426
68.075 18.960964
68.080 19.515823
68.085 19.960253
68.090 20.709963
68.095 20.893711
68.100 20.957561
68.105 20.829681
68.110 20.488132
68.115 19.761637
68.120 19.032795
68.125 18.888029
68.130 19.340889
68.135 20.120718
68.140 21.224945
68.145 21.46928
68.150 21.267712
68.155 21.574963
68.160 20.821358
68.165 20.031939
68.170 19.579948
68.175 18.944967
68.180 18.67218
68.185 18.482759
68.190 18.831198
68.195 19.035025
68.200 19.494507
68.205 19.671709
68.210 19.58272
68.215 20.073303
68.220 20.416416
68.225 20.103407
68.230 19.863926
68.235 19.263687
68.240 18.974686
68.245 18.861858
68.250 19.020643
68.255 19.358335
68.260 20.114794
68.265 20.783405
68.270 21.272505
68.275 21.248041
68.280 21.59749
68.285 21.396656
68.290 21.244028
68.295 20.84001
68.300 21.222778
68.305 21.273762
68.310 21.058273
68.315 21.029091
68.320 21.895601
68.325 22.26918
68.330 22.078545
68.335 21.825932
68.340 22.103771
68.345 22.517656
68.350 22.274309
68.355 21.663607
68.360 21.391413
68.365 21.614506
68.370 21.217699
68.375 21.557062
68.380 21.603716
68.385 21.115694
68.390 21.122028
68.395 21.292141
68.400 21.443317
68.405 21.607063
68.410 21.485487
68.415 21.680548
68.420 22.483282
68.425 22.628408
68.430 22.705851
68.435 22.370869
68.440 21.754759
68.445 21.931383
68.450 22.506445
68.455 22.65159
68.460 22.267698
68.465 22.327675
68.470 22.867634
68.475 23.277138
68.480 22.95112
68.485 23.080666
68.490 23.118097
68.495 23.371588
68.500 23.107244
68.505 22.892481
68.510 23.027464
68.515 22.976355
68.520 22.547369
68.525 23.38653
68.530 23.807573
68.535 24.231035
68.540 24.49229
68.545 24.789455
68.550 25.014729
68.555 25.127148
68.560 24.696354
68.565 25.014051
68.570 24.748053
68.575 24.6625
68.580 24.634487
68.585 24.861191
68.590 25.629896
68.595 25.281843
68.600 25.147661
68.605 25.853113
68.610 26.602186
68.615 27.181391
68.620 26.891113
68.625 26.123537
68.630 26.653179
68.635 27.641056
68.640 27.600735
68.645 27.21776
68.650 27.039909
68.655 27.342701
68.660 27.612364
68.665 27.961941
68.670 27.801834
68.675 27.638802
68.680 27.916451
68.685 28.231243
68.690 29.074986
68.695 28.839304
68.700 27.672346
68.705 27.831701
68.710 27.208527
68.715 26.977358
68.720 26.136372
68.725 25.5291
68.730 25.938295
68.735 26.367903
68.740 26.200163
68.745 26.931129
68.750 27.154531
68.755 27.490149
68.760 28.060001
68.765 28.2267
68.770 28.021439
68.775 28.127413
68.780 27.882603
68.785 27.722532
68.790 28.124552
68.795 28.329233
68.800 29.322397
68.805 29.990101
68.810 29.56378
68.815 30.059837
68.820 30.306494
68.825 30.184029
68.830 29.517538
68.835 29.928978
68.840 29.774836
68.845 30.047647
68.850 30.860668
68.855 31.496471
68.860 31.768707
68.865 32.560184
68.870 31.897411
68.875 32.411152
68.880 32.742508
68.885 32.488903
68.890 31.80547
68.895 32.652412
68.900 34.052841
68.905 34.839653
68.910 35.070206
68.915 35.311012
68.920 35.052227
68.925 35.81749
68.930 35.043442
68.935 33.216488
68.940 33.714664
68.945 33.449455
68.950 32.940395
68.955 33.021782
68.960 33.708759
68.965 34.359703
68.970 35.306023
68.975 35.260532
68.980 35.843952
68.985 36.670403
68.990 36.717907
68.995 36.204247
69.000 36.016357
69.005 35.612801
69.010 34.708618
69.015 33.937515
69.020 33.218601
69.025 33.267662
69.030 32.667027
69.035 31.879072
69.040 32.099812
69.045 32.172428
69.050 33.015335
69.055 33.597038
69.060 33.711704
69.065 34.213696
69.070 35.393585
69.075 35.839127
69.080 36.502644
69.085 36.454815
69.090 36.729622
69.095 37.210529
69.100 37.502258
69.105 36.851013
69.110 36.442757
69.115 36.881943
69.120 36.40554
69.125 35.86573
69.130 35.882832
69.135 35.769779
69.140 36.233681
69.145 36.245895
69.150 35.417896
69.155 35.399181
69.160 35.161774
69.165 34.057743
69.170 33.281532
69.175 32.23296
69.180 31.718914
69.185 31.997576
69.190 31.973228
69.195 32.112
69.200 32.391304
69.205 32.261673
69.210 33.22958
69.215 33.291603
69.220 33.121536
69.225 33.356831
69.230 33.658775
69.235 33.23777
69.240 33.155884
69.245 32.232533
69.250 32.914684
69.255 32.584084
69.260 32.389423
69.265 31.78237
69.270 32.187721
69.275 33.36475
69.280 33.117039
69.285 32.318203
69.290 32.398735
69.295 32.223438
69.300 32.082726
69.305 31.205853
69.310 31.069963
69.315 30.940577
69.320 30.493155
69.325 29.556892
69.330 29.56287
69.335 29.547024
69.340 29.414768
69.345 28.402069
69.350 28.931705
69.355 28.785131
69.360 28.785332
69.365 27.889969
69.370 28.041683
69.375 27.976282
69.380 28.002533
69.385 27.476234
69.390 28.434111
69.395 28.620279
69.400 28.892279
69.405 28.381468
69.410 28.454445
69.415 28.087034
69.420 27.297434
69.425 26.507528
69.430 27.070959
69.435 27.792339
69.440 27.886255
69.445 27.469259
69.450 27.679003
69.455 28.029333
69.460 28.109764
69.465 26.860054
69.470 25.8013
69.475 25.483835
69.480 25.093763
69.485 24.004354
69.490 23.729683
69.495 23.860115
69.500 24.629606
69.505 24.609022
69.510 24.912609
69.515 25.428755
69.520 26.412884
69.525 26.207762
69.530 25.447578
69.535 26.07012
69.540 26.307301
69.545 25.871443
69.550 25.699505
69.555 25.697798
69.560 25.642138
69.565 25.564508
69.570 25.464481
69.575 25.502264
69.580 24.987112
69.585 25.017218
69.590 25.332853
69.595 25.490013
69.600 24.760265
69.605 23.915833
69.610 23.492937
69.615 23.679949
69.620 22.705828
69.625 21.791906
69.630 21.379335
69.635 21.761826
69.640 22.38505
69.645 22.846828
69.650 22.500366
69.655 22.354488
69.660 22.163
69.665 22.199266
69.670 21.836838
69.675 21.319492
69.680 21.26889
69.685 22.052498
69.690 22.728819
69.695 23.11602
69.700 23.747444
69.705 23.653963
69.710 23.088072
69.715 22.606951
69.720 22.340885
69.725 22.800907
69.730 22.435614
69.735 22.241465
69.740 21.995447
69.745 22.33263
69.750 22.196003
69.755 21.762985
69.760 21.171381
69.765 20.776304
69.770 21.052385
69.775 21.42271
69.780 21.957857
69.785 22.072536
69.790 21.509232
69.795 21.237123
69.800 21.065784
69.805 20.666729
69.810 20.421074
69.815 19.787767
69.820 19.416859
69.825 19.489784
69.830 19.673582
69.835 20.27961
69.840 20.343353
69.845 19.961586
69.850 20.154694
69.855 20.355885
69.860 20.289843
69.865 19.579357
69.870 19.255543
69.875 19.803534
69.880 20.217365
69.885 20.577139
69.890 20.629814
69.895 21.403687
69.900 21.992964
69.905 21.562733
69.910 21.321136
69.915 20.930107
69.920 20.851339
69.925 20.553196
69.930 20.233961
69.935 19.68441
69.940 19.156544
69.945 18.679985
69.950 18.736532
69.955 18.555267
69.960 19.003881
69.965 19.275158
69.970 19.667482
69.975 20.19854
69.980 20.329664
69.985 20.668995
69.990 20.689119
69.995 20.056581
70.000 19.392385
70.005 19.273375
70.010 18.837811
70.015 18.829779
70.020 18.291346
70.025 18.383392
70.030 18.504442
70.035 19.053625
70.040 19.624039
70.045 19.405704
70.050 19.417227
70.055 19.480989
70.060 19.198751
70.065 19.468296
70.070 19.598135
70.075 19.431528
70.080 20.125502
70.085 20.345959
70.090 20.558617
70.095 20.860275
70.100 20.699919
70.105 20.457886
70.110 20.205763
70.115 20.074606
70.120 20.420973
70.125 20.234402
70.130 20.582067
70.135 20.415266
70.140 20.204714
70.145 20.463562
70.150 20.143557
70.155 19.871281
70.160 19.77342
70.165 19.510244
70.170 19.088943
70.175 19.059759
70.180 18.887371
70.185 18.799789
70.190 18.900389
70.195 18.875664
70.200 18.716806
70.205 18.594845
70.210 18.564247
70.215 19.205936
70.220 19.246313
70.225 18.750328
70.230 18.535837
70.235 18.777733
70.240 19.160147
70.245 18.683758
70.250 17.976854
70.255 18.092785
70.260 18.49535
70.265 18.971514
70.270 19.435102
70.275 19.643847
70.280 19.400238
70.285 19.449732
70.290 19.296648
70.295 19.681351
70.300 19.141449
70.305 18.079605
70.310 17.815092
70.315 18.723763
70.320 18.981043
70.325 18.569803
70.330 18.086702
70.335 18.607988
70.340 18.665598
70.345 18.933983
70.350 17.812078
70.355 17.165178
70.360 17.193542
70.365 17.404531
70.370 16.610893
70.375 16.35523
70.380 16.356962
70.385 17.28281
70.390 18.135864
70.395 18.377451
70.400 18.711309
70.405 19.569557
70.410 20.21924
70.415 19.175413
70.420 18.916132
70.425 19.290634
70.430 19.196064
70.435 19.177645
70.440 18.844294
70.445 19.048794
70.450 20.049923
70.455 19.622461
70.460 19.200018
70.465 19.112904
70.470 19.180912
70.475 19.273382
70.480 19.06082
70.485 18.834417
70.490 18.704369
70.495 18.162601
70.500 18.610004
70.505 18.458862
70.510 17.868055
70.515 17.796413
70.520 17.702496
70.525 17.935774
70.530 18.187593
70.535 17.47834
70.540 17.330437
70.545 17.998219
70.550 18.164846
70.555 18.012358
70.560 17.817356
70.565 17.793201
70.570 17.666233
70.575 17.598322
70.580 17.185102
70.585 17.366936
70.590 17.868042
70.595 18.31996
70.600 18.700581
70.605 19.188309
70.610 19.700489
70.615 19.710716
70.620 19.447512
70.625 19.374454
70.630 18.456131
70.635 18.082609
70.640 17.893915
70.645 17.927134
70.650 18.061068
70.655 17.410328
70.660 17.599762
70.665 17.899225
70.670 17.900801
70.675 17.633389
70.680 17.93569
70.685 18.480833
70.690 19.016453
70.695 19.125172
70.700 19.144516
70.705 19.049269
70.710 18.65539
70.715 18.023918
70.720 17.517862
70.725 17.17848
70.730 17.295935
70.735 17.173466
70.740 17.733025
70.745 17.532797
70.750 17.686302
70.755 17.822691
70.760 17.989445
70.765 17.757446
70.770 17.943077
70.775 17.656975
70.780 18.059582
70.785 17.569824
70.790 17.769398
70.795 18.016516
70.800 17.931822
70.805 18.278776
70.810 18.218786
70.815 17.95314
70.820 18.870752
70.825 19.318834
70.830 19.423931
70.835 19.057924
70.840 18.945198
70.845 18.928192
70.850 18.856092
70.855 18.157684
70.860 16.829264
70.865 16.933474
70.870 17.035326
70.875 17.180462
70.880 17.571465
70.885 17.83643
70.890 18.030661
70.895 19.219646
70.900 19.652721
70.905 20.256838
70.910 20.214319
70.915 20.023188
70.920 20.162661
70.925 20.087301
70.930 19.88648
70.935 19.637541
70.940 18.865477
70.945 18.59977
70.950 18.165552
70.955 17.920771
70.960 17.29587
70.965 16.470776
70.970 16.192331
70.975 16.25466
70.980 16.698788
70.985 16.963984
70.990 16.718327
70.995 16.997116
71.000 17.446978
71.005 17.79705
71.010 17.956219
71.015 18.179115
71.020 18.611649
71.025 18.57111
71.030 18.175552
71.035 18.499313
71.040 17.659401
71.045 17.622583
71.050 17.817162
71.055 17.767586
71.060 18.143639
71.065 18.283918
71.070 18.198889
71.075 18.714077
71.080 18.721163
71.085 18.488239
71.090 18.681242
71.095 18.997522
71.100 19.250111
71.105 19.242971
71.110 19.248604
71.115 18.993267
71.120 18.854412
71.125 18.252361
71.130 18.076933
71.135 18.114567
71.140 17.912176
71.145 17.519096
71.150 17.485197
71.155 17.923285
71.160 18.020317
71.165 17.821196
71.170 17.695766
71.175 17.823582
71.180 18.39539
71.185 18.922165
71.190 18.141787
71.195 17.841211
71.200 17.643396
71.205 18.019751
71.210 17.947538
71.215 17.453375
71.220 17.248245
71.225 17.954107
71.230 18.577496
71.235 18.78603
71.240 18.690777
71.245 18.431839
71.250 18.663195
71.255 18.367949
71.260 18.440344
71.265 18.796043
71.270 18.848989
71.275 18.630436
71.280 18.52627
71.285 18.551239
71.290 18.56027
71.295 18.194763
71.300 18.291628
71.305 18.653742
71.310 18.919901
71.315 19.147316
71.320 18.589005
71.325 18.992975
71.330 19.504051
71.335 19.223686
71.340 18.930059
71.345 18.761602
71.350 19.164642
71.355 19.276918
71.360 18.946161
71.365 18.698362
71.370 18.799484
71.375 18.915899
71.380 19.119648
71.385 19.216452
71.390 19.896528
71.395 19.762346
71.400 20.12454
71.405 20.253641
71.410 20.239532
71.415 19.999973
71.420 19.605968
71.425 19.748051
71.430 19.919178
71.435 20.003761
71.440 20.222857
71.445 19.858671
71.450 19.721264
71.455 19.904821
71.460 19.098043
71.465 19.086088
71.470 18.657343
71.475 18.134552
71.480 18.73101
71.485 19.010681
71.490 19.368301
71.495 20.024363
71.500 19.59376
71.505 19.366352
71.510 19.308207
71.515 19.252031
71.520 19.045378
71.525 18.729216
71.530 18.273987
71.535 18.510189
71.540 18.312761
71.545 19.045322
71.550 19.45174
71.555 19.443106
71.560 18.994493
71.565 18.604218
71.570 18.522476
71.575 18.690628
71.580 18.44351
71.585 18.150913
71.590 18.175873
71.595 18.156654
71.600 18.270273
71.605 18.066696
71.610 17.723516
71.615 17.608488
71.620 17.287434
71.625 17.072506
71.630 17.524633
71.635 17.424246
71.640 18.158506
71.645 18.648409
71.650 18.503344
71.655 18.693087
71.660 18.731943
71.665 19.132835
71.670 18.883961
71.675 18.812801
71.680 18.250977
71.685 18.205826
71.690 18.417833
71.695 18.264362
71.700 18.403616
71.705 18.52273
71.710 18.027996
71.715 17.502642
71.720 17.737816
71.725 17.984144
71.730 17.450314
71.735 17.246258
71.740 17.445028
71.745 18.256361
71.750 18.84779
71.755 18.683022
71.760 19.055687
71.765 19.30048
71.770 19.473801
71.775 19.431561
71.780 19.085312
71.785 18.637018
71.790 18.405949
71.795 18.081654
71.800 17.772156
71.805 17.538475
71.810 17.431767
71.815 17.771931
71.820 18.137642
71.825 18.370039
71.830 18.793638
71.835 19.231667
71.840 19.569376
71.845 19.33539
71.850 18.940002
71.855 18.824833
71.860 18.548119
71.865 18.325344
71.870 17.84425
71.875 18.042389
71.880 18.256207
71.885 18.09614
71.890 18.313038
71.895 18.730221
71.900 18.515966
71.905 18.464306
71.910 17.687836
71.915 17.643307
71.920 18.298346
71.925 18.005413
71.930 18.367954
71.935 18.530842
71.940 18.58474
71.945 19.317247
71.950 18.791851
71.955 18.503616
71.960 18.110884
71.965 17.948757
71.970 17.893499
71.975 17.214312
71.980 17.46702
71.985 17.78191
71.990 18.020897
71.995 18.083345
72.000 18.177277
72.005 18.748808
72.010 18.914762
72.015 18.615572
72.020 18.598673
72.025 18.474543
72.030 18.586338
72.035 18.610201
72.040 18.319765
72.045 18.072853
72.050 18.405008
72.055 18.777725
72.060 19.167707
72.065 19.111233
72.070 19.116301
72.075 19.350248
72.080 19.176512
72.085 18.788744
72.090 18.288855
72.095 17.749069
72.100 17.402506
72.105 17.320126
72.110 17.359884
72.115 17.447706
72.120 17.644455
72.125 18.19125
72.130 18.206636
72.135 18.196209
72.140 18.161364
72.145 18.302755
72.150 18.234833
72.155 17.646824
72.160 17.791515
72.165 17.917892
72.170 18.258877
72.175 18.077871
72.180 17.617613
72.185 17.914326
72.190 18.128817
72.195 17.840488
72.200 17.883966
72.205 17.605257
72.210 17.856186
72.215 17.999256
72.220 17.838383
72.225 17.894382
72.230 18.269226
72.235 18.372911
72.240 18.703777
72.245 18.522753
72.250 18.507404
72.255 18.015734
72.260 17.443972
72.265 16.820387
72.270 16.333235
72.275 16.456369
72.280 16.781778
72.285 16.813105
72.290 16.912296
72.295 17.237347
72.300 17.760847
72.305 17.957962
72.310 17.315632
72.315 17.011913
72.320 17.090981
72.325 17.311283
72.330 17.323139
72.335 17.123476
72.340 17.240923
72.345 17.657713
72.350 18.781992
72.355 19.410772
72.360 19.484243
72.365 19.688173
72.370 19.35191
72.375 19.601366
72.380 20.154373
72.385 19.925686
72.390 19.523268
72.395 19.890606
72.400 19.42498
72.405 19.759945
72.410 19.351566
72.415 18.784979
72.420 18.059435
72.425 18.066353
72.430 17.767725
72.435 17.926338
72.440 17.807497
72.445 17.898762
72.450 18.006454
72.455 17.532785
72.460 17.090721
72.465 17.542864
72.470 18.003004
72.475 18.097898
72.480 17.476429
72.485 17.231386
72.490 17.401894
72.495 17.5348
72.500 16.988575
72.505 16.733912
72.510 16.911901
72.515 16.856464
72.520 17.308313
72.525 16.99296
72.530 16.573311
72.535 16.400524
72.540 16.53783
72.545 16.195763
72.550 17.103235
72.555 18.318001
72.560 18.964058
72.565 19.378078
72.570 19.360811
72.575 19.644131
72.580 20.145689
72.585 19.533508
72.590 18.895088
72.595 19.022766
72.600 19.27593
72.605 19.512539
72.610 18.779224
72.615 18.638121
72.620 18.275129
72.625 18.108177
72.630 18.164507
72.635 17.536335
72.640 17.839224
72.645 17.807676
72.650 17.687975
72.655 17.998486
72.660 17.916809
72.665 17.672802
72.670 17.576878
72.675 17.334341
72.680 17.177565
72.685 17.436043
72.690 17.474752
72.695 17.192802
72.700 17.149973
72.705 16.836329
72.710 17.044188
72.715 17.193815
72.720 16.869837
72.725 17.03413
72.730 17.50633
72.735 17.646662
72.740 17.778595
72.745 17.857697
72.750 17.713966
72.755 18.285984
72.760 18.303335
72.765 18.543808
72.770 18.895466
72.775 18.530743
72.780 18.306171
72.785 18.149084
72.790 17.443878
72.795 16.870321
72.800 17.19018
72.805 17.030029
72.810 17.203102
72.815 17.19566
72.820 16.898367
72.825 16.031828
72.830 16.022949
72.835 15.193786
72.840 15.267622
72.845 15.473962
72.850 15.984039
72.855 16.390337
72.860 16.900173
72.865 16.633577
72.870 17.211756
72.875 17.560795
72.880 17.088638
72.885 16.913656
72.890 17.053141
72.895 17.352709
72.900 17.24127
72.905 16.909575
72.910 16.688557
72.915 16.40344
72.920 16.409693
72.925 15.901779
72.930 16.359777
72.935 16.264299
72.940 15.889387
72.945 16.087914
72.950 16.093702
72.955 15.743065
72.960 15.214011
72.965 14.905572
72.970 15.383731
72.975 14.734433
72.980 14.790128
72.985 15.098902
72.990 15.798568
72.995 16.259867
73.000 15.202097
