!@!!GADDS PLOTSO FILE: Chi integration type
!@!!Title/SampleName: map-75
!@!!Comment: ?
!@!!User: Bruker Instrument Administrator
!@!!Site: University of Illinois Chicago
!@!!Frame: map-75_01_000.gfrm
!@!!Wavelengths    1.54184   1.54056   1.54439
!@!!Frame angles: 2Theta: 63.000 Omega: 50.000 Phi: 0.000 Chi: 90.000
!@!!Integration range: 2Theta: 53.000 to 73.000  Gamma: -105.000 to -75.000
!@!!Integration method: bin normalized
!@!N
!@!SS
!@!M
!@!L 0.0 0.0 0.0 0.0
!@!XDegrees
!@!YCounts
53.000 7.905394
53.005 7.97599
53.010 8.521593
53.015 8.92182
53.020 8.851585
53.025 8.835443
53.030 9.103705
53.035 9.092393
53.040 9.337317
53.045 8.894773
53.050 8.248111
53.055 8.528511
53.060 8.537333
53.065 8.451282
53.070 8.091345
53.075 7.980991
53.080 8.791704
53.085 9.502931
53.090 9.521641
53.095 9.259929
53.100 8.991439
53.105 9.425562
53.110 9.35741
53.115 8.960437
53.120 8.743263
53.125 8.95982
53.130 9.223257
53.135 9.343509
53.140 8.987541
53.145 8.812989
53.150 8.731689
53.155 8.947342
53.160 8.977452
53.165 8.770054
53.170 8.621346
53.175 8.492235
53.180 8.684393
53.185 8.575763
53.190 8.295296
53.195 7.904838
53.200 7.786807
53.205 7.945033
53.210 8.212718
53.215 7.642631
53.220 7.500688
53.225 7.889573
53.230 8.178889
53.235 8.302931
53.240 8.118063
53.245 8.127503
53.250 8.960747
53.255 8.949081
53.260 8.403752
53.265 8.577728
53.270 8.72047
53.275 8.762856
53.280 8.819971
53.285 8.683065
53.290 8.756209
53.295 9.180269
53.300 9.256907
53.305 9.524556
53.310 9.304408
53.315 9.102323
53.320 9.233062
53.325 9.26072
53.330 8.997973
53.335 8.587694
53.340 8.354818
53.345 8.521771
53.350 8.599657
53.355 7.964367
53.360 7.778403
53.365 7.783446
53.370 7.872059
53.375 7.914501
53.380 7.510778
53.385 7.369931
53.390 7.892144
53.395 8.142306
53.400 8.541039
53.405 8.823689
53.410 8.808659
53.415 9.157659
53.420 9.060852
53.425 9.362794
53.430 9.414263
53.435 9.337831
53.440 9.19653
53.445 9.11396
53.450 9.282545
53.455 9.641624
53.460 9.431224
53.465 9.109196
53.470 8.978876
53.475 8.894726
53.480 8.863717
53.485 9.162035
53.490 8.939892
53.495 9.412799
53.500 9.536344
53.505 9.638801
53.510 10.25819
53.515 10.140691
53.520 10.017645
53.525 10.010771
53.530 9.781055
53.535 9.815065
53.540 9.751038
53.545 9.359966
53.550 9.381773
53.555 8.673656
53.560 8.201397
53.565 8.116776
53.570 8.221361
53.575 8.016162
53.580 8.160855
53.585 8.55584
53.590 9.202334
53.595 9.366158
53.600 9.394443
53.605 9.650227
53.610 10.093142
53.615 9.739195
53.620 9.245138
53.625 8.949687
53.630 8.955908
53.635 8.729684
53.640 7.968413
53.645 7.741915
53.650 8.049829
53.655 8.147195
53.660 8.111584
53.665 8.377347
53.670 8.75353
53.675 9.382018
53.680 9.63463
53.685 9.762621
53.690 9.906801
53.695 10.094535
53.700 9.89064
53.705 9.655375
53.710 9.378073
53.715 8.970357
53.720 9.094903
53.725 9.446975
53.730 9.688683
53.735 9.634554
53.740 9.624996
53.745 9.689684
53.750 9.91409
53.755 10.034326
53.760 10.097043
53.765 10.14961
53.770 10.686687
53.775 11.188718
53.780 11.518014
53.785 11.519671
53.790 11.312339
53.795 11.540076
53.800 11.096593
53.805 10.50767
53.810 9.915143
53.815 9.325182
53.820 9.186724
53.825 8.991175
53.830 8.486855
53.835 8.709478
53.840 8.711019
53.845 9.196423
53.850 9.602942
53.855 10.197384
53.860 10.554965
53.865 10.256981
53.870 10.432189
53.875 10.668564
53.880 10.531357
53.885 10.281854
53.890 9.861404
53.895 9.900581
53.900 10.213796
53.905 10.095708
53.910 9.863456
53.915 9.561249
53.920 9.581532
53.925 9.597437
53.930 9.909616
53.935 10.038266
53.940 10.243944
53.945 10.260689
53.950 10.334701
53.955 10.062863
53.960 10.001515
53.965 10.054619
53.970 9.777344
53.975 9.620546
53.980 9.396263
53.985 9.395765
53.990 9.829395
53.995 9.843362
54.000 9.699149
54.005 9.908934
54.010 9.772061
54.015 9.723016
54.020 9.995467
54.025 10.062394
54.030 10.412225
54.035 10.507792
54.040 10.669675
54.045 11.032164
54.050 11.012304
54.055 10.482742
54.060 10.265044
54.065 9.708072
54.070 9.542131
54.075 9.400328
54.080 9.287461
54.085 9.728377
54.090 9.612874
54.095 9.55556
54.100 9.557442
54.105 9.584993
54.110 9.684164
54.115 9.816824
54.120 9.637724
54.125 9.857095
54.130 9.980957
54.135 10.108945
54.140 10.105632
54.145 10.089808
54.150 9.93077
54.155 9.809136
54.160 9.579377
54.165 9.977763
54.170 10.010134
54.175 10.065684
54.180 10.206628
54.185 10.54861
54.190 11.116277
54.195 11.243776
54.200 11.524084
54.205 11.784732
54.210 11.459138
54.215 11.13053
54.220 10.623435
54.225 10.201673
54.230 9.949776
54.235 9.389813
54.240 9.555961
54.245 10.161489
54.250 10.038667
54.255 10.033598
54.260 10.169935
54.265 9.968577
54.270 9.842675
54.275 9.07751
54.280 8.885604
54.285 9.224653
54.290 9.70939
54.295 10.067902
54.300 9.819319
54.305 10.063494
54.310 10.11263
54.315 9.852883
54.320 9.787689
54.325 9.019476
54.330 8.492253
54.335 8.503769
54.340 8.914945
54.345 9.320909
54.350 10.150645
54.355 10.498991
54.360 10.856932
54.365 11.113921
54.370 11.355971
54.375 11.270715
54.380 10.890245
54.385 10.235773
54.390 9.945601
54.395 9.739196
54.400 9.710485
54.405 9.215184
54.410 9.168216
54.415 9.142979
54.420 9.21056
54.425 9.304099
54.430 9.363545
54.435 9.780194
54.440 10.169311
54.445 10.701136
54.450 10.960861
54.455 10.980993
54.460 11.331143
54.465 11.498253
54.470 11.310214
54.475 11.035041
54.480 10.912256
54.485 11.221518
54.490 11.405031
54.495 11.417036
54.500 11.286041
54.505 11.105778
54.510 11.341796
54.515 11.12621
54.520 10.563353
54.525 10.163495
54.530 9.929483
54.535 9.831853
54.540 10.207955
54.545 10.019033
54.550 10.219002
54.555 10.359761
54.560 10.698989
54.565 10.760827
54.570 10.669082
54.575 10.810376
54.580 11.23548
54.585 11.539913
54.590 11.587588
54.595 11.784285
54.600 11.583624
54.605 11.196188
54.610 10.545721
54.615 10.682965
54.620 10.782268
54.625 11.066181
54.630 11.096821
54.635 11.647509
54.640 11.62007
54.645 11.324245
54.650 10.375768
54.655 9.705414
54.660 9.60687
54.665 9.470227
54.670 9.642277
54.675 10.433059
54.680 10.46713
54.685 10.830013
54.690 10.932791
54.695 10.861118
54.700 10.749315
54.705 10.486505
54.710 9.996771
54.715 10.09775
54.720 10.018227
54.725 10.059919
54.730 10.167555
54.735 10.447401
54.740 10.857495
54.745 10.597212
54.750 10.55923
54.755 10.447165
54.760 10.277482
54.765 9.919705
54.770 9.635915
54.775 9.668262
54.780 10.179114
54.785 10.244598
54.790 9.830585
54.795 9.44692
54.800 9.651065
54.805 9.839772
54.810 9.568712
54.815 9.417063
54.820 9.555493
54.825 10.339326
54.830 11.09376
54.835 10.782504
54.840 10.762668
54.845 11.116478
54.850 11.049145
54.855 11.217886
54.860 10.720602
54.865 10.558929
54.870 11.029814
54.875 10.657663
54.880 10.877313
54.885 10.865033
54.890 10.71556
54.895 10.859053
54.900 10.632147
54.905 10.365607
54.910 10.467303
54.915 10.813181
54.920 10.854268
54.925 10.744583
54.930 10.435861
54.935 10.2781
54.940 10.308587
54.945 10.459458
54.950 10.219387
54.955 10.155829
54.960 10.175235
54.965 10.43037
54.970 10.465772
54.975 10.353943
54.980 10.061169
54.985 10.407711
54.990 10.61045
54.995 10.677897
55.000 10.686831
55.005 11.175246
55.010 11.141142
55.015 10.876798
55.020 10.636906
55.025 10.648449
55.030 10.282663
55.035 9.74077
55.040 9.017494
55.045 9.040281
55.050 9.215511
55.055 9.321237
55.060 9.321948
55.065 10.024175
55.070 10.965744
55.075 10.881357
55.080 10.428764
55.085 10.495663
55.090 10.633308
55.095 10.649123
55.100 10.040946
55.105 9.745372
55.110 9.847648
55.115 9.979147
55.120 9.944125
55.125 9.9983
55.130 10.322493
55.135 10.591582
55.140 10.604903
55.145 10.365456
55.150 10.403983
55.155 10.035231
55.160 10.139445
55.165 10.534234
55.170 10.669361
55.175 10.835753
55.180 11.5897
55.185 11.865729
55.190 11.866239
55.195 11.527922
55.200 11.318721
55.205 11.474236
55.210 11.458405
55.215 11.079467
55.220 10.912622
55.225 11.183609
55.230 11.510656
55.235 11.550558
55.240 11.593446
55.245 11.913527
55.250 12.529278
55.255 13.257771
55.260 13.31369
55.265 13.092582
55.270 12.902692
55.275 12.959083
55.280 12.65441
55.285 11.586469
55.290 11.2818
55.295 11.011311
55.300 10.581991
55.305 9.980822
55.310 9.593336
55.315 9.498401
55.320 10.034281
55.325 9.725284
55.330 9.760716
55.335 10.036952
55.340 10.162119
55.345 10.532671
55.350 10.674017
55.355 10.540603
55.360 10.797015
55.365 10.7639
55.370 10.569574
55.375 10.270249
55.380 10.093065
55.385 9.818719
55.390 9.636242
55.395 9.340739
55.400 9.069378
55.405 9.610182
55.410 10.445409
55.415 10.912013
55.420 11.227305
55.425 11.592555
55.430 12.232989
55.435 12.35772
55.440 11.918829
55.445 11.689613
55.450 11.467852
55.455 11.464639
55.460 11.57926
55.465 11.333797
55.470 11.902402
55.475 11.991377
55.480 11.840187
55.485 11.370404
55.490 11.34113
55.495 10.805595
55.500 10.781629
55.505 10.949345
55.510 11.196078
55.515 11.242305
55.520 11.583589
55.525 11.674397
55.530 12.000445
55.535 12.151597
55.540 12.082071
55.545 11.981162
55.550 11.995667
55.555 12.044157
55.560 12.055039
55.565 12.069111
55.570 11.548188
55.575 11.028744
55.580 11.361619
55.585 11.260426
55.590 11.113598
55.595 11.506772
55.600 11.542775
55.605 11.733582
55.610 12.160117
55.615 12.247977
55.620 12.336291
55.625 12.356374
55.630 11.845971
55.635 11.899087
55.640 11.96384
55.645 11.41549
55.650 11.427457
55.655 11.653648
55.660 12.0316
55.665 11.890143
55.670 11.584279
55.675 11.570217
55.680 11.677809
55.685 12.19494
55.690 12.120907
55.695 11.740784
55.700 11.86659
55.705 12.899541
55.710 13.102223
55.715 12.855594
55.720 12.467124
55.725 12.412133
55.730 12.825832
55.735 13.009439
55.740 11.771246
55.745 11.660621
55.750 11.909385
55.755 11.75248
55.760 11.995473
55.765 11.983158
55.770 11.586141
55.775 11.879126
55.780 11.853133
55.785 11.709379
55.790 11.181122
55.795 10.621671
55.800 10.301176
55.805 10.219445
55.810 10.248983
55.815 10.431877
55.820 10.913429
55.825 11.799446
55.830 12.017179
55.835 12.118744
55.840 12.374991
55.845 12.612753
55.850 12.17455
55.855 11.931466
55.860 11.877128
55.865 12.313988
55.870 12.043281
55.875 12.214904
55.880 11.92447
55.885 12.194601
55.890 12.249813
55.895 12.129254
55.900 11.64354
55.905 11.59916
55.910 11.441399
55.915 11.4533
55.920 11.746764
55.925 11.665661
55.930 11.88146
55.935 12.73409
55.940 13.928226
55.945 14.370068
55.950 15.045732
55.955 14.661259
55.960 14.473399
55.965 14.09943
55.970 13.60194
55.975 12.880387
55.980 12.251349
55.985 11.342987
55.990 11.214805
55.995 11.792964
56.000 11.94179
56.005 11.887413
56.010 11.961506
56.015 12.284533
56.020 12.657296
56.025 13.016251
56.030 12.337555
56.035 12.346128
56.040 12.451141
56.045 12.531431
56.050 12.625851
56.055 12.436913
56.060 11.628433
56.065 11.451262
56.070 11.255549
56.075 11.329955
56.080 11.04296
56.085 10.53413
56.090 10.500169
56.095 11.065904
56.100 11.313209
56.105 11.60275
56.110 11.525206
56.115 11.791576
56.120 12.060449
56.125 12.029315
56.130 11.548407
56.135 11.412608
56.140 11.028303
56.145 11.169966
56.150 11.297971
56.155 11.684983
56.160 12.175554
56.165 12.426836
56.170 12.241136
56.175 12.028054
56.180 11.798496
56.185 11.82554
56.190 11.071345
56.195 10.594059
56.200 10.813538
56.205 11.307698
56.210 11.524572
56.215 11.122112
56.220 10.899757
56.225 11.188288
56.230 11.854419
56.235 12.348949
56.240 12.609536
56.245 13.069457
56.250 13.434645
56.255 13.848883
56.260 14.14879
56.265 14.032262
56.270 13.77732
56.275 12.9529
56.280 12.413286
56.285 12.476803
56.290 12.005443
56.295 11.801458
56.300 11.435122
56.305 11.508952
56.310 12.306911
56.315 12.740418
56.320 12.589939
56.325 13.05834
56.330 13.236212
56.335 13.333314
56.340 13.445197
56.345 13.496319
56.350 13.705397
56.355 13.914614
56.360 13.632279
56.365 13.458278
56.370 13.293319
56.375 12.523022
56.380 11.613666
56.385 10.993764
56.390 10.581362
56.395 10.993888
56.400 11.37182
56.405 11.340734
56.410 11.788747
56.415 12.768119
56.420 13.34378
56.425 13.691976
56.430 13.454288
56.435 13.068977
56.440 13.072164
56.445 12.802934
56.450 12.415272
56.455 12.196327
56.460 12.225181
56.465 11.71663
56.470 11.983785
56.475 11.660254
56.480 11.742063
56.485 12.263742
56.490 12.86535
56.495 13.212644
56.500 13.348947
56.505 13.77495
56.510 14.541291
56.515 15.090114
56.520 14.533352
56.525 13.623669
56.530 13.207538
56.535 13.048183
56.540 12.477127
56.545 11.86508
56.550 10.972923
56.555 10.93864
56.560 11.166466
56.565 11.323044
56.570 11.413344
56.575 11.288859
56.580 11.646792
56.585 11.841749
56.590 11.93643
56.595 12.027413
56.600 11.805402
56.605 12.114347
56.610 12.18529
56.615 12.032914
56.620 11.712653
56.625 11.426206
56.630 11.606867
56.635 12.008576
56.640 11.930889
56.645 11.987668
56.650 12.037461
56.655 12.49908
56.660 12.242299
56.665 12.413062
56.670 12.638882
56.675 12.82727
56.680 13.001431
56.685 13.259665
56.690 13.474803
56.695 13.462522
56.700 13.121834
56.705 12.499854
56.710 12.44873
56.715 12.496718
56.720 12.366881
56.725 12.469008
56.730 12.889905
56.735 13.086823
56.740 13.642681
56.745 13.981697
56.750 14.316856
56.755 14.723879
56.760 14.940432
56.765 14.821524
56.770 14.455173
56.775 13.839761
56.780 13.627168
56.785 13.295677
56.790 12.81733
56.795 12.595372
56.800 12.359826
56.805 12.763908
56.810 12.810636
56.815 12.795484
56.820 12.603179
56.825 12.528288
56.830 12.673127
56.835 13.266769
56.840 13.900369
56.845 14.49754
56.850 14.036484
56.855 13.994077
56.860 14.353309
56.865 14.627651
56.870 14.54606
56.875 13.958976
56.880 13.579659
56.885 13.45242
56.890 13.52619
56.895 13.157106
56.900 12.937548
56.905 12.565444
56.910 12.598711
56.915 12.610927
56.920 12.975896
56.925 13.325348
56.930 13.550962
56.935 13.639438
56.940 13.668484
56.945 13.506082
56.950 13.344967
56.955 13.376085
56.960 13.481854
56.965 13.544968
56.970 13.772096
56.975 14.175791
56.980 14.275707
56.985 14.303321
56.990 14.100618
56.995 13.321168
57.000 13.134449
57.005 12.666854
57.010 12.392621
57.015 12.457234
57.020 12.692704
57.025 12.973715
57.030 12.848223
57.035 12.785252
57.040 12.227138
57.045 12.67384
57.050 13.069279
57.055 12.890326
57.060 12.553332
57.065 12.672708
57.070 12.740299
57.075 13.36628
57.080 12.909803
57.085 12.184107
57.090 12.380926
57.095 12.66326
57.100 12.812552
57.105 12.959709
57.110 13.235162
57.115 13.413854
57.120 13.670217
57.125 13.827004
57.130 14.349789
57.135 14.546882
57.140 14.518887
57.145 13.795022
57.150 14.118335
57.155 14.091482
57.160 13.504612
57.165 13.545641
57.170 13.168558
57.175 13.043461
57.180 13.590474
57.185 13.222432
57.190 12.948484
57.195 13.248067
57.200 13.05842
57.205 13.053981
57.210 13.270757
57.215 13.120844
57.220 13.020039
57.225 13.348524
57.230 13.429591
57.235 13.342006
57.240 13.842802
57.245 13.707354
57.250 13.371152
57.255 13.333632
57.260 13.342299
57.265 13.294928
57.270 13.273155
57.275 13.148703
57.280 13.16518
57.285 13.078762
57.290 13.105202
57.295 13.365794
57.300 13.064576
57.305 13.140368
57.310 13.214413
57.315 13.570541
57.320 14.253201
57.325 13.957246
57.330 13.789286
57.335 14.133766
57.340 13.608475
57.345 13.386156
57.350 13.141112
57.355 13.385516
57.360 13.89337
57.365 13.607718
57.370 13.681237
57.375 14.453306
57.380 14.826782
57.385 14.922982
57.390 14.490515
57.395 14.551373
57.400 14.457456
57.405 14.20441
57.410 13.700098
57.415 13.499879
57.420 13.536192
57.425 13.46505
57.430 13.352756
57.435 13.377609
57.440 13.241518
57.445 13.175467
57.450 13.109674
57.455 13.612235
57.460 14.16002
57.465 14.856112
57.470 14.748839
57.475 14.803226
57.480 14.527612
57.485 14.500127
57.490 14.198251
57.495 13.587226
57.500 12.791516
57.505 12.850925
57.510 12.91309
57.515 13.35838
57.520 13.260239
57.525 12.843396
57.530 12.5249
57.535 12.836238
57.540 12.816337
57.545 13.469489
57.550 13.493897
57.555 13.676777
57.560 14.302654
57.565 14.782332
57.570 14.911607
57.575 15.449387
57.580 15.013796
57.585 14.620277
57.590 13.88937
57.595 13.571975
57.600 13.283161
57.605 13.001646
57.610 12.397329
57.615 12.545441
57.620 13.047515
57.625 14.003274
57.630 14.309019
57.635 14.265891
57.640 14.710529
57.645 15.078832
57.650 15.18225
57.655 14.851729
57.660 14.387039
57.665 14.315958
57.670 14.210336
57.675 13.711279
57.680 13.537972
57.685 13.137824
57.690 12.998075
57.695 13.217092
57.700 13.099003
57.705 13.063971
57.710 12.84618
57.715 12.735823
57.720 12.702778
57.725 12.774389
57.730 13.023133
57.735 13.028702
57.740 13.709697
57.745 14.255454
57.750 14.578328
57.755 14.843101
57.760 14.726004
57.765 14.33874
57.770 13.76406
57.775 13.496484
57.780 13.440722
57.785 13.602085
57.790 13.637279
57.795 13.500334
57.800 14.08851
57.805 14.781486
57.810 14.4795
57.815 14.262455
57.820 14.558688
57.825 15.004182
57.830 14.725616
57.835 14.858512
57.840 14.519929
57.845 14.904276
57.850 15.090019
57.855 14.293636
57.860 14.001179
57.865 14.465312
57.870 14.229224
57.875 15.151
57.880 15.419946
57.885 15.180027
57.890 15.133277
57.895 15.30438
57.900 15.277771
57.905 14.864182
57.910 13.945272
57.915 13.670724
57.920 13.875284
57.925 14.580895
57.930 14.701292
57.935 14.785244
57.940 15.034657
57.945 15.687462
57.950 15.926008
57.955 16.343882
57.960 16.220774
57.965 16.253012
57.970 16.455381
57.975 16.683361
57.980 16.298376
57.985 16.027279
57.990 15.70459
57.995 15.651655
58.000 15.336483
58.005 15.114305
58.010 15.419128
58.015 15.366021
58.020 15.524422
58.025 15.394279
58.030 15.554619
58.035 16.049562
58.040 16.290569
58.045 15.976565
58.050 16.210772
58.055 15.948865
58.060 15.850066
58.065 15.204602
58.070 14.393925
58.075 14.373269
58.080 14.615908
58.085 14.971997
58.090 15.376827
58.095 15.332561
58.100 15.473623
58.105 15.86577
58.110 15.767164
58.115 15.621487
58.120 15.032918
58.125 14.893774
58.130 14.941928
58.135 14.961035
58.140 15.144186
58.145 15.420691
58.150 15.640235
58.155 15.302536
58.160 15.390849
58.165 15.832129
58.170 16.30722
58.175 16.381529
58.180 16.401812
58.185 16.409863
58.190 17.060261
58.195 16.964914
58.200 16.808655
58.205 16.52137
58.210 16.153795
58.215 15.506341
58.220 15.231866
58.225 14.878304
58.230 14.167857
58.235 13.625955
58.240 13.690192
58.245 13.76615
58.250 13.672379
58.255 13.612666
58.260 14.005208
58.265 14.427052
58.270 14.859217
58.275 14.962344
58.280 15.057397
58.285 15.51848
58.290 15.87577
58.295 15.885781
58.300 16.10487
58.305 16.128084
58.310 16.18951
58.315 15.937908
58.320 16.039379
58.325 16.045652
58.330 15.46102
58.335 15.388645
58.340 15.306377
58.345 15.291362
58.350 15.541418
58.355 15.475039
58.360 15.773108
58.365 16.773479
58.370 17.274612
58.375 17.332071
58.380 17.541502
58.385 18.229033
58.390 18.478544
58.395 18.255342
58.400 17.815491
58.405 17.451117
58.410 17.425266
58.415 17.46962
58.420 17.538042
58.425 17.527704
58.430 18.267534
58.435 18.410873
58.440 18.368057
58.445 17.83452
58.450 17.421925
58.455 17.849571
58.460 17.612148
58.465 17.345205
58.470 18.207071
58.475 19.1828
58.480 19.904116
58.485 20.23818
58.490 19.885784
58.495 20.239157
58.500 19.72658
58.505 18.628386
58.510 18.136913
58.515 17.523422
58.520 17.164173
58.525 17.018661
58.530 16.929688
58.535 17.049402
58.540 16.895309
58.545 16.796507
58.550 16.934629
58.555 16.575424
58.560 16.906521
58.565 16.989845
58.570 16.60075
58.575 16.703888
58.580 16.321865
58.585 15.939974
58.590 16.113222
58.595 16.349188
58.600 16.45697
58.605 17.242487
58.610 17.338951
58.615 17.893353
58.620 18.595331
58.625 18.860531
58.630 18.386091
58.635 18.351572
58.640 18.259275
58.645 18.492527
58.650 18.609337
58.655 18.475592
58.660 18.051779
58.665 18.063429
58.670 17.769505
58.675 18.13311
58.680 18.028751
58.685 18.224073
58.690 18.25308
58.695 18.693352
58.700 19.142632
58.705 18.585135
58.710 18.600292
58.715 18.382992
58.720 18.496771
58.725 18.521584
58.730 18.517151
58.735 18.917524
58.740 19.84354
58.745 20.038046
58.750 19.964769
58.755 19.712429
58.760 19.539902
58.765 18.952963
58.770 19.032764
58.775 19.080742
58.780 18.924595
58.785 19.072941
58.790 18.654861
58.795 18.746058
58.800 18.631559
58.805 18.259939
58.810 18.324186
58.815 18.268236
58.820 18.554113
58.825 19.226879
58.830 19.339731
58.835 19.723394
58.840 20.059153
58.845 19.644979
58.850 19.813267
58.855 19.55949
58.860 19.557917
58.865 19.604916
58.870 19.29423
58.875 18.568573
58.880 18.228182
58.885 17.987127
58.890 18.327246
58.895 18.388626
58.900 18.550238
58.905 18.59931
58.910 18.887825
58.915 19.466326
58.920 20.005466
58.925 19.933458
58.930 19.701582
58.935 19.554262
58.940 19.703388
58.945 19.708675
58.950 19.688148
58.955 19.111488
58.960 18.977314
58.965 19.090218
58.970 19.51479
58.975 19.971712
58.980 19.683334
58.985 19.165327
58.990 19.292091
58.995 19.156267
59.000 19.065313
59.005 18.580158
59.010 18.361784
59.015 19.100752
59.020 18.869925
59.025 19.054613
59.030 18.807732
59.035 18.465626
59.040 18.277906
59.045 18.196672
59.050 18.115534
59.055 18.634413
59.060 18.73432
59.065 19.086594
59.070 18.905212
59.075 19.38702
59.080 20.06451
59.085 20.110899
59.090 19.885193
59.095 19.792227
59.100 19.801559
59.105 20.163063
59.110 19.934031
59.115 18.960064
59.120 18.532204
59.125 18.285408
59.130 18.320108
59.135 18.194576
59.140 17.916351
59.145 17.714346
59.150 18.133209
59.155 18.055223
59.160 17.699265
59.165 17.478693
59.170 17.914925
59.175 17.883467
59.180 17.627756
59.185 18.005709
59.190 18.770658
59.195 19.260704
59.200 18.871611
59.205 18.732647
59.210 18.93749
59.215 18.795979
59.220 18.70635
59.225 18.262909
59.230 18.704699
59.235 19.154312
59.240 19.658491
59.245 20.03466
59.250 20.309196
59.255 19.644619
59.260 19.523905
59.265 18.889856
59.270 18.710844
59.275 18.42627
59.280 18.150007
59.285 17.980637
59.290 18.771614
59.295 19.22298
59.300 19.630726
59.305 19.348238
59.310 18.719707
59.315 18.813208
59.320 18.476042
59.325 17.958208
59.330 17.767279
59.335 17.567677
59.340 17.623747
59.345 17.833187
59.350 17.550743
59.355 18.130247
59.360 17.924168
59.365 17.980335
59.370 18.500238
59.375 18.824905
59.380 19.04781
59.385 19.584129
59.390 19.620264
59.395 19.964048
59.400 20.298777
59.405 19.985176
59.410 19.830616
59.415 19.576206
59.420 19.545584
59.425 19.497976
59.430 19.562561
59.435 19.165689
59.440 19.158981
59.445 19.302368
59.450 19.45647
59.455 19.806814
59.460 20.050562
59.465 20.4848
59.470 20.077585
59.475 19.977203
59.480 19.834652
59.485 19.693897
59.490 19.058094
59.495 18.713926
59.500 18.0217
59.505 18.158812
59.510 18.493837
59.515 18.485924
59.520 18.150875
59.525 17.820839
59.530 17.021965
59.535 17.366531
59.540 17.411568
59.545 17.538418
59.550 17.911758
59.555 18.276318
59.560 18.612476
59.565 19.00621
59.570 18.681711
59.575 18.687698
59.580 18.614052
59.585 18.122131
59.590 18.261856
59.595 18.800608
59.600 19.165262
59.605 19.579624
59.610 19.319069
59.615 19.005686
59.620 18.720181
59.625 19.058836
59.630 18.821709
59.635 18.63442
59.640 18.480396
59.645 18.635756
59.650 18.837381
59.655 19.464252
59.660 19.409798
59.665 19.271187
59.670 18.78524
59.675 19.148315
59.680 19.626551
59.685 19.743824
59.690 19.359667
59.695 19.163122
59.700 19.652678
59.705 20.420248
59.710 19.74725
59.715 19.148184
59.720 18.993986
59.725 19.580965
59.730 19.991295
59.735 19.886475
59.740 19.717154
59.745 19.787941
59.750 19.745234
59.755 19.957399
59.760 20.0077
59.765 19.557407
59.770 19.169195
59.775 19.112598
59.780 19.663895
59.785 20.033588
59.790 19.668848
59.795 19.393267
59.800 19.389072
59.805 19.608246
59.810 19.69759
59.815 19.814823
59.820 19.744242
59.825 19.948915
59.830 20.364864
59.835 20.624758
59.840 20.262932
59.845 20.385527
59.850 20.221891
59.855 19.988743
59.860 20.138287
59.865 19.508308
59.870 19.065361
59.875 19.231461
59.880 18.772959
59.885 18.219923
59.890 17.706333
59.895 17.457817
59.900 17.70524
59.905 17.84075
59.910 17.552599
59.915 17.004486
59.920 17.43692
59.925 17.825197
59.930 18.153662
59.935 17.996729
59.940 17.595341
59.945 17.973534
59.950 18.562983
59.955 18.531017
59.960 18.164778
59.965 17.51668
59.970 17.585684
59.975 17.811949
59.980 18.035658
59.985 18.518353
59.990 18.977694
59.995 19.094164
60.000 19.267891
60.005 19.580296
60.010 19.599155
60.015 19.505283
60.020 18.725191
60.025 18.233433
60.030 18.169472
60.035 18.161272
60.040 18.137711
60.045 18.293602
60.050 18.489105
60.055 19.089767
60.060 19.719589
60.065 19.937597
60.070 19.806683
60.075 19.634375
60.080 19.794804
60.085 19.859072
60.090 19.249016
60.095 19.194344
60.100 19.445389
60.105 19.503212
60.110 19.264263
60.115 18.540815
60.120 18.048767
60.125 18.315573
60.130 17.424957
60.135 16.656246
60.140 16.702583
60.145 16.707567
60.150 17.151459
60.155 18.083874
60.160 18.207575
60.165 18.811815
60.170 19.153198
60.175 19.011448
60.180 19.066059
60.185 19.115253
60.190 18.730373
60.195 19.07209
60.200 19.139215
60.205 19.369686
60.210 19.638226
60.215 19.998274
60.220 19.496439
60.225 19.399876
60.230 19.611814
60.235 19.307579
60.240 18.902912
60.245 18.996656
60.250 18.917416
60.255 19.371376
60.260 19.386692
60.265 18.519737
60.270 18.206579
60.275 18.321695
60.280 17.59049
60.285 17.378767
60.290 17.217793
60.295 17.132898
60.300 17.505272
60.305 18.48633
60.310 18.45698
60.315 18.682388
60.320 18.534012
60.325 18.409594
60.330 18.777802
60.335 18.847548
60.340 17.960598
60.345 17.89823
60.350 18.266676
60.355 18.345505
60.360 18.262726
60.365 17.642891
60.370 18.091923
60.375 18.844208
60.380 19.204817
60.385 19.015533
60.390 18.74609
60.395 19.599937
60.400 19.464798
60.405 18.621284
60.410 18.302351
60.415 18.14624
60.420 18.053078
60.425 18.312216
60.430 17.336935
60.435 17.61668
60.440 17.768011
60.445 17.961805
60.450 17.632618
60.455 17.612682
60.460 16.912113
60.465 16.613041
60.470 16.79818
60.475 17.298931
60.480 17.180067
60.485 17.297195
60.490 17.18449
60.495 17.961054
60.500 18.253771
60.505 18.340971
60.510 18.137575
60.515 18.044979
60.520 17.734735
60.525 17.776405
60.530 17.787497
60.535 18.867674
60.540 19.094713
60.545 18.315275
60.550 18.012564
60.555 17.798363
60.560 17.544699
60.565 17.073288
60.570 16.058498
60.575 15.905222
60.580 16.068186
60.585 16.203568
60.590 16.389704
60.595 16.825829
60.600 16.942141
60.605 16.381344
60.610 16.502407
60.615 16.405235
60.620 16.754393
60.625 17.263338
60.630 17.338491
60.635 17.602057
60.640 17.763233
60.645 17.368629
60.650 17.888159
60.655 17.880474
60.660 17.630999
60.665 17.742304
60.670 17.390726
60.675 17.184708
60.680 17.367176
60.685 17.150492
60.690 16.654345
60.695 16.525581
60.700 16.177725
60.705 16.4702
60.710 16.692913
60.715 16.120991
60.720 16.40591
60.725 17.153395
60.730 17.424379
60.735 17.136719
60.740 16.596472
60.745 16.334404
60.750 17.096447
60.755 17.01367
60.760 16.888136
60.765 16.902569
60.770 17.657862
60.775 18.078339
60.780 18.059147
60.785 17.970882
60.790 17.826164
60.795 17.588339
60.800 17.368965
60.805 17.116064
60.810 17.236637
60.815 17.261087
60.820 16.946777
60.825 17.066008
60.830 16.992796
60.835 16.281273
60.840 15.95449
60.845 16.358549
60.850 16.910398
60.855 16.738016
60.860 16.479115
60.865 16.994322
60.870 17.435711
60.875 17.389992
60.880 16.728296
60.885 16.51445
60.890 16.19607
60.895 15.641026
60.900 15.169396
60.905 15.119402
60.910 15.413074
60.915 15.738388
60.920 15.464606
60.925 15.945319
60.930 16.191521
60.935 16.581591
60.940 16.490383
60.945 15.923428
60.950 15.476847
60.955 15.626941
60.960 15.512983
60.965 15.325893
60.970 15.06013
60.975 15.647975
60.980 16.056335
60.985 16.377014
60.990 16.872038
60.995 17.164909
61.000 17.125124
61.005 17.000744
61.010 16.575264
61.015 16.521194
61.020 15.899262
61.025 15.002591
61.030 15.064285
61.035 15.04377
61.040 14.918835
61.045 15.143081
61.050 15.468756
61.055 15.612748
61.060 15.370208
61.065 14.399786
61.070 14.991091
61.075 15.426846
61.080 15.136069
61.085 14.845989
61.090 15.326508
61.095 16.235046
61.100 17.195568
61.105 17.042137
61.110 16.729771
61.115 16.801172
61.120 16.924248
61.125 17.080526
61.130 17.041895
61.135 17.387245
61.140 17.462469
61.145 17.720623
61.150 17.199417
61.155 16.934681
61.160 16.719543
61.165 16.224874
61.170 15.301835
61.175 15.392228
61.180 15.22548
61.185 15.542982
61.190 15.772704
61.195 15.833387
61.200 16.0513
61.205 16.152716
61.210 15.559926
61.215 15.90815
61.220 15.884223
61.225 16.082943
61.230 16.207079
61.235 16.366352
61.240 16.699398
61.245 17.094973
61.250 16.937559
61.255 17.634306
61.260 17.244326
61.265 16.903734
61.270 17.07933
61.275 16.821255
61.280 16.610453
61.285 16.56955
61.290 15.886522
61.295 15.930268
61.300 15.795328
61.305 15.347478
61.310 15.496923
61.315 15.903329
61.320 15.536741
61.325 15.821502
61.330 16.286156
61.335 16.864689
61.340 17.026491
61.345 16.307911
61.350 16.279127
61.355 16.662237
61.360 16.620119
61.365 16.32443
61.370 16.391489
61.375 16.491804
61.380 16.959278
61.385 16.604431
61.390 16.689507
61.395 16.518421
61.400 16.032148
61.405 15.514871
61.410 15.719613
61.415 15.927173
61.420 15.779035
61.425 15.556446
61.430 15.669082
61.435 15.692871
61.440 15.571108
61.445 14.982924
61.450 15.13366
61.455 15.621891
61.460 15.978813
61.465 15.973959
61.470 16.295567
61.475 17.005787
61.480 17.133196
61.485 16.51473
61.490 16.087427
61.495 15.62041
61.500 16.293745
61.505 16.018057
61.510 15.737403
61.515 15.856477
61.520 16.450422
61.525 16.949272
61.530 17.017513
61.535 16.51889
61.540 16.603344
61.545 17.102488
61.550 17.436237
61.555 17.384157
61.560 16.978725
61.565 16.661604
61.570 16.858538
61.575 17.08629
61.580 16.616798
61.585 16.339054
61.590 16.123804
61.595 16.809219
61.600 16.69179
61.605 16.284933
61.610 16.004095
61.615 15.617649
61.620 15.846877
61.625 15.256153
61.630 14.643296
61.635 14.896081
61.640 15.223132
61.645 15.632302
61.650 15.832907
61.655 15.585501
61.660 16.264231
61.665 16.432873
61.670 16.108212
61.675 16.195377
61.680 15.708496
61.685 15.717161
61.690 15.905229
61.695 15.788982
61.700 15.994101
61.705 16.260635
61.710 16.269943
61.715 16.788752
61.720 17.324135
61.725 17.458492
61.730 17.729025
61.735 18.065027
61.740 17.90132
61.745 17.532412
61.750 17.911846
61.755 17.98399
61.760 17.801512
61.765 17.072706
61.770 16.892467
61.775 17.396969
61.780 17.545376
61.785 17.164629
61.790 16.862247
61.795 17.185057
61.800 17.481508
61.805 17.590548
61.810 18.141689
61.815 18.070124
61.820 17.646843
61.825 17.389711
61.830 17.061796
61.835 16.932449
61.840 16.775232
61.845 15.871948
61.850 15.868259
61.855 16.247887
61.860 16.670462
61.865 16.883005
61.870 16.820248
61.875 16.877102
61.880 17.287186
61.885 17.556108
61.890 17.513195
61.895 17.015701
61.900 16.93074
61.905 16.769316
61.910 16.299814
61.915 16.323702
61.920 16.248667
61.925 16.461946
61.930 16.464437
61.935 16.861956
61.940 16.935129
61.945 16.927176
61.950 16.504274
61.955 16.202597
61.960 15.679232
61.965 15.76167
61.970 15.377118
61.975 15.982448
61.980 16.329512
61.985 16.313364
61.990 16.382196
61.995 16.409473
62.000 16.445122
62.005 16.538654
62.010 16.542809
62.015 16.907146
62.020 17.327217
62.025 17.293913
62.030 17.293171
62.035 17.469389
62.040 17.66901
62.045 17.470789
62.050 17.547043
62.055 18.175829
62.060 18.523357
62.065 18.450977
62.070 18.27721
62.075 17.87855
62.080 17.529287
62.085 16.760658
62.090 16.180614
62.095 15.941092
62.100 15.662048
62.105 15.382931
62.110 15.343588
62.115 15.529733
62.120 15.714774
62.125 15.875368
62.130 16.023174
62.135 15.61616
62.140 15.83263
62.145 16.145933
62.150 15.976836
62.155 16.19026
62.160 16.432074
62.165 16.977587
62.170 17.963316
62.175 18.02416
62.180 17.931799
62.185 18.021078
62.190 17.693937
62.195 17.197618
62.200 16.90036
62.205 16.741272
62.210 17.01722
62.215 17.072594
62.220 16.853355
62.225 16.80422
62.230 16.733591
62.235 16.366554
62.240 16.200544
62.245 15.663307
62.250 15.860242
62.255 16.320465
62.260 16.219166
62.265 16.20079
62.270 16.251869
62.275 16.350254
62.280 16.151484
62.285 16.144886
62.290 16.05998
62.295 16.474083
62.300 16.614202
62.305 16.901119
62.310 16.982815
62.315 17.052004
62.320 17.104008
62.325 17.17399
62.330 16.958014
62.335 17.092783
62.340 17.396299
62.345 17.105047
62.350 17.028128
62.355 16.713774
62.360 16.126223
62.365 16.013983
62.370 15.872506
62.375 15.076378
62.380 15.570715
62.385 15.865343
62.390 16.320955
62.395 16.436455
62.400 15.896316
62.405 15.955564
62.410 16.43018
62.415 16.754435
62.420 16.314512
62.425 16.172279
62.430 16.7733
62.435 17.087269
62.440 17.034042
62.445 17.09273
62.450 17.129284
62.455 17.670809
62.460 17.672485
62.465 17.564348
62.470 18.446693
62.475 19.009417
62.480 19.065641
62.485 19.283825
62.490 18.936228
62.495 19.258539
62.500 19.349712
62.505 18.394764
62.510 18.152391
62.515 17.918316
62.520 17.311277
62.525 17.45063
62.530 17.006485
62.535 16.792929
62.540 16.928419
62.545 17.059231
62.550 17.607635
62.555 17.653461
62.560 17.959536
62.565 18.320929
62.570 17.986719
62.575 17.746943
62.580 16.966829
62.585 16.36355
62.590 16.333672
62.595 15.92969
62.600 16.19499
62.605 16.573223
62.610 16.583448
62.615 16.7887
62.620 16.556236
62.625 16.009525
62.630 15.804513
62.635 15.723358
62.640 15.724046
62.645 16.018591
62.650 16.133797
62.655 15.610549
62.660 15.54984
62.665 15.259774
62.670 14.673364
62.675 14.981
62.680 14.863062
62.685 14.972216
62.690 16.035696
62.695 16.537325
62.700 16.802485
62.705 17.307205
62.710 17.402094
62.715 17.789652
62.720 18.044519
62.725 17.899776
62.730 18.378359
62.735 18.713156
62.740 18.357887
62.745 18.139505
62.750 18.212927
62.755 18.076887
62.760 17.974974
62.765 17.561304
62.770 17.547083
62.775 17.624483
62.780 17.048172
62.785 16.799427
62.790 16.841881
62.795 17.343834
62.800 17.644047
62.805 17.628979
62.810 17.963211
62.815 18.163923
62.820 18.282629
62.825 17.964436
62.830 17.574688
62.835 17.382801
62.840 16.859369
62.845 16.931482
62.850 17.51363
62.855 17.726616
62.860 17.57482
62.865 17.347025
62.870 17.603405
62.875 17.759136
62.880 17.260311
62.885 16.407549
62.890 15.813822
62.895 16.137287
62.900 16.014006
62.905 15.767828
62.910 16.466202
62.915 16.986345
62.920 17.424816
62.925 17.91437
62.930 18.390785
62.935 18.787476
62.940 18.326155
62.945 17.538727
62.950 17.439774
62.955 17.803568
62.960 17.274012
62.965 16.726727
62.970 17.45196
62.975 17.842703
62.980 17.805073
62.985 17.297812
62.990 17.223488
62.995 18.06879
63.000 18.019688
63.005 17.588688
63.010 18.094173
63.015 18.206947
63.020 18.489311
63.025 17.772205
63.030 17.584942
63.035 17.908018
63.040 17.603642
63.045 17.228254
63.050 17.151794
63.055 16.614895
63.060 17.124073
63.065 16.812231
63.070 16.363537
63.075 16.113455
63.080 16.138523
63.085 16.234735
63.090 16.840643
63.095 17.011734
63.100 16.741978
63.105 16.840334
63.110 16.945656
63.115 16.728321
63.120 16.687906
63.125 16.701984
63.130 16.614004
63.135 16.773203
63.140 17.490351
63.145 17.329739
63.150 17.029577
63.155 17.084229
63.160 17.139002
63.165 17.353975
63.170 17.562479
63.175 16.822578
63.180 17.014137
63.185 17.258703
63.190 17.472418
63.195 17.24188
63.200 16.779543
63.205 16.431831
63.210 16.309477
63.215 16.293001
63.220 16.421423
63.225 16.207314
63.230 16.763504
63.235 17.229752
63.240 17.579288
63.245 17.649738
63.250 18.119717
63.255 18.734518
63.260 18.95821
63.265 18.972839
63.270 18.80377
63.275 19.009914
63.280 19.094414
63.285 18.781519
63.290 18.254478
63.295 17.74268
63.300 17.808361
63.305 17.752932
63.310 17.516493
63.315 17.731867
63.320 17.900925
63.325 18.679232
63.330 18.723799
63.335 18.427919
63.340 18.174952
63.345 17.78117
63.350 17.315111
63.355 17.408298
63.360 17.438383
63.365 18.113899
63.370 18.000462
63.375 18.752422
63.380 19.363865
63.385 20.470985
63.390 20.213095
63.395 18.989826
63.400 18.415016
63.405 18.190992
63.410 17.41226
63.415 17.163811
63.420 16.322536
63.425 16.337494
63.430 16.965239
63.435 17.321548
63.440 17.479101
63.445 17.914488
63.450 17.978039
63.455 18.162695
63.460 18.248323
63.465 18.324987
63.470 18.983242
63.475 19.254484
63.480 19.315672
63.485 19.703081
63.490 20.124914
63.495 20.606058
63.500 20.420633
63.505 19.994389
63.510 19.587383
63.515 19.514482
63.520 19.121071
63.525 18.965027
63.530 18.777929
63.535 19.057671
63.540 19.261936
63.545 19.458862
63.550 18.906267
63.555 18.525923
63.560 18.007805
63.565 17.909433
63.570 17.337633
63.575 16.971504
63.580 17.055521
63.585 17.597729
63.590 18.150568
63.595 18.587002
63.600 18.060923
63.605 17.725813
63.610 17.108652
63.615 17.472239
63.620 17.475153
63.625 16.548119
63.630 16.118547
63.635 16.504692
63.640 16.41679
63.645 17.133087
63.650 17.116747
63.655 17.850607
63.660 18.730364
63.665 19.571951
63.670 20.035368
63.675 20.462639
63.680 20.475908
63.685 19.857813
63.690 19.025719
63.695 18.260593
63.700 17.094973
63.705 16.612896
63.710 16.76322
63.715 17.270714
63.720 17.660015
63.725 17.729992
63.730 18.478987
63.735 18.881939
63.740 19.109589
63.745 18.728539
63.750 18.498638
63.755 18.708044
63.760 18.764227
63.765 18.332905
63.770 17.776899
63.775 17.912123
63.780 17.816481
63.785 17.649263
63.790 17.547712
63.795 17.840549
63.800 18.232899
63.805 18.784468
63.810 18.670334
63.815 19.055307
63.820 19.130074
63.825 19.451565
63.830 18.930517
63.835 18.963274
63.840 19.144835
63.845 19.352238
63.850 18.881901
63.855 18.841692
63.860 18.940407
63.865 19.611635
63.870 19.432911
63.875 19.043713
63.880 18.981525
63.885 19.48601
63.890 19.414644
63.895 19.368008
63.900 19.299957
63.905 19.739344
63.910 20.230911
63.915 20.267368
63.920 20.453876
63.925 19.94165
63.930 19.89279
63.935 19.762905
63.940 19.652952
63.945 19.406078
63.950 19.350088
63.955 19.541649
63.960 19.67594
63.965 19.780548
63.970 19.492886
63.975 19.574183
63.980 19.964031
63.985 19.743361
63.990 18.898083
63.995 18.938372
64.000 19.050135
64.005 19.404383
64.010 19.290995
64.015 18.690907
64.020 19.097963
64.025 19.701546
64.030 19.970728
64.035 20.026463
64.040 20.274815
64.045 21.144703
64.050 21.996502
64.055 21.74431
64.060 22.140577
64.065 22.340849
64.070 22.263592
64.075 22.370148
64.080 22.254635
64.085 21.857645
64.090 21.881712
64.095 21.293358
64.100 20.908808
64.105 21.242033
64.110 20.627935
64.115 20.269154
64.120 20.455765
64.125 20.62945
64.130 20.664671
64.135 21.090496
64.140 20.247623
64.145 20.719196
64.150 20.567553
64.155 21.232468
64.160 21.116657
64.165 21.680897
64.170 22.044664
64.175 21.902918
64.180 22.163736
64.185 21.916693
64.190 21.289358
64.195 21.696636
64.200 21.127342
64.205 21.249699
64.210 20.992554
64.215 20.51358
64.220 21.707417
64.225 21.19792
64.230 20.837193
64.235 20.487335
64.240 19.960999
64.245 20.612234
64.250 20.303307
64.255 19.950495
64.260 20.546091
64.265 20.460396
64.270 21.125284
64.275 21.431158
64.280 21.409744
64.285 21.724764
64.290 21.160982
64.295 21.152781
64.300 21.192339
64.305 21.085913
64.310 20.595898
64.315 20.794271
64.320 20.164579
64.325 20.421698
64.330 20.616913
64.335 20.809746
64.340 21.122288
64.345 21.750463
64.350 21.964981
64.355 23.073359
64.360 23.155592
64.365 23.102846
64.370 23.184595
64.375 23.042065
64.380 23.187597
64.385 23.270763
64.390 22.747284
64.395 22.025396
64.400 21.162851
64.405 20.347946
64.410 20.183523
64.415 19.620815
64.420 19.472853
64.425 19.580498
64.430 19.793818
64.435 20.630959
64.440 20.919462
64.445 21.231876
64.450 22.137104
64.455 22.219772
64.460 22.940872
64.465 23.783781
64.470 23.474493
64.475 23.788151
64.480 23.770832
64.485 23.433884
64.490 22.923666
64.495 23.246443
64.500 23.580547
64.505 23.806282
64.510 24.197762
64.515 23.996162
64.520 23.803364
64.525 23.784332
64.530 23.125845
64.535 23.007572
64.540 22.674965
64.545 21.97197
64.550 21.853933
64.555 22.167282
64.560 22.251081
64.565 22.822428
64.570 23.279888
64.575 23.677448
64.580 23.680943
64.585 23.79517
64.590 24.168524
64.595 23.9571
64.600 23.154514
64.605 22.637163
64.610 22.409206
64.615 22.380312
64.620 22.24715
64.625 21.572052
64.630 21.946573
64.635 21.896439
64.640 21.089174
64.645 20.67923
64.650 20.671127
64.655 20.398445
64.660 20.277462
64.665 19.367218
64.670 18.932177
64.675 19.872721
64.680 20.29035
64.685 20.279892
64.690 20.685154
64.695 20.834841
64.700 21.328293
64.705 21.42551
64.710 21.911146
64.715 22.404737
64.720 22.568081
64.725 22.000257
64.730 22.06151
64.735 22.313236
64.740 22.716621
64.745 21.86046
64.750 21.351145
64.755 20.98761
64.760 21.137255
64.765 21.609455
64.770 21.489857
64.775 21.894449
64.780 22.002052
64.785 22.406214
64.790 22.768003
64.795 22.899044
64.800 22.530222
64.805 22.427956
64.810 21.67909
64.815 21.917871
64.820 21.578651
64.825 21.783281
64.830 21.964853
64.835 22.28303
64.840 22.450722
64.845 22.582436
64.850 22.285263
64.855 22.595623
64.860 22.543371
64.865 22.32332
64.870 22.128683
64.875 22.169197
64.880 22.350958
64.885 22.523766
64.890 22.416864
64.895 22.534132
64.900 22.303545
64.905 22.091524
64.910 21.638683
64.915 21.34193
64.920 21.658854
64.925 21.586964
64.930 21.885687
64.935 22.28422
64.940 23.097204
64.945 23.86503
64.950 24.11092
64.955 24.34547
64.960 24.47965
64.965 24.141359
64.970 24.266083
64.975 23.754211
64.980 23.592449
64.985 23.835358
64.990 23.840641
64.995 23.829924
65.000 23.862503
65.005 23.561338
65.010 23.18786
65.015 22.588705
65.020 22.754967
65.025 22.784969
65.030 23.168468
65.035 23.364826
65.040 23.418842
65.045 23.890017
65.050 24.331114
65.055 23.603252
65.060 22.983372
65.065 22.389996
65.070 22.18807
65.075 22.563446
65.080 23.341972
65.085 24.039463
65.090 25.16931
65.095 25.452188
65.100 25.636553
65.105 25.818907
65.110 25.405813
65.115 25.075539
65.120 24.637047
65.125 24.319212
65.130 24.23369
65.135 23.790756
65.140 23.790829
65.145 23.951097
65.150 23.692696
65.155 23.646732
65.160 23.555214
65.165 23.869047
65.170 24.17017
65.175 24.952305
65.180 25.371445
65.185 25.161928
65.190 24.945269
65.195 24.870995
65.200 25.061499
65.205 25.34407
65.210 24.853409
65.215 24.281847
65.220 24.560041
65.225 25.21196
65.230 25.152977
65.235 25.212517
65.240 24.73007
65.245 24.167957
65.250 24.825905
65.255 24.628008
65.260 24.206022
65.265 24.321926
65.270 24.110567
65.275 23.83325
65.280 23.636431
65.285 23.406584
65.290 23.461229
65.295 23.455227
65.300 23.050886
65.305 22.767857
65.310 22.958904
65.315 23.02681
65.320 23.1378
65.325 22.984003
65.330 22.949717
65.335 23.737167
65.340 24.547775
65.345 25.249376
65.350 25.624081
65.355 25.242079
65.360 25.231441
65.365 25.302559
65.370 24.935076
65.375 24.334208
65.380 24.088554
65.385 23.57325
65.390 23.337799
65.395 22.907558
65.400 22.741671
65.405 22.506062
65.410 22.214737
65.415 22.113321
65.420 22.61717
65.425 23.019024
65.430 22.729601
65.435 22.726437
65.440 23.051365
65.445 23.645405
65.450 23.238531
65.455 23.217922
65.460 23.404997
65.465 24.189589
65.470 23.910625
65.475 24.048702
65.480 24.372789
65.485 24.87919
65.490 25.317497
65.495 25.476568
65.500 25.586655
65.505 26.18997
65.510 26.356606
65.515 25.816879
65.520 25.519293
65.525 25.212379
65.530 25.036791
65.535 25.034101
65.540 25.006147
65.545 24.278551
65.550 24.283743
65.555 24.77375
65.560 25.237289
65.565 25.395878
65.570 25.705067
65.575 25.83383
65.580 26.325081
65.585 26.32917
65.590 25.911085
65.595 25.59923
65.600 25.637396
65.605 25.710114
65.610 25.577568
65.615 25.164268
65.620 25.466787
65.625 25.078596
65.630 24.615314
65.635 24.601213
65.640 25.110666
65.645 25.240072
65.650 25.282181
65.655 24.968357
65.660 25.616959
65.665 25.889627
65.670 25.287012
65.675 24.524424
65.680 25.389303
65.685 26.340298
65.690 27.339424
65.695 28.10021
65.700 28.741777
65.705 29.258928
65.710 29.432537
65.715 29.767973
65.720 30.285065
65.725 29.942089
65.730 29.740311
65.735 29.312807
65.740 28.874182
65.745 28.741709
65.750 28.113146
65.755 27.595079
65.760 27.907331
65.765 27.765123
65.770 28.706921
65.775 29.112749
65.780 29.391973
65.785 30.253256
65.790 30.708197
65.795 30.186258
65.800 30.340418
65.805 30.360046
65.810 30.680458
65.815 30.157301
65.820 29.895092
65.825 30.29277
65.830 30.892841
65.835 31.036919
65.840 31.004765
65.845 31.046936
65.850 31.652775
65.855 31.764664
65.860 31.397852
65.865 31.801479
65.870 31.698469
65.875 32.604237
65.880 33.624882
65.885 33.86937
65.890 33.952309
65.895 34.399181
65.900 35.343433
65.905 36.193035
65.910 35.212536
65.915 35.000271
65.920 35.695763
65.925 36.296795
65.930 36.47699
65.935 35.889816
65.940 35.725597
65.945 36.208183
65.950 36.406376
65.955 35.971394
65.960 34.998341
65.965 34.765057
65.970 34.656609
65.975 34.895626
65.980 34.74342
65.985 34.560734
65.990 34.662716
65.995 35.02668
66.000 35.635757
66.005 36.307392
66.010 36.639507
66.015 36.235928
66.020 36.324287
66.025 36.698284
66.030 37.286423
66.035 36.778519
66.040 36.099693
66.045 35.923634
66.050 35.934578
66.055 35.748543
66.060 35.903275
66.065 35.625652
66.070 35.69207
66.075 35.878742
66.080 36.154621
66.085 36.617695
66.090 36.515018
66.095 36.29454
66.100 36.975266
66.105 36.677269
66.110 36.873341
66.115 36.775108
66.120 36.538151
66.125 37.385246
66.130 37.276649
66.135 36.000957
66.140 36.206306
66.145 36.048775
66.150 36.417122
66.155 36.944172
66.160 35.84697
66.165 36.07053
66.170 37.110428
66.175 38.005478
66.180 37.624115
66.185 37.943726
66.190 38.0219
66.195 38.94215
66.200 39.487789
66.205 39.555672
66.210 40.011395
66.215 40.473392
66.220 39.202427
66.225 39.297268
66.230 39.926949
66.235 41.112728
66.240 40.867756
66.245 40.095364
66.250 40.106506
66.255 41.184105
66.260 40.543087
66.265 39.713936
66.270 38.30175
66.275 37.465626
66.280 37.381371
66.285 37.034424
66.290 36.61935
66.295 37.156883
66.300 36.802856
66.305 37.286007
66.310 37.732166
66.315 37.88607
66.320 38.792534
66.325 39.365509
66.330 39.590458
66.335 39.660286
66.340 39.205582
66.345 39.007313
66.350 39.451988
66.355 38.597317
66.360 37.441162
66.365 36.863617
66.370 36.281925
66.375 36.078091
66.380 36.231247
66.385 36.079624
66.390 36.41066
66.395 36.926437
66.400 37.010586
66.405 36.719791
66.410 36.05418
66.415 34.835011
66.420 33.99263
66.425 33.769753
66.430 33.517204
66.435 33.275646
66.440 33.334282
66.445 33.294563
66.450 33.340809
66.455 33.211975
66.460 32.279652
66.465 32.048893
66.470 31.788084
66.475 31.271315
66.480 31.319374
66.485 31.527918
66.490 31.34844
66.495 31.491282
66.500 31.257935
66.505 30.571991
66.510 30.712492
66.515 30.229626
66.520 29.909657
66.525 29.643871
66.530 29.570848
66.535 29.685133
66.540 30.203676
66.545 30.042662
66.550 29.462111
66.555 29.012175
66.560 28.731184
66.565 28.510548
66.570 28.177576
66.575 27.73984
66.580 27.44957
66.585 27.206924
66.590 27.24505
66.595 27.11344
66.600 26.953768
66.605 26.78455
66.610 26.503973
66.615 26.16502
66.620 26.195732
66.625 25.869434
66.630 25.684423
66.635 25.7806
66.640 25.793955
66.645 26.279392
66.650 26.601221
66.655 26.726824
66.660 27.069614
66.665 26.796326
66.670 26.947708
66.675 27.250076
66.680 26.973015
66.685 26.471226
66.690 25.873062
66.695 25.443899
66.700 24.911707
66.705 24.410742
66.710 23.744204
66.715 23.447021
66.720 23.190136
66.725 22.757683
66.730 22.712761
66.735 22.90575
66.740 22.558321
66.745 22.317366
66.750 22.186838
66.755 22.118999
66.760 22.295271
66.765 22.370502
66.770 22.865559
66.775 22.767931
66.780 22.545271
66.785 22.367989
66.790 22.748884
66.795 23.392164
66.800 23.152138
66.805 22.48805
66.810 22.334324
66.815 22.684805
66.820 22.464972
66.825 22.64155
66.830 22.142855
66.835 21.894545
66.840 22.172421
66.845 21.890194
66.850 21.590586
66.855 21.456747
66.860 21.25758
66.865 20.723312
66.870 20.373764
66.875 20.400856
66.880 20.856434
66.885 20.921597
66.890 21.032789
66.895 21.403206
66.900 21.530838
66.905 21.731369
66.910 22.12097
66.915 22.195505
66.920 22.32782
66.925 22.33358
66.930 22.087219
66.935 21.692169
66.940 21.597301
66.945 21.418247
66.950 21.577589
66.955 21.152355
66.960 20.601446
66.965 20.69153
66.970 21.249739
66.975 21.268291
66.980 20.984255
66.985 21.165346
66.990 22.108456
66.995 22.236214
67.000 22.400402
67.005 22.473471
67.010 22.499786
67.015 22.088242
67.020 21.621572
67.025 21.258684
67.030 21.321978
67.035 21.339802
67.040 21.062445
67.045 20.824789
67.050 21.005548
67.055 20.985981
67.060 20.94227
67.065 20.77083
67.070 20.765911
67.075 20.707359
67.080 20.877705
67.085 20.659193
67.090 20.803967
67.095 21.177563
67.100 21.008493
67.105 21.540422
67.110 21.9156
67.115 21.801044
67.120 22.252579
67.125 22.147816
67.130 21.623919
67.135 21.616928
67.140 21.179623
67.145 21.223913
67.150 21.267929
67.155 21.125322
67.160 21.042345
67.165 21.642851
67.170 21.323759
67.175 20.118837
67.180 19.513725
67.185 19.995121
67.190 20.416746
67.195 20.070753
67.200 19.862946
67.205 20.082949
67.210 20.387167
67.215 20.425716
67.220 19.560877
67.225 19.301863
67.230 19.478571
67.235 19.078957
67.240 19.332294
67.245 20.143044
67.250 20.364058
67.255 19.967144
67.260 19.645744
67.265 19.257002
67.270 19.945774
67.275 19.670527
67.280 18.963095
67.285 19.082573
67.290 19.283104
67.295 19.642004
67.300 20.242085
67.305 20.267433
67.310 20.152138
67.315 20.427387
67.320 20.19363
67.325 20.116598
67.330 20.181881
67.335 20.17911
67.340 19.790831
67.345 19.709259
67.350 19.221539
67.355 19.346304
67.360 19.480608
67.365 19.36656
67.370 19.132366
67.375 19.140566
67.380 19.333515
67.385 19.847374
67.390 20.311537
67.395 20.32406
67.400 19.883528
67.405 19.583603
67.410 20.219248
67.415 20.536613
67.420 20.650841
67.425 20.154509
67.430 19.695032
67.435 19.646458
67.440 19.934978
67.445 19.624256
67.450 19.032682
67.455 18.468699
67.460 19.049206
67.465 19.499447
67.470 19.685713
67.475 19.304613
67.480 19.435682
67.485 19.923315
67.490 20.369789
67.495 20.86331
67.500 20.794947
67.505 20.865944
67.510 20.714729
67.515 20.291656
67.520 20.351105
67.525 20.258511
67.530 19.922098
67.535 20.174435
67.540 19.709291
67.545 19.936632
67.550 20.437012
67.555 20.413361
67.560 20.023825
67.565 19.368555
67.570 19.130285
67.575 19.537706
67.580 19.405857
67.585 19.208179
67.590 19.027321
67.595 19.489965
67.600 20.230162
67.605 20.383471
67.610 20.650351
67.615 20.557177
67.620 20.27562
67.625 20.465015
67.630 20.899139
67.635 21.133646
67.640 21.697077
67.645 21.153967
67.650 21.351942
67.655 21.292484
67.660 21.012325
67.665 20.366983
67.670 19.926889
67.675 20.105684
67.680 19.945715
67.685 19.83732
67.690 19.996584
67.695 19.767534
67.700 19.841959
67.705 19.358036
67.710 18.462118
67.715 18.642296
67.720 18.757883
67.725 18.769484
67.730 18.799301
67.735 18.283428
67.740 18.492073
67.745 19.099747
67.750 19.432159
67.755 19.224573
67.760 19.801205
67.765 19.479483
67.770 19.793415
67.775 20.012266
67.780 19.370014
67.785 19.087151
67.790 19.533688
67.795 18.818354
67.800 18.525049
67.805 18.498945
67.810 18.45717
67.815 18.806688
67.820 18.277147
67.825 18.086107
67.830 19.03001
67.835 19.901772
67.840 19.630846
67.845 19.72476
67.850 20.003546
67.855 20.405996
67.860 20.621647
67.865 20.587271
67.870 20.775885
67.875 20.886669
67.880 20.592138
67.885 20.534361
67.890 20.237509
67.895 19.67947
67.900 19.358673
67.905 19.430365
67.910 19.351877
67.915 19.073252
67.920 19.506828
67.925 19.308735
67.930 19.402695
67.935 19.456024
67.940 20.054892
67.945 20.139587
67.950 20.957884
67.955 21.200579
67.960 21.356308
67.965 20.826849
67.970 20.123798
67.975 19.288645
67.980 19.555098
67.985 19.773563
67.990 19.587475
67.995 19.605867
68.000 19.960085
68.005 20.062864
68.010 20.231318
68.015 20.218018
68.020 20.293243
68.025 20.546677
68.030 20.67466
68.035 20.772018
68.040 20.674891
68.045 21.00811
68.050 20.7512
68.055 20.375452
68.060 19.92487
68.065 19.919981
68.070 19.575209
68.075 18.774355
68.080 18.445377
68.085 18.4174
68.090 18.269413
68.095 18.480692
68.100 19.381105
68.105 20.179993
68.110 20.920355
68.115 21.163734
68.120 21.102539
68.125 21.098921
68.130 20.876564
68.135 19.916271
68.140 19.598402
68.145 19.817776
68.150 19.685823
68.155 19.077795
68.160 18.955894
68.165 19.145752
68.170 19.790344
68.175 19.743219
68.180 19.609016
68.185 20.193363
68.190 21.012949
68.195 21.204527
68.200 21.244005
68.205 20.583893
68.210 20.777338
68.215 21.062845
68.220 20.497747
68.225 20.151312
68.230 19.589075
68.235 19.579113
68.240 19.664446
68.245 19.470655
68.250 19.747519
68.255 18.982174
68.260 18.792229
68.265 18.91012
68.270 18.792452
68.275 19.197289
68.280 19.140749
68.285 19.131659
68.290 19.702084
68.295 19.67382
68.300 19.619955
68.305 19.543434
68.310 19.694376
68.315 19.171318
68.320 18.93606
68.325 19.370346
68.330 19.717791
68.335 19.686829
68.340 19.701603
68.345 19.63398
68.350 19.771078
68.355 19.984856
68.360 20.179277
68.365 20.485229
68.370 20.782169
68.375 20.714684
68.380 20.796644
68.385 20.892738
68.390 20.449892
68.395 19.98554
68.400 19.92462
68.405 19.710291
68.410 19.157034
68.415 18.770344
68.420 18.516512
68.425 18.090427
68.430 18.136148
68.435 17.836647
68.440 18.609417
68.445 19.013882
68.450 19.23381
68.455 19.490816
68.460 19.25029
68.465 19.871435
68.470 20.401869
68.475 19.888027
68.480 20.445747
68.485 20.791346
68.490 21.24411
68.495 21.625414
68.500 20.448246
68.505 19.589193
68.510 19.421703
68.515 19.280066
68.520 19.324472
68.525 19.129599
68.530 18.991102
68.535 19.774057
68.540 20.5235
68.545 21.020651
68.550 20.915766
68.555 20.745062
68.560 20.557428
68.565 21.02951
68.570 21.011217
68.575 20.812374
68.580 20.18539
68.585 20.494133
68.590 20.147306
68.595 19.944511
68.600 20.18247
68.605 20.019194
68.610 19.804878
68.615 20.001123
68.620 19.382429
68.625 19.903641
68.630 20.586723
68.635 20.298594
68.640 19.878408
68.645 20.273712
68.650 20.533552
68.655 20.799263
68.660 20.626364
68.665 20.595419
68.670 20.771351
68.675 21.110062
68.680 21.423878
68.685 21.377535
68.690 21.990845
68.695 21.926966
68.700 21.749115
68.705 22.381046
68.710 22.060703
68.715 21.431213
68.720 21.174368
68.725 21.225685
68.730 21.454401
68.735 20.83301
68.740 20.511885
68.745 20.382397
68.750 20.117086
68.755 19.760593
68.760 19.962915
68.765 20.198267
68.770 20.914713
68.775 20.778906
68.780 20.959831
68.785 21.530924
68.790 21.770243
68.795 20.99921
68.800 20.65843
68.805 20.74579
68.810 20.784857
68.815 20.825245
68.820 21.296104
68.825 21.987856
68.830 23.170809
68.835 23.644146
68.840 22.884237
68.845 23.015646
68.850 22.903608
68.855 22.608006
68.860 21.878531
68.865 22.087959
68.870 22.57123
68.875 22.637785
68.880 22.695704
68.885 23.037111
68.890 22.462179
68.895 22.700424
68.900 22.030777
68.905 21.928444
68.910 21.952307
68.915 21.712954
68.920 21.793266
68.925 22.074987
68.930 21.700323
68.935 21.359987
68.940 21.658207
68.945 22.459894
68.950 22.447678
68.955 21.68284
68.960 22.211782
68.965 22.323664
68.970 21.791355
68.975 20.835312
68.980 20.302671
68.985 21.335802
68.990 22.021156
68.995 21.428398
69.000 21.654293
69.005 22.721226
69.010 23.47768
69.015 23.749538
69.020 23.082006
69.025 23.177973
69.030 23.207436
69.035 23.300182
69.040 23.376324
69.045 23.563156
69.050 23.67901
69.055 23.49741
69.060 24.359699
69.065 24.603973
69.070 24.603018
69.075 23.830086
69.080 23.778763
69.085 24.144953
69.090 24.549278
69.095 23.984539
69.100 24.601885
69.105 25.222036
69.110 25.833408
69.115 25.733841
69.120 25.729895
69.125 26.188332
69.130 25.976021
69.135 25.158773
69.140 25.578255
69.145 26.157866
69.150 26.208525
69.155 26.252411
69.160 25.408148
69.165 25.656603
69.170 26.167629
69.175 25.766672
69.180 25.339872
69.185 25.237719
69.190 24.688725
69.195 24.87254
69.200 25.007175
69.205 25.18112
69.210 25.843618
69.215 27.001961
69.220 27.330084
69.225 27.942369
69.230 28.351374
69.235 28.728956
69.240 29.012123
69.245 28.267931
69.250 27.496824
69.255 27.831043
69.260 27.228745
69.265 27.150984
69.270 26.517136
69.275 26.610397
69.280 26.740747
69.285 26.823132
69.290 26.58795
69.295 27.676136
69.300 28.469362
69.305 28.536911
69.310 28.887411
69.315 29.004457
69.320 29.066383
69.325 29.600662
69.330 29.011692
69.335 28.766409
69.340 29.171869
69.345 29.470129
69.350 30.228548
69.355 30.743458
69.360 30.496737
69.365 30.855801
69.370 30.876932
69.375 31.441977
69.380 32.333969
69.385 32.659264
69.390 33.323536
69.395 33.523193
69.400 33.83865
69.405 33.750343
69.410 33.369583
69.415 33.004116
69.420 32.241467
69.425 32.219788
69.430 32.4524
69.435 32.946327
69.440 33.318569
69.445 33.619255
69.450 34.575073
69.455 35.635006
69.460 35.049492
69.465 34.799286
69.470 34.567436
69.475 34.909828
69.480 34.284023
69.485 33.990887
69.490 33.89249
69.495 33.855511
69.500 33.872723
69.505 33.774921
69.510 33.470028
69.515 33.855427
69.520 33.863777
69.525 33.878929
69.530 34.095745
69.535 33.934433
69.540 33.899136
69.545 33.507038
69.550 33.019604
69.555 32.113731
69.560 32.283627
69.565 32.651131
69.570 32.989693
69.575 33.032845
69.580 33.141617
69.585 33.563789
69.590 34.623573
69.595 34.745678
69.600 34.523571
69.605 34.435387
69.610 34.119343
69.615 34.238853
69.620 34.102543
69.625 32.75877
69.630 32.332207
69.635 32.66029
69.640 32.595432
69.645 32.525848
69.650 32.368206
69.655 31.937057
69.660 32.133492
69.665 32.287376
69.670 32.326424
69.675 32.070206
69.680 32.35247
69.685 32.91135
69.690 32.888142
69.695 33.244438
69.700 33.461475
69.705 33.324371
69.710 32.939545
69.715 32.398754
69.720 31.033421
69.725 31.432158
69.730 31.144529
69.735 30.559645
69.740 31.439098
69.745 32.474228
69.750 32.417358
69.755 32.635071
69.760 32.16502
69.765 32.378273
69.770 31.85216
69.775 30.581787
69.780 30.021927
69.785 30.235313
69.790 30.230227
69.795 30.107965
69.800 29.849987
69.805 29.51016
69.810 28.439863
69.815 27.988049
69.820 27.783451
69.825 27.205967
69.830 26.733217
69.835 26.291218
69.840 26.280283
69.845 27.039791
69.850 26.681856
69.855 26.633581
69.860 26.208506
69.865 25.447727
69.870 25.354927
69.875 25.416534
69.880 25.821758
69.885 26.336622
69.890 26.443602
69.895 26.508707
69.900 26.587498
69.905 26.79487
69.910 26.381016
69.915 25.072947
69.920 24.245186
69.925 24.102114
69.930 23.885069
69.935 23.712183
69.940 22.970577
69.945 22.656641
69.950 23.017723
69.955 23.30615
69.960 23.147114
69.965 23.201574
69.970 23.230658
69.975 23.467815
69.980 23.880081
69.985 23.733341
69.990 23.673962
69.995 23.578762
70.000 23.770681
70.005 23.491152
70.010 23.600637
70.015 22.812366
70.020 22.174824
70.025 21.887358
70.030 22.019306
70.035 22.381382
70.040 21.993898
70.045 21.757193
70.050 21.764517
70.055 22.462408
70.060 22.606773
70.065 21.312399
70.070 20.927412
70.075 20.839022
70.080 21.07065
70.085 21.2869
70.090 21.133986
70.095 20.952181
70.100 20.831251
70.105 19.863029
70.110 19.618134
70.115 19.380259
70.120 19.043724
70.125 19.120398
70.130 19.681314
70.135 20.286392
70.140 21.571051
70.145 21.987116
70.150 22.19203
70.155 22.023863
70.160 21.45644
70.165 20.881311
70.170 20.067038
70.175 19.488409
70.180 19.335741
70.185 18.998562
70.190 19.264521
70.195 19.281713
70.200 19.916561
70.205 20.083046
70.210 20.277712
70.215 20.806698
70.220 20.932274
70.225 21.280416
70.230 21.117943
70.235 20.383759
70.240 20.787327
70.245 20.570734
70.250 20.510433
70.255 20.540249
70.260 20.604364
70.265 20.868429
70.270 20.79603
70.275 20.810555
70.280 20.659693
70.285 20.558048
70.290 20.136793
70.295 20.058281
70.300 20.169561
70.305 19.617277
70.310 18.795158
70.315 18.455784
70.320 18.254549
70.325 18.293964
70.330 18.220005
70.335 18.787148
70.340 19.434818
70.345 20.178907
70.350 19.993889
70.355 19.931959
70.360 20.000645
70.365 19.220383
70.370 18.953329
70.375 18.862717
70.380 19.054617
70.385 19.775894
70.390 20.477135
70.395 20.634577
70.400 20.400589
70.405 20.337009
70.410 20.026312
70.415 19.471474
70.420 19.238091
70.425 19.00832
70.430 19.2785
70.435 19.628456
70.440 19.751442
70.445 19.483757
70.450 19.468523
70.455 19.709858
70.460 19.758514
70.465 19.560787
70.470 19.444513
70.475 19.933769
70.480 20.619566
70.485 20.877539
70.490 20.159143
70.495 19.940014
70.500 19.781181
70.505 20.187162
70.510 19.767403
70.515 19.431858
70.520 19.412962
70.525 19.203911
70.530 19.288458
70.535 19.035315
70.540 18.713482
70.545 19.116858
70.550 18.571659
70.555 18.36787
70.560 18.76333
70.565 19.170334
70.570 19.607691
70.575 18.951342
70.580 18.891329
70.585 19.821728
70.590 20.588684
70.595 20.439116
70.600 20.221716
70.605 19.945099
70.610 20.139845
70.615 19.324709
70.620 18.66741
70.625 17.920456
70.630 17.889521
70.635 17.951254
70.640 17.928928
70.645 17.999987
70.650 18.436625
70.655 18.478279
70.660 18.344355
70.665 18.116745
70.670 18.191742
70.675 18.189255
70.680 18.124657
70.685 18.589247
70.690 18.99832
70.695 19.193243
70.700 19.369568
70.705 19.293312
70.710 19.660696
70.715 19.463728
70.720 18.642328
70.725 18.23819
70.730 18.391634
70.735 17.832842
70.740 17.522245
70.745 17.286268
70.750 17.256424
70.755 17.688856
70.760 17.800655
70.765 17.254032
70.770 17.449484
70.775 17.567247
70.780 17.575586
70.785 17.847715
70.790 17.899477
70.795 17.964668
70.800 18.305946
70.805 18.152908
70.810 17.92857
70.815 17.678204
70.820 17.897621
70.825 17.487682
70.830 18.259823
70.835 18.541868
70.840 19.271294
70.845 19.840658
70.850 19.584059
70.855 18.949993
70.860 19.236425
70.865 18.722967
70.870 18.777967
70.875 18.307409
70.880 18.851772
70.885 19.124283
70.890 19.526712
70.895 19.267317
70.900 19.432493
70.905 19.05406
70.910 19.672554
70.915 18.723568
70.920 18.209347
70.925 18.053217
70.930 17.420456
70.935 17.326164
70.940 17.20038
70.945 17.058193
70.950 17.746532
70.955 17.766893
70.960 17.848358
70.965 18.504538
70.970 18.666317
70.975 18.772152
70.980 18.87422
70.985 19.020824
70.990 19.125706
70.995 18.667627
71.000 18.172298
71.005 17.993343
71.010 18.060623
71.015 17.834373
71.020 17.550304
71.025 18.358053
71.030 18.879032
71.035 19.075642
71.040 18.986141
71.045 18.775188
71.050 18.839085
71.055 19.018847
71.060 18.82427
71.065 18.713079
71.070 18.83486
71.075 19.047064
71.080 19.384996
71.085 19.197906
71.090 19.081821
71.095 19.238291
71.100 19.019192
71.105 18.523066
71.110 18.228422
71.115 18.37393
71.120 18.664043
71.125 18.751148
71.130 18.737253
71.135 19.143627
71.140 19.230593
71.145 19.284992
71.150 18.4074
71.155 17.917004
71.160 17.424875
71.165 17.086182
71.170 16.756647
71.175 17.073616
71.180 17.367413
71.185 17.70364
71.190 18.375372
71.195 18.81501
71.200 18.957428
71.205 19.702387
71.210 19.329954
71.215 18.966705
71.220 18.66448
71.225 18.788321
71.230 18.936722
71.235 18.583139
71.240 18.100496
71.245 18.50556
71.250 18.964075
71.255 19.877693
71.260 19.233381
71.265 19.820196
71.270 20.042698
71.275 19.941317
71.280 19.632977
71.285 19.23484
71.290 19.017637
71.295 18.622101
71.300 18.253569
71.305 18.780703
71.310 19.055529
71.315 18.911793
71.320 18.838781
71.325 18.695051
71.330 18.574295
71.335 18.12431
71.340 17.649487
71.345 17.891157
71.350 18.104229
71.355 18.272402
71.360 18.559467
71.365 18.852774
71.370 18.896341
71.375 18.258554
71.380 17.583128
71.385 17.718735
71.390 17.68054
71.395 17.346104
71.400 17.388395
71.405 17.843649
71.410 19.03063
71.415 19.68243
71.420 18.91312
71.425 18.740505
71.430 18.613321
71.435 18.425848
71.440 18.074646
71.445 18.285757
71.450 18.566959
71.455 18.993885
71.460 19.244616
71.465 19.309484
71.470 19.122353
71.475 18.965792
71.480 18.369797
71.485 18.711287
71.490 18.980776
71.495 19.120096
71.500 19.297314
71.505 19.898886
71.510 19.74782
71.515 18.74721
71.520 18.295073
71.525 18.160337
71.530 18.305002
71.535 17.964844
71.540 17.373466
71.545 17.717844
71.550 18.238581
71.555 18.312307
71.560 18.511793
71.565 18.234667
71.570 18.166655
71.575 18.185661
71.580 18.382729
71.585 18.412485
71.590 17.928873
71.595 18.07169
71.600 18.370304
71.605 18.460825
71.610 18.148226
71.615 17.743914
71.620 18.123663
71.625 18.443222
71.630 18.404545
71.635 18.349995
71.640 18.789703
71.645 19.119125
71.650 19.575003
71.655 19.317183
71.660 18.93465
71.665 18.800613
71.670 18.84901
71.675 18.315493
71.680 18.037912
71.685 17.556211
71.690 17.274225
71.695 17.552654
71.700 17.496325
71.705 17.468367
71.710 18.059637
71.715 18.179712
71.720 18.627747
71.725 18.615816
71.730 17.950203
71.735 18.087503
71.740 17.589769
71.745 17.701748
71.750 17.805294
71.755 18.160082
71.760 18.545498
71.765 18.713297
71.770 18.750959
71.775 19.051441
71.780 19.109993
71.785 18.808556
71.790 18.12023
71.795 18.207834
71.800 18.22477
71.805 18.501877
71.810 18.070789
71.815 18.032696
71.820 18.432671
71.825 18.818232
71.830 18.783251
71.835 18.983047
71.840 18.977728
71.845 19.0373
71.850 18.601845
71.855 18.95315
71.860 18.675056
71.865 19.2003
71.870 19.2227
71.875 19.555264
71.880 19.811831
71.885 19.707714
71.890 18.415779
71.895 18.638586
71.900 18.522686
71.905 18.379339
71.910 18.422098
71.915 18.658587
71.920 18.894814
71.925 19.042002
71.930 18.146057
71.935 18.052311
71.940 18.184502
71.945 18.07295
71.950 18.247244
71.955 18.312357
71.960 18.468534
71.965 18.6847
71.970 18.296066
71.975 18.331049
71.980 18.107681
71.985 17.928066
71.990 18.369671
71.995 17.883863
72.000 18.331686
72.005 18.591578
72.010 18.255453
72.015 17.709295
72.020 17.533163
72.025 17.590292
72.030 18.560757
72.035 18.244843
72.040 17.792917
72.045 17.918924
72.050 17.786808
72.055 17.82284
72.060 17.615179
72.065 17.250109
72.070 17.182518
72.075 17.106733
72.080 17.264664
72.085 17.243601
72.090 17.616095
72.095 17.733768
72.100 17.452143
72.105 17.49452
72.110 17.636066
72.115 17.481234
72.120 18.334305
72.125 18.361609
72.130 18.527969
72.135 19.17325
72.140 19.427849
72.145 19.069151
72.150 18.89916
72.155 18.24218
72.160 17.959314
72.165 17.538763
72.170 17.036198
72.175 17.294483
72.180 18.104776
72.185 18.407578
72.190 18.171368
72.195 17.913876
72.200 17.696795
72.205 17.696411
72.210 17.6884
72.215 17.462646
72.220 17.076508
72.225 17.908043
72.230 18.513683
72.235 18.690849
72.240 18.570635
72.245 18.940449
72.250 19.468422
72.255 19.261721
72.260 19.164202
72.265 19.030827
72.270 19.193163
72.275 19.174135
72.280 18.846796
72.285 18.23288
72.290 18.138632
72.295 17.580486
72.300 17.765263
72.305 17.941004
72.310 18.250139
72.315 18.582197
72.320 18.87394
72.325 19.553925
72.330 19.72336
72.335 19.486862
72.340 19.605694
72.345 19.538034
72.350 19.326981
72.355 19.502378
72.360 18.50424
72.365 18.782574
72.370 18.427992
72.375 17.712574
72.380 18.08062
72.385 18.926706
72.390 18.287716
72.395 18.509153
72.400 18.350491
72.405 18.685665
72.410 18.688486
72.415 18.078608
72.420 18.0734
72.425 18.288378
72.430 18.631073
72.435 18.593664
72.440 18.167444
72.445 18.1054
72.450 17.836489
72.455 17.854654
72.460 18.106613
72.465 18.089708
72.470 18.353422
72.475 18.353176
72.480 18.65056
72.485 18.755003
72.490 18.297113
72.495 18.52911
72.500 18.543217
72.505 18.748341
72.510 18.914434
72.515 18.543112
72.520 18.723326
72.525 19.167843
72.530 19.158047
72.535 19.0037
72.540 19.01413
72.545 18.859596
72.550 18.465044
72.555 17.702528
72.560 17.438107
72.565 17.22154
72.570 17.371765
72.575 17.357979
72.580 17.37146
72.585 17.713648
72.590 18.50625
72.595 18.494228
72.600 18.583624
72.605 18.774218
72.610 18.619331
72.615 19.092659
72.620 18.879145
72.625 18.63018
72.630 18.447367
72.635 17.764816
72.640 17.37042
72.645 17.440063
72.650 17.359884
72.655 17.392296
72.660 17.0404
72.665 16.905533
72.670 17.659039
72.675 17.840712
72.680 17.652229
72.685 17.451954
72.690 17.2019
72.695 17.430614
72.700 17.749483
72.705 18.08692
72.710 18.647022
72.715 19.148359
72.720 19.718811
72.725 20.187298
72.730 20.517384
72.735 20.046299
72.740 19.514303
72.745 19.090422
72.750 18.631025
72.755 18.509327
72.760 18.497389
72.765 18.256407
72.770 18.251589
72.775 18.073919
72.780 17.705854
72.785 17.681131
72.790 17.565489
72.795 16.786594
72.800 16.480728
72.805 16.203815
72.810 16.021692
72.815 16.11768
72.820 16.359774
72.825 16.503193
72.830 17.16757
72.835 17.418749
72.840 17.792919
72.845 17.926956
72.850 17.866179
72.855 17.014925
72.860 16.544373
72.865 16.174288
72.870 16.373363
72.875 16.14283
72.880 15.899552
72.885 16.06588
72.890 16.568291
72.895 16.890135
72.900 17.037868
72.905 17.182693
72.910 17.405115
72.915 17.242527
72.920 16.833237
72.925 17.370386
72.930 17.457535
72.935 17.392305
72.940 16.882992
72.945 17.120934
72.950 17.431684
72.955 17.425671
72.960 16.755959
72.965 16.743664
72.970 16.177515
72.975 15.825561
72.980 16.074535
72.985 15.679174
72.990 15.525194
72.995 15.723566
73.000 15.618907
