!@!!GADDS PLOTSO FILE: Chi integration type
!@!!Title/SampleName: map-68
!@!!Comment: ?
!@!!User: Bruker Instrument Administrator
!@!!Site: University of Illinois Chicago
!@!!Frame: map-68_01_000.gfrm
!@!!Wavelengths    1.54184   1.54056   1.54439
!@!!Frame angles: 2Theta: 63.000 Omega: 50.000 Phi: 0.000 Chi: 90.000
!@!!Integration range: 2Theta: 53.000 to 73.000  Gamma: -105.000 to -75.000
!@!!Integration method: bin normalized
!@!N
!@!SS
!@!M
!@!L 0.0 0.0 0.0 0.0
!@!XDegrees
!@!YCounts
53.000 8.251073
53.005 8.626317
53.010 8.839938
53.015 8.681472
53.020 9.128521
53.025 9.289923
53.030 9.317451
53.035 8.989357
53.040 8.779263
53.045 9.048461
53.050 8.662226
53.055 8.465422
53.060 8.541503
53.065 8.649929
53.070 8.983696
53.075 9.241269
53.080 9.245191
53.085 9.624166
53.090 9.545403
53.095 9.620962
53.100 9.545295
53.105 9.334435
53.110 9.092229
53.115 9.331116
53.120 9.123692
53.125 9.320316
53.130 9.155704
53.135 9.065175
53.140 8.700576
53.145 8.433196
53.150 7.873144
53.155 7.920346
53.160 7.776696
53.165 7.882461
53.170 7.926155
53.175 8.222513
53.180 8.38505
53.185 8.469971
53.190 8.652377
53.195 8.946712
53.200 8.888371
53.205 8.513528
53.210 8.359678
53.215 8.553074
53.220 8.736739
53.225 8.408801
53.230 8.200722
53.235 8.267158
53.240 8.328793
53.245 8.05947
53.250 7.79445
53.255 8.084394
53.260 8.094437
53.265 7.939773
53.270 7.964513
53.275 8.143321
53.280 8.258383
53.285 8.049479
53.290 7.703292
53.295 7.804
53.300 8.465295
53.305 9.182502
53.310 9.477073
53.315 9.848137
53.320 9.927297
53.325 10.354884
53.330 10.707084
53.335 9.996927
53.340 9.712159
53.345 9.813685
53.350 10.081267
53.355 9.912348
53.360 9.581
53.365 9.559658
53.370 9.872924
53.375 9.813273
53.380 9.302653
53.385 9.338834
53.390 9.230243
53.395 9.154864
53.400 9.068512
53.405 8.727147
53.410 8.747438
53.415 9.189611
53.420 9.403399
53.425 9.581374
53.430 9.730684
53.435 9.623963
53.440 9.460959
53.445 9.045565
53.450 8.908629
53.455 8.890417
53.460 9.106228
53.465 9.242652
53.470 9.475446
53.475 9.828047
53.480 10.108248
53.485 10.049006
53.490 10.165516
53.495 10.052499
53.500 10.059887
53.505 10.067862
53.510 9.929875
53.515 9.592781
53.520 9.706805
53.525 9.42197
53.530 9.286042
53.535 9.197401
53.540 9.191341
53.545 9.169967
53.550 9.330741
53.555 9.211928
53.560 9.075443
53.565 8.969843
53.570 9.217282
53.575 9.404352
53.580 9.768023
53.585 9.919504
53.590 10.016026
53.595 10.08223
53.600 10.06796
53.605 10.254908
53.610 10.419534
53.615 9.958308
53.620 9.503695
53.625 9.964208
53.630 10.021725
53.635 9.762038
53.640 9.586167
53.645 9.473949
53.650 9.415846
53.655 9.395529
53.660 8.937799
53.665 8.587909
53.670 8.490361
53.675 8.593329
53.680 9.068372
53.685 9.534838
53.690 9.330959
53.695 9.733415
53.700 10.048256
53.705 9.964128
53.710 9.721961
53.715 9.149295
53.720 9.222879
53.725 9.48292
53.730 9.248128
53.735 9.692687
53.740 10.065288
53.745 10.350773
53.750 10.391815
53.755 10.525379
53.760 10.633807
53.765 10.791217
53.770 10.409384
53.775 9.817651
53.780 9.433884
53.785 9.210879
53.790 8.997211
53.795 8.639436
53.800 8.824053
53.805 9.250973
53.810 9.678455
53.815 9.741452
53.820 9.819793
53.825 9.993051
53.830 10.056313
53.835 9.716065
53.840 9.607117
53.845 9.513681
53.850 9.643206
53.855 9.654457
53.860 9.928989
53.865 9.845512
53.870 10.06862
53.875 10.050059
53.880 9.957821
53.885 9.971652
53.890 9.394165
53.895 8.91135
53.900 8.676324
53.905 8.332505
53.910 8.191975
53.915 8.216161
53.920 8.242501
53.925 8.652236
53.930 9.195404
53.935 9.253487
53.940 9.28353
53.945 9.336351
53.950 9.345913
53.955 9.508023
53.960 9.666136
53.965 9.571161
53.970 9.892833
53.975 10.370975
53.980 10.288393
53.985 10.449172
53.990 10.212769
53.995 9.886629
54.000 9.993614
54.005 9.464639
54.010 9.36778
54.015 9.246739
54.020 9.507943
54.025 10.058435
54.030 10.34175
54.035 10.288647
54.040 10.136556
54.045 9.809013
54.050 9.256731
54.055 8.654888
54.060 8.185456
54.065 8.887312
54.070 9.160209
54.075 9.645599
54.080 10.240973
54.085 10.961795
54.090 11.27424
54.095 11.224043
54.100 10.570015
54.105 10.252102
54.110 10.04186
54.115 9.964151
54.120 10.096089
54.125 10.367773
54.130 10.579664
54.135 10.846062
54.140 10.659102
54.145 10.410206
54.150 10.271137
54.155 10.592752
54.160 10.456933
54.165 10.469063
54.170 10.5485
54.175 10.76328
54.180 11.710897
54.185 11.927637
54.190 11.666685
54.195 11.867369
54.200 12.271833
54.205 12.376865
54.210 12.392279
54.215 11.638202
54.220 11.446189
54.225 11.708449
54.230 11.256361
54.235 11.190732
54.240 11.328149
54.245 11.203718
54.250 11.074553
54.255 10.668875
54.260 10.204393
54.265 10.27335
54.270 10.678684
54.275 10.558886
54.280 10.612081
54.285 10.953551
54.290 11.114092
54.295 11.586576
54.300 11.758006
54.305 11.36108
54.310 11.303555
54.315 11.233675
54.320 10.781299
54.325 10.466763
54.330 10.249441
54.335 9.887196
54.340 9.94417
54.345 9.963601
54.350 10.354897
54.355 10.713924
54.360 10.59533
54.365 10.790066
54.370 10.526494
54.375 10.693212
54.380 10.603067
54.385 10.034157
54.390 9.926731
54.395 9.775285
54.400 9.318446
54.405 9.400463
54.410 9.141983
54.415 9.276725
54.420 9.475096
54.425 9.855962
54.430 10.021341
54.435 10.219617
54.440 10.194173
54.445 10.392356
54.450 10.31927
54.455 10.443268
54.460 10.312534
54.465 10.447929
54.470 10.481323
54.475 10.809686
54.480 10.929281
54.485 10.868284
54.490 10.903302
54.495 10.936397
54.500 10.844334
54.505 10.749904
54.510 10.543453
54.515 10.222888
54.520 10.480232
54.525 10.201766
54.530 10.100997
54.535 10.234385
54.540 10.06222
54.545 9.805016
54.550 9.824756
54.555 9.497883
54.560 9.620486
54.565 9.726734
54.570 10.116585
54.575 10.630656
54.580 11.186916
54.585 11.246903
54.590 11.460097
54.595 11.591859
54.600 11.46437
54.605 11.29117
54.610 10.777227
54.615 10.660165
54.620 11.209873
54.625 11.151128
54.630 10.34968
54.635 9.768713
54.640 9.536562
54.645 9.347368
54.650 9.003055
54.655 8.689538
54.660 8.993295
54.665 9.726908
54.670 10.174685
54.675 10.671011
54.680 11.162916
54.685 11.509325
54.690 11.280707
54.695 11.330946
54.700 11.316669
54.705 11.31516
54.710 10.81917
54.715 10.804235
54.720 10.871284
54.725 10.959947
54.730 10.956991
54.735 10.642972
54.740 10.824981
54.745 10.92885
54.750 10.520396
54.755 10.458106
54.760 10.38721
54.765 10.324985
54.770 10.661899
54.775 10.53184
54.780 10.782651
54.785 10.951235
54.790 11.20715
54.795 11.354758
54.800 11.511583
54.805 11.23737
54.810 11.529433
54.815 11.304205
54.820 11.416953
54.825 11.381085
54.830 11.507153
54.835 11.578261
54.840 11.84337
54.845 11.356445
54.850 11.599775
54.855 11.598653
54.860 11.386147
54.865 10.903578
54.870 10.909602
54.875 10.561984
54.880 10.483774
54.885 10.061489
54.890 10.422477
54.895 10.649617
54.900 10.816531
54.905 10.604902
54.910 11.110919
54.915 11.802588
54.920 11.970864
54.925 11.521261
54.930 11.865296
54.935 11.893615
54.940 12.10174
54.945 11.822045
54.950 11.124234
54.955 11.200841
54.960 11.175885
54.965 11.203361
54.970 11.552537
54.975 11.370078
54.980 11.250074
54.985 11.411007
54.990 11.418784
54.995 11.253487
55.000 10.744942
55.005 10.538722
55.010 10.815861
55.015 10.989845
55.020 11.319799
55.025 11.103848
55.030 11.107634
55.035 11.471021
55.040 11.18893
55.045 11.005729
55.050 11.023992
55.055 10.676614
55.060 10.595223
55.065 10.333359
55.070 10.070893
55.075 10.172665
55.080 9.878997
55.085 9.274868
55.090 9.172812
55.095 9.230539
55.100 9.336584
55.105 9.554419
55.110 9.913462
55.115 10.65699
55.120 11.31581
55.125 11.396679
55.130 11.841218
55.135 11.796027
55.140 11.687813
55.145 11.462502
55.150 11.119304
55.155 11.183918
55.160 10.609066
55.165 10.043365
55.170 9.996215
55.175 9.934605
55.180 9.849044
55.185 9.430319
55.190 9.833081
55.195 9.949658
55.200 9.680996
55.205 9.445619
55.210 9.320786
55.215 9.409979
55.220 9.604383
55.225 9.367333
55.230 9.720548
55.235 10.174204
55.240 10.447828
55.245 10.655457
55.250 10.237344
55.255 10.472321
55.260 9.985288
55.265 10.441942
55.270 11.003398
55.275 11.138548
55.280 11.321707
55.285 11.649939
55.290 12.046669
55.295 12.486891
55.300 12.319465
55.305 11.815322
55.310 11.709485
55.315 11.776914
55.320 11.319101
55.325 11.220741
55.330 11.467134
55.335 11.498897
55.340 11.281244
55.345 11.005665
55.350 10.816994
55.355 10.829389
55.360 10.628922
55.365 10.084123
55.370 9.73111
55.375 9.986069
55.380 10.514404
55.385 10.67616
55.390 10.825547
55.395 11.20066
55.400 11.569931
55.405 12.021874
55.410 12.076669
55.415 12.017463
55.420 12.453962
55.425 12.263456
55.430 11.551146
55.435 11.013967
55.440 10.585149
55.445 10.412419
55.450 9.920698
55.455 9.575699
55.460 10.032758
55.465 10.571498
55.470 10.773298
55.475 10.927164
55.480 11.157361
55.485 11.17557
55.490 11.487948
55.495 11.182818
55.500 11.594392
55.505 11.933577
55.510 12.186411
55.515 11.891015
55.520 11.897633
55.525 11.886389
55.530 12.062719
55.535 11.577984
55.540 11.269485
55.545 11.00711
55.550 11.590664
55.555 11.770793
55.560 11.365368
55.565 11.147529
55.570 10.85481
55.575 10.579035
55.580 10.347527
55.585 10.03264
55.590 10.09043
55.595 10.070086
55.600 9.880125
55.605 9.725859
55.610 10.215987
55.615 10.538171
55.620 10.411415
55.625 10.401285
55.630 10.910868
55.635 11.156619
55.640 11.369094
55.645 11.326203
55.650 11.562413
55.655 11.258176
55.660 11.185069
55.665 10.870235
55.670 10.914094
55.675 11.422447
55.680 11.793368
55.685 11.635833
55.690 11.887034
55.695 11.833603
55.700 11.950156
55.705 12.128353
55.710 11.52231
55.715 11.767207
55.720 12.026032
55.725 12.574357
55.730 12.85358
55.735 12.761392
55.740 12.496785
55.745 12.833701
55.750 12.341002
55.755 12.186658
55.760 11.538641
55.765 11.708939
55.770 11.420535
55.775 11.34441
55.780 10.897089
55.785 10.974325
55.790 10.77876
55.795 10.829449
55.800 10.407495
55.805 10.506402
55.810 10.733029
55.815 11.366858
55.820 11.734088
55.825 11.82296
55.830 11.470307
55.835 11.561929
55.840 11.990051
55.845 12.105059
55.850 11.975286
55.855 11.719995
55.860 12.408596
55.865 13.041526
55.870 13.792771
55.875 14.003523
55.880 13.735692
55.885 13.741055
55.890 13.915224
55.895 13.141811
55.900 13.059919
55.905 12.328526
55.910 12.488382
55.915 12.817487
55.920 12.621764
55.925 12.390676
55.930 13.137081
55.935 12.991779
55.940 13.031412
55.945 13.105658
55.950 12.753745
55.955 12.882007
55.960 12.811507
55.965 12.424163
55.970 12.796178
55.975 12.948277
55.980 12.553812
55.985 12.740414
55.990 12.633439
55.995 12.755686
56.000 12.81188
56.005 12.388924
56.010 12.114626
56.015 12.25232
56.020 12.21394
56.025 11.855337
56.030 11.458401
56.035 11.343867
56.040 11.801085
56.045 12.292863
56.050 12.504136
56.055 12.672682
56.060 12.825988
56.065 13.204093
56.070 13.148227
56.075 12.692302
56.080 12.466854
56.085 12.421151
56.090 12.516796
56.095 13.000678
56.100 12.956458
56.105 12.853697
56.110 12.7076
56.115 12.860855
56.120 12.80648
56.125 12.836584
56.130 12.850247
56.135 12.632639
56.140 13.164554
56.145 13.002275
56.150 12.814848
56.155 12.457203
56.160 12.520197
56.165 12.193475
56.170 12.898225
56.175 12.746822
56.180 12.555307
56.185 12.539314
56.190 12.467512
56.195 12.118505
56.200 11.824489
56.205 11.858837
56.210 11.648335
56.215 11.530486
56.220 11.508519
56.225 11.883451
56.230 11.836464
56.235 12.33849
56.240 12.382439
56.245 12.201443
56.250 12.085084
56.255 11.77802
56.260 11.646073
56.265 11.923519
56.270 11.106045
56.275 10.488579
56.280 10.675521
56.285 10.804271
56.290 11.31399
56.295 11.512573
56.300 12.120896
56.305 12.699344
56.310 12.849195
56.315 12.949185
56.320 12.719609
56.325 12.548588
56.330 12.063848
56.335 11.44443
56.340 11.362095
56.345 11.582927
56.350 11.335316
56.355 11.744464
56.360 11.570974
56.365 11.681583
56.370 11.839107
56.375 12.01315
56.380 11.873174
56.385 12.356039
56.390 12.308301
56.395 12.79217
56.400 12.835569
56.405 12.911982
56.410 12.675494
56.415 13.298958
56.420 13.418767
56.425 13.3255
56.430 13.414485
56.435 13.440276
56.440 13.113008
56.445 12.78072
56.450 12.230781
56.455 11.718802
56.460 11.91228
56.465 11.87905
56.470 11.706983
56.475 12.005336
56.480 12.467115
56.485 12.863429
56.490 13.386506
56.495 13.335917
56.500 13.238282
56.505 13.276757
56.510 13.59773
56.515 13.549392
56.520 13.705567
56.525 13.695723
56.530 13.926028
56.535 14.025934
56.540 14.087968
56.545 13.962418
56.550 13.419722
56.555 12.744102
56.560 12.334528
56.565 11.805571
56.570 11.751756
56.575 11.734865
56.580 11.812052
56.585 12.465878
56.590 13.253695
56.595 12.927031
56.600 13.148731
56.605 13.161156
56.610 13.266669
56.615 13.58812
56.620 13.690641
56.625 13.431108
56.630 13.772167
56.635 13.670453
56.640 13.854509
56.645 13.594594
56.650 12.707093
56.655 12.124352
56.660 11.681355
56.665 11.882748
56.670 11.8805
56.675 11.857454
56.680 11.580391
56.685 12.214544
56.690 12.478472
56.695 12.311821
56.700 11.935511
56.705 11.765801
56.710 11.405961
56.715 11.398952
56.720 11.416919
56.725 11.549112
56.730 11.787971
56.735 12.08407
56.740 11.966849
56.745 11.783742
56.750 11.944886
56.755 12.291053
56.760 13.222065
56.765 13.577438
56.770 13.85288
56.775 14.495232
56.780 14.912409
56.785 15.263709
56.790 14.751506
56.795 14.434499
56.800 14.065728
56.805 13.658655
56.810 13.772979
56.815 13.79601
56.820 12.998353
56.825 12.903197
56.830 12.802733
56.835 13.198483
56.840 12.952512
56.845 12.877897
56.850 12.436806
56.855 12.318437
56.860 12.172495
56.865 11.974509
56.870 12.050245
56.875 11.987984
56.880 11.307202
56.885 11.46783
56.890 11.486755
56.895 11.673577
56.900 12.103786
56.905 12.295247
56.910 12.574605
56.915 13.05859
56.920 13.923385
56.925 14.558533
56.930 14.740623
56.935 14.227744
56.940 14.340161
56.945 14.727352
56.950 15.015556
56.955 15.086424
56.960 15.003987
56.965 14.69765
56.970 14.716576
56.975 14.50623
56.980 14.28221
56.985 13.859867
56.990 13.544589
56.995 13.187222
57.000 13.254398
57.005 13.41519
57.010 13.342347
57.015 13.680105
57.020 13.418613
57.025 13.24012
57.030 13.48451
57.035 13.419852
57.040 13.14426
57.045 13.146037
57.050 13.136168
57.055 13.172067
57.060 13.409466
57.065 13.235229
57.070 12.973662
57.075 12.899137
57.080 12.478404
57.085 12.167298
57.090 12.242014
57.095 11.842224
57.100 12.047814
57.105 12.60034
57.110 12.827096
57.115 12.895927
57.120 12.734357
57.125 12.5803
57.130 13.070505
57.135 13.231208
57.140 13.153069
57.145 13.109298
57.150 13.389521
57.155 13.899685
57.160 13.934658
57.165 13.65738
57.170 13.388499
57.175 13.402641
57.180 13.832875
57.185 13.980573
57.190 13.938715
57.195 13.982838
57.200 14.299587
57.205 14.320702
57.210 14.496488
57.215 14.439154
57.220 14.32248
57.225 14.396445
57.230 13.827887
57.235 13.655871
57.240 13.414673
57.245 12.75901
57.250 12.73307
57.255 12.886055
57.260 13.164399
57.265 13.774521
57.270 13.844499
57.275 13.927966
57.280 14.37569
57.285 14.089623
57.290 14.260489
57.295 14.644117
57.300 14.716133
57.305 15.49109
57.310 15.910718
57.315 16.229574
57.320 17.171825
57.325 16.860117
57.330 16.3925
57.335 16.393
57.340 15.71441
57.345 15.530121
57.350 15.069924
57.355 14.35869
57.360 14.072783
57.365 14.210235
57.370 13.986905
57.375 13.752826
57.380 14.048474
57.385 14.121861
57.390 14.196152
57.395 14.798881
57.400 14.754909
57.405 14.660282
57.410 14.281096
57.415 13.766067
57.420 13.323875
57.425 13.308966
57.430 12.656673
57.435 12.375347
57.440 12.389968
57.445 13.088311
57.450 13.039618
57.455 12.898844
57.460 13.195949
57.465 13.543718
57.470 13.83256
57.475 14.094108
57.480 14.073853
57.485 14.145082
57.490 14.354218
57.495 14.200971
57.500 14.22703
57.505 14.237758
57.510 13.99146
57.515 13.700381
57.520 13.481809
57.525 13.190683
57.530 12.700527
57.535 12.540388
57.540 12.521464
57.545 13.12495
57.550 13.248065
57.555 13.890712
57.560 14.331367
57.565 14.90949
57.570 15.048872
57.575 15.119452
57.580 14.630386
57.585 14.399456
57.590 14.315883
57.595 14.205204
57.600 14.238604
57.605 13.972776
57.610 13.631214
57.615 14.079491
57.620 14.224648
57.625 13.983711
57.630 13.951327
57.635 13.577374
57.640 13.757598
57.645 13.498914
57.650 13.022637
57.655 13.239878
57.660 13.378068
57.665 12.730669
57.670 12.760784
57.675 12.96551
57.680 13.390871
57.685 13.367237
57.690 13.421031
57.695 13.729523
57.700 14.315076
57.705 14.593485
57.710 14.302807
57.715 14.466696
57.720 14.79652
57.725 14.535728
57.730 14.262856
57.735 13.895495
57.740 14.082952
57.745 13.880392
57.750 13.673211
57.755 13.626269
57.760 13.297586
57.765 13.911159
57.770 14.263754
57.775 14.692722
57.780 15.389229
57.785 15.316567
57.790 15.21929
57.795 15.798621
57.800 15.204975
57.805 15.144323
57.810 14.975021
57.815 15.426372
57.820 15.905096
57.825 16.071474
57.830 15.701571
57.835 16.064913
57.840 16.121054
57.845 15.667381
57.850 14.751331
57.855 14.418327
57.860 14.408238
57.865 15.100148
57.870 15.53489
57.875 15.501487
57.880 15.614417
57.885 15.755543
57.890 15.987374
57.895 16.173586
57.900 15.380333
57.905 14.742723
57.910 14.561267
57.915 14.189891
57.920 14.045539
57.925 13.682437
57.930 13.382206
57.935 14.191772
57.940 14.418975
57.945 14.803995
57.950 15.405301
57.955 15.548985
57.960 15.707819
57.965 15.920575
57.970 15.990902
57.975 16.103792
57.980 15.650631
57.985 15.749243
57.990 16.069729
57.995 15.815149
58.000 15.660485
58.005 15.114376
58.010 15.217761
58.015 15.52655
58.020 15.348062
58.025 15.108441
58.030 15.660861
58.035 15.8768
58.040 15.872803
58.045 16.406469
58.050 16.115255
58.055 16.242668
58.060 16.874357
58.065 16.740355
58.070 16.50901
58.075 16.165743
58.080 15.894663
58.085 16.495087
58.090 16.958435
58.095 16.840477
58.100 16.955074
58.105 17.542566
58.110 17.909081
58.115 18.027348
58.120 18.095533
58.125 17.218218
58.130 16.724197
58.135 16.215271
58.140 16.086704
58.145 16.536999
58.150 16.964048
58.155 16.805336
58.160 17.209484
58.165 17.603029
58.170 18.026054
58.175 17.856192
58.180 17.720911
58.185 16.73028
58.190 17.016514
58.195 17.149776
58.200 17.331469
58.205 17.698856
58.210 17.879103
58.215 17.409334
58.220 17.366001
58.225 16.989618
58.230 17.291748
58.235 17.317755
58.240 16.868217
58.245 16.574493
58.250 17.255247
58.255 17.624222
58.260 17.443375
58.265 17.215635
58.270 16.80743
58.275 16.663887
58.280 16.645687
58.285 16.523235
58.290 16.623409
58.295 16.392412
58.300 16.237062
58.305 17.260201
58.310 17.638403
58.315 17.357561
58.320 17.135469
58.325 17.265535
58.330 17.927666
58.335 18.352854
58.340 18.169106
58.345 18.514851
58.350 19.036457
58.355 19.495754
58.360 19.785179
58.365 19.958212
58.370 20.099272
58.375 20.012716
58.380 19.642572
58.385 19.878281
58.390 20.104544
58.395 20.169147
58.400 20.289352
58.405 20.046127
58.410 20.520414
58.415 21.456411
58.420 21.89957
58.425 22.121647
58.430 22.504984
58.435 22.966736
58.440 23.023165
58.445 23.015682
58.450 23.334164
58.455 23.095718
58.460 23.159851
58.465 23.013577
58.470 23.610573
58.475 24.517353
58.480 24.811136
58.485 24.910004
58.490 26.401922
58.495 27.054548
58.500 27.369226
58.505 27.549326
58.510 27.515291
58.515 27.760561
58.520 28.343824
58.525 28.000927
58.530 27.88418
58.535 27.94482
58.540 28.405096
58.545 29.213303
58.550 30.061279
58.555 30.348167
58.560 31.040012
58.565 32.037327
58.570 33.276737
58.575 33.764713
58.580 33.455162
58.585 33.170414
58.590 33.829353
58.595 34.321583
58.600 35.063049
58.605 34.106331
58.610 33.462677
58.615 33.677555
58.620 33.553093
58.625 33.903545
58.630 35.185112
58.635 35.228035
58.640 36.383148
58.645 36.802967
58.650 37.396172
58.655 37.504105
58.660 37.009342
58.665 35.920322
58.670 34.973843
58.675 34.276268
58.680 34.74263
58.685 34.931881
58.690 35.21587
58.695 35.756653
58.700 36.026123
58.705 36.317562
58.710 35.9184
58.715 35.612354
58.720 35.295292
58.725 35.590553
58.730 35.309998
58.735 35.152309
58.740 36.066856
58.745 36.342472
58.750 35.965862
58.755 35.276005
58.760 34.159672
58.765 32.420044
58.770 31.611628
58.775 30.343252
58.780 29.894741
58.785 29.513878
58.790 28.957258
58.795 28.298052
58.800 27.830418
58.805 27.059969
58.810 26.882761
58.815 26.607309
58.820 26.362385
58.825 26.050209
58.830 26.124311
58.835 26.522671
58.840 27.063995
58.845 26.434029
58.850 25.318901
58.855 25.147322
58.860 25.143801
58.865 25.112034
58.870 24.661331
58.875 23.841656
58.880 23.423809
58.885 23.932077
58.890 23.42384
58.895 23.188358
58.900 22.339197
58.905 21.973444
58.910 21.981396
58.915 21.457016
58.920 21.303963
58.925 21.110653
58.930 20.86857
58.935 21.194542
58.940 20.737328
58.945 20.678753
58.950 20.793718
58.955 20.83502
58.960 20.732565
58.965 20.173496
58.970 19.669746
58.975 19.482302
58.980 19.135252
58.985 19.379114
58.990 18.831121
58.995 18.927458
59.000 18.702078
59.005 18.703726
59.010 18.479866
59.015 18.360588
59.020 17.766958
59.025 17.434484
59.030 17.264612
59.035 17.536356
59.040 18.203791
59.045 18.124258
59.050 17.801479
59.055 17.481323
59.060 17.341948
59.065 17.281145
59.070 17.353521
59.075 16.345245
59.080 15.778501
59.085 15.945256
59.090 16.520601
59.095 16.727777
59.100 16.756968
59.105 16.498024
59.110 16.667793
59.115 16.851599
59.120 16.915348
59.125 16.994686
59.130 17.224686
59.135 17.361048
59.140 17.15913
59.145 17.144253
59.150 17.470716
59.155 17.189964
59.160 16.917114
59.165 17.003222
59.170 16.743452
59.175 16.947638
59.180 16.81637
59.185 16.12903
59.190 16.027351
59.195 15.405708
59.200 14.815769
59.205 15.090588
59.210 14.607065
59.215 14.035285
59.220 14.352364
59.225 14.469364
59.230 15.295912
59.235 15.264973
59.240 15.249555
59.245 15.265887
59.250 15.599092
59.255 15.233748
59.260 15.440732
59.265 15.178111
59.270 15.195968
59.275 15.197971
59.280 15.946954
59.285 16.025341
59.290 16.569685
59.295 16.518465
59.300 16.563866
59.305 16.683178
59.310 16.699482
59.315 16.657747
59.320 16.99415
59.325 17.10815
59.330 16.790607
59.335 16.439692
59.340 16.074394
59.345 16.32387
59.350 16.075655
59.355 15.507161
59.360 15.411815
59.365 15.363008
59.370 15.28618
59.375 15.106999
59.380 14.76032
59.385 14.725488
59.390 14.561681
59.395 14.311543
59.400 14.650466
59.405 15.017924
59.410 14.799147
59.415 14.610873
59.420 15.047835
59.425 15.269355
59.430 14.859389
59.435 14.491854
59.440 14.313601
59.445 14.80725
59.450 15.087162
59.455 15.009726
59.460 15.354217
59.465 15.905705
59.470 15.933126
59.475 15.830786
59.480 15.832839
59.485 15.677521
59.490 15.186688
59.495 14.661241
59.500 14.357819
59.505 14.250717
59.510 13.909181
59.515 13.460605
59.520 13.063763
59.525 13.166962
59.530 13.509012
59.535 13.692036
59.540 14.127518
59.545 15.099928
59.550 15.257674
59.555 15.061507
59.560 14.908527
59.565 15.205392
59.570 15.292791
59.575 15.018295
59.580 14.524782
59.585 14.146185
59.590 14.515166
59.595 14.64475
59.600 14.446307
59.605 14.394189
59.610 14.143941
59.615 14.629296
59.620 15.090047
59.625 15.445604
59.630 15.833627
59.635 15.835839
59.640 16.298182
59.645 16.474264
59.650 16.337029
59.655 16.365191
59.660 15.790826
59.665 15.344716
59.670 15.062211
59.675 14.713189
59.680 14.849315
59.685 14.800571
59.690 15.073744
59.695 15.488167
59.700 15.841865
59.705 15.515192
59.710 15.477862
59.715 15.194456
59.720 15.07732
59.725 14.455785
59.730 13.738096
59.735 13.542215
59.740 13.968952
59.745 13.593414
59.750 13.805779
59.755 14.365592
59.760 15.023327
59.765 15.873082
59.770 15.158887
59.775 15.162711
59.780 15.244384
59.785 14.80198
59.790 14.641895
59.795 14.622219
59.800 14.278784
59.805 14.949722
59.810 15.361096
59.815 15.697209
59.820 16.533052
59.825 16.374197
59.830 16.226473
59.835 16.29554
59.840 16.071108
59.845 15.800946
59.850 15.523976
59.855 15.269588
59.860 15.101081
59.865 15.050288
59.870 15.407882
59.875 15.697399
59.880 15.032466
59.885 14.939209
59.890 14.985893
59.895 15.26646
59.900 15.511103
59.905 14.968932
59.910 14.950964
59.915 15.475983
59.920 15.755037
59.925 15.49199
59.930 15.2192
59.935 15.217246
59.940 15.60433
59.945 16.030283
59.950 16.064501
59.955 15.963001
59.960 16.377817
59.965 17.313848
59.970 17.301538
59.975 17.315813
59.980 16.631655
59.985 16.536827
59.990 16.458961
59.995 15.558415
60.000 14.795474
60.005 14.650365
60.010 14.482338
60.015 14.795109
60.020 14.455879
60.025 14.301361
60.030 14.549375
60.035 14.569721
60.040 14.713382
60.045 14.883657
60.050 15.163857
60.055 15.239088
60.060 15.193438
60.065 15.064703
60.070 15.003786
60.075 14.911519
60.080 14.493019
60.085 14.075777
60.090 14.258835
60.095 14.259097
60.100 14.637657
60.105 14.232817
60.110 14.064006
60.115 14.648653
60.120 15.125173
60.125 15.71545
60.130 15.943801
60.135 15.786856
60.140 15.95664
60.145 16.251415
60.150 16.053644
60.155 15.874478
60.160 15.737576
60.165 16.186646
60.170 16.026371
60.175 15.973976
60.180 15.742552
60.185 15.469125
60.190 15.015018
60.195 14.100696
60.200 13.557876
60.205 13.993136
60.210 14.327108
60.215 14.499523
60.220 14.111759
60.225 14.840963
60.230 15.783586
60.235 16.478109
60.240 16.04657
60.245 15.550331
60.250 15.465013
60.255 15.99749
60.260 16.370541
60.265 16.42061
60.270 15.702229
60.275 15.961684
60.280 16.20039
60.285 16.110289
60.290 16.145432
60.295 14.972505
60.300 14.494111
60.305 14.496472
60.310 14.581155
60.315 15.253379
60.320 15.80015
60.325 15.462033
60.330 15.16408
60.335 15.430504
60.340 15.651267
60.345 16.440105
60.350 16.58214
60.355 16.113888
60.360 16.417355
60.365 17.113115
60.370 17.30105
60.375 17.028683
60.380 15.933015
60.385 15.345798
60.390 15.129149
60.395 14.905743
60.400 14.463331
60.405 14.605922
60.410 14.84493
60.415 14.887076
60.420 14.671683
60.425 14.675995
60.430 14.740895
60.435 14.482622
60.440 14.279072
60.445 14.562261
60.450 15.186141
60.455 15.127564
60.460 15.328519
60.465 15.53519
60.470 15.726876
60.475 15.615765
60.480 14.949498
60.485 14.7337
60.490 15.179242
60.495 15.244822
60.500 15.299241
60.505 15.673908
60.510 15.754832
60.515 16.42807
60.520 16.464788
60.525 16.421692
60.530 16.848959
60.535 16.966007
60.540 16.823044
60.545 16.681427
60.550 16.628454
60.555 16.506842
60.560 16.382406
60.565 15.994859
60.570 15.731186
60.575 15.956724
60.580 15.986763
60.585 15.460631
60.590 15.362745
60.595 15.730143
60.600 15.607182
60.605 15.826589
60.610 15.647388
60.615 15.64887
60.620 15.75078
60.625 15.578319
60.630 14.711868
60.635 14.706456
60.640 14.753892
60.645 14.753528
60.650 15.317072
60.655 15.056479
60.660 14.970027
60.665 15.401761
60.670 15.169776
60.675 15.11599
60.680 15.528614
60.685 15.083178
60.690 14.87121
60.695 15.488057
60.700 15.893521
60.705 16.319727
60.710 15.6935
60.715 14.793938
60.720 14.644126
60.725 14.846634
60.730 14.80278
60.735 14.81601
60.740 14.872581
60.745 15.490715
60.750 15.805408
60.755 16.066998
60.760 16.335398
60.765 16.12092
60.770 15.60233
60.775 15.508759
60.780 14.962557
60.785 14.718751
60.790 14.383884
60.795 14.020385
60.800 13.854478
60.805 14.344079
60.810 14.149153
60.815 14.630969
60.820 14.945365
60.825 15.362775
60.830 15.710085
60.835 15.913116
60.840 15.649743
60.845 15.565787
60.850 15.710181
60.855 16.130976
60.860 15.71296
60.865 15.554266
60.870 15.324204
60.875 15.007499
60.880 15.237314
60.885 14.948621
60.890 14.781037
60.895 15.384241
60.900 15.936798
60.905 15.960175
60.910 16.123018
60.915 16.336296
60.920 16.073963
60.925 15.789171
60.930 15.631566
60.935 15.069645
60.940 15.031701
60.945 15.081259
60.950 14.949668
60.955 15.258224
60.960 15.906542
60.965 15.751314
60.970 16.219154
60.975 16.63681
60.980 17.071115
60.985 17.399582
60.990 17.07086
60.995 16.377401
61.000 16.657629
61.005 16.719086
61.010 16.749897
61.015 16.275986
61.020 16.195778
61.025 16.002348
61.030 16.028587
61.035 15.474455
61.040 15.016958
61.045 14.904277
61.050 14.537204
61.055 14.582026
61.060 15.134891
61.065 15.635799
61.070 15.416965
61.075 15.130164
61.080 14.646094
61.085 14.846235
61.090 14.506414
61.095 14.09059
61.100 13.785506
61.105 14.014058
61.110 14.631398
61.115 15.629986
61.120 15.523488
61.125 15.485518
61.130 15.768515
61.135 15.739789
61.140 15.864366
61.145 15.372232
61.150 14.749463
61.155 15.113856
61.160 15.854934
61.165 15.576045
61.170 15.563379
61.175 15.707067
61.180 15.839706
61.185 15.587292
61.190 15.200662
61.195 14.651095
61.200 15.359802
61.205 16.125441
61.210 16.095003
61.215 16.455194
61.220 16.688684
61.225 16.817591
61.230 17.004932
61.235 16.754419
61.240 16.485113
61.245 16.179338
61.250 16.031742
61.255 16.214432
61.260 16.497446
61.265 16.547794
61.270 15.975346
61.275 15.836456
61.280 15.931075
61.285 16.139387
61.290 16.307779
61.295 16.523577
61.300 16.681376
61.305 16.871277
61.310 16.989326
61.315 17.004448
61.320 16.852993
61.325 16.737551
61.330 16.113745
61.335 15.984505
61.340 16.029062
61.345 16.490082
61.350 16.375778
61.355 15.96323
61.360 15.892224
61.365 15.345555
61.370 15.330857
61.375 15.215105
61.380 14.583388
61.385 14.574821
61.390 15.07029
61.395 15.272241
61.400 15.835352
61.405 15.575774
61.410 15.872312
61.415 15.934157
61.420 16.346384
61.425 16.061718
61.430 15.746533
61.435 15.88118
61.440 16.136593
61.445 15.852381
61.450 16.081295
61.455 15.947094
61.460 15.6245
61.465 15.856425
61.470 15.88746
61.475 15.537941
61.480 15.748874
61.485 15.893907
61.490 15.758782
61.495 15.801044
61.500 15.822682
61.505 15.470308
61.510 15.805051
61.515 15.652575
61.520 15.551735
61.525 15.45929
61.530 15.720947
61.535 15.571425
61.540 15.730778
61.545 16.977007
61.550 17.475224
61.555 17.939661
61.560 18.242592
61.565 18.723528
61.570 19.159983
61.575 19.564789
61.580 18.534128
61.585 17.778925
61.590 17.186552
61.595 17.353363
61.600 16.354841
61.605 16.101273
61.610 15.990643
61.615 15.564651
61.620 15.70587
61.625 15.579638
61.630 15.152185
61.635 15.43429
61.640 15.407109
61.645 15.372163
61.650 15.031984
61.655 14.876043
61.660 15.093397
61.665 15.285764
61.670 15.473854
61.675 15.728607
61.680 15.860915
61.685 16.723255
61.690 17.450974
61.695 17.73485
61.700 18.06509
61.705 17.98888
61.710 17.542025
61.715 16.682552
61.720 15.914229
61.725 15.865708
61.730 15.788574
61.735 15.517257
61.740 15.870121
61.745 16.057554
61.750 16.355095
61.755 16.975561
61.760 16.722433
61.765 16.755047
61.770 16.846743
61.775 16.358234
61.780 16.200031
61.785 16.531094
61.790 16.094368
61.795 15.5428
61.800 15.439886
61.805 15.933635
61.810 16.331167
61.815 16.421417
61.820 16.48691
61.825 16.557167
61.830 16.94183
61.835 16.593521
61.840 16.028315
61.845 16.090141
61.850 16.000547
61.855 16.389639
61.860 17.242495
61.865 17.36911
61.870 17.586378
61.875 17.716951
61.880 18.105816
61.885 17.963728
61.890 17.706417
61.895 17.364017
61.900 17.25128
61.905 17.772219
61.910 17.366245
61.915 17.125462
61.920 17.372185
61.925 16.775177
61.930 16.777065
61.935 16.690084
61.940 16.004581
61.945 15.993902
61.950 16.142742
61.955 15.915933
61.960 15.981921
61.965 15.786305
61.970 15.269115
61.975 15.189586
61.980 15.11176
61.985 14.958299
61.990 15.15864
61.995 14.667422
62.000 14.83952
62.005 15.571438
62.010 15.312046
62.015 14.959006
62.020 15.108472
62.025 15.166096
62.030 15.570544
62.035 15.333312
62.040 15.502047
62.045 16.004818
62.050 16.083775
62.055 15.998823
62.060 16.075869
62.065 16.304907
62.070 16.360643
62.075 15.755621
62.080 15.584847
62.085 16.083467
62.090 16.044315
62.095 15.99402
62.100 15.318068
62.105 15.25567
62.110 15.845879
62.115 15.976381
62.120 15.589128
62.125 15.522223
62.130 16.264595
62.135 17.327242
62.140 17.252157
62.145 17.495819
62.150 17.462303
62.155 17.64691
62.160 18.102633
62.165 18.116096
62.170 18.408278
62.175 18.721983
62.180 18.050768
62.185 18.361065
62.190 18.60618
62.195 18.145939
62.200 17.61899
62.205 16.657307
62.210 16.341606
62.215 16.804508
62.220 16.709311
62.225 16.904886
62.230 16.764151
62.235 16.517179
62.240 16.700644
62.245 16.581047
62.250 16.32563
62.255 16.713293
62.260 15.917483
62.265 16.216715
62.270 16.527769
62.275 16.479479
62.280 16.317694
62.285 16.207016
62.290 15.864038
62.295 16.269917
62.300 16.50423
62.305 16.651066
62.310 16.842236
62.315 16.888546
62.320 16.672974
62.325 16.373354
62.330 16.33798
62.335 16.055271
62.340 15.902385
62.345 16.170792
62.350 16.363119
62.355 16.520226
62.360 17.214008
62.365 17.611723
62.370 17.532236
62.375 17.233046
62.380 16.961403
62.385 16.768536
62.390 16.832884
62.395 16.478867
62.400 16.159498
62.405 15.956182
62.410 16.63315
62.415 17.212664
62.420 17.528532
62.425 17.734455
62.430 17.762472
62.435 18.32185
62.440 18.447643
62.445 18.012468
62.450 18.298208
62.455 18.151299
62.460 18.145393
62.465 17.773645
62.470 17.00568
62.475 17.225973
62.480 17.412029
62.485 16.56032
62.490 16.551611
62.495 17.088615
62.500 17.227262
62.505 17.207945
62.510 16.849651
62.515 17.315319
62.520 17.607054
62.525 16.893055
62.530 15.888286
62.535 15.79463
62.540 15.612476
62.545 15.48178
62.550 14.558048
62.555 14.714337
62.560 15.006799
62.565 15.403396
62.570 15.506478
62.575 16.200235
62.580 16.76251
62.585 16.001255
62.590 16.016006
62.595 15.924104
62.600 15.447143
62.605 15.34439
62.610 15.291913
62.615 15.378025
62.620 16.163176
62.625 16.523405
62.630 17.074898
62.635 17.855116
62.640 18.053719
62.645 17.884144
62.650 17.462597
62.655 17.172644
62.660 17.252745
62.665 17.577236
62.670 17.115662
62.675 16.888971
62.680 16.940935
62.685 16.913927
62.690 16.799486
62.695 16.525661
62.700 16.220636
62.705 16.328377
62.710 16.874702
62.715 17.304615
62.720 17.945463
62.725 18.560886
62.730 18.560776
62.735 18.409889
62.740 18.329119
62.745 18.076969
62.750 17.95846
62.755 17.617622
62.760 17.575701
62.765 18.367031
62.770 18.386654
62.775 18.272579
62.780 17.587584
62.785 17.393316
62.790 17.384905
62.795 17.615852
62.800 16.853317
62.805 16.500643
62.810 16.377502
62.815 16.610224
62.820 16.502186
62.825 16.32383
62.830 15.853437
62.835 15.541948
62.840 15.487364
62.845 15.316116
62.850 15.290265
62.855 15.416389
62.860 15.646918
62.865 15.281058
62.870 15.270092
62.875 15.501089
62.880 15.904186
62.885 15.84636
62.890 15.7448
62.895 15.926338
62.900 16.206457
62.905 16.566465
62.910 16.3538
62.915 16.329477
62.920 16.206276
62.925 16.670769
62.930 16.068655
62.935 15.977016
62.940 15.960835
62.945 15.828567
62.950 15.563912
62.955 15.869987
62.960 15.806475
62.965 15.761546
62.970 15.537175
62.975 15.336643
62.980 15.701778
62.985 15.546469
62.990 15.168865
62.995 14.757897
63.000 15.483794
63.005 15.282814
63.010 15.405138
63.015 15.720528
63.020 16.377012
63.025 16.064224
63.030 15.943467
63.035 15.669195
63.040 16.23724
63.045 16.789328
63.050 16.805771
63.055 16.52268
63.060 17.439449
63.065 18.117298
63.070 18.220089
63.075 17.615995
63.080 16.893824
63.085 16.752323
63.090 16.900841
63.095 16.418093
63.100 16.294697
63.105 16.394812
63.110 16.999815
63.115 16.953495
63.120 16.919956
63.125 17.199013
63.130 17.485079
63.135 16.818018
63.140 16.964884
63.145 16.882259
63.150 17.283035
63.155 17.293716
63.160 16.998625
63.165 17.091938
63.170 17.839018
63.175 17.985792
63.180 17.694519
63.185 17.53459
63.190 17.687664
63.195 17.724497
63.200 17.410713
63.205 17.064348
63.210 16.248522
63.215 16.336649
63.220 16.616024
63.225 16.420088
63.230 16.498051
63.235 16.796892
63.240 16.656366
63.245 17.430933
63.250 17.881178
63.255 17.741713
63.260 17.53306
63.265 17.093056
63.270 16.569201
63.275 16.812609
63.280 17.334595
63.285 17.387142
63.290 16.968346
63.295 17.252716
63.300 17.539082
63.305 17.902033
63.310 17.703009
63.315 16.851143
63.320 16.865644
63.325 17.080271
63.330 17.089367
63.335 17.154633
63.340 16.883585
63.345 16.850527
63.350 16.942999
63.355 16.787584
63.360 16.753338
63.365 16.357058
63.370 16.419178
63.375 16.598152
63.380 16.531221
63.385 16.567757
63.390 16.990194
63.395 17.388346
63.400 17.338726
63.405 17.053572
63.410 16.557854
63.415 16.921989
63.420 16.791893
63.425 16.492489
63.430 16.403326
63.435 16.75647
63.440 17.096365
63.445 17.753929
63.450 17.632988
63.455 17.878328
63.460 17.722134
63.465 17.974092
63.470 18.031506
63.475 18.128839
63.480 18.091131
63.485 18.124884
63.490 17.742342
63.495 17.949036
63.500 18.131378
63.505 17.795235
63.510 17.827946
63.515 17.574457
63.520 17.93277
63.525 18.39555
63.530 18.029455
63.535 17.700386
63.540 18.061092
63.545 17.565042
63.550 17.703676
63.555 17.483889
63.560 17.021778
63.565 16.924187
63.570 16.833195
63.575 16.588379
63.580 17.018204
63.585 16.815893
63.590 17.001373
63.595 17.608587
63.600 17.846518
63.605 17.898432
63.610 17.976515
63.615 17.977774
63.620 17.657806
63.625 17.302414
63.630 16.73838
63.635 16.279837
63.640 16.149782
63.645 16.216316
63.650 16.434761
63.655 17.101093
63.660 17.500612
63.665 17.977745
63.670 18.785381
63.675 19.308844
63.680 20.260405
63.685 20.214724
63.690 19.722864
63.695 19.586151
63.700 19.799536
63.705 19.842804
63.710 19.561182
63.715 18.615883
63.720 18.719622
63.725 19.049635
63.730 19.23188
63.735 18.882931
63.740 19.183386
63.745 18.959328
63.750 19.176674
63.755 19.325079
63.760 18.973858
63.765 18.44096
63.770 18.389204
63.775 17.864986
63.780 18.125713
63.785 18.098484
63.790 18.123125
63.795 18.635557
63.800 18.728779
63.805 19.09971
63.810 19.478361
63.815 20.068998
63.820 20.014482
63.825 20.320059
63.830 20.242868
63.835 20.627665
63.840 20.516867
63.845 20.48189
63.850 20.136429
63.855 19.800798
63.860 19.818579
63.865 20.021969
63.870 19.973593
63.875 19.97488
63.880 19.883013
63.885 19.824013
63.890 19.86211
63.895 19.665005
63.900 19.492414
63.905 19.548578
63.910 19.912292
63.915 19.631521
63.920 19.533564
63.925 20.199261
63.930 20.512012
63.935 20.878431
63.940 21.023483
63.945 20.443817
63.950 20.605368
63.955 20.77396
63.960 20.687603
63.965 20.383236
63.970 19.977404
63.975 19.779808
63.980 19.885679
63.985 20.626524
63.990 20.22533
63.995 20.356012
64.000 20.903349
64.005 21.39789
64.010 22.291904
64.015 23.548759
64.020 23.972486
64.025 25.182816
64.030 25.540899
64.035 25.42774
64.040 25.753908
64.045 26.549751
64.050 25.987362
64.055 25.720461
64.060 25.004824
64.065 24.292397
64.070 24.29755
64.075 24.179079
64.080 23.728146
64.085 24.146034
64.090 24.454706
64.095 24.981058
64.100 25.624697
64.105 26.259897
64.110 26.615707
64.115 26.479021
64.120 27.131287
64.125 27.855118
64.130 27.864891
64.135 28.478832
64.140 28.763411
64.145 28.964771
64.150 29.435595
64.155 29.48637
64.160 29.328711
64.165 30.073313
64.170 30.443264
64.175 29.939995
64.180 30.069391
64.185 30.436356
64.190 31.917456
64.195 32.609356
64.200 32.463249
64.205 32.388935
64.210 33.240116
64.215 33.561413
64.220 33.470104
64.225 32.844715
64.230 33.076485
64.235 34.011047
64.240 34.993298
64.245 35.790104
64.250 36.949795
64.255 37.846146
64.260 39.070999
64.265 39.519672
64.270 40.028172
64.275 40.337391
64.280 40.493484
64.285 41.162132
64.290 42.039898
64.295 42.702236
64.300 43.316692
64.305 43.631554
64.310 44.25621
64.315 44.613365
64.320 45.090828
64.325 45.6689
64.330 44.931427
64.335 45.558075
64.340 45.981979
64.345 46.241341
64.350 46.684761
64.355 46.275494
64.360 47.482101
64.365 47.787453
64.370 48.883968
64.375 48.99572
64.380 48.493397
64.385 48.034241
64.390 48.007
64.395 47.866985
64.400 48.546902
64.405 47.275444
64.410 47.008121
64.415 47.653023
64.420 48.237461
64.425 48.371582
64.430 47.539951
64.435 47.695217
64.440 48.021702
64.445 47.563171
64.450 47.191151
64.455 46.704433
64.460 45.811867
64.465 44.799149
64.470 44.077026
64.475 43.72192
64.480 44.006241
64.485 43.916557
64.490 44.431805
64.495 45.259254
64.500 45.762363
64.505 45.164532
64.510 44.314098
64.515 43.877167
64.520 43.512787
64.525 42.3372
64.530 41.100815
64.535 40.211216
64.540 39.723392
64.545 39.846352
64.550 38.864365
64.555 38.21846
64.560 37.362785
64.565 37.250126
64.570 36.983425
64.575 36.551762
64.580 35.635654
64.585 35.616859
64.590 35.590443
64.595 35.450436
64.600 35.101196
64.605 34.006172
64.610 33.682964
64.615 33.883389
64.620 33.737938
64.625 32.573975
64.630 31.44264
64.635 31.116854
64.640 31.162994
64.645 30.677084
64.650 30.209221
64.655 29.420311
64.660 29.607943
64.665 29.988632
64.670 28.763647
64.675 28.191431
64.680 27.745314
64.685 27.50725
64.690 26.581383
64.695 26.043455
64.700 25.581392
64.705 25.731497
64.710 25.407122
64.715 25.080376
64.720 24.762226
64.725 24.370787
64.730 24.782986
64.735 24.691242
64.740 24.940121
64.745 24.879095
64.750 24.622915
64.755 24.730181
64.760 24.869915
64.765 24.56867
64.770 24.453707
64.775 23.42915
64.780 22.802614
64.785 22.930365
64.790 22.750767
64.795 22.163658
64.800 21.170803
64.805 21.020428
64.810 21.08742
64.815 21.233959
64.820 20.312721
64.825 20.03821
64.830 20.78393
64.835 21.290794
64.840 21.635159
64.845 21.506281
64.850 21.101456
64.855 21.524918
64.860 22.156334
64.865 22.431574
64.870 22.456514
64.875 22.295027
64.880 22.114599
64.885 22.027594
64.890 21.589653
64.895 21.161255
64.900 21.241453
64.905 21.411606
64.910 21.686979
64.915 22.328453
64.920 22.111849
64.925 21.865526
64.930 21.918262
64.935 21.506557
64.940 21.348673
64.945 21.324211
64.950 21.555454
64.955 21.739168
64.960 22.156483
64.965 21.837467
64.970 22.201445
64.975 22.39402
64.980 22.558014
64.985 23.342413
64.990 23.96977
64.995 24.101276
65.000 24.733307
65.005 24.663149
65.010 24.952677
65.015 25.085018
65.020 25.262094
65.025 25.596228
65.030 26.501143
65.035 26.717388
65.040 26.486486
65.045 26.950901
65.050 27.123198
65.055 27.042988
65.060 27.200016
65.065 26.622892
65.070 26.756622
65.075 27.883249
65.080 27.450495
65.085 27.174976
65.090 27.182112
65.095 27.557034
65.100 28.000988
65.105 28.819914
65.110 29.191765
65.115 29.56772
65.120 29.938105
65.125 29.441525
65.130 29.751217
65.135 30.890955
65.140 30.998455
65.145 30.156883
65.150 29.99827
65.155 30.452579
65.160 31.694967
65.165 31.88052
65.170 31.124289
65.175 31.061621
65.180 31.252924
65.185 31.692413
65.190 31.736193
65.195 31.809708
65.200 32.122372
65.205 32.405968
65.210 32.884903
65.215 33.854729
65.220 34.35096
65.225 34.45459
65.230 35.077225
65.235 35.156307
65.240 34.964256
65.245 35.358524
65.250 35.208065
65.255 34.513882
65.260 34.231125
65.265 33.60984
65.270 33.977348
65.275 34.82983
65.280 34.534061
65.285 35.378674
65.290 36.672249
65.295 37.39259
65.300 38.216206
65.305 38.165642
65.310 38.012806
65.315 38.129402
65.320 37.630432
65.325 37.471443
65.330 37.010288
65.335 36.631088
65.340 36.875256
65.345 37.447578
65.350 37.296944
65.355 37.685467
65.360 37.498619
65.365 37.816261
65.370 38.291424
65.375 38.030415
65.380 37.586994
65.385 37.041092
65.390 36.467175
65.395 36.670586
65.400 36.314201
65.405 36.59272
65.410 36.520279
65.415 37.183041
65.420 37.314602
65.425 37.58062
65.430 38.433041
65.435 39.466846
65.440 39.212929
65.445 38.768501
65.450 37.60001
65.455 37.729584
65.460 38.0103
65.465 37.095867
65.470 36.12989
65.475 35.729004
65.480 36.124638
65.485 36.63636
65.490 36.93681
65.495 36.963745
65.500 37.270439
65.505 37.712471
65.510 38.635536
65.515 39.106495
65.520 38.710102
65.525 38.957279
65.530 38.633553
65.535 38.805031
65.540 39.618374
65.545 40.188873
65.550 40.103821
65.555 40.341038
65.560 39.631783
65.565 39.312351
65.570 39.146358
65.575 38.533707
65.580 37.357918
65.585 37.009232
65.590 37.565483
65.595 37.497437
65.600 37.854504
65.605 37.554554
65.610 37.602451
65.615 37.929169
65.620 38.343555
65.625 37.93721
65.630 38.03331
65.635 38.801605
65.640 39.834343
65.645 40.144627
65.650 40.321785
65.655 39.638279
65.660 39.121426
65.665 38.492943
65.670 37.589409
65.675 36.968578
65.680 35.896587
65.685 35.324184
65.690 35.923733
65.695 37.091869
65.700 37.702114
65.705 37.6404
65.710 37.895107
65.715 38.633476
65.720 38.51973
65.725 37.759468
65.730 37.293785
65.735 36.789673
65.740 36.240868
65.745 35.791241
65.750 35.629032
65.755 36.502007
65.760 36.786869
65.765 36.798954
65.770 36.505329
65.775 36.275463
65.780 35.619507
65.785 35.051155
65.790 35.171745
65.795 34.82869
65.800 34.47636
65.805 34.649105
65.810 35.343681
65.815 35.794346
65.820 35.890846
65.825 34.601185
65.830 34.304226
65.835 34.022301
65.840 33.89373
65.845 33.313419
65.850 33.186367
65.855 32.21624
65.860 32.472523
65.865 31.956381
65.870 31.637468
65.875 30.779806
65.880 29.549273
65.885 29.034319
65.890 28.87677
65.895 28.462286
65.900 28.268641
65.905 28.178774
65.910 28.851574
65.915 29.481672
65.920 29.305286
65.925 28.872969
65.930 28.375881
65.935 28.605822
65.940 28.947639
65.945 28.982138
65.950 29.211187
65.955 29.178228
65.960 29.137362
65.965 29.145807
65.970 28.462965
65.975 27.437351
65.980 27.09675
65.985 26.134146
65.990 25.435707
65.995 24.812723
66.000 23.822029
66.005 23.48971
66.010 23.482264
66.015 23.206491
66.020 23.214945
66.025 23.499128
66.030 23.730726
66.035 23.775297
66.040 23.334166
66.045 23.224627
66.050 23.530666
66.055 23.039375
66.060 22.96557
66.065 22.436193
66.070 22.442196
66.075 22.80595
66.080 22.040155
66.085 22.154995
66.090 22.604841
66.095 21.760588
66.100 21.585505
66.105 21.137585
66.110 20.647346
66.115 20.826986
66.120 20.03261
66.125 20.016823
66.130 20.347723
66.135 20.59119
66.140 21.5373
66.145 21.619614
66.150 21.60557
66.155 21.445198
66.160 21.258125
66.165 20.99922
66.170 20.734043
66.175 20.781202
66.180 21.072945
66.185 21.116287
66.190 21.288076
66.195 21.039606
66.200 20.694324
66.205 19.916506
66.210 19.67363
66.215 18.978924
66.220 18.055435
66.225 17.5895
66.230 17.597183
66.235 17.956354
66.240 17.972937
66.245 17.343283
66.250 17.383846
66.255 17.578436
66.260 17.801527
66.265 18.201212
66.270 18.720079
66.275 19.485224
66.280 19.665699
66.285 20.564972
66.290 21.325645
66.295 21.229578
66.300 20.852779
66.305 20.623964
66.310 19.883507
66.315 19.748707
66.320 19.514114
66.325 19.25246
66.330 19.379168
66.335 19.078556
66.340 18.990917
66.345 19.37324
66.350 19.264236
66.355 19.408215
66.360 19.513374
66.365 18.959419
66.370 18.73876
66.375 18.629416
66.380 18.660915
66.385 18.948149
66.390 18.779474
66.395 18.993225
66.400 19.542032
66.405 19.815525
66.410 19.872501
66.415 19.792519
66.420 19.497078
66.425 19.183727
66.430 18.59375
66.435 18.293543
66.440 18.081949
66.445 17.878809
66.450 17.52878
66.455 17.429966
66.460 17.689316
66.465 18.557753
66.470 19.125107
66.475 19.290985
66.480 19.427059
66.485 19.596695
66.490 19.686977
66.495 19.393318
66.500 19.295305
66.505 19.605009
66.510 19.386784
66.515 19.638783
66.520 19.728851
66.525 19.636944
66.530 18.842457
66.535 17.895069
66.540 17.010733
66.545 16.768152
66.550 16.844227
66.555 16.813936
66.560 16.860731
66.565 17.501472
66.570 17.599905
66.575 18.198095
66.580 17.492193
66.585 16.833345
66.590 16.635681
66.595 16.840284
66.600 16.244524
66.605 16.251953
66.610 16.281504
66.615 16.547752
66.620 17.641758
66.625 18.002861
66.630 18.629644
66.635 19.421766
66.640 19.221344
66.645 19.339674
66.650 19.484549
66.655 18.991985
66.660 18.990784
66.665 18.098425
66.670 18.037804
66.675 18.367237
66.680 18.382441
66.685 18.166618
66.690 17.91511
66.695 17.967213
66.700 18.344788
66.705 18.551861
66.710 18.727081
66.715 18.613718
66.720 18.775389
66.725 18.371857
66.730 18.073681
66.735 18.14139
66.740 17.936182
66.745 17.581675
66.750 17.734575
66.755 18.204485
66.760 18.948837
66.765 19.169025
66.770 19.355453
66.775 19.049709
66.780 19.420216
66.785 19.324341
66.790 18.968401
66.795 18.634298
66.800 18.194204
66.805 18.099283
66.810 18.317425
66.815 17.905815
66.820 18.00321
66.825 18.210428
66.830 18.013519
66.835 17.876623
66.840 17.464136
66.845 17.145948
66.850 17.218227
66.855 16.943926
66.860 16.651087
66.865 17.501476
66.870 17.607862
66.875 17.975811
66.880 17.863253
66.885 18.381433
66.890 18.619112
66.895 18.965115
66.900 18.989321
66.905 18.804308
66.910 18.529198
66.915 18.347637
66.920 18.416273
66.925 18.391924
66.930 18.287809
66.935 17.699301
66.940 17.59528
66.945 17.810995
66.950 17.580971
66.955 17.029217
66.960 17.200415
66.965 17.037863
66.970 17.147398
66.975 16.832235
66.980 16.607103
66.985 16.719883
66.990 16.436132
66.995 15.877238
67.000 15.547736
67.005 15.941172
67.010 16.715208
67.015 17.102848
67.020 17.626732
67.025 17.947662
67.030 18.999258
67.035 18.842968
67.040 18.381008
67.045 18.090311
67.050 18.174803
67.055 17.30788
67.060 16.976299
67.065 16.72575
67.070 16.978426
67.075 17.671509
67.080 17.931433
67.085 17.894211
67.090 18.509499
67.095 18.930048
67.100 18.444012
67.105 18.066986
67.110 17.668997
67.115 17.772604
67.120 17.799532
67.125 18.093597
67.130 18.231749
67.135 18.416422
67.140 18.740162
67.145 18.833813
67.150 18.788763
67.155 18.939337
67.160 18.861185
67.165 18.364859
67.170 18.707771
67.175 18.714546
67.180 18.343367
67.185 18.214956
67.190 18.000593
67.195 17.645641
67.200 17.535583
67.205 17.0359
67.210 17.268892
67.215 17.554995
67.220 17.520531
67.225 17.365061
67.230 17.863291
67.235 18.450468
67.240 18.897329
67.245 18.936319
67.250 19.170019
67.255 19.648281
67.260 19.893675
67.265 19.291994
67.270 18.802557
67.275 18.746016
67.280 19.183041
67.285 19.070131
67.290 18.710123
67.295 18.561441
67.300 18.783417
67.305 19.00098
67.310 18.476757
67.315 18.334234
67.320 17.87398
67.325 17.727015
67.330 17.423796
67.335 17.408892
67.340 17.292959
67.345 17.684664
67.350 17.994747
67.355 18.167919
67.360 18.585375
67.365 18.515293
67.370 18.120821
67.375 17.83683
67.380 17.974926
67.385 17.006886
67.390 16.849213
67.395 16.781324
67.400 16.921394
67.405 17.528835
67.410 17.731045
67.415 18.110964
67.420 18.466478
67.425 18.391058
67.430 18.275928
67.435 18.225058
67.440 17.661686
67.445 17.490055
67.450 17.028448
67.455 16.91206
67.460 17.294714
67.465 17.352491
67.470 17.569725
67.475 17.631983
67.480 17.109154
67.485 16.318058
67.490 16.068815
67.495 16.148619
67.500 16.71595
67.505 16.926144
67.510 17.137224
67.515 17.855095
67.520 18.789003
67.525 19.40453
67.530 19.223419
67.535 18.046078
67.540 17.713915
67.545 18.015251
67.550 17.903566
67.555 18.115505
67.560 18.565454
67.565 18.690407
67.570 18.863121
67.575 18.827808
67.580 18.363731
67.585 18.328531
67.590 17.31991
67.595 17.014872
67.600 17.352182
67.605 17.726187
67.610 17.868088
67.615 18.25083
67.620 18.678776
67.625 19.307663
67.630 19.215422
67.635 19.48991
67.640 19.57749
67.645 19.086544
67.650 19.109913
67.655 19.34021
67.660 19.523661
67.665 19.458929
67.670 19.011147
67.675 19.227898
67.680 19.67005
67.685 19.655893
67.690 19.136835
67.695 19.15871
67.700 18.851231
67.705 18.702637
67.710 19.152378
67.715 19.192404
67.720 18.323433
67.725 17.715401
67.730 17.428015
67.735 17.507383
67.740 17.01977
67.745 16.355705
67.750 16.305643
67.755 16.774363
67.760 16.796497
67.765 16.771002
67.770 17.479092
67.775 18.01593
67.780 18.114859
67.785 18.355381
67.790 18.726257
67.795 19.154976
67.800 18.800497
67.805 18.610895
67.810 18.648117
67.815 18.866442
67.820 18.536982
67.825 18.729982
67.830 18.761679
67.835 18.969896
67.840 18.599878
67.845 17.689798
67.850 17.473455
67.855 17.548517
67.860 17.16563
67.865 17.476597
67.870 17.971373
67.875 18.318644
67.880 18.851618
67.885 18.706661
67.890 18.47974
67.895 18.413069
67.900 18.633762
67.905 18.099358
67.910 18.419525
67.915 18.434288
67.920 18.833366
67.925 19.064831
67.930 19.55308
67.935 18.993582
67.940 19.353271
67.945 19.309097
67.950 18.765676
67.955 18.102228
67.960 17.57939
67.965 17.363335
67.970 18.210875
67.975 18.260384
67.980 18.433008
67.985 19.067675
67.990 19.558743
67.995 19.561531
68.000 19.356218
68.005 18.310238
68.010 17.887049
68.015 17.20727
68.020 16.61986
68.025 16.717911
68.030 17.150597
68.035 17.567354
68.040 18.174314
68.045 18.295246
68.050 18.736856
68.055 19.519098
68.060 19.498915
68.065 19.59634
68.070 19.676867
68.075 19.434179
68.080 19.761263
68.085 19.468897
68.090 19.179939
68.095 19.612831
68.100 20.045338
68.105 20.383778
68.110 20.604477
68.115 20.899633
68.120 20.933506
68.125 20.811192
68.130 20.034258
68.135 19.206739
68.140 19.024065
68.145 18.954697
68.150 18.740471
68.155 18.556414
68.160 18.303686
68.165 18.587189
68.170 18.597704
68.175 17.690218
68.180 17.816471
68.185 17.717743
68.190 18.261856
68.195 18.668837
68.200 19.568863
68.205 20.033804
68.210 21.243946
68.215 21.046179
68.220 20.74341
68.225 21.107992
68.230 20.896654
68.235 19.846363
68.240 19.95713
68.245 20.116407
68.250 20.195976
68.255 20.784454
68.260 20.752176
68.265 21.15044
68.270 21.145277
68.275 21.155622
68.280 21.176804
68.285 22.139902
68.290 22.372816
68.295 21.86676
68.300 22.08782
68.305 22.139339
68.310 21.737803
68.315 21.670256
68.320 21.787193
68.325 22.059074
68.330 22.381708
68.335 22.937227
68.340 24.513533
68.345 25.349094
68.350 25.863932
68.355 25.794249
68.360 25.767883
68.365 25.862705
68.370 25.479973
68.375 24.882519
68.380 24.225775
68.385 24.568649
68.390 24.264103
68.395 24.725683
68.400 24.77767
68.405 24.737051
68.410 24.778667
68.415 24.982399
68.420 24.64328
68.425 24.803152
68.430 24.436615
68.435 24.932138
68.440 24.850967
68.445 24.74275
68.450 25.380285
68.455 26.498016
68.460 27.733738
68.465 28.838697
68.470 29.170437
68.475 30.034616
68.480 30.189255
68.485 29.975281
68.490 29.247776
68.495 28.714849
68.500 28.92337
68.505 29.294777
68.510 29.090929
68.515 29.7271
68.520 29.393927
68.525 29.43284
68.530 29.555965
68.535 29.368397
68.540 28.90661
68.545 28.839142
68.550 28.79073
68.555 29.940428
68.560 30.57263
68.565 31.06896
68.570 31.033848
68.575 31.461084
68.580 31.548861
68.585 31.986498
68.590 32.17741
68.595 32.401257
68.600 32.007847
68.605 32.613369
68.610 33.145466
68.615 33.758675
68.620 33.912384
68.625 34.238003
68.630 34.581863
68.635 34.607346
68.640 34.903839
68.645 34.902065
68.650 34.791691
68.655 34.577827
68.660 34.65786
68.665 34.299156
68.670 34.736557
68.675 35.057957
68.680 34.959991
68.685 34.970882
68.690 34.654091
68.695 34.163231
68.700 33.929546
68.705 33.989574
68.710 33.547565
68.715 33.665634
68.720 33.977528
68.725 34.721104
68.730 35.832977
68.735 36.055676
68.740 36.068691
68.745 36.501949
68.750 36.22094
68.755 35.567394
68.760 35.08194
68.765 35.007198
68.770 35.396435
68.775 35.038593
68.780 34.942997
68.785 35.725689
68.790 36.963345
68.795 36.712551
68.800 36.706223
68.805 37.14069
68.810 37.389851
68.815 37.542542
68.820 36.658321
68.825 36.266968
68.830 36.391037
68.835 35.917141
68.840 35.06506
68.845 34.428616
68.850 34.606468
68.855 34.957775
68.860 35.304607
68.865 35.443817
68.870 36.309063
68.875 36.40136
68.880 36.118671
68.885 35.743935
68.890 35.644962
68.895 35.244244
68.900 34.095253
68.905 33.575588
68.910 34.208435
68.915 35.290676
68.920 35.535156
68.925 35.470657
68.930 35.220459
68.935 35.107555
68.940 35.069118
68.945 34.346462
68.950 33.024891
68.955 31.841091
68.960 31.924391
68.965 32.040634
68.970 32.404057
68.975 32.235558
68.980 32.259098
68.985 32.330147
68.990 32.481487
68.995 31.766455
69.000 31.930176
69.005 31.691355
69.010 31.180998
69.015 30.763655
69.020 30.854507
69.025 31.051931
69.030 31.111387
69.035 31.107647
69.040 31.225065
69.045 31.494507
69.050 31.362743
69.055 31.360762
69.060 30.867435
69.065 30.605143
69.070 30.299614
69.075 29.413198
69.080 28.785364
69.085 28.524019
69.090 28.561157
69.095 28.578449
69.100 28.697519
69.105 27.544027
69.110 27.574339
69.115 27.354164
69.120 27.496174
69.125 27.687754
69.130 27.259672
69.135 27.213116
69.140 27.313709
69.145 27.961483
69.150 27.949474
69.155 27.972334
69.160 28.383245
69.165 28.27187
69.170 27.679171
69.175 27.186287
69.180 26.165598
69.185 26.641888
69.190 25.754532
69.195 24.940523
69.200 25.166771
69.205 25.137295
69.210 24.668392
69.215 25.004524
69.220 24.905266
69.225 25.361195
69.230 25.672012
69.235 24.973652
69.240 25.170958
69.245 25.877848
69.250 25.80648
69.255 25.481983
69.260 24.528164
69.265 23.294802
69.270 23.671455
69.275 23.505754
69.280 22.666338
69.285 22.727619
69.290 22.624104
69.295 22.705446
69.300 22.822248
69.305 22.449507
69.310 22.437017
69.315 22.443745
69.320 22.409378
69.325 22.350788
69.330 22.333382
69.335 22.614098
69.340 22.696138
69.345 22.089729
69.350 21.601051
69.355 21.357109
69.360 21.156761
69.365 21.278919
69.370 20.972588
69.375 20.912575
69.380 21.64728
69.385 21.463516
69.390 21.061008
69.395 20.965586
69.400 21.11545
69.405 20.844107
69.410 21.258728
69.415 21.071741
69.420 21.152803
69.425 21.781353
69.430 22.045387
69.435 22.546371
69.440 22.472441
69.445 21.672218
69.450 20.708904
69.455 19.9974
69.460 19.380293
69.465 19.211296
69.470 19.320215
69.475 19.559885
69.480 19.597776
69.485 20.158867
69.490 20.253464
69.495 20.207039
69.500 19.534166
69.505 18.675962
69.510 18.444624
69.515 17.983095
69.520 17.500322
69.525 17.331509
69.530 17.290609
69.535 17.892178
69.540 17.949358
69.545 18.05769
69.550 18.914862
69.555 19.993235
69.560 20.108803
69.565 19.62742
69.570 19.198479
69.575 19.37364
69.580 19.508533
69.585 18.622128
69.590 17.958616
69.595 17.965998
69.600 17.700727
69.605 17.951622
69.610 17.415716
69.615 17.01193
69.620 17.798119
69.625 18.460505
69.630 19.412825
69.635 19.876894
69.640 19.57655
69.645 19.761175
69.650 19.727396
69.655 19.514547
69.660 18.839739
69.665 17.913998
69.670 17.544449
69.675 17.847301
69.680 18.378654
69.685 18.372351
69.690 18.415285
69.695 18.652979
69.700 18.943382
69.705 19.588421
69.710 19.660666
69.715 19.349148
69.720 19.359425
69.725 18.70212
69.730 18.033381
69.735 18.334118
69.740 17.356295
69.745 17.007999
69.750 16.564236
69.755 16.939253
69.760 17.608843
69.765 18.055109
69.770 18.103186
69.775 18.046143
69.780 18.259996
69.785 18.646845
69.790 18.152851
69.795 17.902493
69.800 17.567768
69.805 17.663843
69.810 17.988937
69.815 18.25436
69.820 17.704308
69.825 17.568056
69.830 18.105114
69.835 19.132818
69.840 19.203053
69.845 19.06955
69.850 19.383474
69.855 19.455606
69.860 19.150391
69.865 18.665655
69.870 18.405041
69.875 18.306801
69.880 17.563385
69.885 17.556215
69.890 18.180166
69.895 18.489971
69.900 18.297472
69.905 17.886053
69.910 18.169348
69.915 18.480606
69.920 18.595039
69.925 18.677652
69.930 19.017355
69.935 18.63703
69.940 18.807461
69.945 18.972895
69.950 19.243311
69.955 19.1737
69.960 18.88592
69.965 18.807024
69.970 19.094568
69.975 19.121166
69.980 18.580444
69.985 18.371864
69.990 18.35285
69.995 18.061253
70.000 18.228148
70.005 18.176046
70.010 18.004261
70.015 18.272589
70.020 18.685028
70.025 18.511955
70.030 18.921152
70.035 18.652687
70.040 19.100634
70.045 19.037779
70.050 19.022568
70.055 18.187466
70.060 18.437777
70.065 18.00094
70.070 18.307232
70.075 18.033791
70.080 18.096758
70.085 18.580708
70.090 19.008442
70.095 19.397675
70.100 19.375971
70.105 18.706722
70.110 18.445562
70.115 18.32514
70.120 18.686357
70.125 18.338047
70.130 18.338858
70.135 18.373718
70.140 19.099192
70.145 20.00351
70.150 20.066805
70.155 19.445196
70.160 19.78933
70.165 19.71286
70.170 20.192719
70.175 19.855663
70.180 18.818289
70.185 18.696356
70.190 19.499065
70.195 19.528862
70.200 19.348219
70.205 18.903402
70.210 18.856159
70.215 19.223656
70.220 19.059269
70.225 18.272963
70.230 18.124952
70.235 18.365
70.240 18.726883
70.245 19.621952
70.250 20.416475
70.255 20.346132
70.260 20.31259
70.265 20.665968
70.270 20.568607
70.275 20.76774
70.280 19.929935
70.285 19.358749
70.290 19.456266
70.295 18.947405
70.300 18.912378
70.305 18.272097
70.310 17.875103
70.315 17.976507
70.320 17.662071
70.325 17.692768
70.330 18.231773
70.335 18.296976
70.340 18.465815
70.345 18.021673
70.350 17.868261
70.355 18.097563
70.360 18.217941
70.365 18.147646
70.370 17.787775
70.375 18.664816
70.380 18.80357
70.385 18.405817
70.390 18.267878
70.395 18.043364
70.400 18.409731
70.405 18.362225
70.410 17.677017
70.415 17.520071
70.420 18.005074
70.425 18.363451
70.430 18.517088
70.435 17.908272
70.440 18.241051
70.445 18.364065
70.450 18.759325
70.455 19.093018
70.460 18.856514
70.465 18.366039
70.470 18.23423
70.475 17.938593
70.480 17.489822
70.485 16.80616
70.490 16.488157
70.495 16.547661
70.500 16.86326
70.505 16.929937
70.510 17.020178
70.515 17.920696
70.520 18.216124
70.525 18.117893
70.530 18.088078
70.535 18.10873
70.540 18.084919
70.545 17.638685
70.550 17.028469
70.555 17.23377
70.560 17.660519
70.565 17.732082
70.570 18.004261
70.575 17.929127
70.580 18.846458
70.585 18.70331
70.590 17.774715
70.595 16.972448
70.600 16.68877
70.605 16.542826
70.610 17.084724
70.615 16.626158
70.620 17.498787
70.625 17.782181
70.630 18.391817
70.635 18.603249
70.640 17.720436
70.645 18.01741
70.650 18.231113
70.655 17.893538
70.660 17.848022
70.665 17.450245
70.670 17.156689
70.675 17.614185
70.680 17.47751
70.685 17.378197
70.690 17.598591
70.695 17.547638
70.700 17.273792
70.705 17.425516
70.710 16.998241
70.715 16.610584
70.720 16.795696
70.725 16.696814
70.730 17.138227
70.735 17.448835
70.740 17.638403
70.745 17.69161
70.750 17.674509
70.755 17.667076
70.760 18.339003
70.765 17.845156
70.770 18.105947
70.775 18.152046
70.780 18.191265
70.785 18.017031
70.790 17.993259
70.795 18.04884
70.800 18.33564
70.805 18.74164
70.810 18.680176
70.815 19.163321
70.820 19.219711
70.825 18.934864
70.830 18.864964
70.835 18.703178
70.840 18.358717
70.845 17.995895
70.850 17.581867
70.855 17.57601
70.860 17.588905
70.865 17.844475
70.870 17.856972
70.875 17.986664
70.880 17.629187
70.885 17.483555
70.890 17.927933
70.895 18.19161
70.900 17.573193
70.905 17.778219
70.910 18.128273
70.915 18.385159
70.920 18.575129
70.925 17.954271
70.930 17.381889
70.935 17.151323
70.940 16.795425
70.945 17.206165
70.950 17.35092
70.955 17.843971
70.960 18.294043
70.965 19.182634
70.970 19.497381
70.975 19.388355
70.980 19.351889
70.985 19.19619
70.990 18.200569
70.995 17.611233
71.000 17.19986
71.005 17.536764
71.010 17.818962
71.015 17.457357
71.020 17.794909
71.025 18.104967
71.030 17.868382
71.035 17.73797
71.040 17.695457
71.045 17.415413
71.050 17.318546
71.055 17.590181
71.060 17.992867
71.065 18.729162
71.070 18.268356
71.075 18.095417
71.080 18.87587
71.085 18.457302
71.090 17.978975
71.095 17.197454
71.100 17.465096
71.105 17.916637
71.110 17.684343
71.115 17.169714
71.120 17.543526
71.125 17.530394
71.130 17.740267
71.135 17.412226
71.140 17.513493
71.145 17.026691
71.150 16.534481
71.155 16.344181
71.160 17.507996
71.165 18.414507
71.170 18.346334
71.175 18.251879
71.180 18.684999
71.185 19.048145
71.190 19.000326
71.195 18.132511
71.200 17.648279
71.205 17.940706
71.210 18.033762
71.215 18.23159
71.220 18.453381
71.225 18.425562
71.230 17.869493
71.235 17.332497
71.240 16.914072
71.245 16.972174
71.250 17.091028
71.255 17.247971
71.260 17.451267
71.265 17.830681
71.270 18.15773
71.275 18.341188
71.280 17.925598
71.285 17.533598
71.290 17.671391
71.295 17.520073
71.300 17.76074
71.305 17.941149
71.310 17.862087
71.315 17.965815
71.320 18.31761
71.325 18.151779
71.330 18.254469
71.335 18.244736
71.340 18.202059
71.345 18.245527
71.350 17.935066
71.355 17.848888
71.360 18.243513
71.365 18.450323
71.370 18.152803
71.375 18.281683
71.380 18.295137
71.385 18.498917
71.390 18.018469
71.395 17.396391
71.400 17.100355
71.405 17.576435
71.410 17.696247
71.415 18.533064
71.420 19.019405
71.425 19.275494
71.430 19.116037
71.435 18.677773
71.440 18.415234
71.445 18.341246
71.450 17.975336
71.455 17.750706
71.460 17.715149
71.465 17.923046
71.470 17.405781
71.475 16.869776
71.480 16.669416
71.485 16.674686
71.490 16.857101
71.495 16.793619
71.500 16.558046
71.505 16.774319
71.510 16.893312
71.515 16.804737
71.520 16.482262
71.525 16.211927
71.530 15.926869
71.535 16.616278
71.540 17.593729
71.545 17.694311
71.550 17.602041
71.555 18.09376
71.560 18.204557
71.565 18.571321
71.570 17.929056
71.575 17.561285
71.580 17.54977
71.585 17.819027
71.590 17.762718
71.595 17.811472
71.600 17.935966
71.605 17.939526
71.610 17.430311
71.615 16.933765
71.620 16.704819
71.625 16.626188
71.630 16.397341
71.635 16.6675
71.640 16.974491
71.645 17.973017
71.650 18.823538
71.655 19.075903
71.660 18.95052
71.665 18.832531
71.670 18.597534
71.675 18.671661
71.680 18.256132
71.685 17.774776
71.690 17.308271
71.695 18.00806
71.700 18.208132
71.705 18.25235
71.710 18.002789
71.715 17.79673
71.720 18.171547
71.725 17.985653
71.730 17.646265
71.735 17.840677
71.740 17.492527
71.745 17.949524
71.750 17.96603
71.755 17.764267
71.760 17.990976
71.765 17.810322
71.770 17.739992
71.775 17.704441
71.780 17.613346
71.785 17.716753
71.790 17.992544
71.795 17.937611
71.800 18.35873
71.805 18.289557
71.810 18.506405
71.815 18.792635
71.820 19.054821
71.825 19.02384
71.830 18.707281
71.835 18.810884
71.840 19.200258
71.845 19.295839
71.850 18.573441
71.855 18.36997
71.860 18.475538
71.865 18.482098
71.870 17.774054
71.875 17.214684
71.880 16.774977
71.885 16.946426
71.890 16.568468
71.895 16.608408
71.900 16.325117
71.905 16.557692
71.910 17.34996
71.915 17.222668
71.920 17.479113
71.925 17.445425
71.930 17.457726
71.935 18.311573
71.940 18.39945
71.945 18.591034
71.950 19.086548
71.955 19.258831
71.960 19.29347
71.965 18.942898
71.970 18.844431
71.975 18.729494
71.980 19.009846
71.985 18.816519
71.990 19.138214
71.995 19.719414
72.000 20.531275
72.005 20.171844
72.010 19.501518
72.015 19.089878
72.020 19.317007
72.025 18.964361
72.030 18.154587
72.035 17.473274
72.040 16.944437
72.045 17.727413
72.050 17.173586
72.055 16.742252
72.060 16.808287
72.065 17.021362
72.070 17.946976
72.075 18.499952
72.080 18.342205
72.085 18.601173
72.090 18.39481
72.095 18.491064
72.100 18.537868
72.105 18.232986
72.110 18.575041
72.115 18.969358
72.120 18.985308
72.125 19.610344
72.130 19.386187
72.135 19.385372
72.140 19.240234
72.145 18.387699
72.150 18.465782
72.155 18.026649
72.160 17.783724
72.165 18.178652
72.170 17.77709
72.175 17.862982
72.180 18.211159
72.185 17.993744
72.190 18.075521
72.195 18.17276
72.200 18.136009
72.205 18.914639
72.210 18.67775
72.215 17.878929
72.220 18.00741
72.225 18.107563
72.230 18.100914
72.235 17.551077
72.240 17.138727
72.245 17.000122
72.250 17.189985
72.255 17.547132
72.260 17.745163
72.265 18.082489
72.270 18.618109
72.275 18.767807
72.280 19.088156
72.285 19.004698
72.290 17.827309
72.295 17.626108
72.300 17.136536
72.305 16.492552
72.310 16.75305
72.315 17.309509
72.320 17.767117
72.325 17.71789
72.330 17.280155
72.335 17.609406
72.340 17.628609
72.345 17.307514
72.350 17.297762
72.355 17.893515
72.360 18.496641
72.365 18.654823
72.370 18.875198
72.375 19.392662
72.380 18.666689
72.385 18.68928
72.390 18.402107
72.395 18.146603
72.400 17.676172
72.405 17.208153
72.410 17.716766
72.415 18.674986
72.420 18.831083
72.425 18.814074
72.430 19.741793
72.435 19.994471
72.440 19.756712
72.445 19.152842
72.450 18.04167
72.455 17.724619
72.460 17.721062
72.465 17.196123
72.470 17.101515
72.475 17.25491
72.480 17.246557
72.485 17.524546
72.490 17.645594
72.495 17.680904
72.500 17.979439
72.505 18.2015
72.510 18.050882
72.515 18.192818
72.520 18.102736
72.525 17.785782
72.530 18.049129
72.535 18.117249
72.540 17.801565
72.545 17.671434
72.550 18.088146
72.555 18.564629
72.560 18.935356
72.565 18.713612
72.570 19.154478
72.575 18.996857
72.580 18.885878
72.585 18.594809
72.590 17.99423
72.595 17.041819
72.600 16.480167
72.605 16.574697
72.610 17.122902
72.615 17.839605
72.620 17.866121
72.625 18.450035
72.630 19.061079
72.635 19.251169
72.640 19.070299
72.645 18.912367
72.650 18.151894
72.655 17.956367
72.660 18.275593
72.665 18.104834
72.670 17.288435
72.675 17.316658
72.680 16.627251
72.685 16.487741
72.690 16.426914
72.695 16.071302
72.700 16.386461
72.705 16.649683
72.710 16.805304
72.715 16.88921
72.720 16.539391
72.725 16.13798
72.730 16.186598
72.735 15.867399
72.740 15.656267
72.745 15.510712
72.750 15.580974
72.755 15.519052
72.760 15.357038
72.765 15.554394
72.770 15.928688
72.775 15.891046
72.780 16.153265
72.785 16.352097
72.790 16.539846
72.795 16.317923
72.800 16.010153
72.805 15.745352
72.810 15.851275
72.815 15.997556
72.820 16.17407
72.825 16.919065
72.830 17.407417
72.835 18.138678
72.840 17.882948
72.845 17.852829
72.850 17.444366
72.855 16.606464
72.860 15.834961
72.865 15.145477
72.870 15.015388
72.875 15.192728
72.880 14.450925
72.885 14.479861
72.890 15.131552
72.895 14.830132
72.900 14.405664
72.905 13.982968
72.910 14.445457
72.915 14.697253
72.920 14.750512
72.925 14.850524
72.930 15.505836
72.935 15.982542
72.940 16.229439
72.945 16.069286
72.950 16.176615
72.955 15.996761
72.960 16.396332
72.965 16.442665
72.970 16.069538
72.975 15.737953
72.980 15.81419
72.985 16.110926
72.990 15.555254
72.995 15.344571
73.000 16.105036
