!@!!GADDS PLOTSO FILE: Chi integration type
!@!!Title/SampleName: map-31
!@!!Comment: ?
!@!!User: Bruker Instrument Administrator
!@!!Site: University of Illinois Chicago
!@!!Frame: map-31_01_000.gfrm
!@!!Wavelengths    1.54184   1.54056   1.54439
!@!!Frame angles: 2Theta: 63.000 Omega: 50.000 Phi: 0.000 Chi: 90.000
!@!!Integration range: 2Theta: 53.000 to 73.000  Gamma: -105.000 to -75.000
!@!!Integration method: bin normalized
!@!N
!@!SS
!@!M
!@!L 0.0 0.0 0.0 0.0
!@!XDegrees
!@!YCounts
53.000 9.629857
53.005 9.416368
53.010 9.226492
53.015 9.62949
53.020 10.084201
53.025 10.50157
53.030 10.38233
53.035 10.620424
53.040 10.5105
53.045 11.311662
53.050 11.615433
53.055 12.324882
53.060 12.831728
53.065 12.968191
53.070 12.960302
53.075 13.084053
53.080 12.290238
53.085 11.860991
53.090 11.227498
53.095 11.167126
53.100 11.532701
53.105 11.746185
53.110 11.77561
53.115 11.864059
53.120 11.406403
53.125 11.134622
53.130 10.791312
53.135 10.345668
53.140 10.321417
53.145 10.129309
53.150 10.276443
53.155 10.479204
53.160 10.840962
53.165 11.017022
53.170 10.923305
53.175 11.132075
53.180 11.068312
53.185 11.19015
53.190 11.41968
53.195 10.862176
53.200 11.170115
53.205 11.147372
53.210 10.932073
53.215 10.775081
53.220 10.434583
53.225 10.176436
53.230 10.552473
53.235 10.736682
53.240 11.09545
53.245 11.194393
53.250 11.346434
53.255 11.804339
53.260 11.65039
53.265 11.10428
53.270 11.050832
53.275 11.215008
53.280 11.408531
53.285 10.925935
53.290 10.522411
53.295 10.958283
53.300 10.876312
53.305 10.714079
53.310 10.595204
53.315 10.880442
53.320 11.217274
53.325 11.274137
53.330 11.249915
53.335 11.515502
53.340 11.290545
53.345 11.242983
53.350 11.211261
53.355 10.663507
53.360 10.521844
53.365 10.628313
53.370 10.578654
53.375 11.000648
53.380 10.692965
53.385 10.947855
53.390 11.80995
53.395 11.659348
53.400 11.900517
53.405 11.827575
53.410 11.826479
53.415 11.830669
53.420 11.227879
53.425 10.918508
53.430 10.973391
53.435 10.868832
53.440 10.872783
53.445 11.132412
53.450 11.25493
53.455 11.505891
53.460 11.213678
53.465 11.123013
53.470 11.467569
53.475 11.386722
53.480 11.051995
53.485 10.577763
53.490 10.472213
53.495 10.891404
53.500 10.819029
53.505 10.435385
53.510 10.469923
53.515 10.674005
53.520 11.019542
53.525 10.855726
53.530 10.835302
53.535 10.835961
53.540 11.000208
53.545 11.138106
53.550 10.862453
53.555 11.015194
53.560 11.216399
53.565 11.273908
53.570 11.311228
53.575 11.178411
53.580 11.191042
53.585 11.364623
53.590 11.520448
53.595 12.127911
53.600 12.226928
53.605 11.768722
53.610 11.81698
53.615 11.694948
53.620 11.482237
53.625 11.422423
53.630 10.599886
53.635 10.640906
53.640 11.189063
53.645 11.056076
53.650 11.125399
53.655 11.088151
53.660 11.18027
53.665 11.282237
53.670 11.318667
53.675 11.153704
53.680 11.231566
53.685 11.49767
53.690 11.464057
53.695 11.056071
53.700 11.009897
53.705 10.772295
53.710 10.402775
53.715 10.210283
53.720 10.252779
53.725 10.430158
53.730 10.526317
53.735 10.694955
53.740 10.955911
53.745 11.410902
53.750 11.517995
53.755 11.158108
53.760 11.208153
53.765 11.111681
53.770 10.58004
53.775 10.601574
53.780 10.653448
53.785 10.729844
53.790 10.676647
53.795 10.26595
53.800 10.530643
53.805 10.955832
53.810 10.662716
53.815 10.503395
53.820 10.610406
53.825 11.024602
53.830 11.579862
53.835 11.754849
53.840 11.687476
53.845 11.602154
53.850 11.641361
53.855 11.822046
53.860 11.876622
53.865 11.503318
53.870 10.860838
53.875 10.698634
53.880 10.922154
53.885 11.381122
53.890 11.148739
53.895 10.764721
53.900 10.714525
53.905 10.914674
53.910 10.753731
53.915 10.72648
53.920 10.498363
53.925 10.040714
53.930 10.165246
53.935 10.077632
53.940 10.545891
53.945 10.563885
53.950 10.087625
53.955 10.085409
53.960 10.764556
53.965 11.396086
53.970 11.421892
53.975 11.214588
53.980 11.359079
53.985 11.264876
53.990 11.253476
53.995 10.971145
54.000 10.634295
54.005 10.476258
54.010 10.470387
54.015 10.401949
54.020 10.316295
54.025 10.441886
54.030 10.3873
54.035 10.637403
54.040 11.2706
54.045 11.21708
54.050 11.567954
54.055 12.294496
54.060 12.354797
54.065 12.346221
54.070 12.878591
54.075 12.622721
54.080 13.047623
54.085 13.29477
54.090 12.972399
54.095 12.655954
54.100 12.407094
54.105 11.614006
54.110 11.336936
54.115 11.242437
54.120 10.996388
54.125 11.458921
54.130 11.92677
54.135 12.172933
54.140 12.650304
54.145 13.250517
54.150 13.14779
54.155 12.886003
54.160 12.26258
54.165 12.138137
54.170 12.040209
54.175 11.790705
54.180 11.507164
54.185 11.387345
54.190 11.467714
54.195 11.139463
54.200 10.812377
54.205 10.726214
54.210 10.755903
54.215 10.746419
54.220 10.737138
54.225 10.998746
54.230 11.24528
54.235 11.491483
54.240 12.008285
54.245 12.243303
54.250 12.111011
54.255 12.216294
54.260 12.547
54.265 12.547288
54.270 12.060535
54.275 11.603475
54.280 11.45283
54.285 12.254474
54.290 12.203191
54.295 11.472209
54.300 11.189206
54.305 11.886227
54.310 12.157192
54.315 11.854862
54.320 11.411661
54.325 11.802187
54.330 12.494706
54.335 13.048499
54.340 12.675394
54.345 12.450544
54.350 12.710827
54.355 12.557965
54.360 12.727063
54.365 12.99482
54.370 13.359711
54.375 13.581573
54.380 13.435949
54.385 13.258188
54.390 12.833489
54.395 12.627131
54.400 12.176528
54.405 11.487915
54.410 11.400106
54.415 11.74638
54.420 11.496164
54.425 11.523862
54.430 11.535625
54.435 11.28619
54.440 11.636173
54.445 11.851387
54.450 11.469738
54.455 11.532146
54.460 11.474947
54.465 11.851229
54.470 12.047068
54.475 11.91041
54.480 11.973386
54.485 12.388703
54.490 12.667089
54.495 12.808182
54.500 12.82412
54.505 13.117418
54.510 13.288075
54.515 13.293645
54.520 13.873239
54.525 14.605274
54.530 14.647587
54.535 14.230954
54.540 13.945594
54.545 14.062743
54.550 14.128601
54.555 13.313787
54.560 12.90903
54.565 12.704652
54.570 12.726149
54.575 12.395891
54.580 12.247148
54.585 12.312935
54.590 12.195951
54.595 12.440192
54.600 12.62347
54.605 12.890205
54.610 13.621777
54.615 13.555737
54.620 12.968908
54.625 13.161288
54.630 13.0445
54.635 12.816051
54.640 12.512717
54.645 11.937693
54.650 11.357821
54.655 11.40487
54.660 11.586428
54.665 11.520051
54.670 12.260829
54.675 12.647455
54.680 13.214595
54.685 13.943727
54.690 14.093957
54.695 13.409818
54.700 12.910239
54.705 12.190007
54.710 11.864797
54.715 11.840659
54.720 11.509614
54.725 11.360355
54.730 12.228186
54.735 12.410949
54.740 12.002224
54.745 11.547987
54.750 11.574609
54.755 11.661506
54.760 11.194437
54.765 11.089693
54.770 11.602397
54.775 12.245647
54.780 12.399113
54.785 12.187244
54.790 12.574811
54.795 12.885089
54.800 12.670785
54.805 12.754375
54.810 12.720223
54.815 12.30973
54.820 12.253407
54.825 12.025156
54.830 12.053188
54.835 12.223443
54.840 12.176307
54.845 12.395815
54.850 13.142127
54.855 13.075187
54.860 12.536813
54.865 12.350485
54.870 12.191315
54.875 11.874348
54.880 12.354791
54.885 12.365951
54.890 12.649772
54.895 13.391056
54.900 13.342595
54.905 13.217834
54.910 13.226871
54.915 12.862233
54.920 13.04232
54.925 12.941879
54.930 13.065975
54.935 13.128801
54.940 13.288536
54.945 13.527947
54.950 13.485949
54.955 13.435432
54.960 13.191267
54.965 12.771099
54.970 12.801044
54.975 12.786699
54.980 12.847408
54.985 12.946613
54.990 12.557673
54.995 12.638155
55.000 12.480786
55.005 12.323863
55.010 11.870335
55.015 10.659925
55.020 10.374681
55.025 10.57559
55.030 10.880752
55.035 11.082961
55.040 11.142241
55.045 11.8689
55.050 13.228047
55.055 13.551657
55.060 13.437433
55.065 13.276678
55.070 13.736759
55.075 13.520688
55.080 13.452106
55.085 12.803353
55.090 12.698238
55.095 13.03011
55.100 13.00659
55.105 12.907286
55.110 13.207841
55.115 13.425457
55.120 14.100803
55.125 14.144248
55.130 14.092247
55.135 14.008102
55.140 13.69175
55.145 13.365997
55.150 12.848419
55.155 12.560062
55.160 12.300942
55.165 12.374307
55.170 12.65643
55.175 12.931026
55.180 13.395711
55.185 13.275907
55.190 13.246217
55.195 13.814795
55.200 13.44475
55.205 13.615787
55.210 13.968942
55.215 13.464609
55.220 13.714668
55.225 13.65208
55.230 13.210219
55.235 13.309742
55.240 13.083688
55.245 12.681199
55.250 12.880666
55.255 13.056283
55.260 13.338602
55.265 13.571578
55.270 13.562089
55.275 13.597142
55.280 13.646843
55.285 13.783398
55.290 13.390197
55.295 13.021985
55.300 12.884794
55.305 13.098145
55.310 13.441579
55.315 13.125194
55.320 12.805745
55.325 12.550762
55.330 12.5904
55.335 12.79995
55.340 12.846338
55.345 12.681242
55.350 13.130353
55.355 13.813201
55.360 14.091344
55.365 13.927187
55.370 13.652099
55.375 13.084942
55.380 12.812545
55.385 12.249708
55.390 12.316504
55.395 12.182277
55.400 12.100839
55.405 12.226552
55.410 12.203116
55.415 12.463621
55.420 12.572918
55.425 11.98441
55.430 11.872493
55.435 11.856496
55.440 11.862775
55.445 12.41852
55.450 13.11503
55.455 13.319242
55.460 13.619608
55.465 14.124375
55.470 14.305357
55.475 14.505763
55.480 14.213646
55.485 13.945269
55.490 13.7468
55.495 13.960731
55.500 14.359409
55.505 14.222892
55.510 13.764552
55.515 13.594606
55.520 13.504518
55.525 13.863445
55.530 13.362405
55.535 12.787959
55.540 12.864813
55.545 13.212528
55.550 13.123528
55.555 13.104627
55.560 13.061265
55.565 13.669765
55.570 14.011576
55.575 14.252306
55.580 14.158881
55.585 14.288916
55.590 13.915089
55.595 14.174601
55.600 13.738997
55.605 13.527273
55.610 13.239416
55.615 13.157538
55.620 12.879111
55.625 13.171681
55.630 13.45105
55.635 13.735492
55.640 13.924416
55.645 14.279694
55.650 14.224995
55.655 14.90294
55.660 14.59054
55.665 13.864832
55.670 13.169246
55.675 12.479517
55.680 12.278387
55.685 12.674345
55.690 12.424367
55.695 12.292733
55.700 12.500004
55.705 12.947004
55.710 13.783167
55.715 13.835775
55.720 13.613276
55.725 13.702266
55.730 13.594971
55.735 13.472339
55.740 13.212834
55.745 13.328218
55.750 13.528521
55.755 13.244829
55.760 13.215325
55.765 13.404935
55.770 13.887583
55.775 14.198884
55.780 14.146588
55.785 14.254346
55.790 14.393992
55.795 14.979318
55.800 14.783269
55.805 14.566101
55.810 14.381229
55.815 14.304821
55.820 14.311197
55.825 14.084595
55.830 14.312851
55.835 14.898493
55.840 14.904819
55.845 14.960591
55.850 14.773381
55.855 14.092218
55.860 13.537749
55.865 13.088426
55.870 12.645247
55.875 12.848902
55.880 12.787089
55.885 12.955488
55.890 13.776707
55.895 14.179358
55.900 14.169322
55.905 14.014962
55.910 13.840425
55.915 13.824945
55.920 13.862241
55.925 14.125595
55.930 14.299254
55.935 14.520771
55.940 14.620435
55.945 14.61737
55.950 14.391976
55.955 14.036551
55.960 13.815391
55.965 13.256855
55.970 12.986173
55.975 12.97516
55.980 13.08948
55.985 13.209298
55.990 13.07239
55.995 12.565216
56.000 12.615122
56.005 12.86349
56.010 12.450658
56.015 11.696801
56.020 11.963789
56.025 12.34232
56.030 12.897114
56.035 12.985758
56.040 12.751227
56.045 13.18509
56.050 13.587859
56.055 13.249695
56.060 12.930716
56.065 12.508416
56.070 12.549701
56.075 12.382524
56.080 12.109065
56.085 11.520952
56.090 11.115005
56.095 10.848006
56.100 10.833457
56.105 10.777902
56.110 11.253247
56.115 11.951215
56.120 12.849477
56.125 13.399599
56.130 14.273565
56.135 14.498405
56.140 14.639594
56.145 14.710137
56.150 13.923551
56.155 14.194559
56.160 14.281901
56.165 14.066666
56.170 14.447319
56.175 14.30147
56.180 14.672777
56.185 14.767608
56.190 14.602522
56.195 14.040154
56.200 13.855329
56.205 13.168635
56.210 13.369514
56.215 12.975214
56.220 12.774848
56.225 12.740118
56.230 13.323479
56.235 13.753563
56.240 14.165148
56.245 14.477903
56.250 14.772153
56.255 15.000658
56.260 15.027055
56.265 15.021852
56.270 15.152726
56.275 15.518488
56.280 14.927409
56.285 15.038036
56.290 15.585012
56.295 15.852164
56.300 15.842795
56.305 15.704889
56.310 15.213277
56.315 15.537855
56.320 15.537013
56.325 15.3964
56.330 14.880711
56.335 14.724372
56.340 14.78376
56.345 15.432034
56.350 15.350922
56.355 15.170807
56.360 14.95432
56.365 14.505245
56.370 14.014846
56.375 13.546901
56.380 12.683117
56.385 13.015678
56.390 13.146151
56.395 13.757463
56.400 14.502877
56.405 14.509094
56.410 14.477563
56.415 15.041756
56.420 14.715753
56.425 14.073293
56.430 13.808577
56.435 13.580783
56.440 13.616872
56.445 13.250951
56.450 13.004122
56.455 13.117698
56.460 13.404206
56.465 13.854862
56.470 13.714838
56.475 14.082355
56.480 14.610261
56.485 14.832295
56.490 14.668957
56.495 14.056168
56.500 12.997725
56.505 12.972738
56.510 12.933035
56.515 12.374458
56.520 12.536398
56.525 13.020832
56.530 13.764796
56.535 14.406052
56.540 14.560108
56.545 14.605961
56.550 14.786941
56.555 14.818465
56.560 14.670151
56.565 13.931805
56.570 14.530451
56.575 14.419953
56.580 14.55831
56.585 14.687024
56.590 14.451044
56.595 14.671015
56.600 15.136399
56.605 14.539413
56.610 14.803143
56.615 14.799282
56.620 14.587715
56.625 14.9423
56.630 14.669136
56.635 14.321293
56.640 14.262769
56.645 14.181457
56.650 13.838728
56.655 13.892406
56.660 14.030103
56.665 13.755268
56.670 14.153488
56.675 14.166381
56.680 14.317868
56.685 14.737051
56.690 15.160423
56.695 15.660278
56.700 16.627216
56.705 17.21344
56.710 17.416777
56.715 17.470478
56.720 17.676384
56.725 17.460426
56.730 16.382437
56.735 16.089607
56.740 15.257598
56.745 15.02619
56.750 15.028877
56.755 14.422185
56.760 14.499667
56.765 14.727036
56.770 15.071967
56.775 15.536264
56.780 15.824165
56.785 15.495758
56.790 15.655773
56.795 15.967772
56.800 16.292448
56.805 15.972321
56.810 15.952802
56.815 15.690635
56.820 15.847461
56.825 15.858278
56.830 15.704265
56.835 15.323026
56.840 15.735269
56.845 15.796408
56.850 15.507966
56.855 15.37432
56.860 15.037634
56.865 15.091861
56.870 15.007329
56.875 14.348099
56.880 14.119243
56.885 14.113148
56.890 13.901268
56.895 14.654151
56.900 14.663123
56.905 14.693435
56.910 14.600189
56.915 14.594529
56.920 15.035597
56.925 15.186073
56.930 14.624578
56.935 14.36127
56.940 14.471375
56.945 14.448727
56.950 14.383674
56.955 14.486832
56.960 14.723013
56.965 14.806055
56.970 14.60622
56.975 14.680381
56.980 14.898521
56.985 15.18123
56.990 15.343493
56.995 14.97279
57.000 14.726474
57.005 15.134254
57.010 15.052038
57.015 15.225422
57.020 14.872906
57.025 14.627606
57.030 14.633487
57.035 14.234069
57.040 13.894149
57.045 13.832527
57.050 13.704302
57.055 13.907614
57.060 13.554346
57.065 13.96401
57.070 13.80624
57.075 13.875191
57.080 14.089855
57.085 14.219028
57.090 14.441036
57.095 14.677902
57.100 14.605504
57.105 15.074892
57.110 15.262316
57.115 15.057426
57.120 15.190899
57.125 15.159069
57.130 14.765265
57.135 14.619143
57.140 14.95545
57.145 15.456135
57.150 15.316818
57.155 14.976234
57.160 15.417584
57.165 15.52894
57.170 15.644782
57.175 15.163235
57.180 14.899771
57.185 14.618162
57.190 14.691868
57.195 14.244166
57.200 14.454456
57.205 14.231676
57.210 14.376078
57.215 14.287739
57.220 14.763744
57.225 14.652591
57.230 14.824675
57.235 14.928578
57.240 15.148271
57.245 14.915571
57.250 14.937618
57.255 14.643659
57.260 14.563826
57.265 14.564438
57.270 14.977736
57.275 15.090049
57.280 15.224079
57.285 15.116285
57.290 15.239223
57.295 15.348033
57.300 15.490243
57.305 15.187458
57.310 15.348771
57.315 15.364425
57.320 15.852707
57.325 16.078222
57.330 15.978803
57.335 15.472975
57.340 15.29942
57.345 15.229728
57.350 15.157785
57.355 14.761148
57.360 14.704322
57.365 15.382089
57.370 15.509882
57.375 15.872315
57.380 16.554192
57.385 17.015137
57.390 16.97308
57.395 17.003788
57.400 16.919029
57.405 16.737062
57.410 16.112494
57.415 15.083651
57.420 14.606446
57.425 15.154716
57.430 15.333803
57.435 14.897364
57.440 14.853031
57.445 14.861103
57.450 15.206565
57.455 15.083632
57.460 14.823589
57.465 14.701895
57.470 15.243726
57.475 15.834452
57.480 16.478991
57.485 16.940332
57.490 17.092752
57.495 17.073236
57.500 16.80361
57.505 16.878977
57.510 16.359406
57.515 15.870317
57.520 15.930714
57.525 15.933026
57.530 16.104239
57.535 16.187132
57.540 16.395403
57.545 16.625309
57.550 16.968767
57.555 16.712555
57.560 16.896257
57.565 17.124025
57.570 17.172934
57.575 16.618479
57.580 16.103212
57.585 15.62128
57.590 15.944448
57.595 15.785306
57.600 15.56364
57.605 15.632435
57.610 16.368923
57.615 16.849829
57.620 16.441553
57.625 16.581614
57.630 16.636766
57.635 16.614361
57.640 17.102636
57.645 16.948498
57.650 17.068382
57.655 17.369564
57.660 16.982143
57.665 17.226786
57.670 16.739157
57.675 16.316561
57.680 16.270926
57.685 16.306255
57.690 16.483135
57.695 16.464954
57.700 16.084093
57.705 16.461708
57.710 16.529694
57.715 16.793762
57.720 17.098383
57.725 17.423655
57.730 17.38273
57.735 17.417248
57.740 16.983534
57.745 16.747532
57.750 16.665905
57.755 16.041739
57.760 15.703336
57.765 15.52208
57.770 15.680778
57.775 15.929924
57.780 16.034622
57.785 16.017433
57.790 15.946447
57.795 15.697159
57.800 15.841777
57.805 15.340178
57.810 14.991993
57.815 14.672881
57.820 14.303876
57.825 14.51889
57.830 14.655073
57.835 14.63463
57.840 15.103452
57.845 15.372339
57.850 15.766486
57.855 15.810506
57.860 15.566476
57.865 16.342934
57.870 16.945236
57.875 17.107162
57.880 17.357136
57.885 17.576805
57.890 18.456078
57.895 18.51355
57.900 18.545809
57.905 18.004717
57.910 18.251066
57.915 18.368013
57.920 17.710594
57.925 17.390327
57.930 17.227266
57.935 17.147957
57.940 17.029753
57.945 16.637028
57.950 16.426039
57.955 16.519035
57.960 16.73881
57.965 17.167131
57.970 17.576542
57.975 18.345901
57.980 19.054874
57.985 19.744034
57.990 19.741447
57.995 20.203394
58.000 20.016726
58.005 19.317865
58.010 18.91024
58.015 18.155523
58.020 17.836443
58.025 18.178831
58.030 17.796442
58.035 17.642673
58.040 17.7208
58.045 17.55267
58.050 17.946775
58.055 18.081488
58.060 17.655283
58.065 17.748676
58.070 18.35219
58.075 18.499809
58.080 18.079678
58.085 17.798717
58.090 17.701384
58.095 18.206915
58.100 18.190937
58.105 18.088202
58.110 18.469776
58.115 18.432724
58.120 18.712278
58.125 19.164164
58.130 18.993187
58.135 18.994123
58.140 19.059132
58.145 19.040398
58.150 19.109356
58.155 18.790903
58.160 18.349039
58.165 18.346682
58.170 18.113335
58.175 17.005058
58.180 16.848743
58.185 16.702005
58.190 16.866449
58.195 16.879557
58.200 17.209982
58.205 17.754892
58.210 18.897156
58.215 19.877949
58.220 19.861883
58.225 19.283113
58.230 18.996143
58.235 18.898924
58.240 19.010153
58.245 18.972113
58.250 18.47069
58.255 19.477839
58.260 20.062256
58.265 20.399714
58.270 20.402643
58.275 20.508488
58.280 19.722557
58.285 19.354319
58.290 19.327892
58.295 19.671888
58.300 20.302893
58.305 21.14233
58.310 20.850067
58.315 21.405479
58.320 22.246563
58.325 21.812641
58.330 21.426306
58.335 21.295771
58.340 20.6213
58.345 21.063572
58.350 20.538374
58.355 20.408096
58.360 20.645096
58.365 21.345036
58.370 22.148293
58.375 22.577795
58.380 23.502647
58.385 25.314238
58.390 26.049011
58.395 26.952902
58.400 27.05607
58.405 26.691418
58.410 26.369629
58.415 25.755323
58.420 25.314951
58.425 24.957264
58.430 24.983788
58.435 24.682367
58.440 24.952269
58.445 25.869837
58.450 26.058636
58.455 26.048729
58.460 26.744177
58.465 27.468822
58.470 28.269342
58.475 28.260185
58.480 27.882154
58.485 28.269085
58.490 28.961061
58.495 29.314348
58.500 29.021315
58.505 29.280544
58.510 28.850304
58.515 28.662642
58.520 28.52634
58.525 28.072613
58.530 28.271578
58.535 28.645924
58.540 28.346388
58.545 28.656622
58.550 28.41563
58.555 28.824013
58.560 29.334038
58.565 28.858454
58.570 29.049978
58.575 29.352154
58.580 29.780092
58.585 30.496552
58.590 30.588291
58.595 29.927212
58.600 29.106955
58.605 28.699244
58.610 28.730574
58.615 28.752571
58.620 28.586512
58.625 28.987238
58.630 30.122021
58.635 30.595713
58.640 30.708092
58.645 30.134489
58.650 29.75429
58.655 29.684107
58.660 28.707197
58.665 27.718777
58.670 27.915741
58.675 27.831694
58.680 27.898764
58.685 27.819483
58.690 28.417202
58.695 29.21043
58.700 28.809692
58.705 28.31871
58.710 27.89843
58.715 27.784903
58.720 27.34222
58.725 26.24156
58.730 25.690569
58.735 25.567814
58.740 25.007212
58.745 25.075563
58.750 25.35972
58.755 25.903902
58.760 25.866377
58.765 25.266445
58.770 25.780216
58.775 25.802198
58.780 25.126028
58.785 24.775778
58.790 24.235418
58.795 24.418959
58.800 24.647467
58.805 24.598398
58.810 24.927126
58.815 25.144632
58.820 25.323963
58.825 25.121887
58.830 24.975809
58.835 24.155159
58.840 23.357227
58.845 22.745565
58.850 22.6833
58.855 22.15246
58.860 21.792919
58.865 21.56522
58.870 21.918882
58.875 22.105341
58.880 21.815723
58.885 21.825214
58.890 22.151617
58.895 22.128872
58.900 21.951927
58.905 22.105652
58.910 21.730116
58.915 21.512062
58.920 20.438766
58.925 20.02301
58.930 20.577911
58.935 21.141392
58.940 21.104187
58.945 21.948568
58.950 22.25313
58.955 22.150156
58.960 21.785576
58.965 21.431889
58.970 20.951683
58.975 20.497618
58.980 19.633825
58.985 19.479204
58.990 20.058638
58.995 20.783306
59.000 21.030527
59.005 21.263094
59.010 21.226563
59.015 21.303896
59.020 21.266775
59.025 21.463276
59.030 20.989851
59.035 20.360485
59.040 19.93918
59.045 20.455124
59.050 20.808609
59.055 21.375959
59.060 20.854731
59.065 20.818781
59.070 21.198689
59.075 21.223717
59.080 20.786432
59.085 20.439106
59.090 20.358501
59.095 20.891424
59.100 20.79277
59.105 20.710581
59.110 20.622734
59.115 21.193846
59.120 21.356279
59.125 21.143023
59.130 20.811296
59.135 20.912205
59.140 20.652313
59.145 20.410072
59.150 19.360128
59.155 18.812609
59.160 18.567713
59.165 18.772604
59.170 18.619326
59.175 18.385729
59.180 18.70315
59.185 18.687006
59.190 18.744032
59.195 18.598902
59.200 18.472403
59.205 19.096411
59.210 19.833195
59.215 19.651539
59.220 20.176138
59.225 20.45491
59.230 20.764063
59.235 20.306774
59.240 19.41493
59.245 18.820271
59.250 18.682158
59.255 18.148209
59.260 17.911705
59.265 17.543135
59.270 17.934633
59.275 18.574903
59.280 18.944525
59.285 19.701603
59.290 20.062319
59.295 19.685066
59.300 19.965078
59.305 19.824278
59.310 19.49497
59.315 19.223131
59.320 18.398537
59.325 18.193197
59.330 18.563786
59.335 18.289785
59.340 18.407475
59.345 18.228561
59.350 17.95623
59.355 18.998211
59.360 19.024542
59.365 19.249207
59.370 19.214846
59.375 18.633268
59.380 18.566278
59.385 18.905676
59.390 18.959522
59.395 19.133095
59.400 18.732967
59.405 18.48386
59.410 19.370438
59.415 19.382177
59.420 18.770147
59.425 18.02776
59.430 18.235056
59.435 18.54664
59.440 19.203323
59.445 18.98975
59.450 19.275961
59.455 19.706438
59.460 20.464224
59.465 20.113239
59.470 19.85638
59.475 19.404305
59.480 19.837843
59.485 20.06996
59.490 19.415743
59.495 19.004183
59.500 19.336699
59.505 18.999741
59.510 18.77346
59.515 18.173855
59.520 18.054951
59.525 18.401289
59.530 18.186085
59.535 18.278053
59.540 18.881432
59.545 19.269716
59.550 18.954723
59.555 18.820803
59.560 18.446884
59.565 18.294127
59.570 17.735109
59.575 16.876825
59.580 16.678265
59.585 16.729042
59.590 16.787344
59.595 17.364447
59.600 17.847937
59.605 18.167253
59.610 18.231411
59.615 17.594053
59.620 17.632513
59.625 17.737051
59.630 17.32456
59.635 16.674433
59.640 16.632553
59.645 17.211351
59.650 17.91704
59.655 18.411354
59.660 18.051828
59.665 18.170874
59.670 17.914349
59.675 18.047209
59.680 18.011671
59.685 17.634592
59.690 17.238173
59.695 17.755243
59.700 18.704193
59.705 19.335251
59.710 18.94305
59.715 18.787218
59.720 19.609634
59.725 19.47316
59.730 19.310263
59.735 18.721693
59.740 18.383808
59.745 18.378357
59.750 18.029221
59.755 17.112242
59.760 17.756111
59.765 18.514313
59.770 19.111595
59.775 19.530634
59.780 20.029564
59.785 20.284369
59.790 20.542486
59.795 19.990837
59.800 19.34153
59.805 18.676783
59.810 19.086485
59.815 19.371298
59.820 19.146637
59.825 18.699764
59.830 18.093071
59.835 17.7994
59.840 17.779217
59.845 17.67779
59.850 17.360052
59.855 17.760954
59.860 18.135706
59.865 18.138809
59.870 18.140215
59.875 18.155893
59.880 17.487003
59.885 16.960133
59.890 16.799623
59.895 16.885399
59.900 16.897055
59.905 16.791452
59.910 16.322401
59.915 17.011606
59.920 17.550817
59.925 17.672058
59.930 17.724087
59.935 17.845022
59.940 17.938818
59.945 18.099825
59.950 17.71991
59.955 17.861397
59.960 18.333168
59.965 18.564457
59.970 18.647808
59.975 18.59882
59.980 18.81551
59.985 18.890423
59.990 18.891592
59.995 18.871189
60.000 18.642794
60.005 18.722471
60.010 18.927668
60.015 18.845152
60.020 19.015678
60.025 18.309753
60.030 17.83703
60.035 17.374172
60.040 17.166281
60.045 16.981659
60.050 16.561581
60.055 16.196571
60.060 16.317331
60.065 16.380569
60.070 16.833004
60.075 16.909903
60.080 17.342627
60.085 17.6618
60.090 17.963182
60.095 18.0446
60.100 18.155081
60.105 18.457399
60.110 18.907864
60.115 18.671537
60.120 19.23624
60.125 19.179461
60.130 18.861057
60.135 18.923841
60.140 18.893267
60.145 18.454023
60.150 18.140533
60.155 17.597607
60.160 17.712454
60.165 18.017714
60.170 18.254578
60.175 18.922991
60.180 19.661921
60.185 20.272118
60.190 20.715162
60.195 20.558628
60.200 20.15896
60.205 19.082663
60.210 18.232973
60.215 17.801716
60.220 17.490698
60.225 17.426121
60.230 17.39547
60.235 17.853203
60.240 18.669769
60.245 19.126797
60.250 19.400988
60.255 19.128723
60.260 18.887653
60.265 19.386553
60.270 19.327581
60.275 18.504446
60.280 18.151712
60.285 17.446663
60.290 17.575178
60.295 17.273062
60.300 16.542841
60.305 16.670223
60.310 16.976568
60.315 17.434063
60.320 17.810591
60.325 18.427963
60.330 18.362032
60.335 18.75139
60.340 18.096804
60.345 18.104912
60.350 17.886122
60.355 17.512613
60.360 16.991859
60.365 16.88434
60.370 16.808605
60.375 17.206936
60.380 17.099279
60.385 17.202745
60.390 17.293577
60.395 17.591087
60.400 17.939795
60.405 18.320164
60.410 18.215149
60.415 17.99831
60.420 17.90225
60.425 18.030914
60.430 17.896927
60.435 17.748995
60.440 17.714695
60.445 17.862322
60.450 17.69717
60.455 17.480707
60.460 17.11339
60.465 17.634663
60.470 17.811838
60.475 17.872042
60.480 18.328028
60.485 18.652763
60.490 18.90626
60.495 19.209482
60.500 18.614435
60.505 18.365284
60.510 17.946907
60.515 17.686508
60.520 17.176849
60.525 17.015026
60.530 16.605326
60.535 15.995014
60.540 16.068495
60.545 16.192392
60.550 16.438231
60.555 16.511347
60.560 16.078642
60.565 16.42514
60.570 17.387953
60.575 17.309822
60.580 16.915518
60.585 16.738499
60.590 16.956408
60.595 17.286697
60.600 17.035744
60.605 16.683504
60.610 16.929564
60.615 17.235355
60.620 17.536341
60.625 17.718927
60.630 17.555641
60.635 17.873449
60.640 18.443668
60.645 18.523203
60.650 18.491177
60.655 17.950806
60.660 17.700058
60.665 18.196537
60.670 18.157448
60.675 17.047056
60.680 16.873545
60.685 16.457071
60.690 16.253572
60.695 16.191025
60.700 16.278847
60.705 16.000298
60.710 16.110004
60.715 16.177088
60.720 16.223625
60.725 16.090469
60.730 16.32798
60.735 16.058138
60.740 16.541315
60.745 17.181131
60.750 17.583891
60.755 18.057917
60.760 18.457237
60.765 18.461025
60.770 18.302034
60.775 18.197113
60.780 17.787462
60.785 17.450327
60.790 16.894234
60.795 16.489868
60.800 16.445213
60.805 17.041288
60.810 17.560911
60.815 18.127958
60.820 18.378857
60.825 18.967781
60.830 19.812536
60.835 20.145868
60.840 19.592276
60.845 19.547874
60.850 19.345881
60.855 19.414381
60.860 19.239109
60.865 18.533649
60.870 17.647356
60.875 17.52887
60.880 17.061695
60.885 16.53359
60.890 16.116848
60.895 16.005598
60.900 16.129198
60.905 16.391407
60.910 16.546274
60.915 16.469934
60.920 17.145905
60.925 17.519089
60.930 17.383904
60.935 17.864271
60.940 17.709984
60.945 17.181652
60.950 17.755039
60.955 17.400131
60.960 17.609419
60.965 17.67037
60.970 17.395836
60.975 17.83433
60.980 18.261885
60.985 17.21945
60.990 17.258047
60.995 16.857645
61.000 16.755342
61.005 16.770462
61.010 16.82342
61.015 16.938295
61.020 17.032049
61.025 16.793495
61.030 17.217344
61.035 17.318968
61.040 16.851608
61.045 16.269268
61.050 15.812983
61.055 15.999773
61.060 16.236187
61.065 15.62291
61.070 15.64958
61.075 16.314274
61.080 16.871157
61.085 16.88905
61.090 16.970695
61.095 16.940544
61.100 16.914682
61.105 17.002169
61.110 16.645538
61.115 16.450577
61.120 16.915791
61.125 16.937735
61.130 16.937531
61.135 17.082497
61.140 16.562809
61.145 16.805748
61.150 16.719975
61.155 16.491861
61.160 16.824415
61.165 17.178499
61.170 17.88163
61.175 18.632103
61.180 18.419233
61.185 18.398573
61.190 18.52338
61.195 18.547291
61.200 18.328207
61.205 17.769382
61.210 17.445879
61.215 17.774168
61.220 17.799517
61.225 17.902887
61.230 18.141012
61.235 18.573158
61.240 18.598196
61.245 18.906988
61.250 19.156715
61.255 19.436029
61.260 19.057526
61.265 18.614727
61.270 18.487379
61.275 18.165354
61.280 17.708902
61.285 17.57947
61.290 17.558674
61.295 17.815884
61.300 18.48628
61.305 18.303823
61.310 18.637722
61.315 18.207205
61.320 17.80319
61.325 17.360617
61.330 17.181429
61.335 16.412212
61.340 16.320148
61.345 16.34959
61.350 16.690083
61.355 17.21389
61.360 17.786278
61.365 18.070223
61.370 18.257498
61.375 17.270823
61.380 17.076685
61.385 17.009907
61.390 16.855032
61.395 16.608261
61.400 15.523968
61.405 15.480675
61.410 15.983481
61.415 15.84579
61.420 15.611716
61.425 15.674791
61.430 16.137426
61.435 16.415606
61.440 16.455919
61.445 17.508257
61.450 17.393068
61.455 17.357273
61.460 16.850029
61.465 16.635309
61.470 17.243332
61.475 17.982914
61.480 17.757772
61.485 18.100449
61.490 18.310488
61.495 18.659084
61.500 19.187954
61.505 18.849663
61.510 18.066607
61.515 18.251755
61.520 17.921858
61.525 17.812046
61.530 17.563225
61.535 17.203249
61.540 17.221401
61.545 17.433872
61.550 17.641626
61.555 18.065535
61.560 18.135481
61.565 17.796389
61.570 17.746489
61.575 17.790709
61.580 17.907412
61.585 17.800781
61.590 17.852791
61.595 17.755434
61.600 17.9979
61.605 17.568991
61.610 17.178312
61.615 16.720415
61.620 15.992579
61.625 15.790195
61.630 15.940633
61.635 15.946214
61.640 16.383984
61.645 16.211933
61.650 16.403614
61.655 16.594545
61.660 16.916632
61.665 17.471891
61.670 18.015175
61.675 18.099554
61.680 19.205454
61.685 19.608093
61.690 19.951288
61.695 19.750095
61.700 19.052563
61.705 18.285263
61.710 18.088211
61.715 17.255915
61.720 16.741245
61.725 16.855341
61.730 16.89299
61.735 16.698126
61.740 16.985632
61.745 17.062754
61.750 17.4363
61.755 17.849281
61.760 17.886206
61.765 17.868534
61.770 18.136475
61.775 17.903431
61.780 17.816517
61.785 17.707325
61.790 17.170443
61.795 16.992388
61.800 16.839394
61.805 16.674789
61.810 16.409361
61.815 16.439486
61.820 16.588137
61.825 17.371462
61.830 17.423691
61.835 17.130072
61.840 17.409958
61.845 18.078453
61.850 18.146629
61.855 17.821907
61.860 17.699141
61.865 17.554085
61.870 18.016371
61.875 18.151844
61.880 18.061005
61.885 18.117481
61.890 18.05493
61.895 18.104694
61.900 18.535284
61.905 18.769781
61.910 18.629057
61.915 18.605391
61.920 18.124723
61.925 17.638325
61.930 17.251642
61.935 17.104719
61.940 17.059568
61.945 17.088287
61.950 16.825888
61.955 17.302687
61.960 17.953989
61.965 18.29104
61.970 18.412792
61.975 18.271976
61.980 18.008074
61.985 17.943766
61.990 17.719145
61.995 17.374922
62.000 17.286497
62.005 17.435289
62.010 17.964041
62.015 17.701614
62.020 17.653265
62.025 17.568193
62.030 17.19516
62.035 16.851658
62.040 16.119535
62.045 15.72154
62.050 16.007418
62.055 15.971707
62.060 16.232601
62.065 16.948292
62.070 17.626719
62.075 18.082962
62.080 18.166245
62.085 18.800314
62.090 19.212267
62.095 19.031002
62.100 18.386322
62.105 17.888468
62.110 18.058773
62.115 17.700191
62.120 17.804506
62.125 17.723322
62.130 17.768702
62.135 18.012768
62.140 17.413748
62.145 16.487164
62.150 16.666494
62.155 16.638775
62.160 17.020203
62.165 17.334881
62.170 17.697233
62.175 17.99588
62.180 18.772638
62.185 19.084856
62.190 19.026285
62.195 19.33403
62.200 18.975386
62.205 18.696766
62.210 19.305149
62.215 19.201279
62.220 18.857584
62.225 18.948587
62.230 18.690372
62.235 18.972105
62.240 19.130585
62.245 18.740067
62.250 18.504431
62.255 18.375513
62.260 18.345997
62.265 18.320265
62.270 17.828558
62.275 17.820568
62.280 17.529213
62.285 17.492712
62.290 17.525887
62.295 16.888826
62.300 16.312241
62.305 16.703886
62.310 16.724062
62.315 16.537062
62.320 16.044903
62.325 15.695922
62.330 16.058916
62.335 16.97295
62.340 17.05863
62.345 17.570906
62.350 18.07667
62.355 18.993856
62.360 19.569258
62.365 20.135471
62.370 19.790125
62.375 19.492975
62.380 18.783352
62.385 18.773287
62.390 18.459045
62.395 18.140015
62.400 17.51977
62.405 17.176722
62.410 17.257608
62.415 17.534412
62.420 17.319082
62.425 17.728767
62.430 17.580894
62.435 18.13059
62.440 18.986803
62.445 18.993292
62.450 19.447966
62.455 20.166859
62.460 20.258514
62.465 20.259378
62.470 20.014908
62.475 19.534279
62.480 19.153275
62.485 18.620743
62.490 17.502007
62.495 16.844828
62.500 16.814325
62.505 16.7323
62.510 16.909136
62.515 17.69006
62.520 17.619047
62.525 17.886415
62.530 18.607746
62.535 18.576962
62.540 18.49515
62.545 18.905125
62.550 18.650801
62.555 19.399193
62.560 19.519329
62.565 18.916948
62.570 18.867226
62.575 18.486826
62.580 18.004013
62.585 17.565468
62.590 16.503786
62.595 16.79384
62.600 17.270176
62.605 17.305799
62.610 17.270521
62.615 17.243416
62.620 16.977751
62.625 17.44606
62.630 17.285126
62.635 17.080639
62.640 17.075174
62.645 17.453325
62.650 17.724119
62.655 18.516487
62.660 18.336887
62.665 18.032576
62.670 17.39279
62.675 17.493454
62.680 17.439451
62.685 17.100653
62.690 17.109545
62.695 17.570219
62.700 17.622324
62.705 17.899082
62.710 17.636129
62.715 17.807684
62.720 18.285158
62.725 18.214546
62.730 18.64712
62.735 18.786203
62.740 19.131012
62.745 18.928329
62.750 19.004414
62.755 18.905699
62.760 18.683945
62.765 18.184589
62.770 18.323376
62.775 18.494778
62.780 18.647564
62.785 17.87858
62.790 17.517977
62.795 17.529625
62.800 18.410847
62.805 18.401918
62.810 17.73428
62.815 18.092266
62.820 18.530483
62.825 19.026234
62.830 18.203203
62.835 17.052542
62.840 17.442806
62.845 18.120998
62.850 18.23984
62.855 17.780245
62.860 17.836748
62.865 18.214436
62.870 18.46653
62.875 18.150524
62.880 18.504141
62.885 18.525875
62.890 18.81329
62.895 18.966671
62.900 19.070194
62.905 18.656933
62.910 18.145731
62.915 16.949003
62.920 16.65464
62.925 16.799994
62.930 16.627684
62.935 16.559536
62.940 16.910326
62.945 17.1355
62.950 17.665369
62.955 17.861176
62.960 17.900333
62.965 18.41464
62.970 18.95289
62.975 18.982016
62.980 19.378452
62.985 18.972439
62.990 19.241331
62.995 18.727163
63.000 17.932362
63.005 17.564587
63.010 17.738621
63.015 17.49263
63.020 17.622379
63.025 17.15111
63.030 16.673874
63.035 17.025822
63.040 17.113655
63.045 16.722631
63.050 16.987396
63.055 17.046907
63.060 17.972639
63.065 18.654295
63.070 18.518192
63.075 18.683384
63.080 18.556334
63.085 18.236225
63.090 17.877554
63.095 17.260555
63.100 17.399378
63.105 17.197872
63.110 16.256054
63.115 16.519564
63.120 16.706137
63.125 17.273045
63.130 17.269632
63.135 16.680401
63.140 17.399914
63.145 18.253008
63.150 18.335894
63.155 18.0408
63.160 18.007988
63.165 18.469877
63.170 18.993622
63.175 18.395519
63.180 18.62067
63.185 19.067289
63.190 20.020826
63.195 20.089792
63.200 20.006258
63.205 20.158358
63.210 19.933474
63.215 19.613914
63.220 18.952534
63.225 18.251234
63.230 17.883932
63.235 17.507317
63.240 17.725134
63.245 18.028301
63.250 18.624454
63.255 19.178785
63.260 19.673788
63.265 20.169928
63.270 20.549417
63.275 19.937893
63.280 19.353073
63.285 18.497723
63.290 17.534794
63.295 16.856934
63.300 17.494591
63.305 17.462997
63.310 18.022764
63.315 19.132589
63.320 19.734104
63.325 20.016781
63.330 19.799492
63.335 18.829033
63.340 18.574358
63.345 18.193438
63.350 17.274137
63.355 17.265011
63.360 17.483488
63.365 17.488483
63.370 17.748867
63.375 17.937799
63.380 18.083895
63.385 18.824076
63.390 19.106604
63.395 19.556555
63.400 20.48245
63.405 20.194872
63.410 19.99122
63.415 19.832064
63.420 19.372328
63.425 18.905767
63.430 18.815977
63.435 18.323208
63.440 18.359879
63.445 18.516983
63.450 18.464899
63.455 18.00458
63.460 17.769268
63.465 17.94878
63.470 18.68119
63.475 19.362713
63.480 19.418659
63.485 19.574688
63.490 20.06723
63.495 20.14782
63.500 20.211786
63.505 19.791111
63.510 19.49482
63.515 19.596647
63.520 19.859484
63.525 19.758572
63.530 19.950891
63.535 20.034861
63.540 20.403645
63.545 20.864202
63.550 20.65196
63.555 20.263796
63.560 19.609831
63.565 19.000063
63.570 18.830521
63.575 18.473772
63.580 17.760443
63.585 18.113682
63.590 18.430264
63.595 18.947906
63.600 19.281387
63.605 19.154051
63.610 19.333151
63.615 19.481276
63.620 19.185062
63.625 19.134584
63.630 19.291029
63.635 19.203419
63.640 18.685097
63.645 18.383997
63.650 18.433523
63.655 19.592844
63.660 20.136541
63.665 19.864119
63.670 20.275892
63.675 20.06599
63.680 20.326004
63.685 20.222931
63.690 19.58502
63.695 19.420525
63.700 19.45797
63.705 19.534338
63.710 19.832714
63.715 19.002695
63.720 19.175892
63.725 19.559753
63.730 20.409006
63.735 21.211075
63.740 21.416136
63.745 22.051992
63.750 22.443596
63.755 21.91563
63.760 21.34026
63.765 21.260942
63.770 20.907974
63.775 20.701365
63.780 20.630318
63.785 20.953436
63.790 21.356047
63.795 21.467499
63.800 20.823376
63.805 21.301863
63.810 21.56481
63.815 21.628139
63.820 22.020613
63.825 22.694853
63.830 23.199062
63.835 23.448174
63.840 23.318897
63.845 22.698402
63.850 22.109472
63.855 21.574989
63.860 21.346699
63.865 20.973736
63.870 21.140245
63.875 21.794209
63.880 22.431971
63.885 23.186935
63.890 23.469172
63.895 22.870077
63.900 22.97246
63.905 22.373339
63.910 22.256157
63.915 22.486877
63.920 22.745008
63.925 23.126743
63.930 24.018986
63.935 24.131302
63.940 24.106787
63.945 23.87739
63.950 24.559076
63.955 24.860016
63.960 24.894073
63.965 25.19084
63.970 25.331059
63.975 26.26367
63.980 26.884022
63.985 26.651093
63.990 27.200293
63.995 27.147558
64.000 27.142328
64.005 27.643997
64.010 28.010838
64.015 28.294661
64.020 28.29423
64.025 28.091293
64.030 28.483482
64.035 28.525831
64.040 28.273682
64.045 28.599743
64.050 28.965553
64.055 28.942604
64.060 28.643192
64.065 29.186083
64.070 30.188654
64.075 30.315952
64.080 29.687738
64.085 29.474615
64.090 29.809929
64.095 30.874325
64.100 30.563721
64.105 30.354939
64.110 31.11956
64.115 31.553905
64.120 31.961771
64.125 31.33246
64.130 30.456038
64.135 29.980255
64.140 29.776613
64.145 30.018669
64.150 30.275097
64.155 30.272236
64.160 31.327091
64.165 31.908262
64.170 32.561703
64.175 32.433228
64.180 32.3069
64.185 31.999254
64.190 32.318901
64.195 31.678644
64.200 30.983913
64.205 30.935644
64.210 30.915674
64.215 30.478991
64.220 31.112938
64.225 31.591942
64.230 32.426411
64.235 33.019714
64.240 33.444592
64.245 33.007977
64.250 33.023869
64.255 33.531166
64.260 33.597797
64.265 33.827309
64.270 34.409657
64.275 34.827686
64.280 35.564468
64.285 36.012169
64.290 35.45454
64.295 34.579453
64.300 35.415401
64.305 35.139774
64.310 34.929348
64.315 34.844406
64.320 35.403618
64.325 35.857574
64.330 35.785961
64.335 34.660439
64.340 34.848518
64.345 34.79501
64.350 35.091537
64.355 35.052921
64.360 34.274891
64.365 34.457058
64.370 34.397285
64.375 33.963436
64.380 33.944397
64.385 33.324291
64.390 32.878834
64.395 33.193081
64.400 33.120808
64.405 33.067101
64.410 32.796852
64.415 32.422375
64.420 32.52742
64.425 31.858252
64.430 31.68589
64.435 31.126413
64.440 31.093002
64.445 31.187357
64.450 30.892593
64.455 30.42766
64.460 30.598839
64.465 30.590979
64.470 30.962238
64.475 30.837633
64.480 30.890171
64.485 30.65019
64.490 31.019768
64.495 31.538015
64.500 30.618406
64.505 30.608006
64.510 30.407059
64.515 30.179674
64.520 29.929329
64.525 29.113419
64.530 28.277802
64.535 28.332714
64.540 28.403818
64.545 28.644917
64.550 28.378448
64.555 28.558952
64.560 28.03812
64.565 28.356176
64.570 28.2237
64.575 27.783028
64.580 27.243933
64.585 26.699289
64.590 26.198946
64.595 26.242256
64.600 26.046736
64.605 25.883545
64.610 25.378485
64.615 25.358847
64.620 25.683174
64.625 25.700342
64.630 26.140158
64.635 25.722519
64.640 24.959944
64.645 24.794945
64.650 24.450701
64.655 24.753918
64.660 24.755291
64.665 24.289883
64.670 24.02269
64.675 23.88378
64.680 23.727936
64.685 23.189026
64.690 22.345503
64.695 22.163195
64.700 22.62191
64.705 23.684376
64.710 24.409372
64.715 25.009176
64.720 25.185764
64.725 25.703245
64.730 26.38468
64.735 25.243734
64.740 24.523218
64.745 24.112999
64.750 24.281656
64.755 24.408955
64.760 24.071047
64.765 23.922943
64.770 24.68681
64.775 24.78208
64.780 24.021299
64.785 23.041655
64.790 23.00421
64.795 23.182299
64.800 22.780397
64.805 22.66942
64.810 22.740358
64.815 22.978691
64.820 23.4293
64.825 23.877245
64.830 23.918915
64.835 24.159849
64.840 24.269545
64.845 23.723269
64.850 23.697084
64.855 23.708725
64.860 23.398226
64.865 23.072327
64.870 22.189243
64.875 21.478006
64.880 21.701775
64.885 21.578396
64.890 20.907997
64.895 20.594307
64.900 20.635891
64.905 21.236092
64.910 21.438108
64.915 21.297577
64.920 22.338055
64.925 22.788719
64.930 23.046618
64.935 23.03894
64.940 23.070545
64.945 23.892748
64.950 24.28783
64.955 24.041201
64.960 24.05443
64.965 24.088379
64.970 24.371622
64.975 24.456484
64.980 24.269945
64.985 24.252542
64.990 23.771492
64.995 24.001112
65.000 24.464323
65.005 24.722881
65.010 24.868031
65.015 24.884048
65.020 26.003702
65.025 26.613253
65.030 27.284248
65.035 27.225962
65.040 26.985994
65.045 27.780994
65.050 27.803467
65.055 26.662819
65.060 26.636171
65.065 26.053699
65.070 25.575649
65.075 25.82583
65.080 25.207329
65.085 25.251387
65.090 25.841507
65.095 25.794931
65.100 25.610168
65.105 25.794359
65.110 25.606646
65.115 25.897547
65.120 25.867538
65.125 25.691105
65.130 26.365753
65.135 26.863508
65.140 27.644615
65.145 27.555111
65.150 27.011166
65.155 26.816719
65.160 26.527508
65.165 26.079588
65.170 26.10886
65.175 25.613939
65.180 25.539928
65.185 25.712246
65.190 25.855621
65.195 26.209476
65.200 26.361164
65.205 26.24585
65.210 26.423492
65.215 26.497334
65.220 26.335594
65.225 26.155739
65.230 26.578875
65.235 27.293657
65.240 27.636013
65.245 28.279171
65.250 28.96814
65.255 29.340052
65.260 29.718185
65.265 30.445488
65.270 30.033974
65.275 30.187363
65.280 29.582375
65.285 29.126408
65.290 29.325834
65.295 29.067387
65.300 28.596359
65.305 28.273287
65.310 28.438858
65.315 28.678284
65.320 28.810701
65.325 28.744879
65.330 28.951605
65.335 29.732489
65.340 30.005655
65.345 29.568211
65.350 29.312761
65.355 29.333601
65.360 28.98246
65.365 28.324389
65.370 27.086458
65.375 26.88579
65.380 26.531357
65.385 26.53573
65.390 26.507711
65.395 27.06525
65.400 27.379755
65.405 27.155054
65.410 27.093239
65.415 27.230742
65.420 27.345356
65.425 28.080954
65.430 27.879299
65.435 27.701029
65.440 28.186766
65.445 28.501516
65.450 28.823645
65.455 28.724976
65.460 28.173405
65.465 28.483034
65.470 29.074379
65.475 29.125031
65.480 29.594881
65.485 30.022663
65.490 30.352093
65.495 31.077972
65.500 31.549519
65.505 31.557198
65.510 31.744596
65.515 31.572672
65.520 31.903728
65.525 31.647301
65.530 31.130684
65.535 31.126783
65.540 31.834557
65.545 31.946362
65.550 31.329885
65.555 31.187735
65.560 31.081173
65.565 31.536901
65.570 31.594746
65.575 32.214085
65.580 33.879189
65.585 34.632973
65.590 34.536266
65.595 34.512775
65.600 34.498535
65.605 34.387959
65.610 33.692635
65.615 32.735783
65.620 32.405514
65.625 32.529671
65.630 32.93729
65.635 32.694023
65.640 32.190578
65.645 31.482132
65.650 31.37759
65.655 31.82374
65.660 31.868002
65.665 31.520088
65.670 31.554474
65.675 31.92264
65.680 33.106583
65.685 33.723473
65.690 33.833691
65.695 34.077694
65.700 34.835186
65.705 34.69054
65.710 35.005337
65.715 34.112
65.720 33.192837
65.725 33.47401
65.730 34.025791
65.735 33.946159
65.740 34.374813
65.745 34.658852
65.750 35.844532
65.755 36.490337
65.760 36.822781
65.765 36.39917
65.770 36.833988
65.775 36.892731
65.780 36.823044
65.785 35.963802
65.790 36.095921
65.795 36.200451
65.800 36.548592
65.805 37.434078
65.810 37.305779
65.815 36.706623
65.820 37.275463
65.825 37.463715
65.830 37.647511
65.835 36.852081
65.840 35.646324
65.845 35.351341
65.850 35.519249
65.855 33.901577
65.860 32.655029
65.865 31.929615
65.870 32.30444
65.875 33.111008
65.880 33.537735
65.885 34.066498
65.890 34.366714
65.895 34.814529
65.900 34.720108
65.905 34.166077
65.910 33.956432
65.915 33.487339
65.920 33.924786
65.925 35.617393
65.930 36.008461
65.935 36.095776
65.940 36.024807
65.945 35.281776
65.950 35.317875
65.955 35.376705
65.960 35.434429
65.965 34.805477
65.970 34.825554
65.975 34.470764
65.980 34.72393
65.985 35.267521
65.990 35.531536
65.995 35.25016
66.000 35.818821
66.005 36.735172
66.010 37.259834
66.015 37.730812
66.020 37.708462
66.025 37.441338
66.030 37.400059
66.035 37.432014
66.040 36.442814
66.045 37.246899
66.050 37.51067
66.055 37.140579
66.060 37.200169
66.065 36.664055
66.070 36.474552
66.075 36.164165
66.080 35.636307
66.085 34.922958
66.090 34.623192
66.095 34.093857
66.100 34.105808
66.105 34.694942
66.110 35.17947
66.115 35.059155
66.120 34.746319
66.125 34.489445
66.130 34.488106
66.135 34.875397
66.140 34.847473
66.145 34.506897
66.150 34.225525
66.155 34.61319
66.160 34.969852
66.165 35.282608
66.170 35.38155
66.175 34.864952
66.180 34.565895
66.185 33.688236
66.190 33.633766
66.195 33.459023
66.200 33.448399
66.205 33.73761
66.210 34.535561
66.215 35.92107
66.220 36.519203
66.225 36.375931
66.230 36.255974
66.235 35.89106
66.240 35.577076
66.245 35.721794
66.250 35.296551
66.255 36.122971
66.260 36.592182
66.265 36.596592
66.270 36.07753
66.275 35.395008
66.280 34.083744
66.285 33.890915
66.290 33.688725
66.295 33.419098
66.300 33.31052
66.305 32.966175
66.310 33.087181
66.315 33.239143
66.320 32.232185
66.325 30.981524
66.330 30.792467
66.335 30.904694
66.340 31.031218
66.345 31.164518
66.350 30.606417
66.355 31.059753
66.360 31.380346
66.365 31.301193
66.370 31.084633
66.375 31.021151
66.380 30.421932
66.385 30.748329
66.390 31.249561
66.395 31.651342
66.400 32.304783
66.405 32.678246
66.410 32.431332
66.415 32.023384
66.420 31.331743
66.425 30.767895
66.430 30.386623
66.435 29.360249
66.440 29.053762
66.445 29.059731
66.450 28.667374
66.455 29.374975
66.460 28.730425
66.465 28.442245
66.470 28.595531
66.475 28.265978
66.480 28.017258
66.485 28.306099
66.490 28.831308
66.495 29.50773
66.500 29.445303
66.505 29.42658
66.510 29.181669
66.515 28.861855
66.520 27.936182
66.525 26.676235
66.530 26.273695
66.535 26.084045
66.540 25.357491
66.545 25.055128
66.550 25.353045
66.555 25.595722
66.560 26.003082
66.565 25.993717
66.570 25.968279
66.575 26.195705
66.580 25.829544
66.585 25.813124
66.590 25.671867
66.595 24.805025
66.600 24.280737
66.605 24.036816
66.610 24.370789
66.615 24.117846
66.620 23.199076
66.625 23.227013
66.630 23.556984
66.635 23.572105
66.640 22.871317
66.645 22.829382
66.650 23.690872
66.655 24.130001
66.660 23.467529
66.665 23.078123
66.670 22.809622
66.675 22.77788
66.680 22.798178
66.685 21.777359
66.690 21.994801
66.695 22.50046
66.700 22.669485
66.705 23.135553
66.710 23.532642
66.715 22.549749
66.720 21.882023
66.725 22.131374
66.730 22.130835
66.735 21.588726
66.740 21.204744
66.745 20.82826
66.750 21.391159
66.755 21.70192
66.760 20.604408
66.765 19.837543
66.770 20.040981
66.775 20.856588
66.780 20.648285
66.785 20.193611
66.790 20.400473
66.795 20.3097
66.800 20.661575
66.805 20.894733
66.810 20.351252
66.815 20.759371
66.820 20.858545
66.825 20.592283
66.830 20.500925
66.835 19.974257
66.840 19.450741
66.845 19.086344
66.850 19.363844
66.855 19.679434
66.860 20.146349
66.865 20.558874
66.870 20.740499
66.875 20.583469
66.880 20.14772
66.885 19.737413
66.890 19.260471
66.895 18.435482
66.900 18.261251
66.905 18.300394
66.910 18.137869
66.915 18.362862
66.920 18.195559
66.925 18.348074
66.930 19.11705
66.935 19.53936
66.940 19.632616
66.945 20.247608
66.950 20.089624
66.955 19.859333
66.960 19.889027
66.965 19.698181
66.970 19.661318
66.975 19.968096
66.980 20.124142
66.985 20.741131
66.990 21.228218
66.995 21.594318
67.000 21.520664
67.005 21.752056
67.010 21.531641
67.015 21.113537
67.020 20.953835
67.025 20.588392
67.030 20.720789
67.035 20.871286
67.040 20.184547
67.045 20.848688
67.050 20.910036
67.055 20.952576
67.060 20.977554
67.065 21.062468
67.070 21.513254
67.075 21.502161
67.080 20.77067
67.085 20.890093
67.090 21.041077
67.095 20.80641
67.100 20.14003
67.105 19.110622
67.110 19.149994
67.115 19.556152
67.120 19.127426
67.125 18.942749
67.130 19.142027
67.135 19.382593
67.140 19.364677
67.145 19.062614
67.150 19.093996
67.155 19.341078
67.160 19.580597
67.165 19.396749
67.170 19.533588
67.175 20.209284
67.180 19.88962
67.185 19.791222
67.190 19.822752
67.195 19.837351
67.200 19.739855
67.205 19.405016
67.210 19.302601
67.215 19.708584
67.220 20.125376
67.225 20.173708
67.230 19.643974
67.235 19.70208
67.240 19.510038
67.245 19.75297
67.250 19.643454
67.255 19.323893
67.260 19.329815
67.265 19.313126
67.270 19.449844
67.275 19.646036
67.280 19.554823
67.285 19.769163
67.290 20.102049
67.295 19.766312
67.300 20.127569
67.305 20.095518
67.310 20.669104
67.315 21.289574
67.320 20.930748
67.325 20.674829
67.330 21.157022
67.335 21.262775
67.340 21.538464
67.345 20.79677
67.350 20.37278
67.355 19.904013
67.360 19.319857
67.365 19.269596
67.370 19.159063
67.375 19.061558
67.380 19.048719
67.385 19.200132
67.390 19.805174
67.395 19.521948
67.400 19.187805
67.405 19.45953
67.410 19.597649
67.415 20.373217
67.420 20.170301
67.425 20.056963
67.430 20.596212
67.435 20.773867
67.440 20.529799
67.445 20.112818
67.450 19.629839
67.455 19.644646
67.460 19.681965
67.465 19.496273
67.470 19.720493
67.475 19.431524
67.480 19.477205
67.485 19.787916
67.490 20.218981
67.495 20.80489
67.500 20.921671
67.505 20.774948
67.510 21.281599
67.515 21.40773
67.520 21.256283
67.525 20.419949
67.530 19.871834
67.535 20.308344
67.540 19.898701
67.545 19.955347
67.550 20.038548
67.555 19.786648
67.560 20.227551
67.565 20.400702
67.570 20.125799
67.575 20.232964
67.580 19.80542
67.585 19.949276
67.590 19.73855
67.595 20.095963
67.600 20.104177
67.605 20.137205
67.610 20.350653
67.615 20.996359
67.620 21.581388
67.625 22.055542
67.630 21.667274
67.635 21.690641
67.640 21.348576
67.645 21.106573
67.650 20.44916
67.655 19.49366
67.660 19.392988
67.665 19.249344
67.670 19.536455
67.675 20.532154
67.680 20.955446
67.685 21.052244
67.690 21.314451
67.695 21.070004
67.700 20.982565
67.705 20.370422
67.710 20.15641
67.715 20.184574
67.720 20.808796
67.725 20.910587
67.730 20.889868
67.735 21.338472
67.740 21.159269
67.745 20.508682
67.750 20.118732
67.755 19.697735
67.760 19.227818
67.765 19.225452
67.770 18.987747
67.775 18.918188
67.780 19.154694
67.785 18.617245
67.790 18.628681
67.795 18.941191
67.800 18.804459
67.805 18.854822
67.810 18.980961
67.815 18.857613
67.820 19.380924
67.825 19.644814
67.830 19.799122
67.835 19.803928
67.840 19.819334
67.845 20.024391
67.850 20.271694
67.855 19.930208
67.860 19.342447
67.865 19.445734
67.870 19.404486
67.875 19.169037
67.880 18.731602
67.885 18.393934
67.890 18.7864
67.895 19.000038
67.900 18.378065
67.905 18.823879
67.910 19.495575
67.915 20.032698
67.920 20.34845
67.925 19.965918
67.930 20.052223
67.935 20.622837
67.940 20.122549
67.945 19.72069
67.950 19.330854
67.955 19.83729
67.960 19.828579
67.965 19.568424
67.970 19.890291
67.975 20.003222
67.980 19.605896
67.985 19.596956
67.990 18.746336
67.995 19.034723
68.000 19.284039
68.005 18.785545
68.010 19.268028
68.015 19.257286
68.020 19.164381
68.025 19.59108
68.030 19.756699
68.035 19.682056
68.040 20.042995
68.045 20.344902
68.050 21.158991
68.055 21.439638
68.060 21.357025
68.065 21.41717
68.070 21.666697
68.075 21.298435
68.080 21.62422
68.085 21.637562
68.090 22.056454
68.095 22.550404
68.100 22.561228
68.105 22.788147
68.110 23.0138
68.115 21.963747
68.120 21.466946
68.125 20.799484
68.130 20.562687
68.135 20.542604
68.140 20.310997
68.145 20.350393
68.150 20.316208
68.155 20.316769
68.160 20.227764
68.165 20.186323
68.170 20.048431
68.175 20.317213
68.180 20.274689
68.185 20.521538
68.190 20.996609
68.195 21.331755
68.200 20.688847
68.205 20.655972
68.210 20.580065
68.215 20.737337
68.220 21.073231
68.225 20.85668
68.230 20.88007
68.235 21.015554
68.240 21.174553
68.245 21.359343
68.250 21.478653
68.255 20.941946
68.260 21.63529
68.265 22.093908
68.270 22.760527
68.275 22.464258
68.280 21.83984
68.285 21.348757
68.290 20.854914
68.295 20.256727
68.300 19.911547
68.305 19.790186
68.310 20.405161
68.315 20.748838
68.320 21.108353
68.325 21.719938
68.330 21.317219
68.335 21.448566
68.340 21.407087
68.345 21.049135
68.350 21.086819
68.355 21.602495
68.360 21.490307
68.365 21.825565
68.370 21.635399
68.375 21.477142
68.380 21.951794
68.385 22.021494
68.390 21.710924
68.395 21.856478
68.400 21.504446
68.405 21.266306
68.410 21.140087
68.415 20.757353
68.420 20.790352
68.425 20.31164
68.430 20.306271
68.435 19.977791
68.440 20.111088
68.445 20.625561
68.450 21.047039
68.455 21.369267
68.460 21.699011
68.465 21.572355
68.470 22.071058
68.475 22.564159
68.480 22.412201
68.485 22.635527
68.490 23.255039
68.495 24.189682
68.500 24.887302
68.505 25.20612
68.510 24.923574
68.515 24.919691
68.520 24.223286
68.525 23.734121
68.530 23.257753
68.535 22.899408
68.540 22.519697
68.545 22.710917
68.550 23.095596
68.555 23.560341
68.560 24.673895
68.565 24.747557
68.570 24.681734
68.575 24.805954
68.580 24.88011
68.585 24.629026
68.590 24.457811
68.595 23.373812
68.600 23.374779
68.605 23.631166
68.610 24.362171
68.615 24.601807
68.620 24.651407
68.625 24.722443
68.630 25.193565
68.635 25.348112
68.640 25.353697
68.645 24.985558
68.650 24.350704
68.655 24.442162
68.660 23.939348
68.665 23.820805
68.670 24.836138
68.675 24.975929
68.680 24.964731
68.685 25.645884
68.690 25.593843
68.695 26.20348
68.700 26.35041
68.705 25.919147
68.710 25.883858
68.715 25.669979
68.720 25.612417
68.725 26.046862
68.730 25.464087
68.735 24.584251
68.740 24.717283
68.745 25.298315
68.750 25.441925
68.755 25.677855
68.760 26.775347
68.765 27.689041
68.770 29.096848
68.775 28.923237
68.780 28.733631
68.785 29.533253
68.790 29.381191
68.795 28.784941
68.800 29.02817
68.805 28.541143
68.810 29.084749
68.815 29.394062
68.820 28.410103
68.825 28.198141
68.830 27.733187
68.835 27.775124
68.840 27.630077
68.845 27.210344
68.850 27.905504
68.855 28.679918
68.860 28.822523
68.865 29.430717
68.870 29.643358
68.875 29.745739
68.880 29.978575
68.885 29.509956
68.890 29.051466
68.895 28.955229
68.900 28.996555
68.905 29.334221
68.910 29.552853
68.915 28.853294
68.920 28.593214
68.925 29.317005
68.930 29.174566
68.935 28.997187
68.940 29.352835
68.945 28.915731
68.950 29.722034
68.955 30.092886
68.960 30.259462
68.965 30.993317
68.970 30.5522
68.975 30.169773
68.980 30.463129
68.985 30.109819
68.990 29.956959
68.995 29.707699
69.000 29.817232
69.005 30.426416
69.010 31.22435
69.015 31.241474
69.020 30.757385
69.025 30.43174
69.030 30.439621
69.035 29.7346
69.040 28.872519
69.045 27.947262
69.050 28.219072
69.055 28.710436
69.060 28.745865
69.065 28.535248
69.070 28.380217
69.075 28.753527
69.080 29.385513
69.085 29.312977
69.090 29.424847
69.095 29.759108
69.100 30.154945
69.105 30.781628
69.110 30.60293
69.115 31.142313
69.120 31.784485
69.125 30.881483
69.130 31.201015
69.135 31.503971
69.140 32.114758
69.145 32.802494
69.150 32.041054
69.155 32.301208
69.160 32.575897
69.165 32.413609
69.170 31.898228
69.175 31.013918
69.180 30.92227
69.185 30.882126
69.190 31.209938
69.195 31.645117
69.200 31.209524
69.205 31.236116
69.210 31.006416
69.215 30.888105
69.220 31.206663
69.225 30.755701
69.230 30.290661
69.235 30.218805
69.240 30.117815
69.245 30.716387
69.250 30.180971
69.255 29.953554
69.260 29.889292
69.265 30.509703
69.270 30.248142
69.275 29.736807
69.280 29.682671
69.285 29.957268
69.290 29.993208
69.295 29.946556
69.300 29.629095
69.305 30.152721
69.310 31.442692
69.315 30.701654
69.320 30.672152
69.325 29.418863
69.330 29.655558
69.335 29.816685
69.340 29.805157
69.345 29.404823
69.350 30.36743
69.355 30.304312
69.360 30.758055
69.365 30.99489
69.370 30.668552
69.375 30.916922
69.380 30.600437
69.385 29.695227
69.390 30.005602
69.395 30.346807
69.400 30.459328
69.405 30.656755
69.410 30.476175
69.415 30.668449
69.420 31.19121
69.425 31.330206
69.430 31.249969
69.435 31.01053
69.440 31.680668
69.445 31.949516
69.450 32.026161
69.455 31.786005
69.460 31.238682
69.465 31.080292
69.470 31.296261
69.475 30.247885
69.480 30.166746
69.485 30.511091
69.490 30.287661
69.495 30.049694
69.500 30.526493
69.505 30.940718
69.510 31.104034
69.515 30.581156
69.520 30.202129
69.525 30.870562
69.530 31.115898
69.535 30.100466
69.540 29.454773
69.545 29.604242
69.550 29.153114
69.555 29.005676
69.560 28.834539
69.565 28.584181
69.570 29.196495
69.575 29.317499
69.580 28.971647
69.585 28.748653
69.590 27.984011
69.595 27.634676
69.600 27.117432
69.605 26.707047
69.610 26.587887
69.615 26.814688
69.620 26.883064
69.625 27.352888
69.630 27.718679
69.635 27.73181
69.640 27.94775
69.645 28.315504
69.650 28.237547
69.655 27.807232
69.660 27.196934
69.665 27.40431
69.670 27.866499
69.675 27.963886
69.680 27.966917
69.685 28.243168
69.690 28.767693
69.695 28.681398
69.700 27.934872
69.705 27.714708
69.710 27.386793
69.715 26.814548
69.720 26.120054
69.725 26.520639
69.730 26.479074
69.735 27.148836
69.740 27.325411
69.745 27.59182
69.750 27.841579
69.755 28.083111
69.760 27.677452
69.765 27.500948
69.770 26.866354
69.775 25.667908
69.780 25.575235
69.785 26.102558
69.790 25.604921
69.795 25.72954
69.800 25.494892
69.805 25.045183
69.810 25.30583
69.815 24.370056
69.820 24.064974
69.825 23.897993
69.830 23.068577
69.835 23.283354
69.840 23.602188
69.845 23.692448
69.850 23.39554
69.855 22.996952
69.860 22.542234
69.865 22.707478
69.870 22.523407
69.875 22.646437
69.880 22.800411
69.885 23.437086
69.890 23.759237
69.895 24.199978
69.900 24.454634
69.905 24.023306
69.910 23.530346
69.915 23.221035
69.920 22.274275
69.925 22.360308
69.930 22.407682
69.935 22.709801
69.940 22.920176
69.945 22.55205
69.950 22.586452
69.955 22.999241
69.960 22.735647
69.965 22.343332
69.970 21.847193
69.975 21.89464
69.980 21.935129
69.985 21.631628
69.990 21.572554
69.995 21.539629
70.000 21.603306
70.005 21.20476
70.010 20.58457
70.015 20.516121
70.020 20.688116
70.025 20.921301
70.030 21.066601
70.035 20.839937
70.040 21.189827
70.045 21.667406
70.050 21.813971
70.055 21.171158
70.060 20.398445
70.065 20.10158
70.070 20.106361
70.075 19.803909
70.080 19.204458
70.085 19.490154
70.090 19.809282
70.095 19.992363
70.100 20.033297
70.105 20.521706
70.110 20.924294
70.115 21.303644
70.120 20.884855
70.125 20.679949
70.130 20.90218
70.135 19.88246
70.140 19.366865
70.145 19.192307
70.150 18.634516
70.155 18.672794
70.160 18.732798
70.165 18.825844
70.170 19.485706
70.175 19.610277
70.180 20.075575
70.185 21.097397
70.190 21.303633
70.195 21.111435
70.200 20.599691
70.205 21.081091
70.210 20.91725
70.215 20.314779
70.220 20.187857
70.225 20.637129
70.230 20.794699
70.235 21.26474
70.240 21.10635
70.245 21.199881
70.250 21.608656
70.255 20.960766
70.260 20.451006
70.265 20.619663
70.270 20.770054
70.275 20.077734
70.280 19.66256
70.285 18.874277
70.290 19.125189
70.295 19.423061
70.300 18.819811
70.305 18.236141
70.310 18.795204
70.315 18.931429
70.320 19.616653
70.325 19.098257
70.330 18.757229
70.335 19.172211
70.340 19.103348
70.345 19.437767
70.350 19.397778
70.355 19.159348
70.360 19.842146
70.365 20.170559
70.370 20.015743
70.375 20.122448
70.380 19.700571
70.385 19.637793
70.390 19.788509
70.395 19.628006
70.400 19.51882
70.405 20.00419
70.410 20.24762
70.415 20.630703
70.420 19.999828
70.425 19.353695
70.430 19.069651
70.435 18.743103
70.440 18.542713
70.445 18.636124
70.450 18.225328
70.455 18.555557
70.460 18.909122
70.465 18.748669
70.470 18.672747
70.475 18.615448
70.480 18.373884
70.485 18.757425
70.490 19.273531
70.495 19.273125
70.500 19.211031
70.505 19.183027
70.510 19.064613
70.515 19.535162
70.520 19.552507
70.525 18.954195
70.530 18.926546
70.535 18.663855
70.540 18.40749
70.545 18.383003
70.550 17.897141
70.555 18.23325
70.560 18.209663
70.565 19.033218
70.570 19.562342
70.575 19.852531
70.580 19.583914
70.585 19.340418
70.590 19.21958
70.595 18.928625
70.600 18.719635
70.605 19.085819
70.610 19.642813
70.615 20.26615
70.620 20.544073
70.625 20.495247
70.630 20.682034
70.635 20.360279
70.640 20.082602
70.645 20.199556
70.650 20.219137
70.655 20.239016
70.660 20.327261
70.665 20.605417
70.670 20.437536
70.675 20.38328
70.680 19.687578
70.685 19.743937
70.690 19.591478
70.695 19.847067
70.700 19.13995
70.705 18.722427
70.710 18.405972
70.715 18.212278
70.720 18.791676
70.725 18.634375
70.730 18.327871
70.735 18.61063
70.740 19.263134
70.745 19.435272
70.750 19.522942
70.755 18.738297
70.760 18.796383
70.765 19.316044
70.770 19.8957
70.775 19.726233
70.780 19.790947
70.785 20.274979
70.790 20.657099
70.795 20.186804
70.800 19.881094
70.805 19.154629
70.810 18.986944
70.815 18.827412
70.820 18.50338
70.825 18.055239
70.830 17.986206
70.835 18.260256
70.840 18.269577
70.845 18.733484
70.850 19.35309
70.855 19.388346
70.860 19.997923
70.865 20.457375
70.870 20.201942
70.875 20.18441
70.880 19.501707
70.885 19.159637
70.890 18.988136
70.895 18.727617
70.900 18.652842
70.905 18.870621
70.910 19.317492
70.915 19.394184
70.920 19.096373
70.925 18.713348
70.930 18.696253
70.935 18.268763
70.940 18.235004
70.945 18.334196
70.950 18.166475
70.955 18.288916
70.960 18.538315
70.965 18.708326
70.970 19.354065
70.975 19.941334
70.980 19.934839
70.985 20.298321
70.990 20.326677
70.995 19.846165
71.000 19.482885
71.005 19.408646
71.010 18.748173
71.015 18.164595
71.020 18.124481
71.025 18.608252
71.030 18.721832
71.035 19.256775
71.040 18.852484
71.045 19.157705
71.050 19.755945
71.055 19.462542
71.060 19.333126
71.065 18.940004
71.070 18.730026
71.075 18.756029
71.080 18.259701
71.085 18.075562
71.090 18.47121
71.095 18.351406
71.100 18.853012
71.105 18.755123
71.110 18.729713
71.115 19.140955
71.120 19.384571
71.125 19.330372
71.130 19.643295
71.135 20.089354
71.140 20.209686
71.145 19.882204
71.150 19.021416
71.155 18.21291
71.160 18.224312
71.165 17.914557
71.170 17.249935
71.175 17.137295
71.180 17.50876
71.185 18.208277
71.190 18.904718
71.195 19.316128
71.200 19.79994
71.205 20.046831
71.210 20.219902
71.215 20.525518
71.220 20.463755
71.225 20.078833
71.230 19.716593
71.235 19.533205
71.240 19.251299
71.245 19.068443
71.250 18.960409
71.255 19.195948
71.260 18.891613
71.265 18.81152
71.270 18.231558
71.275 18.340065
71.280 18.532484
71.285 18.488895
71.290 18.128666
71.295 18.206779
71.300 18.366886
71.305 18.624876
71.310 18.994806
71.315 18.641893
71.320 18.983898
71.325 19.214914
71.330 20.076038
71.335 19.9877
71.340 20.168924
71.345 20.289785
71.350 20.361683
71.355 20.32852
71.360 20.18152
71.365 20.03824
71.370 20.081188
71.375 19.976511
71.380 19.803211
71.385 19.41526
71.390 19.009718
71.395 18.718437
71.400 18.297819
71.405 18.57292
71.410 18.220198
71.415 17.605206
71.420 17.894213
71.425 18.232773
71.430 18.644741
71.435 19.289415
71.440 19.31274
71.445 19.351131
71.450 19.427183
71.455 18.743542
71.460 18.626896
71.465 18.639887
71.470 18.039793
71.475 17.728565
71.480 18.175196
71.485 18.537018
71.490 19.160414
71.495 18.844994
71.500 17.958282
71.505 17.795443
71.510 17.768837
71.515 17.89035
71.520 18.128548
71.525 17.679243
71.530 18.107002
71.535 18.937004
71.540 19.694418
71.545 19.493408
71.550 19.482788
71.555 19.434221
71.560 19.434206
71.565 19.092402
71.570 18.665321
71.575 18.586933
71.580 19.013676
71.585 18.841097
71.590 18.691856
71.595 18.710941
71.600 18.582411
71.605 18.779572
71.610 18.841936
71.615 19.002874
71.620 19.153465
71.625 19.491476
71.630 19.895794
71.635 20.013931
71.640 19.46279
71.645 18.945976
71.650 18.397949
71.655 17.838732
71.660 17.566177
71.665 18.177286
71.670 18.745749
71.675 19.303955
71.680 19.644705
71.685 19.797075
71.690 20.329765
71.695 20.035089
71.700 19.380903
71.705 18.91106
71.710 18.811646
71.715 18.650946
71.720 18.815737
71.725 18.696747
71.730 18.363792
71.735 18.098946
71.740 18.494268
71.745 18.333553
71.750 18.275307
71.755 18.488142
71.760 18.993519
71.765 19.26088
71.770 18.729389
71.775 18.342634
71.780 18.30835
71.785 18.70915
71.790 18.097105
71.795 17.73205
71.800 17.78146
71.805 17.925213
71.810 17.176121
71.815 16.776901
71.820 16.697636
71.825 16.695698
71.830 16.618895
71.835 16.720997
71.840 16.891037
71.845 17.372244
71.850 17.801132
71.855 17.837198
71.860 17.988512
71.865 18.333353
71.870 18.067989
71.875 18.367237
71.880 18.694902
71.885 18.857569
71.890 18.721239
71.895 18.427349
71.900 18.619061
71.905 19.154814
71.910 20.055088
71.915 19.602797
71.920 19.627769
71.925 20.051916
71.930 19.804945
71.935 19.767893
71.940 19.383602
71.945 18.710197
71.950 19.067654
71.955 19.053745
71.960 19.445635
71.965 19.704063
71.970 19.611015
71.975 19.655617
71.980 19.580643
71.985 19.266802
71.990 19.220783
71.995 18.822426
72.000 18.959528
72.005 18.51553
72.010 18.300983
72.015 18.562643
72.020 18.656237
72.025 18.469704
72.030 18.801619
72.035 18.36108
72.040 18.35183
72.045 17.710913
72.050 17.520998
72.055 16.858143
72.060 16.956209
72.065 17.157175
72.070 17.18029
72.075 17.442375
72.080 17.89945
72.085 18.028921
72.090 18.224552
72.095 17.962807
72.100 17.6203
72.105 18.185896
72.110 18.019102
72.115 18.004482
72.120 17.675119
72.125 17.411283
72.130 17.255716
72.135 17.52107
72.140 17.471699
72.145 17.23634
72.150 17.685045
72.155 18.514238
72.160 18.751076
72.165 18.138533
72.170 18.049059
72.175 18.136894
72.180 18.802378
72.185 18.610498
72.190 17.946243
72.195 18.232662
72.200 17.960863
72.205 17.787056
72.210 17.833082
72.215 17.302094
72.220 16.964663
72.225 17.099707
72.230 17.356216
72.235 17.693758
72.240 17.624315
72.245 17.278118
72.250 17.798443
72.255 17.885284
72.260 18.221443
72.265 18.089527
72.270 18.551851
72.275 19.335802
72.280 19.740343
72.285 19.682171
72.290 20.268045
72.295 20.175806
72.300 20.356934
72.305 19.779381
72.310 19.217207
72.315 18.980331
72.320 18.770916
72.325 18.73844
72.330 18.915359
72.335 19.070217
72.340 19.573999
72.345 19.681536
72.350 19.465921
72.355 19.440716
72.360 19.010134
72.365 18.610832
72.370 18.26623
72.375 18.11072
72.380 18.449774
72.385 18.820742
72.390 18.486944
72.395 18.44589
72.400 18.430201
72.405 18.54789
72.410 18.62031
72.415 18.845217
72.420 18.660912
72.425 18.725597
72.430 18.731495
72.435 19.251341
72.440 19.470545
72.445 19.253819
72.450 19.321356
72.455 19.030153
72.460 19.14679
72.465 19.042963
72.470 18.650881
72.475 18.414919
72.480 17.848879
72.485 17.63545
72.490 17.496401
72.495 17.057756
72.500 17.323082
72.505 16.977289
72.510 16.967825
72.515 17.084206
72.520 17.39933
72.525 17.604504
72.530 17.772118
72.535 17.699631
72.540 17.861345
72.545 17.749777
72.550 17.669483
72.555 17.819296
72.560 18.171204
72.565 18.105707
72.570 18.365231
72.575 18.829243
72.580 19.627932
72.585 20.118574
72.590 20.742989
72.595 20.893911
72.600 21.726761
72.605 21.684437
72.610 21.381207
72.615 21.073225
72.620 20.601976
72.625 19.891045
72.630 19.233683
72.635 18.831701
72.640 19.264105
72.645 19.142832
72.650 19.060133
72.655 19.254194
72.660 19.555887
72.665 20.021225
72.670 19.535458
72.675 19.424677
72.680 19.152119
72.685 18.870667
72.690 18.662014
72.695 18.825455
72.700 18.47583
72.705 18.264791
72.710 18.720104
72.715 19.076874
72.720 19.294785
72.725 19.28495
72.730 18.721239
72.735 18.891031
72.740 18.403076
72.745 17.805529
72.750 17.373274
72.755 17.177326
72.760 17.784918
72.765 18.36241
72.770 18.513353
72.775 18.856203
72.780 18.931562
72.785 19.382383
72.790 19.46888
72.795 18.654123
72.800 18.942596
72.805 18.70706
72.810 18.676157
72.815 18.62904
72.820 18.095751
72.825 17.611343
72.830 17.644634
72.835 17.304218
72.840 17.026188
72.845 17.282967
72.850 17.77088
72.855 17.845694
72.860 17.74728
72.865 16.842943
72.870 16.369381
72.875 16.691757
72.880 16.497854
72.885 16.25914
72.890 16.435841
72.895 17.079697
72.900 18.100464
72.905 18.994671
72.910 18.739864
72.915 18.45701
72.920 18.595976
72.925 17.887815
72.930 17.372402
72.935 16.87179
72.940 16.845264
72.945 17.753803
72.950 17.968771
72.955 18.15316
72.960 19.082378
72.965 19.769053
72.970 19.177217
72.975 18.199833
72.980 17.42248
72.985 17.002228
72.990 17.317453
72.995 16.915739
73.000 16.692505
