!@!!GADDS PLOTSO FILE: Chi integration type
!@!!Title/SampleName: map-3d
!@!!Comment: ?
!@!!User: Bruker Instrument Administrator
!@!!Site: University of Illinois Chicago
!@!!Frame: map-3d_01_000.gfrm
!@!!Wavelengths    1.54184   1.54056   1.54439
!@!!Frame angles: 2Theta: 63.000 Omega: 50.000 Phi: 0.000 Chi: 90.000
!@!!Integration range: 2Theta: 53.000 to 73.000  Gamma: -105.000 to -75.000
!@!!Integration method: bin normalized
!@!N
!@!SS
!@!M
!@!L 0.0 0.0 0.0 0.0
!@!XDegrees
!@!YCounts
53.000 8.312565
53.005 8.023469
53.010 8.300183
53.015 8.761384
53.020 9.078287
53.025 9.134089
53.030 9.249185
53.035 9.573331
53.040 9.409516
53.045 8.902888
53.050 8.082844
53.055 7.790802
53.060 7.609472
53.065 7.238531
53.070 7.033051
53.075 7.056113
53.080 7.498897
53.085 7.703827
53.090 7.877831
53.095 8.086088
53.100 8.11347
53.105 8.099132
53.110 7.897201
53.115 7.332558
53.120 7.069491
53.125 6.704233
53.130 6.639765
53.135 6.936215
53.140 7.19171
53.145 7.713713
53.150 8.104107
53.155 7.831233
53.160 7.438282
53.165 7.010108
53.170 6.961774
53.175 6.09187
53.180 5.971327
53.185 6.653345
53.190 7.131808
53.195 7.527084
53.200 7.400684
53.205 7.429846
53.210 7.566639
53.215 7.284384
53.220 7.025011
53.225 7.064201
53.230 7.013914
53.235 7.032885
53.240 7.247281
53.245 7.225279
53.250 7.459236
53.255 7.520849
53.260 7.642275
53.265 7.979165
53.270 8.021255
53.275 8.137317
53.280 7.984586
53.285 7.418988
53.290 7.20834
53.295 7.037326
53.300 6.935526
53.305 7.282044
53.310 7.474349
53.315 8.032329
53.320 8.125441
53.325 8.300691
53.330 8.062551
53.335 8.086376
53.340 7.706839
53.345 7.657992
53.350 7.230586
53.355 7.405302
53.360 7.349103
53.365 7.900764
53.370 8.464764
53.375 8.47284
53.380 8.387618
53.385 8.145962
53.390 7.992839
53.395 8.413748
53.400 8.16057
53.405 7.70011
53.410 7.43083
53.415 7.569528
53.420 8.014135
53.425 7.715549
53.430 7.120421
53.435 7.061693
53.440 7.312985
53.445 7.539552
53.450 7.604846
53.455 7.847035
53.460 8.637158
53.465 8.753067
53.470 8.795282
53.475 8.773088
53.480 8.851845
53.485 8.635699
53.490 8.05048
53.495 7.882434
53.500 8.060969
53.505 7.76577
53.510 7.669895
53.515 7.691535
53.520 8.298083
53.525 9.071223
53.530 8.986818
53.535 9.059525
53.540 9.573441
53.545 10.088651
53.550 10.229733
53.555 9.909622
53.560 9.316386
53.565 9.448043
53.570 9.491517
53.575 8.997641
53.580 8.415242
53.585 8.287878
53.590 8.056718
53.595 8.064884
53.600 7.911887
53.605 7.614923
53.610 7.420823
53.615 7.205305
53.620 7.406938
53.625 7.845877
53.630 7.492169
53.635 7.566647
53.640 7.691427
53.645 7.892511
53.650 7.744496
53.655 7.402646
53.660 7.293585
53.665 7.590329
53.670 7.504534
53.675 7.498705
53.680 7.833005
53.685 8.095219
53.690 8.324533
53.695 8.798597
53.700 8.652698
53.705 8.49055
53.710 8.252531
53.715 8.263829
53.720 8.123681
53.725 7.615055
53.730 7.643086
53.735 8.04766
53.740 8.576781
53.745 8.901558
53.750 8.642521
53.755 8.893844
53.760 9.125841
53.765 9.056386
53.770 9.1189
53.775 9.156489
53.780 9.424456
53.785 9.349053
53.790 8.997588
53.795 8.573976
53.800 8.025888
53.805 8.314588
53.810 8.269002
53.815 8.366835
53.820 9.099595
53.825 9.213716
53.830 9.312217
53.835 9.477483
53.840 8.890389
53.845 9.104959
53.850 8.747643
53.855 8.328099
53.860 8.366582
53.865 8.331099
53.870 8.177194
53.875 7.758216
53.880 7.56147
53.885 7.762732
53.890 7.78907
53.895 8.010472
53.900 8.129102
53.905 8.320119
53.910 8.688111
53.915 8.354484
53.920 8.121296
53.925 8.363967
53.930 8.281669
53.935 8.434256
53.940 8.382984
53.945 8.627339
53.950 8.833248
53.955 8.679831
53.960 8.391625
53.965 8.780953
53.970 8.873646
53.975 9.014844
53.980 9.144279
53.985 9.334492
53.990 9.508495
53.995 9.486456
54.000 9.262352
54.005 9.241315
54.010 9.521434
54.015 9.536615
54.020 9.579937
54.025 9.605673
54.030 9.510439
54.035 9.013371
54.040 8.748345
54.045 8.213984
54.050 8.22374
54.055 8.527157
54.060 8.890388
54.065 9.448641
54.070 9.61611
54.075 9.933727
54.080 10.398293
54.085 9.916356
54.090 9.61632
54.095 9.179161
54.100 8.773799
54.105 9.064936
54.110 8.794251
54.115 8.545536
54.120 8.394402
54.125 8.42111
54.130 8.17316
54.135 8.261547
54.140 8.268415
54.145 8.673627
54.150 8.645797
54.155 8.689505
54.160 8.705584
54.165 8.825944
54.170 8.54557
54.175 8.103167
54.180 7.777875
54.185 8.125445
54.190 8.043282
54.195 8.016337
54.200 7.961638
54.205 8.166888
54.210 8.130249
54.215 7.8956
54.220 8.145994
54.225 8.573879
54.230 9.072002
54.235 9.682785
54.240 9.564585
54.245 9.511618
54.250 9.470628
54.255 9.430659
54.260 9.600161
54.265 9.855451
54.270 10.151709
54.275 10.221374
54.280 9.9116
54.285 9.851086
54.290 9.820334
54.295 9.167442
54.300 8.400345
54.305 8.099386
54.310 7.994718
54.315 8.284953
54.320 8.203835
54.325 8.15976
54.330 8.173914
54.335 7.894445
54.340 8.140464
54.345 8.568373
54.350 8.425003
54.355 8.200253
54.360 8.401631
54.365 8.879676
54.370 9.281337
54.375 9.111511
54.380 9.458767
54.385 9.996584
54.390 10.107018
54.395 9.987436
54.400 9.55552
54.405 9.315246
54.410 9.523824
54.415 9.2528
54.420 9.41475
54.425 9.692443
54.430 9.818891
54.435 10.126657
54.440 10.203677
54.445 10.115723
54.450 9.592112
54.455 9.142947
54.460 8.656581
54.465 8.750788
54.470 8.668121
54.475 8.644547
54.480 9.071733
54.485 9.377941
54.490 9.351498
54.495 9.480969
54.500 9.487888
54.505 9.253609
54.510 9.362571
54.515 9.083051
54.520 8.89381
54.525 9.073099
54.530 9.076407
54.535 9.231814
54.540 9.381758
54.545 8.884565
54.550 9.076103
54.555 9.319409
54.560 9.813648
54.565 9.89081
54.570 9.48888
54.575 9.575613
54.580 9.236197
54.585 9.471014
54.590 9.096654
54.595 8.531923
54.600 8.09424
54.605 8.112139
54.610 8.560726
54.615 8.876871
54.620 8.556
54.625 8.727854
54.630 9.069149
54.635 8.968434
54.640 8.998053
54.645 8.513603
54.650 8.110479
54.655 8.349607
54.660 8.552039
54.665 8.880936
54.670 9.052607
54.675 8.941542
54.680 9.660486
54.685 9.965787
54.690 10.044022
54.695 9.878761
54.700 9.81216
54.705 10.100868
54.710 9.732475
54.715 9.43593
54.720 9.552521
54.725 9.574032
54.730 9.861037
54.735 9.748324
54.740 9.631032
54.745 9.932425
54.750 9.767641
54.755 9.834831
54.760 9.882588
54.765 9.522024
54.770 9.864783
54.775 9.859703
54.780 10.097868
54.785 10.667423
54.790 10.556663
54.795 10.138423
54.800 10.257596
54.805 10.275448
54.810 10.845016
54.815 10.698863
54.820 10.088502
54.825 9.85851
54.830 10.173691
54.835 10.016026
54.840 9.79284
54.845 9.027187
54.850 8.76643
54.855 8.710962
54.860 8.406514
54.865 8.401838
54.870 8.371081
54.875 8.512364
54.880 9.083862
54.885 9.389757
54.890 9.964243
54.895 10.726443
54.900 10.654909
54.905 10.692168
54.910 10.576778
54.915 10.622513
54.920 10.326667
54.925 10.106865
54.930 9.716018
54.935 9.937454
54.940 9.771029
54.945 9.695065
54.950 10.072663
54.955 10.02064
54.960 10.177515
54.965 10.130242
54.970 10.135353
54.975 10.760938
54.980 10.802575
54.985 10.687795
54.990 10.710353
54.995 10.134502
55.000 9.942511
55.005 9.57015
55.010 9.234414
55.015 9.227059
55.020 9.236197
55.025 9.569292
55.030 9.404531
55.035 9.909794
55.040 10.195511
55.045 9.994186
55.050 9.673762
55.055 9.380314
55.060 9.596034
55.065 9.814057
55.070 9.933866
55.075 9.90765
55.080 10.187268
55.085 11.004361
55.090 11.05587
55.095 11.032719
55.100 10.877611
55.105 10.80184
55.110 11.11789
55.115 11.044319
55.120 10.605268
55.125 10.450967
55.130 10.484563
55.135 10.418587
55.140 10.062819
55.145 10.168276
55.150 10.094102
55.155 9.938314
55.160 9.859519
55.165 10.085855
55.170 10.608376
55.175 10.386086
55.180 10.139172
55.185 10.165279
55.190 10.209174
55.195 10.480567
55.200 9.866451
55.205 9.616397
55.210 9.900746
55.215 9.959478
55.220 9.853391
55.225 10.054396
55.230 10.218686
55.235 10.489661
55.240 10.684325
55.245 11.284739
55.250 11.356212
55.255 11.723754
55.260 11.263842
55.265 11.216884
55.270 11.242854
55.275 10.71168
55.280 10.448485
55.285 10.541049
55.290 9.960508
55.295 10.113778
55.300 9.871613
55.305 9.86129
55.310 10.174494
55.315 9.979678
55.320 9.923394
55.325 10.445909
55.330 10.515785
55.335 10.957661
55.340 10.923954
55.345 10.836825
55.350 10.646132
55.355 10.926345
55.360 11.354165
55.365 11.432644
55.370 11.180729
55.375 10.72748
55.380 10.482358
55.385 10.610323
55.390 10.517065
55.395 10.490195
55.400 10.348333
55.405 10.617323
55.410 10.973835
55.415 10.625414
55.420 9.889302
55.425 9.188144
55.430 9.296269
55.435 9.165913
55.440 8.901834
55.445 9.164688
55.450 9.912127
55.455 10.326908
55.460 10.606907
55.465 10.786028
55.470 11.19531
55.475 11.116749
55.480 10.637747
55.485 10.542665
55.490 11.022218
55.495 11.270241
55.500 11.065622
55.505 11.069323
55.510 11.34833
55.515 11.568866
55.520 11.529132
55.525 11.176026
55.530 10.740541
55.535 10.283192
55.540 10.311067
55.545 10.388823
55.550 10.879135
55.555 10.837222
55.560 11.019147
55.565 10.912445
55.570 10.801463
55.575 10.497697
55.580 10.295574
55.585 9.764272
55.590 9.715629
55.595 9.919763
55.600 10.16417
55.605 10.359439
55.610 11.021394
55.615 11.10086
55.620 11.194843
55.625 11.214319
55.630 10.91207
55.635 10.755925
55.640 10.769499
55.645 10.352961
55.650 10.256043
55.655 10.29468
55.660 10.614803
55.665 10.440053
55.670 10.296596
55.675 10.185296
55.680 10.276387
55.685 10.519788
55.690 10.543813
55.695 10.525919
55.700 10.400042
55.705 10.610219
55.710 10.650073
55.715 10.332416
55.720 9.91586
55.725 10.057393
55.730 10.274955
55.735 10.921197
55.740 10.708676
55.745 10.727272
55.750 10.914607
55.755 11.161267
55.760 11.056787
55.765 10.727404
55.770 10.796322
55.775 11.285949
55.780 11.67528
55.785 11.866566
55.790 11.619473
55.795 11.726125
55.800 11.524468
55.805 11.273235
55.810 10.911032
55.815 10.480457
55.820 10.840021
55.825 10.796013
55.830 10.823512
55.835 11.373589
55.840 11.607975
55.845 11.77351
55.850 11.66937
55.855 11.186627
55.860 10.947157
55.865 10.499274
55.870 9.99599
55.875 9.322406
55.880 9.167363
55.885 9.000545
55.890 9.079394
55.895 9.116698
55.900 9.554968
55.905 9.78479
55.910 9.847196
55.915 9.89923
55.920 10.373856
55.925 10.509149
55.930 11.065732
55.935 11.292588
55.940 12.132364
55.945 13.416958
55.950 13.861956
55.955 13.80281
55.960 13.67293
55.965 13.70254
55.970 13.720481
55.975 13.217285
55.980 12.548828
55.985 12.06256
55.990 11.887583
55.995 11.98329
56.000 11.620653
56.005 11.237759
56.010 11.187393
56.015 10.51079
56.020 10.415026
56.025 10.627563
56.030 10.645986
56.035 10.017859
56.040 9.821461
56.045 10.055943
56.050 10.291463
56.055 10.715152
56.060 10.768783
56.065 10.953737
56.070 11.351586
56.075 11.529786
56.080 11.213655
56.085 11.170415
56.090 11.390505
56.095 10.962759
56.100 10.881221
56.105 10.843986
56.110 10.550396
56.115 10.579967
56.120 10.534275
56.125 10.130283
56.130 10.315556
56.135 10.564735
56.140 10.455171
56.145 10.073479
56.150 10.012363
56.155 10.176426
56.160 10.184816
56.165 10.162706
56.170 10.266653
56.175 10.57886
56.180 11.36223
56.185 11.928094
56.190 12.209439
56.195 12.284739
56.200 12.446098
56.205 12.259715
56.210 12.304956
56.215 11.903145
56.220 11.891835
56.225 11.712985
56.230 12.14678
56.235 12.412682
56.240 12.529141
56.245 12.672038
56.250 12.763743
56.255 12.558587
56.260 12.195362
56.265 11.753657
56.270 11.25212
56.275 11.202398
56.280 10.952827
56.285 11.220943
56.290 11.135437
56.295 11.247451
56.300 11.437349
56.305 11.717397
56.310 11.775975
56.315 11.913392
56.320 11.763439
56.325 11.903984
56.330 12.14354
56.335 11.979072
56.340 11.851396
56.345 11.503784
56.350 11.362245
56.355 11.186169
56.360 11.401475
56.365 11.469564
56.370 11.562471
56.375 11.727289
56.380 11.816884
56.385 11.774524
56.390 11.789301
56.395 11.716937
56.400 11.566901
56.405 10.962379
56.410 10.775739
56.415 10.793136
56.420 10.642689
56.425 11.119884
56.430 11.203808
56.435 11.442586
56.440 11.593287
56.445 11.693761
56.450 11.849457
56.455 12.23548
56.460 11.687677
56.465 11.540319
56.470 11.249131
56.475 11.477264
56.480 11.527304
56.485 11.481024
56.490 11.597384
56.495 11.763045
56.500 11.457259
56.505 11.185205
56.510 11.18147
56.515 10.866667
56.520 11.17031
56.525 11.311251
56.530 11.389082
56.535 11.816858
56.540 12.136419
56.545 12.213494
56.550 12.915844
56.555 12.650222
56.560 12.434075
56.565 11.867575
56.570 11.935023
56.575 12.030831
56.580 11.524541
56.585 11.130752
56.590 10.851926
56.595 10.978364
56.600 11.225596
56.605 11.098826
56.610 11.006992
56.615 11.264889
56.620 11.621172
56.625 11.389678
56.630 11.247642
56.635 12.077084
56.640 12.084626
56.645 12.622055
56.650 12.542713
56.655 12.378927
56.660 12.778738
56.665 12.661622
56.670 12.058401
56.675 12.344122
56.680 12.019904
56.685 12.233865
56.690 12.621294
56.695 13.232519
56.700 13.715671
56.705 14.099767
56.710 14.521389
56.715 14.206775
56.720 14.341933
56.725 14.212975
56.730 14.203506
56.735 14.067935
56.740 14.098828
56.745 13.94115
56.750 14.12467
56.755 13.560339
56.760 13.713797
56.765 13.496037
56.770 13.089539
56.775 12.517664
56.780 12.147036
56.785 12.2761
56.790 12.413099
56.795 12.276266
56.800 12.006316
56.805 12.261697
56.810 11.998755
56.815 11.978985
56.820 11.734575
56.825 11.738814
56.830 11.449457
56.835 11.691568
56.840 11.582459
56.845 11.614041
56.850 11.333091
56.855 11.052985
56.860 11.037786
56.865 11.011101
56.870 10.981142
56.875 11.29958
56.880 11.61304
56.885 11.800557
56.890 11.670259
56.895 11.947251
56.900 11.711339
56.905 11.615628
56.910 11.636966
56.915 11.475276
56.920 11.756295
56.925 12.272512
56.930 12.293884
56.935 12.690511
56.940 12.701403
56.945 12.771834
56.950 12.780881
56.955 12.791468
56.960 12.462347
56.965 12.340798
56.970 12.238647
56.975 11.865541
56.980 12.130365
56.985 12.463858
56.990 12.71169
56.995 12.808412
57.000 12.792399
57.005 13.237068
57.010 13.538367
57.015 13.072958
57.020 12.691846
57.025 12.13142
57.030 11.911136
57.035 11.464682
57.040 10.786669
57.045 10.9933
57.050 11.594848
57.055 11.904281
57.060 12.142862
57.065 12.443606
57.070 12.756968
57.075 12.438843
57.080 12.377222
57.085 12.203608
57.090 11.91434
57.095 12.164953
57.100 12.216208
57.105 12.139412
57.110 12.509791
57.115 12.459884
57.120 12.502794
57.125 12.335177
57.130 12.047845
57.135 12.348322
57.140 12.80849
57.145 12.875257
57.150 12.709952
57.155 12.950845
57.160 13.354362
57.165 13.150556
57.170 12.846665
57.175 12.614298
57.180 12.245798
57.185 12.336221
57.190 12.895135
57.195 12.720011
57.200 13.104294
57.205 13.596116
57.210 13.791931
57.215 14.034928
57.220 14.07184
57.225 13.601031
57.230 13.814406
57.235 13.656074
57.240 13.109539
57.245 13.301957
57.250 13.185727
57.255 12.966896
57.260 13.010054
57.265 12.524727
57.270 12.520328
57.275 12.427045
57.280 12.136563
57.285 11.853111
57.290 12.194428
57.295 11.752246
57.300 12.09953
57.305 12.320618
57.310 12.435357
57.315 12.942636
57.320 13.062668
57.325 12.774889
57.330 12.800973
57.335 12.976903
57.340 13.12729
57.345 13.029819
57.350 12.967445
57.355 12.954061
57.360 12.669349
57.365 12.787734
57.370 12.590281
57.375 12.296531
57.380 12.520007
57.385 12.391522
57.390 12.139274
57.395 12.273147
57.400 12.547838
57.405 12.56144
57.410 12.02433
57.415 11.625187
57.420 11.516377
57.425 11.42099
57.430 11.63406
57.435 11.171946
57.440 11.405069
57.445 11.881457
57.450 12.044751
57.455 12.105859
57.460 12.214335
57.465 12.167994
57.470 12.521749
57.475 12.52317
57.480 12.568454
57.485 11.971075
57.490 11.999737
57.495 12.159149
57.500 12.612514
57.505 12.273653
57.510 12.027153
57.515 12.07297
57.520 12.319706
57.525 12.665852
57.530 12.457531
57.535 12.008782
57.540 11.749611
57.545 11.627684
57.550 11.656735
57.555 11.8343
57.560 11.974112
57.565 12.260155
57.570 12.739012
57.575 13.115125
57.580 12.661286
57.585 12.947303
57.590 13.307044
57.595 12.919495
57.600 12.662846
57.605 12.171867
57.610 12.192704
57.615 13.005832
57.620 12.511546
57.625 12.357833
57.630 12.614946
57.635 12.903581
57.640 13.42656
57.645 13.396321
57.650 13.205467
57.655 13.217219
57.660 12.858061
57.665 12.449759
57.670 12.107555
57.675 11.87652
57.680 12.468315
57.685 12.484304
57.690 12.646468
57.695 13.405972
57.700 13.529166
57.705 13.938605
57.710 13.829176
57.715 13.345147
57.720 13.72831
57.725 13.607743
57.730 13.451841
57.735 13.385557
57.740 12.932391
57.745 12.968586
57.750 13.12077
57.755 13.007395
57.760 13.001934
57.765 13.180008
57.770 13.071478
57.775 13.277775
57.780 12.869447
57.785 12.372307
57.790 12.207596
57.795 11.72521
57.800 11.30959
57.805 11.46504
57.810 11.700419
57.815 12.008656
57.820 12.31927
57.825 12.428901
57.830 12.997963
57.835 13.613579
57.840 13.34241
57.845 13.535194
57.850 13.648072
57.855 13.84161
57.860 13.995689
57.865 13.525815
57.870 13.53612
57.875 14.143264
57.880 14.102993
57.885 14.00499
57.890 13.828273
57.895 13.49892
57.900 13.418209
57.905 13.008386
57.910 12.692568
57.915 12.461231
57.920 11.929426
57.925 11.653733
57.930 11.978621
57.935 11.759392
57.940 11.961564
57.945 11.811308
57.950 12.332862
57.955 13.229402
57.960 13.997105
57.965 14.735826
57.970 15.361597
57.975 15.983552
57.980 16.271215
57.985 16.478992
57.990 16.494898
57.995 15.419167
58.000 14.728478
58.005 14.580776
58.010 13.948061
58.015 14.135792
58.020 13.760935
58.025 13.312286
58.030 13.650213
58.035 13.764865
58.040 13.761353
58.045 14.040084
58.050 13.673897
58.055 13.773229
58.060 13.997332
58.065 14.180297
58.070 13.67329
58.075 13.489349
58.080 13.262179
58.085 13.436148
58.090 13.651313
58.095 13.606705
58.100 14.061274
58.105 14.601715
58.110 15.138024
58.115 15.385265
58.120 15.06539
58.125 14.935802
58.130 15.061731
58.135 14.746298
58.140 14.486262
58.145 13.471462
58.150 13.060569
58.155 13.395899
58.160 13.248717
58.165 13.211192
58.170 13.178044
58.175 13.559298
58.180 13.922162
58.185 13.410036
58.190 12.973202
58.195 13.029315
58.200 12.643041
58.205 12.400303
58.210 12.266461
58.215 12.3781
58.220 12.86881
58.225 12.879481
58.230 12.79944
58.235 13.017651
58.240 13.197818
58.245 13.105691
58.250 13.001839
58.255 13.108018
58.260 12.93844
58.265 12.6486
58.270 12.361346
58.275 12.375567
58.280 12.203436
58.285 12.242209
58.290 12.266575
58.295 12.295214
58.300 12.731739
58.305 12.976509
58.310 12.938052
58.315 12.591416
58.320 13.089346
58.325 13.132936
58.330 13.123071
58.335 13.118114
58.340 13.351177
58.345 13.568593
58.350 14.273261
58.355 14.256873
58.360 14.6454
58.365 15.086061
58.370 15.077971
58.375 14.972625
58.380 14.914041
58.385 14.810257
58.390 14.888906
58.395 14.334777
58.400 14.324345
58.405 14.278206
58.410 13.9899
58.415 13.686183
58.420 13.539283
58.425 13.677971
58.430 13.862055
58.435 13.788675
58.440 14.010507
58.445 14.38702
58.450 14.654608
58.455 14.887238
58.460 14.697934
58.465 15.063666
58.470 15.33524
58.475 15.267188
58.480 15.312191
58.485 15.642073
58.490 15.334916
58.495 15.339378
58.500 15.024552
58.505 15.007957
58.510 15.296872
58.515 15.121057
58.520 14.314246
58.525 13.725697
58.530 13.207391
58.535 12.881678
58.540 12.38961
58.545 11.760762
58.550 11.776063
58.555 12.210922
58.560 12.921424
58.565 14.046722
58.570 14.463712
58.575 14.851503
58.580 15.342607
58.585 15.205637
58.590 15.231103
58.595 14.592793
58.600 14.229338
58.605 14.17012
58.610 13.920397
58.615 13.739562
58.620 13.633405
58.625 13.867899
58.630 14.737716
58.635 14.575267
58.640 14.584659
58.645 14.890269
58.650 14.557627
58.655 14.809814
58.660 14.500807
58.665 13.528642
58.670 13.204563
58.675 13.031097
58.680 12.798976
58.685 13.398883
58.690 13.138663
58.695 13.051533
58.700 13.45903
58.705 13.802664
58.710 13.717094
58.715 14.209602
58.720 13.96256
58.725 14.265123
58.730 14.241222
58.735 14.520919
58.740 14.429252
58.745 14.418574
58.750 14.233979
58.755 14.158563
58.760 14.165232
58.765 14.151137
58.770 14.284538
58.775 14.274847
58.780 14.418851
58.785 14.239631
58.790 14.062677
58.795 14.079659
58.800 14.098973
58.805 13.955072
58.810 14.428724
58.815 14.340734
58.820 14.409247
58.825 14.575348
58.830 14.362253
58.835 14.127265
58.840 13.736041
58.845 13.219236
58.850 13.018695
58.855 13.016886
58.860 13.38296
58.865 13.862872
58.870 13.724766
58.875 13.537124
58.880 13.390842
58.885 13.926892
58.890 14.53433
58.895 14.391735
58.900 14.115748
58.905 13.92417
58.910 14.885692
58.915 15.22161
58.920 14.450447
58.925 13.888026
58.930 13.664428
58.935 13.801179
58.940 14.01439
58.945 13.624374
58.950 13.446911
58.955 13.655433
58.960 13.74786
58.965 14.225789
58.970 14.806944
58.975 14.845001
58.980 15.114235
58.985 15.317092
58.990 15.104498
58.995 15.153687
59.000 15.049323
59.005 14.720627
59.010 14.95524
59.015 14.733047
59.020 14.836782
59.025 15.889416
59.030 16.118414
59.035 15.946177
59.040 15.997828
59.045 16.068356
59.050 16.201582
59.055 15.6442
59.060 14.97504
59.065 14.940885
59.070 15.216747
59.075 15.293767
59.080 15.278911
59.085 15.310839
59.090 15.157602
59.095 15.245193
59.100 15.295488
59.105 15.161499
59.110 14.906869
59.115 14.697894
59.120 14.971828
59.125 15.631519
59.130 15.488604
59.135 15.234347
59.140 15.190951
59.145 15.856271
59.150 16.188194
59.155 15.821822
59.160 15.405373
59.165 15.637301
59.170 15.752915
59.175 15.553402
59.180 14.342196
59.185 13.949133
59.190 13.891091
59.195 14.046954
59.200 14.096313
59.205 14.062737
59.210 14.1651
59.215 14.503581
59.220 14.122847
59.225 14.075114
59.230 13.630155
59.235 13.323205
59.240 13.399035
59.245 13.842672
59.250 14.793202
59.255 15.614895
59.260 15.959715
59.265 16.030678
59.270 16.308245
59.275 16.381718
59.280 15.936299
59.285 15.740672
59.290 15.454206
59.295 15.34342
59.300 14.76552
59.305 14.481647
59.310 14.093547
59.315 14.232858
59.320 14.043285
59.325 14.094785
59.330 14.164396
59.335 15.111394
59.340 15.377449
59.345 15.943005
59.350 15.885222
59.355 15.729733
59.360 15.92409
59.365 16.227089
59.370 15.667001
59.375 15.57358
59.380 15.355553
59.385 15.712214
59.390 15.839663
59.395 15.299503
59.400 14.702852
59.405 14.404451
59.410 14.259721
59.415 13.866316
59.420 13.486724
59.425 13.483114
59.430 14.088492
59.435 14.717788
59.440 15.241589
59.445 15.181308
59.450 15.904031
59.455 16.038155
59.460 15.744785
59.465 15.835428
59.470 15.923377
59.475 16.199169
59.480 16.266882
59.485 15.903339
59.490 15.80547
59.495 15.947433
59.500 15.83473
59.505 15.446664
59.510 14.797239
59.515 14.772585
59.520 15.055052
59.525 15.057192
59.530 15.069727
59.535 14.965292
59.540 15.399073
59.545 15.921922
59.550 15.795524
59.555 15.489662
59.560 15.885357
59.565 16.440716
59.570 16.878119
59.575 16.501228
59.580 16.173519
59.585 16.156389
59.590 16.205818
59.595 15.908038
59.600 15.694956
59.605 15.555992
59.610 15.938849
59.615 16.389221
59.620 16.987213
59.625 17.644245
59.630 17.711084
59.635 16.822596
59.640 16.713152
59.645 16.073446
59.650 15.76032
59.655 15.430384
59.660 15.595774
59.665 16.454693
59.670 17.264816
59.675 17.583374
59.680 18.302334
59.685 18.583511
59.690 18.819765
59.695 18.837498
59.700 18.238125
59.705 17.782532
59.710 17.99004
59.715 18.067701
59.720 17.5359
59.725 16.987221
59.730 16.393066
59.735 16.138851
59.740 16.943468
59.745 16.553913
59.750 16.783781
59.755 17.260529
59.760 17.868984
59.765 18.190079
59.770 18.740686
59.775 19.082134
59.780 18.857195
59.785 19.311237
59.790 20.305292
59.795 19.998053
59.800 20.616043
59.805 20.572327
59.810 20.203722
59.815 21.102991
59.820 20.079967
59.825 18.796951
59.830 18.935482
59.835 18.481283
59.840 17.966352
59.845 17.705873
59.850 17.234138
59.855 17.89259
59.860 18.330629
59.865 18.213459
59.870 18.141026
59.875 17.970154
59.880 17.70112
59.885 17.599855
59.890 17.832743
59.895 18.217779
59.900 18.880169
59.905 19.235338
59.910 19.627245
59.915 20.086872
59.920 20.392157
59.925 20.384638
59.930 20.081486
59.935 19.410566
59.940 19.090813
59.945 18.609894
59.950 18.448294
59.955 18.027063
59.960 17.633327
59.965 17.528152
59.970 17.175085
59.975 17.401075
59.980 18.608114
59.985 19.06072
59.990 20.207315
59.995 20.360508
60.000 20.461998
60.005 20.6472
60.010 21.127085
60.015 20.211426
60.020 19.565844
60.025 19.277645
60.030 19.634748
60.035 19.758574
60.040 20.504776
60.045 20.881599
60.050 21.776213
60.055 22.03471
60.060 21.7176
60.065 21.75053
60.070 21.68664
60.075 20.478069
60.080 19.906443
60.085 19.848536
60.090 19.747561
60.095 19.422832
60.100 19.738106
60.105 20.013079
60.110 20.619093
60.115 20.890377
60.120 20.844311
60.125 20.527617
60.130 20.486757
60.135 19.863293
60.140 19.896658
60.145 20.040239
60.150 19.988731
60.155 19.737595
60.160 20.150307
60.165 19.840408
60.170 20.172169
60.175 20.132481
60.180 20.442049
60.185 20.51734
60.190 20.729637
60.195 20.800581
60.200 21.317663
60.205 22.149712
60.210 22.306383
60.215 21.992756
60.220 21.689623
60.225 21.737255
60.230 21.8449
60.235 21.326326
60.240 20.558487
60.245 20.756382
60.250 21.269718
60.255 21.440199
60.260 21.464804
60.265 21.372749
60.270 21.453873
60.275 21.14381
60.280 20.946518
60.285 20.829945
60.290 20.691496
60.295 20.828695
60.300 21.146154
60.305 21.176111
60.310 21.003922
60.315 20.517834
60.320 19.922771
60.325 19.983368
60.330 19.818306
60.335 20.022854
60.340 20.006094
60.345 20.298328
60.350 20.664841
60.355 20.332996
60.360 20.513308
60.365 20.149654
60.370 19.591316
60.375 19.568726
60.380 19.450228
60.385 19.638098
60.390 20.633366
60.395 20.145752
60.400 19.522772
60.405 19.598053
60.410 19.222464
60.415 18.804468
60.420 18.756403
60.425 17.97905
60.430 18.970684
60.435 19.535397
60.440 20.110184
60.445 20.504774
60.450 20.809668
60.455 20.345331
60.460 20.208496
60.465 19.467915
60.470 19.7029
60.475 19.734537
60.480 19.401468
60.485 19.146914
60.490 19.001154
60.495 18.731575
60.500 18.51915
60.505 18.845325
60.510 18.422287
60.515 18.774708
60.520 19.534964
60.525 19.655115
60.530 19.884336
60.535 20.174528
60.540 19.594303
60.545 19.680023
60.550 19.562305
60.555 19.325367
60.560 19.794712
60.565 19.877489
60.570 20.331795
60.575 20.741903
60.580 21.104261
60.585 21.434284
60.590 21.423599
60.595 21.257648
60.600 21.303778
60.605 20.689404
60.610 20.130299
60.615 19.347864
60.620 18.943178
60.625 18.478523
60.630 18.32173
60.635 18.324587
60.640 18.124968
60.645 18.63261
60.650 18.680239
60.655 17.940237
60.660 17.912916
60.665 17.701674
60.670 17.451429
60.675 17.405504
60.680 17.145771
60.685 17.548428
60.690 18.236256
60.695 18.493504
60.700 18.464346
60.705 18.592283
60.710 18.425173
60.715 18.34461
60.720 18.311102
60.725 17.979622
60.730 17.700308
60.735 18.062525
60.740 18.147057
60.745 18.700039
60.750 18.707544
60.755 18.408655
60.760 18.478214
60.765 19.085289
60.770 19.329832
60.775 19.233387
60.780 18.997427
60.785 19.218824
60.790 19.500206
60.795 19.733091
60.800 18.712704
60.805 17.908567
60.810 18.430891
60.815 18.118269
60.820 17.928347
60.825 17.947306
60.830 18.009722
60.835 18.587549
60.840 18.609055
60.845 18.381115
60.850 19.049324
60.855 19.77153
60.860 19.827095
60.865 19.47327
60.870 19.445133
60.875 19.474957
60.880 18.885033
60.885 18.425219
60.890 18.103544
60.895 18.218399
60.900 18.915169
60.905 19.211901
60.910 19.100046
60.915 19.186657
60.920 19.225807
60.925 18.892694
60.930 18.317505
60.935 17.561161
60.940 17.344267
60.945 17.171246
60.950 16.759039
60.955 16.289993
60.960 16.256424
60.965 16.347006
60.970 16.055801
60.975 16.102213
60.980 16.555874
60.985 16.789822
60.990 17.038137
60.995 17.298973
61.000 17.995819
61.005 18.927164
61.010 19.349648
61.015 18.94359
61.020 18.832396
61.025 19.155325
61.030 18.779671
61.035 18.252325
61.040 17.775156
61.045 17.045815
61.050 16.857431
61.055 16.391865
61.060 16.496201
61.065 16.728638
61.070 16.733444
61.075 16.780834
61.080 16.969584
61.085 16.859501
61.090 17.170721
61.095 16.807005
61.100 16.611641
61.105 15.913903
61.110 15.959818
61.115 16.202072
61.120 16.468361
61.125 16.437336
61.130 16.3613
61.135 16.147326
61.140 16.629131
61.145 16.235336
61.150 16.611561
61.155 17.26092
61.160 17.056778
61.165 16.919008
61.170 16.889797
61.175 16.609842
61.180 16.542768
61.185 16.329071
61.190 16.166725
61.195 16.461327
61.200 16.156233
61.205 16.49015
61.210 16.810938
61.215 16.908449
61.220 16.451044
61.225 16.221725
61.230 16.2181
61.235 16.564928
61.240 16.732443
61.245 16.537502
61.250 16.346247
61.255 15.882482
61.260 15.817723
61.265 16.296482
61.270 16.321352
61.275 15.919664
61.280 16.043159
61.285 16.657972
61.290 17.069464
61.295 17.019264
61.300 16.568235
61.305 16.335487
61.310 16.20775
61.315 16.253468
61.320 16.215218
61.325 16.665728
61.330 16.986872
61.335 16.842848
61.340 16.525082
61.345 16.258862
61.350 16.283461
61.355 16.382477
61.360 16.078136
61.365 16.037449
61.370 15.858695
61.375 15.763774
61.380 15.855359
61.385 15.457649
61.390 15.136216
61.395 15.036968
61.400 14.814659
61.405 14.990475
61.410 15.298265
61.415 15.362676
61.420 15.524147
61.425 15.521783
61.430 15.678035
61.435 15.360744
61.440 15.484754
61.445 16.061426
61.450 16.217997
61.455 16.340113
61.460 16.630146
61.465 16.95248
61.470 17.716516
61.475 17.852501
61.480 18.043774
61.485 18.207083
61.490 17.927898
61.495 17.428658
61.500 16.983465
61.505 16.71633
61.510 16.934095
61.515 16.342037
61.520 16.08259
61.525 16.330509
61.530 16.464195
61.535 16.633499
61.540 16.556803
61.545 15.794407
61.550 15.985359
61.555 16.578991
61.560 17.161127
61.565 17.287556
61.570 17.191023
61.575 17.71479
61.580 18.072742
61.585 17.788765
61.590 17.08205
61.595 16.591619
61.600 16.498955
61.605 16.51696
61.610 16.41511
61.615 16.784807
61.620 16.626785
61.625 16.963339
61.630 16.658276
61.635 16.546602
61.640 16.496325
61.645 16.03344
61.650 15.695364
61.655 16.233446
61.660 16.176998
61.665 16.291729
61.670 16.054541
61.675 16.425926
61.680 16.430971
61.685 16.262934
61.690 15.830028
61.695 15.595789
61.700 15.764772
61.705 16.431143
61.710 15.949138
61.715 16.312611
61.720 16.706724
61.725 16.843161
61.730 17.394615
61.735 17.752312
61.740 17.242105
61.745 17.3897
61.750 16.873154
61.755 17.000473
61.760 16.977041
61.765 16.241894
61.770 15.815079
61.775 16.105032
61.780 15.910595
61.785 16.263794
61.790 16.096975
61.795 16.566681
61.800 16.464502
61.805 16.303316
61.810 15.997467
61.815 15.80385
61.820 15.83447
61.825 15.856042
61.830 15.549507
61.835 15.96168
61.840 15.829564
61.845 16.177967
61.850 16.494394
61.855 16.469074
61.860 16.615541
61.865 17.108463
61.870 16.836637
61.875 17.406466
61.880 17.150597
61.885 17.068565
61.890 18.068386
61.895 17.241533
61.900 16.321499
61.905 16.563587
61.910 16.589951
61.915 16.782404
61.920 17.055103
61.925 16.395668
61.930 17.058657
61.935 17.824648
61.940 17.95565
61.945 17.366302
61.950 16.550997
61.955 15.991817
61.960 15.7501
61.965 15.984876
61.970 16.369101
61.975 16.561911
61.980 17.243464
61.985 18.051023
61.990 18.118805
61.995 18.679674
62.000 18.36545
62.005 17.828253
62.010 17.664303
62.015 17.765818
62.020 17.431911
62.025 17.451567
62.030 16.627657
62.035 16.379574
62.040 16.672218
62.045 16.389292
62.050 15.847901
62.055 16.074213
62.060 16.312113
62.065 16.584532
62.070 16.115606
62.075 15.910681
62.080 15.989012
62.085 16.4245
62.090 16.581106
62.095 16.562098
62.100 16.48811
62.105 16.726429
62.110 16.544376
62.115 16.594873
62.120 16.340069
62.125 16.623735
62.130 16.800423
62.135 17.301874
62.140 17.725594
62.145 17.856583
62.150 18.085079
62.155 17.635201
62.160 17.096611
62.165 17.254133
62.170 17.661486
62.175 17.65593
62.180 17.766726
62.185 18.060516
62.190 18.249359
62.195 18.521517
62.200 18.450939
62.205 17.953587
62.210 18.375486
62.215 18.544828
62.220 18.348459
62.225 18.834812
62.230 18.336597
62.235 18.074125
62.240 17.653774
62.245 16.828705
62.250 16.269918
62.255 15.642406
62.260 15.371673
62.265 15.295414
62.270 15.336831
62.275 15.227303
62.280 15.143969
62.285 15.023378
62.290 15.299352
62.295 15.353439
62.300 15.660194
62.305 16.335001
62.310 16.839064
62.315 17.201435
62.320 17.138094
62.325 16.793985
62.330 16.950048
62.335 16.534382
62.340 16.167395
62.345 15.491721
62.350 15.354736
62.355 14.882922
62.360 15.009977
62.365 15.017165
62.370 15.078122
62.375 14.477867
62.380 14.353369
62.385 14.118338
62.390 15.162598
62.395 15.306361
62.400 15.164578
62.405 15.489384
62.410 15.721928
62.415 15.932135
62.420 16.424332
62.425 16.428894
62.430 16.631302
62.435 16.987656
62.440 16.797234
62.445 17.196659
62.450 17.494362
62.455 17.005995
62.460 16.533953
62.465 16.278164
62.470 15.840202
62.475 16.051018
62.480 15.577681
62.485 15.578876
62.490 15.875828
62.495 16.121555
62.500 16.402042
62.505 16.341909
62.510 16.474739
62.515 16.841825
62.520 16.4832
62.525 16.524712
62.530 16.321312
62.535 16.095251
62.540 15.964638
62.545 15.948348
62.550 16.399979
62.555 16.129246
62.560 15.953004
62.565 16.026678
62.570 16.235083
62.575 16.464581
62.580 16.120327
62.585 15.547852
62.590 15.40803
62.595 15.286538
62.600 15.296805
62.605 15.727562
62.610 15.61221
62.615 15.400698
62.620 15.963161
62.625 16.745237
62.630 16.753656
62.635 17.002924
62.640 16.825315
62.645 17.339266
62.650 17.461697
62.655 17.202953
62.660 17.139795
62.665 17.176933
62.670 17.134018
62.675 16.957676
62.680 16.74342
62.685 16.774719
62.690 17.726229
62.695 17.871006
62.700 18.042984
62.705 17.493143
62.710 17.768127
62.715 18.010492
62.720 18.094114
62.725 17.082579
62.730 17.224335
62.735 17.170906
62.740 17.786221
62.745 17.317822
62.750 17.305328
62.755 17.226606
62.760 17.599014
62.765 17.50235
62.770 17.144743
62.775 16.522833
62.780 16.567533
62.785 16.576241
62.790 16.208168
62.795 16.094482
62.800 15.804288
62.805 15.844716
62.810 15.875717
62.815 15.949046
62.820 16.087585
62.825 16.914158
62.830 16.645952
62.835 16.449633
62.840 17.182833
62.845 16.777786
62.850 16.659115
62.855 16.656742
62.860 16.361786
62.865 16.84967
62.870 16.793501
62.875 16.32832
62.880 16.683233
62.885 16.174187
62.890 15.805806
62.895 15.550565
62.900 15.109746
62.905 15.033577
62.910 14.789674
62.915 15.118182
62.920 15.206728
62.925 15.016932
62.930 14.952779
62.935 15.235308
62.940 15.674325
62.945 16.075068
62.950 16.011909
62.955 16.48033
62.960 16.569239
62.965 16.538258
62.970 16.659355
62.975 16.769562
62.980 16.826422
62.985 16.660513
62.990 16.692217
62.995 16.94203
63.000 17.205555
63.005 17.383289
63.010 17.391699
63.015 17.474705
63.020 17.692184
63.025 17.37822
63.030 16.974792
63.035 16.901684
63.040 16.8256
63.045 16.314791
63.050 16.37911
63.055 16.63607
63.060 16.915089
63.065 17.211195
63.070 16.838799
63.075 16.938702
63.080 17.334263
63.085 17.219687
63.090 16.57222
63.095 16.417038
63.100 16.876343
63.105 16.926989
63.110 16.648361
63.115 16.642365
63.120 16.413572
63.125 16.32897
63.130 16.525467
63.135 16.106058
63.140 15.951684
63.145 15.78929
63.150 15.86267
63.155 16.430498
63.160 16.678247
63.165 16.128815
63.170 15.952325
63.175 16.446337
63.180 16.74992
63.185 16.781656
63.190 16.329987
63.195 16.156292
63.200 16.541582
63.205 16.67351
63.210 16.408329
63.215 16.327665
63.220 15.777145
63.225 15.751761
63.230 16.006014
63.235 16.096588
63.240 15.969527
63.245 15.590355
63.250 15.506884
63.255 16.134813
63.260 16.328192
63.265 16.420443
63.270 16.218479
63.275 16.490311
63.280 17.000853
63.285 17.335958
63.290 17.206919
63.295 17.249903
63.300 17.410606
63.305 17.942097
63.310 18.39139
63.315 18.342182
63.320 17.98785
63.325 17.770504
63.330 17.60968
63.335 17.207714
63.340 16.895853
63.345 16.300608
63.350 16.2721
63.355 16.702173
63.360 17.286942
63.365 17.205578
63.370 17.107895
63.375 17.324867
63.380 17.534296
63.385 18.161491
63.390 17.573122
63.395 17.521042
63.400 18.248266
63.405 18.339441
63.410 18.704447
63.415 18.993969
63.420 18.94681
63.425 19.185747
63.430 18.977657
63.435 18.524921
63.440 18.171309
63.445 17.754019
63.450 17.140791
63.455 17.122072
63.460 17.572561
63.465 17.673716
63.470 17.364021
63.475 17.907261
63.480 17.495321
63.485 17.50477
63.490 17.172394
63.495 16.374887
63.500 16.096954
63.505 16.416508
63.510 16.582333
63.515 17.394144
63.520 17.321877
63.525 17.171873
63.530 17.392628
63.535 17.768042
63.540 17.578808
63.545 17.134687
63.550 16.576994
63.555 16.001429
63.560 15.950641
63.565 16.027035
63.570 15.839823
63.575 16.253609
63.580 16.303778
63.585 16.076893
63.590 16.596054
63.595 16.533667
63.600 16.437916
63.605 16.223164
63.610 16.312225
63.615 16.674841
63.620 17.216433
63.625 17.434494
63.630 16.918373
63.635 17.012243
63.640 17.437508
63.645 17.160439
63.650 16.611263
63.655 16.571457
63.660 17.053621
63.665 17.425791
63.670 17.231459
63.675 16.959959
63.680 16.994242
63.685 17.370975
63.690 17.070698
63.695 17.031919
63.700 17.099232
63.705 17.067133
63.710 16.630432
63.715 16.655289
63.720 16.360718
63.725 16.131727
63.730 15.910617
63.735 16.085802
63.740 15.734097
63.745 15.878842
63.750 15.555977
63.755 15.742348
63.760 15.53716
63.765 15.118131
63.770 15.086392
63.775 15.7869
63.780 15.8713
63.785 16.200954
63.790 16.726362
63.795 17.445728
63.800 17.49085
63.805 17.163925
63.810 17.066263
63.815 17.179714
63.820 16.618958
63.825 16.411165
63.830 16.60177
63.835 17.298603
63.840 18.142761
63.845 17.714043
63.850 17.544844
63.855 18.061954
63.860 17.816982
63.865 17.673946
63.870 17.055349
63.875 16.881618
63.880 17.403437
63.885 17.618645
63.890 17.430431
63.895 17.627096
63.900 17.228033
63.905 17.108025
63.910 16.7456
63.915 16.653093
63.920 16.841717
63.925 16.817162
63.930 16.328234
63.935 16.72613
63.940 16.967377
63.945 16.850195
63.950 16.538174
63.955 16.384865
63.960 17.092949
63.965 17.714643
63.970 17.287407
63.975 17.662121
63.980 17.953747
63.985 17.814976
63.990 17.661919
63.995 17.534132
64.000 17.319962
64.005 18.082541
64.010 18.238277
64.015 18.664454
64.020 19.129398
64.025 19.154222
64.030 18.701471
64.035 18.639872
64.040 18.077738
64.045 17.66301
64.050 17.258877
64.055 17.362732
64.060 17.360046
64.065 17.832861
64.070 18.276052
64.075 18.450848
64.080 18.492283
64.085 18.445541
64.090 17.963602
64.095 17.255409
64.100 16.776667
64.105 16.121622
64.110 16.244053
64.115 16.306128
64.120 16.725775
64.125 17.325813
64.130 17.758295
64.135 17.674706
64.140 17.644289
64.145 17.136436
64.150 17.412153
64.155 17.150412
64.160 16.391436
64.165 16.52166
64.170 16.645666
64.175 16.672756
64.180 16.624685
64.185 16.279709
64.190 16.295225
64.195 16.789289
64.200 16.365717
64.205 16.230541
64.210 16.053833
64.215 16.165592
64.220 16.727991
64.225 17.363251
64.230 17.300806
64.235 17.195171
64.240 17.17638
64.245 17.173653
64.250 16.997797
64.255 17.09363
64.260 16.753309
64.265 16.611599
64.270 16.981691
64.275 17.243301
64.280 17.291876
64.285 17.096205
64.290 16.08058
64.295 16.063019
64.300 16.290874
64.305 16.540876
64.310 16.73509
64.315 17.101891
64.320 17.262417
64.325 17.134323
64.330 16.636206
64.335 16.515936
64.340 16.750294
64.345 16.46003
64.350 16.553719
64.355 17.094707
64.360 18.463654
64.365 19.793919
64.370 20.204365
64.375 19.695658
64.380 19.966417
64.385 20.364326
64.390 20.009901
64.395 19.113249
64.400 18.255209
64.405 17.868896
64.410 18.039082
64.415 17.28706
64.420 16.66329
64.425 16.247562
64.430 16.398718
64.435 16.868122
64.440 17.35074
64.445 17.429003
64.450 17.748158
64.455 17.703045
64.460 17.962198
64.465 17.773476
64.470 17.646185
64.475 17.865326
64.480 18.441198
64.485 18.920427
64.490 19.5933
64.495 19.943743
64.500 20.19595
64.505 19.62616
64.510 19.37381
64.515 19.138966
64.520 19.026274
64.525 18.656948
64.530 18.355028
64.535 18.249674
64.540 18.809273
64.545 18.692148
64.550 18.506634
64.555 18.778011
64.560 18.436991
64.565 18.708483
64.570 18.992371
64.575 18.68091
64.580 18.359434
64.585 18.741657
64.590 18.437523
64.595 18.565701
64.600 18.693964
64.605 18.67646
64.610 18.890417
64.615 19.013067
64.620 19.087296
64.625 19.096394
64.630 19.179512
64.635 19.45705
64.640 19.618767
64.645 19.488071
64.650 19.287312
64.655 18.703365
64.660 18.711535
64.665 18.383144
64.670 17.774666
64.675 17.103476
64.680 17.215164
64.685 17.632381
64.690 17.618267
64.695 17.390917
64.700 17.839914
64.705 17.851698
64.710 17.966331
64.715 17.712181
64.720 17.373127
64.725 17.632534
64.730 18.275339
64.735 18.167673
64.740 18.561947
64.745 18.820656
64.750 18.948072
64.755 18.625729
64.760 18.507973
64.765 18.918947
64.770 18.987082
64.775 19.742834
64.780 20.168121
64.785 20.363251
64.790 21.136663
64.795 22.04454
64.800 21.687859
64.805 21.364174
64.810 20.800591
64.815 20.094633
64.820 19.912964
64.825 19.717684
64.830 19.072117
64.835 18.82579
64.840 18.703156
64.845 18.39974
64.850 18.77387
64.855 18.945887
64.860 18.876806
64.865 19.26298
64.870 19.544739
64.875 19.544657
64.880 19.420019
64.885 19.303818
64.890 19.866362
64.895 19.508364
64.900 19.009258
64.905 18.799105
64.910 18.766647
64.915 18.994097
64.920 19.091179
64.925 18.699018
64.930 18.752695
64.935 18.340363
64.940 18.366009
64.945 18.245541
64.950 18.446692
64.955 19.320097
64.960 19.789589
64.965 20.007233
64.970 20.589396
64.975 21.067909
64.980 21.915699
64.985 21.565058
64.990 21.064672
64.995 20.699892
65.000 20.979292
65.005 20.650095
65.010 20.329758
65.015 20.209694
65.020 20.961239
65.025 20.768471
65.030 20.970827
65.035 20.823179
65.040 20.776131
65.045 21.37005
65.050 20.976595
65.055 20.872944
65.060 21.226025
65.065 21.734488
65.070 22.103045
65.075 22.300512
65.080 22.005718
65.085 22.420982
65.090 22.062992
65.095 21.695148
65.100 21.025139
65.105 20.703398
65.110 21.145266
65.115 21.398685
65.120 20.909681
65.125 21.234013
65.130 21.340807
65.135 21.635153
65.140 22.50902
65.145 21.86758
65.150 21.571415
65.155 21.788099
65.160 21.487869
65.165 22.161436
65.170 22.078213
65.175 21.514034
65.180 21.507179
65.185 21.426836
65.190 21.519388
65.195 21.114754
65.200 20.395332
65.205 20.222216
65.210 20.115194
65.215 20.419851
65.220 20.802917
65.225 21.058491
65.230 20.988995
65.235 20.448694
65.240 20.80345
65.245 20.819267
65.250 20.801933
65.255 20.153336
65.260 20.019648
65.265 20.20199
65.270 20.498476
65.275 19.992332
65.280 19.576693
65.285 19.312712
65.290 19.48484
65.295 19.185024
65.300 20.053761
65.305 20.830338
65.310 20.755568
65.315 21.778093
65.320 21.861488
65.325 21.968784
65.330 22.251486
65.335 21.964584
65.340 21.476259
65.345 21.823652
65.350 21.735106
65.355 22.144863
65.360 22.918325
65.365 23.405321
65.370 23.093231
65.375 23.78042
65.380 23.64986
65.385 23.234861
65.390 23.433531
65.395 22.755045
65.400 22.137798
65.405 22.565781
65.410 22.768192
65.415 23.425854
65.420 24.165688
65.425 23.832233
65.430 24.405388
65.435 25.299858
65.440 25.70652
65.445 25.505802
65.450 25.425018
65.455 25.078476
65.460 25.118904
65.465 25.211653
65.470 24.205603
65.475 23.470934
65.480 23.455605
65.485 23.221956
65.490 22.827333
65.495 23.168596
65.500 23.256241
65.505 23.92165
65.510 24.909859
65.515 25.634109
65.520 26.116116
65.525 26.30863
65.530 26.040356
65.535 26.177877
65.540 27.035299
65.545 26.85133
65.550 26.821148
65.555 27.601477
65.560 28.032213
65.565 27.651407
65.570 27.314072
65.575 27.189882
65.580 27.85829
65.585 27.62228
65.590 27.193291
65.595 27.44717
65.600 28.514679
65.605 28.785833
65.610 28.283056
65.615 27.754805
65.620 28.202499
65.625 28.469913
65.630 28.374195
65.635 28.079714
65.640 28.165236
65.645 28.211506
65.650 28.651203
65.655 28.356602
65.660 28.495356
65.665 30.01263
65.670 31.028225
65.675 31.867958
65.680 33.11842
65.685 33.433605
65.690 33.531532
65.695 33.375336
65.700 32.344673
65.705 32.093819
65.710 32.654938
65.715 32.368034
65.720 32.090446
65.725 32.309452
65.730 32.307816
65.735 32.401104
65.740 32.058502
65.745 31.197008
65.750 31.121496
65.755 31.203341
65.760 31.699278
65.765 31.830194
65.770 32.253147
65.775 33.243031
65.780 33.826324
65.785 34.714638
65.790 35.085171
65.795 35.684658
65.800 36.035084
65.805 36.137909
65.810 35.357311
65.815 34.735786
65.820 34.552437
65.825 34.861084
65.830 33.986237
65.835 33.045647
65.840 32.664696
65.845 33.107586
65.850 33.190845
65.855 33.509834
65.860 33.239155
65.865 34.797672
65.870 36.380028
65.875 37.216209
65.880 37.893848
65.885 38.308903
65.890 37.763111
65.895 37.235031
65.900 36.893703
65.905 36.646126
65.910 36.002453
65.915 35.077629
65.920 35.367886
65.925 35.399536
65.930 35.980846
65.935 35.448761
65.940 35.084194
65.945 35.641018
65.950 36.658619
65.955 36.371006
65.960 36.522919
65.965 36.437824
65.970 36.486763
65.975 36.19339
65.980 35.466583
65.985 35.251736
65.990 35.648289
65.995 35.869663
66.000 36.060387
66.005 36.081985
66.010 36.816833
66.015 37.122009
66.020 36.669399
66.025 36.540073
66.030 37.16317
66.035 36.683659
66.040 36.368454
66.045 35.732746
66.050 35.172817
66.055 34.522949
66.060 34.781307
66.065 34.635483
66.070 34.622688
66.075 34.915134
66.080 35.523582
66.085 36.112778
66.090 36.439079
66.095 35.890179
66.100 35.269886
66.105 35.670048
66.110 35.315174
66.115 34.60379
66.120 34.808514
66.125 35.2491
66.130 36.156124
66.135 36.604843
66.140 36.787895
66.145 36.865467
66.150 36.81982
66.155 36.121647
66.160 35.748219
66.165 35.522232
66.170 34.860615
66.175 34.057076
66.180 34.341854
66.185 34.237629
66.190 34.703377
66.195 34.734249
66.200 34.492847
66.205 34.625523
66.210 34.278698
66.215 34.04277
66.220 34.536095
66.225 34.112995
66.230 33.514317
66.235 33.681614
66.240 35.014038
66.245 34.92094
66.250 34.125732
66.255 33.378925
66.260 32.934711
66.265 32.819859
66.270 31.789534
66.275 30.224638
66.280 30.302252
66.285 30.395615
66.290 30.476988
66.295 30.370871
66.300 30.364763
66.305 30.106976
66.310 30.430248
66.315 30.333084
66.320 30.048985
66.325 30.10903
66.330 30.120783
66.335 30.199507
66.340 30.183702
66.345 29.821663
66.350 29.622326
66.355 29.420326
66.360 29.104731
66.365 28.94243
66.370 28.605373
66.375 28.979816
66.380 28.864643
66.385 29.179466
66.390 29.410378
66.395 29.460848
66.400 29.472786
66.405 29.167938
66.410 29.388578
66.415 29.791727
66.420 29.390438
66.425 29.21287
66.430 29.364153
66.435 29.290968
66.440 29.102213
66.445 28.778963
66.450 28.365419
66.455 29.045086
66.460 28.808805
66.465 28.435743
66.470 28.168259
66.475 27.934528
66.480 27.257271
66.485 27.34267
66.490 27.280731
66.495 27.022194
66.500 27.151821
66.505 26.950106
66.510 27.369553
66.515 26.705275
66.520 26.248499
66.525 26.18231
66.530 26.561199
66.535 26.674541
66.540 27.33815
66.545 27.560894
66.550 27.928841
66.555 27.728643
66.560 27.645815
66.565 28.227589
66.570 28.204895
66.575 27.528845
66.580 26.414091
66.585 25.698765
66.590 25.510227
66.595 24.62521
66.600 23.38702
66.605 22.438061
66.610 22.152706
66.615 22.394686
66.620 22.998167
66.625 23.833263
66.630 24.274658
66.635 24.917219
66.640 26.04516
66.645 26.831522
66.650 27.607191
66.655 27.295422
66.660 26.52471
66.665 25.804417
66.670 25.736658
66.675 24.968903
66.680 25.038034
66.685 25.01046
66.690 25.157829
66.695 25.076704
66.700 25.616112
66.705 26.055832
66.710 25.753363
66.715 25.297712
66.720 24.848335
66.725 24.677994
66.730 24.740459
66.735 24.06278
66.740 23.844084
66.745 24.314293
66.750 24.240755
66.755 24.74625
66.760 24.680048
66.765 24.970552
66.770 25.201038
66.775 24.849852
66.780 24.786131
66.785 24.37252
66.790 23.645296
66.795 23.210573
66.800 22.992027
66.805 22.789364
66.810 22.852388
66.815 22.766855
66.820 23.03735
66.825 23.584484
66.830 23.781128
66.835 23.508919
66.840 23.248476
66.845 22.99563
66.850 22.880838
66.855 22.237806
66.860 23.097351
66.865 22.94916
66.870 23.26314
66.875 23.487215
66.880 23.365713
66.885 23.196705
66.890 23.10882
66.895 21.610201
66.900 21.749294
66.905 21.85931
66.910 21.65333
66.915 21.434319
66.920 21.330742
66.925 22.125267
66.930 22.54285
66.935 22.002594
66.940 22.31406
66.945 22.896465
66.950 22.913668
66.955 23.089008
66.960 22.431677
66.965 22.952616
66.970 22.995121
66.975 21.956753
66.980 21.516472
66.985 21.591007
66.990 21.316063
66.995 21.065048
67.000 21.064634
67.005 21.811209
67.010 22.34251
67.015 22.060589
67.020 21.804163
67.025 22.06966
67.030 22.390579
67.035 22.079304
67.040 21.45236
67.045 21.517702
67.050 21.810717
67.055 22.064892
67.060 21.727749
67.065 21.146227
67.070 20.67275
67.075 21.186182
67.080 21.500469
67.085 21.758518
67.090 22.222734
67.095 22.038166
67.100 21.971382
67.105 22.318289
67.110 22.755121
67.115 22.498587
67.120 22.508919
67.125 21.945818
67.130 22.183628
67.135 22.285925
67.140 22.125177
67.145 21.177832
67.150 21.032568
67.155 21.122416
67.160 21.480349
67.165 21.821796
67.170 21.669092
67.175 21.434429
67.180 21.477528
67.185 21.649635
67.190 21.529959
67.195 21.059786
67.200 21.093624
67.205 21.440441
67.210 22.247549
67.215 22.569798
67.220 22.527822
67.225 22.485189
67.230 23.367062
67.235 23.603691
67.240 23.566437
67.245 22.799425
67.250 22.468458
67.255 22.248461
67.260 22.290327
67.265 21.763781
67.270 21.346376
67.275 21.000866
67.280 21.077217
67.285 20.802942
67.290 20.92552
67.295 20.462093
67.300 19.665281
67.305 19.814882
67.310 20.206379
67.315 20.729675
67.320 20.547785
67.325 20.114075
67.330 20.42477
67.335 20.949036
67.340 20.482569
67.345 20.498116
67.350 20.339502
67.355 20.274046
67.360 20.534765
67.365 20.227741
67.370 20.286219
67.375 20.645304
67.380 19.92931
67.385 20.336346
67.390 20.743105
67.395 20.80604
67.400 21.025658
67.405 20.923401
67.410 21.059763
67.415 21.589024
67.420 21.469854
67.425 21.040823
67.430 20.755314
67.435 20.79925
67.440 20.576761
67.445 20.802376
67.450 20.512802
67.455 20.171497
67.460 20.515831
67.465 21.04277
67.470 21.105677
67.475 21.026464
67.480 21.295671
67.485 21.960497
67.490 22.178474
67.495 21.981665
67.500 22.031168
67.505 22.469431
67.510 23.110876
67.515 22.774082
67.520 22.815054
67.525 23.302923
67.530 23.957939
67.535 24.291315
67.540 23.48823
67.545 22.993334
67.550 22.661249
67.555 21.742943
67.560 20.870541
67.565 19.474632
67.570 19.371107
67.575 19.774529
67.580 19.844656
67.585 19.695595
67.590 20.061413
67.595 20.853798
67.600 21.198324
67.605 21.023602
67.610 21.042597
67.615 20.741571
67.620 20.877127
67.625 20.894638
67.630 21.011312
67.635 21.123278
67.640 21.390112
67.645 21.043722
67.650 20.757244
67.655 20.828125
67.660 20.170637
67.665 19.88788
67.670 19.705219
67.675 19.536825
67.680 19.87417
67.685 20.470417
67.690 20.287371
67.695 20.640156
67.700 20.613836
67.705 20.285782
67.710 19.804741
67.715 20.326828
67.720 20.514393
67.725 20.327934
67.730 20.110916
67.735 19.907276
67.740 20.143642
67.745 20.119394
67.750 19.416008
67.755 19.349083
67.760 20.162485
67.765 19.934549
67.770 19.527077
67.775 19.594202
67.780 19.736174
67.785 19.411663
67.790 18.754391
67.795 18.743719
67.800 19.23962
67.805 19.686356
67.810 20.098751
67.815 20.271801
67.820 20.607723
67.825 20.867252
67.830 20.002508
67.835 19.607452
67.840 19.369833
67.845 18.04631
67.850 17.816486
67.855 18.160252
67.860 18.574644
67.865 19.233192
67.870 19.299719
67.875 19.506538
67.880 21.007938
67.885 21.08853
67.890 20.878796
67.895 20.457346
67.900 20.195972
67.905 20.042637
67.910 20.035223
67.915 19.701183
67.920 20.039951
67.925 20.137411
67.930 20.419458
67.935 20.009972
67.940 20.623526
67.945 20.879129
67.950 20.38501
67.955 20.508768
67.960 20.975199
67.965 21.189541
67.970 21.761759
67.975 21.780979
67.980 22.26634
67.985 22.823954
67.990 22.73472
67.995 21.712112
68.000 21.396852
68.005 21.20048
68.010 21.105053
68.015 20.812048
68.020 20.83062
68.025 20.877377
68.030 21.493402
68.035 21.39555
68.040 21.835171
68.045 21.146904
68.050 21.152987
68.055 20.647474
68.060 20.329185
68.065 20.492283
68.070 20.84166
68.075 20.919428
68.080 21.694984
68.085 22.055233
68.090 22.650541
68.095 22.200686
68.100 21.58639
68.105 22.036875
68.110 22.070034
68.115 21.568657
68.120 21.320332
68.125 21.263983
68.130 21.363991
68.135 21.383133
68.140 20.972721
68.145 20.160995
68.150 19.662773
68.155 19.264072
68.160 19.571852
68.165 19.859095
68.170 19.477917
68.175 19.361584
68.180 20.038351
68.185 20.505953
68.190 20.633839
68.195 20.477051
68.200 21.15307
68.205 21.775236
68.210 21.968502
68.215 22.090929
68.220 21.227407
68.225 21.015303
68.230 20.761162
68.235 20.448849
68.240 20.004145
68.245 19.628838
68.250 20.104124
68.255 20.898113
68.260 20.79261
68.265 20.128887
68.270 20.434483
68.275 21.0156
68.280 21.26017
68.285 20.881599
68.290 20.779303
68.295 21.178558
68.300 21.450901
68.305 20.931829
68.310 20.456526
68.315 20.720955
68.320 21.110426
68.325 20.957666
68.330 20.783293
68.335 20.414711
68.340 20.368664
68.345 20.056761
68.350 19.019068
68.355 18.499573
68.360 18.394163
68.365 19.067873
68.370 20.130239
68.375 21.085121
68.380 21.439726
68.385 21.202766
68.390 21.030592
68.395 21.145981
68.400 20.85331
68.405 20.202753
68.410 19.917871
68.415 20.117458
68.420 20.374426
68.425 20.510704
68.430 20.211752
68.435 19.890804
68.440 19.720896
68.445 19.833738
68.450 20.465343
68.455 20.519279
68.460 20.999825
68.465 21.446276
68.470 21.735991
68.475 21.101208
68.480 20.835375
68.485 20.621658
68.490 20.776989
68.495 20.31822
68.500 20.303637
68.505 20.532167
68.510 20.734463
68.515 20.442369
68.520 20.301311
68.525 20.468678
68.530 20.137115
68.535 19.636101
68.540 19.550724
68.545 19.474054
68.550 19.483049
68.555 19.302759
68.560 18.963367
68.565 18.97019
68.570 19.138958
68.575 18.93712
68.580 18.891605
68.585 18.41239
68.590 18.419245
68.595 19.15584
68.600 19.618084
68.605 19.991087
68.610 20.680811
68.615 21.30677
68.620 21.904301
68.625 22.304129
68.630 21.973036
68.635 21.741255
68.640 21.568123
68.645 21.226488
68.650 21.237146
68.655 21.698996
68.660 21.874441
68.665 22.229193
68.670 21.948622
68.675 21.839249
68.680 21.36903
68.685 21.124451
68.690 20.877699
68.695 20.828203
68.700 20.723604
68.705 20.71487
68.710 20.46137
68.715 21.02877
68.720 21.058432
68.725 20.74991
68.730 20.068062
68.735 20.080524
68.740 20.395935
68.745 20.903646
68.750 21.078814
68.755 21.367111
68.760 21.991533
68.765 22.349548
68.770 22.215847
68.775 22.955877
68.780 22.738255
68.785 22.798344
68.790 22.686478
68.795 22.188843
68.800 22.631786
68.805 23.058668
68.810 22.983448
68.815 23.548899
68.820 22.765648
68.825 22.54104
68.830 22.772644
68.835 23.01679
68.840 22.8283
68.845 22.478512
68.850 22.390379
68.855 22.53417
68.860 22.904472
68.865 23.014273
68.870 21.691963
68.875 20.78396
68.880 19.842165
68.885 18.854324
68.890 18.513407
68.895 18.767578
68.900 18.543921
68.905 19.288658
68.910 19.77623
68.915 20.594275
68.920 21.447636
68.925 21.864288
68.930 22.073925
68.935 22.217447
68.940 22.512104
68.945 22.926994
68.950 23.439484
68.955 23.504992
68.960 23.743788
68.965 23.366425
68.970 23.113344
68.975 23.749142
68.980 23.797499
68.985 23.167366
68.990 23.095732
68.995 22.389822
69.000 22.441448
69.005 22.805223
69.010 22.776936
69.015 22.511456
69.020 22.65517
69.025 22.58485
69.030 22.491201
69.035 22.051697
69.040 21.321844
69.045 20.820581
69.050 21.141491
69.055 21.591818
69.060 22.36705
69.065 22.915812
69.070 23.584312
69.075 24.905582
69.080 25.406105
69.085 25.201283
69.090 25.248495
69.095 24.370604
69.100 24.794504
69.105 25.290009
69.110 24.655668
69.115 25.19091
69.120 25.943571
69.125 25.425627
69.130 25.982208
69.135 25.459761
69.140 25.193615
69.145 25.149166
69.150 23.967125
69.155 23.258629
69.160 23.241222
69.165 23.213463
69.170 23.482117
69.175 23.973734
69.180 24.268026
69.185 24.820499
69.190 25.288107
69.195 26.064629
69.200 26.387493
69.205 26.208902
69.210 26.448343
69.215 26.584061
69.220 26.8057
69.225 27.003136
69.230 26.801001
69.235 26.729963
69.240 26.652048
69.245 26.673813
69.250 26.769815
69.255 26.996708
69.260 27.09553
69.265 26.807613
69.270 26.796633
69.275 26.328363
69.280 26.198151
69.285 26.467752
69.290 26.510521
69.295 26.561869
69.300 27.185932
69.305 26.838842
69.310 26.515068
69.315 25.674112
69.320 25.129219
69.325 25.100336
69.330 24.519556
69.335 24.388372
69.340 25.250122
69.345 25.71953
69.350 26.760544
69.355 27.261848
69.360 27.028711
69.365 27.394714
69.370 27.627962
69.375 27.648888
69.380 28.100801
69.385 28.083645
69.390 28.181234
69.395 29.055511
69.400 29.127874
69.405 29.152943
69.410 29.362928
69.415 29.505291
69.420 29.060015
69.425 29.35013
69.430 29.099607
69.435 28.964582
69.440 28.827248
69.445 28.671621
69.450 28.682367
69.455 29.040159
69.460 28.469536
69.465 27.679708
69.470 27.820559
69.475 27.76025
69.480 27.797739
69.485 27.960154
69.490 27.207012
69.495 27.393463
69.500 28.374407
69.505 28.585104
69.510 28.446617
69.515 28.064323
69.520 28.135443
69.525 28.241293
69.530 28.352024
69.535 28.252304
69.540 27.865837
69.545 28.333714
69.550 28.131342
69.555 28.182249
69.560 28.302853
69.565 27.868431
69.570 28.021391
69.575 28.393167
69.580 28.530096
69.585 29.320635
69.590 29.593128
69.595 29.967484
69.600 30.422342
69.605 30.464586
69.610 30.417938
69.615 30.104662
69.620 29.529291
69.625 29.237116
69.630 29.235132
69.635 29.712095
69.640 29.828468
69.645 29.662027
69.650 29.390966
69.655 29.261745
69.660 28.953568
69.665 28.224382
69.670 27.431421
69.675 27.263424
69.680 27.39312
69.685 27.81888
69.690 27.024078
69.695 27.345652
69.700 27.588665
69.705 27.336397
69.710 26.781231
69.715 26.575113
69.720 26.785759
69.725 27.689653
69.730 28.223652
69.735 28.567989
69.740 28.735209
69.745 29.032009
69.750 28.849392
69.755 28.386284
69.760 27.580845
69.765 26.679163
69.770 25.589146
69.775 25.532406
69.780 24.992556
69.785 25.090363
69.790 25.493008
69.795 26.103039
69.800 26.340851
69.805 26.033434
69.810 25.998291
69.815 25.841879
69.820 25.113134
69.825 24.674839
69.830 23.988861
69.835 23.736814
69.840 23.924604
69.845 24.322807
69.850 24.617996
69.855 25.10288
69.860 24.1542
69.865 23.983334
69.870 24.673279
69.875 24.564762
69.880 24.597942
69.885 25.273674
69.890 25.36331
69.895 25.683449
69.900 26.258478
69.905 25.915064
69.910 25.632051
69.915 24.776155
69.920 23.88254
69.925 22.992376
69.930 22.626579
69.935 22.262342
69.940 22.225832
69.945 21.911734
69.950 21.27841
69.955 21.1765
69.960 21.630695
69.965 21.613457
69.970 21.649643
69.975 21.854628
69.980 22.514441
69.985 23.027962
69.990 23.257389
69.995 23.082592
70.000 23.078976
70.005 22.527275
70.010 22.008575
70.015 22.365665
70.020 22.380804
70.025 22.438065
70.030 22.741711
70.035 22.757645
70.040 22.875654
70.045 22.556459
70.050 22.173128
70.055 22.441305
70.060 22.484545
70.065 22.534773
70.070 21.946642
70.075 21.999765
70.080 22.001665
70.085 21.785458
70.090 21.142256
70.095 20.182156
70.100 19.986273
70.105 19.908819
70.110 19.681931
70.115 19.700596
70.120 19.534893
70.125 19.955854
70.130 20.279352
70.135 20.63558
70.140 21.499922
70.145 21.388433
70.150 21.362534
70.155 21.719217
70.160 21.4786
70.165 21.580894
70.170 21.025795
70.175 20.604805
70.180 20.702806
70.185 20.541824
70.190 20.272295
70.195 20.355104
70.200 20.51265
70.205 21.236181
70.210 21.432911
70.215 21.956621
70.220 22.185556
70.225 22.561502
70.230 22.497181
70.235 21.896563
70.240 20.814463
70.245 20.30402
70.250 19.978996
70.255 19.876221
70.260 19.509708
70.265 19.771086
70.270 19.758333
70.275 19.914993
70.280 19.853392
70.285 19.680351
70.290 20.067989
70.295 20.635164
70.300 21.28837
70.305 20.796772
70.310 20.763823
70.315 21.284939
70.320 21.079277
70.325 20.618292
70.330 19.604811
70.335 18.740534
70.340 18.785959
70.345 18.877951
70.350 18.985092
70.355 18.770178
70.360 18.71336
70.365 18.726593
70.370 18.679945
70.375 19.504545
70.380 19.569822
70.385 19.599981
70.390 19.234114
70.395 19.482853
70.400 19.808605
70.405 20.418951
70.410 19.576937
70.415 19.006336
70.420 19.188545
70.425 18.966747
70.430 19.11932
70.435 18.466757
70.440 18.085651
70.445 18.10533
70.450 18.070555
70.455 17.947208
70.460 18.255259
70.465 18.167686
70.470 18.35232
70.475 18.357555
70.480 18.787678
70.485 19.056501
70.490 19.585716
70.495 19.755066
70.500 19.922913
70.505 20.567598
70.510 20.960417
70.515 21.04744
70.520 21.045534
70.525 21.029999
70.530 20.800089
70.535 20.386831
70.540 19.865898
70.545 18.707525
70.550 18.122734
70.555 17.155054
70.560 16.951843
70.565 17.4266
70.570 18.009958
70.575 17.977316
70.580 18.225603
70.585 18.747492
70.590 18.871229
70.595 18.718039
70.600 18.572132
70.605 18.624857
70.610 19.165684
70.615 19.02084
70.620 18.936434
70.625 19.79973
70.630 20.402325
70.635 20.718479
70.640 20.352222
70.645 20.340815
70.650 20.454699
70.655 20.12779
70.660 19.860952
70.665 19.101389
70.670 18.879259
70.675 19.159866
70.680 19.321115
70.685 20.086681
70.690 19.743649
70.695 19.846615
70.700 19.498966
70.705 19.188025
70.710 18.615408
70.715 18.196741
70.720 17.769032
70.725 17.510475
70.730 17.395311
70.735 17.893995
70.740 18.020098
70.745 18.162275
70.750 18.113359
70.755 18.473204
70.760 18.332209
70.765 17.934649
70.770 17.616543
70.775 18.150009
70.780 18.742332
70.785 18.607059
70.790 18.403633
70.795 18.967943
70.800 20.025875
70.805 20.442644
70.810 20.40826
70.815 20.058657
70.820 20.79982
70.825 20.762924
70.830 20.466591
70.835 19.627693
70.840 19.258699
70.845 18.972874
70.850 18.804707
70.855 18.988449
70.860 18.929304
70.865 19.295891
70.870 19.7213
70.875 19.831581
70.880 20.260302
70.885 20.362255
70.890 20.225657
70.895 19.566305
70.900 19.120714
70.905 18.710318
70.910 18.983353
70.915 18.846119
70.920 18.929779
70.925 18.642797
70.930 18.798233
70.935 19.01206
70.940 19.261831
70.945 19.08605
70.950 19.168852
70.955 19.361078
70.960 20.015034
70.965 20.251078
70.970 19.659393
70.975 19.653688
70.980 19.043839
70.985 18.986185
70.990 17.949318
70.995 17.282141
71.000 17.45318
71.005 17.402147
71.010 17.144598
71.015 17.282127
71.020 17.628418
71.025 18.228571
71.030 18.398256
71.035 18.517267
71.040 18.879044
71.045 18.993822
71.050 19.25338
71.055 19.66555
71.060 19.68828
71.065 19.558863
71.070 19.339241
71.075 19.392822
71.080 19.493414
71.085 19.203915
71.090 18.510363
71.095 18.694954
71.100 18.768438
71.105 18.543861
71.110 18.607628
71.115 18.574923
71.120 18.534912
71.125 18.344349
71.130 18.576349
71.135 18.587219
71.140 18.98621
71.145 18.627125
71.150 18.853209
71.155 18.384951
71.160 18.763771
71.165 19.104916
71.170 19.359695
71.175 18.913044
71.180 18.803448
71.185 18.365091
71.190 18.801699
71.195 18.636477
71.200 17.555008
71.205 17.200464
71.210 17.103504
71.215 16.98756
71.220 17.079597
71.225 16.259863
71.230 16.301651
71.235 16.827311
71.240 17.729448
71.245 17.89286
71.250 18.101374
71.255 18.134548
71.260 19.08577
71.265 19.11018
71.270 19.146025
71.275 18.957699
71.280 18.895966
71.285 18.983395
71.290 18.721689
71.295 18.249735
71.300 18.10183
71.305 17.953863
71.310 17.661676
71.315 17.699226
71.320 18.002018
71.325 18.487434
71.330 18.433552
71.335 18.498148
71.340 18.57618
71.345 18.760382
71.350 18.416567
71.355 18.401762
71.360 18.460903
71.365 19.261288
71.370 19.63883
71.375 19.957523
71.380 20.059196
71.385 19.890882
71.390 19.577574
71.395 19.640184
71.400 19.299803
71.405 18.961075
71.410 19.434658
71.415 19.932194
71.420 20.48671
71.425 20.611349
71.430 20.440136
71.435 20.498981
71.440 20.416346
71.445 19.688612
71.450 19.203257
71.455 18.593876
71.460 17.739401
71.465 17.969799
71.470 17.9426
71.475 18.178596
71.480 18.353674
71.485 18.436998
71.490 18.966351
71.495 19.558985
71.500 18.804512
71.505 18.116917
71.510 17.951204
71.515 18.268496
71.520 18.370388
71.525 17.962881
71.530 17.975977
71.535 18.187452
71.540 18.610636
71.545 18.268238
71.550 18.336397
71.555 18.54056
71.560 19.058001
71.565 19.587818
71.570 19.768431
71.575 20.073046
71.580 19.713911
71.585 19.838823
71.590 19.267202
71.595 18.947691
71.600 18.518469
71.605 18.123096
71.610 18.077988
71.615 18.960119
71.620 19.12031
71.625 19.660557
71.630 19.365004
71.635 19.932987
71.640 20.462488
71.645 19.700363
71.650 18.749199
71.655 18.118353
71.660 18.162971
71.665 18.77808
71.670 18.587549
71.675 18.406712
71.680 18.722742
71.685 19.411095
71.690 20.032455
71.695 20.015919
71.700 19.66786
71.705 19.000313
71.710 19.338797
71.715 19.058479
71.720 18.138697
71.725 18.007658
71.730 17.593214
71.735 17.441181
71.740 18.291704
71.745 18.182707
71.750 18.235344
71.755 18.483995
71.760 18.457478
71.765 19.003923
71.770 18.708857
71.775 17.64473
71.780 17.916462
71.785 17.449425
71.790 17.513779
71.795 17.331907
71.800 17.130486
71.805 17.331068
71.810 17.924652
71.815 18.270084
71.820 18.690746
71.825 18.292147
71.830 17.942581
71.835 18.185783
71.840 18.838167
71.845 18.33296
71.850 18.244709
71.855 19.101349
71.860 19.235081
71.865 19.645903
71.870 19.371201
71.875 19.68408
71.880 19.495096
71.885 18.94964
71.890 18.381853
71.895 18.114601
71.900 18.117632
71.905 17.924107
71.910 17.15229
71.915 18.151957
71.920 18.416281
71.925 18.564289
71.930 18.571455
71.935 18.15118
71.940 18.633236
71.945 19.313009
71.950 19.238531
71.955 19.145226
71.960 19.634329
71.965 20.05143
71.970 20.125715
71.975 20.03038
71.980 19.672285
71.985 19.904028
71.990 20.169306
71.995 19.818043
72.000 19.443651
72.005 19.279371
72.010 18.9979
72.015 18.483253
72.020 17.580572
72.025 17.188034
72.030 17.30299
72.035 17.347857
72.040 17.461037
72.045 18.035786
72.050 18.616465
72.055 19.031645
72.060 18.581909
72.065 18.17754
72.070 17.719429
72.075 17.324057
72.080 16.654451
72.085 16.333412
72.090 16.443172
72.095 17.05484
72.100 17.84903
72.105 18.446856
72.110 18.852819
72.115 18.911194
72.120 19.426495
72.125 19.123098
72.130 18.712379
72.135 18.851347
72.140 18.47496
72.145 18.516047
72.150 18.304554
72.155 18.217506
72.160 18.02742
72.165 17.679382
72.170 17.225698
72.175 17.710693
72.180 17.494762
72.185 16.793148
72.190 17.130136
72.195 17.576548
72.200 17.191505
72.205 17.486967
72.210 17.605696
72.215 17.4622
72.220 17.982899
72.225 17.672586
72.230 18.495113
72.235 18.812078
72.240 18.745218
72.245 18.527582
72.250 18.565939
72.255 18.886166
72.260 18.519335
72.265 18.771593
72.270 19.241602
72.275 18.930103
72.280 18.713982
72.285 18.760109
72.290 18.778984
72.295 18.753176
72.300 17.940639
72.305 17.796551
72.310 18.211918
72.315 17.994171
72.320 17.487617
72.325 17.633757
72.330 17.622507
72.335 17.545673
72.340 17.577948
72.345 17.539898
72.350 17.384594
72.355 17.259005
72.360 16.881153
72.365 16.926022
72.370 17.093552
72.375 16.800364
72.380 17.033669
72.385 17.492252
72.390 17.824839
72.395 17.591223
72.400 17.436434
72.405 17.409134
72.410 17.069344
72.415 16.700365
72.420 16.431427
72.425 16.30085
72.430 16.484375
72.435 16.636709
72.440 16.852289
72.445 17.467829
72.450 17.681143
72.455 18.143461
72.460 18.419746
72.465 18.246172
72.470 18.244385
72.475 18.27062
72.480 17.868492
72.485 17.787762
72.490 17.376898
72.495 18.020651
72.500 18.335218
72.505 18.10478
72.510 18.224298
72.515 18.510674
72.520 18.470764
72.525 18.491444
72.530 18.025391
72.535 17.997368
72.540 17.646442
72.545 16.893326
72.550 16.587721
72.555 16.216745
72.560 15.87329
72.565 15.489224
72.570 15.25291
72.575 15.754306
72.580 16.53323
72.585 16.481609
72.590 16.048872
72.595 16.431982
72.600 16.928663
72.605 17.05323
72.610 16.566895
72.615 16.321863
72.620 16.637632
72.625 17.299839
72.630 17.141977
72.635 17.131666
72.640 17.015268
72.645 17.145611
72.650 16.87298
72.655 16.761631
72.660 16.597198
72.665 16.748142
72.670 16.844141
72.675 16.873436
72.680 17.329853
72.685 17.744534
72.690 17.694206
72.695 17.688402
72.700 17.529804
72.705 17.192623
72.710 16.768805
72.715 16.681961
72.720 16.241205
72.725 16.346134
72.730 16.748569
72.735 16.398741
72.740 16.671715
72.745 16.078318
72.750 15.958904
72.755 16.74596
72.760 16.96664
72.765 16.943859
72.770 17.332745
72.775 17.83972
72.780 18.269964
72.785 18.152689
72.790 17.353598
72.795 16.656483
72.800 16.503843
72.805 16.692602
72.810 16.32468
72.815 16.731079
72.820 17.248348
72.825 17.447544
72.830 17.457283
72.835 17.23258
72.840 16.789684
72.845 16.548748
72.850 15.598735
72.855 15.528364
72.860 15.306902
72.865 14.96225
72.870 15.225651
72.875 15.444016
72.880 16.175114
72.885 16.4485
72.890 16.520649
72.895 17.051941
72.900 17.698566
72.905 17.621567
72.910 17.762678
72.915 17.110863
72.920 16.847458
72.925 17.348166
72.930 16.986189
72.935 16.581867
72.940 16.428486
72.945 16.643768
72.950 16.796427
72.955 16.842602
72.960 16.828777
72.965 17.560553
72.970 17.248573
72.975 17.601942
72.980 18.414431
72.985 18.793354
72.990 19.398605
72.995 18.915861
73.000 18.86949
