!@!!GADDS PLOTSO FILE: Chi integration type
!@!!Title/SampleName: map-14c
!@!!Comment: ?
!@!!User: Bruker Instrument Administrator
!@!!Site: University of Illinois Chicago
!@!!Frame: map-14c_01_000.gfrm
!@!!Wavelengths    1.54184   1.54056   1.54439
!@!!Frame angles: 2Theta: 63.000 Omega: 50.000 Phi: 0.000 Chi: 90.000
!@!!Integration range: 2Theta: 53.000 to 73.000  Gamma: -105.000 to -75.000
!@!!Integration method: bin normalized
!@!N
!@!SS
!@!M
!@!L 0.0 0.0 0.0 0.0
!@!XDegrees
!@!YCounts
53.000 7.839771
53.005 7.873485
53.010 8.461372
53.015 8.788445
53.020 8.844882
53.025 8.9635
53.030 9.273643
53.035 9.481605
53.040 9.39181
53.045 8.80981
53.050 9.141358
53.055 9.29479
53.060 8.785196
53.065 8.496004
53.070 8.728602
53.075 8.915236
53.080 9.140881
53.085 8.775841
53.090 8.726279
53.095 9.041948
53.100 9.128031
53.105 8.946708
53.110 8.725224
53.115 8.388474
53.120 8.258823
53.125 8.396638
53.130 8.359388
53.135 8.342126
53.140 8.565246
53.145 8.710606
53.150 8.561172
53.155 8.623425
53.160 8.701142
53.165 8.831808
53.170 8.532528
53.175 8.12552
53.180 8.227207
53.185 8.29439
53.190 8.440138
53.195 8.381966
53.200 8.545189
53.205 8.787838
53.210 8.685678
53.215 8.739593
53.220 9.043609
53.225 8.99527
53.230 9.225316
53.235 8.977928
53.240 9.277719
53.245 9.704554
53.250 9.546235
53.255 9.506931
53.260 9.428456
53.265 9.182127
53.270 8.958894
53.275 8.671522
53.280 8.496682
53.285 9.023615
53.290 8.512228
53.295 8.830769
53.300 9.57549
53.305 9.963705
53.310 10.051514
53.315 10.022207
53.320 10.204083
53.325 10.131794
53.330 9.313543
53.335 8.812416
53.340 8.846518
53.345 8.731741
53.350 8.5454
53.355 8.07689
53.360 8.058624
53.365 8.431607
53.370 8.263665
53.375 8.676617
53.380 8.921395
53.385 9.278172
53.390 9.980351
53.395 9.804558
53.400 9.658907
53.405 9.879379
53.410 9.412045
53.415 9.669721
53.420 9.172406
53.425 9.004058
53.430 9.465883
53.435 9.379393
53.440 8.885794
53.445 8.761316
53.450 8.175931
53.455 7.979444
53.460 7.630587
53.465 7.798201
53.470 8.203406
53.475 8.356158
53.480 8.467957
53.485 8.615892
53.490 8.999701
53.495 9.295407
53.500 9.052838
53.505 9.099525
53.510 9.028074
53.515 9.101887
53.520 9.285719
53.525 9.581288
53.530 9.669347
53.535 10.035557
53.540 9.539742
53.545 9.291613
53.550 9.374413
53.555 9.165637
53.560 9.342322
53.565 9.035534
53.570 9.342775
53.575 10.016261
53.580 10.296639
53.585 10.464252
53.590 10.338974
53.595 10.264936
53.600 10.65348
53.605 10.394087
53.610 10.13403
53.615 10.061309
53.620 9.828129
53.625 9.953651
53.630 9.481191
53.635 8.991625
53.640 8.874968
53.645 8.790716
53.650 8.557117
53.655 8.419663
53.660 8.701656
53.665 8.947651
53.670 8.9056
53.675 8.951627
53.680 9.081747
53.685 9.431411
53.690 9.813917
53.695 9.287069
53.700 9.34975
53.705 9.26622
53.710 9.206473
53.715 9.118871
53.720 8.486192
53.725 7.939733
53.730 8.669533
53.735 8.534708
53.740 8.679562
53.745 8.66926
53.750 8.876102
53.755 9.668295
53.760 9.772344
53.765 9.355438
53.770 9.50844
53.775 9.665082
53.780 9.860595
53.785 9.621176
53.790 9.403708
53.795 9.754848
53.800 10.080016
53.805 9.992023
53.810 9.964292
53.815 9.580063
53.820 9.252398
53.825 8.783969
53.830 8.205823
53.835 7.878667
53.840 8.008743
53.845 8.277849
53.850 8.69494
53.855 9.058442
53.860 9.706207
53.865 9.799336
53.870 9.807298
53.875 9.447762
53.880 9.409706
53.885 9.370241
53.890 9.334597
53.895 9.215289
53.900 9.229584
53.905 9.617176
53.910 9.752966
53.915 9.732572
53.920 10.066455
53.925 9.790052
53.930 9.710682
53.935 9.564973
53.940 9.209994
53.945 9.196149
53.950 9.383586
53.955 9.168092
53.960 9.700317
53.965 9.412082
53.970 9.668495
53.975 9.534656
53.980 9.381009
53.985 9.527152
53.990 9.510237
53.995 9.417412
54.000 9.775879
54.005 9.438539
54.010 9.735469
54.015 9.526999
54.020 9.252769
54.025 9.406554
54.030 9.342334
54.035 9.339067
54.040 9.184877
54.045 9.071336
54.050 9.310563
54.055 9.33872
54.060 9.359475
54.065 9.655677
54.070 10.152111
54.075 10.745678
54.080 10.781351
54.085 10.932234
54.090 10.662016
54.095 10.18139
54.100 9.861052
54.105 9.418313
54.110 9.395655
54.115 9.322243
54.120 9.249479
54.125 9.263227
54.130 9.789619
54.135 9.615151
54.140 9.403286
54.145 8.794026
54.150 8.355716
54.155 8.197224
54.160 8.230888
54.165 8.169931
54.170 8.129545
54.175 8.448715
54.180 8.68847
54.185 9.148109
54.190 8.996229
54.195 8.643592
54.200 8.371881
54.205 8.202119
54.210 7.903657
54.215 7.464433
54.220 7.614116
54.225 8.01764
54.230 8.483785
54.235 8.776736
54.240 8.755273
54.245 9.119813
54.250 9.161537
54.255 9.043165
54.260 9.046829
54.265 8.637145
54.270 9.059302
54.275 9.587476
54.280 9.559731
54.285 9.647421
54.290 9.581263
54.295 9.696167
54.300 9.9982
54.305 9.87476
54.310 9.914625
54.315 9.785704
54.320 9.505274
54.325 9.39338
54.330 9.168337
54.335 8.408096
54.340 8.084153
54.345 7.807339
54.350 7.850175
54.355 8.328177
54.360 8.250822
54.365 8.799439
54.370 9.503426
54.375 9.587461
54.380 9.785536
54.385 9.851384
54.390 9.692796
54.395 9.632707
54.400 9.691046
54.405 9.507357
54.410 9.664637
54.415 9.638247
54.420 9.684504
54.425 9.873014
54.430 9.544347
54.435 9.122038
54.440 9.070822
54.445 8.984943
54.450 8.843045
54.455 8.527895
54.460 8.558957
54.465 8.623878
54.470 8.853373
54.475 8.853475
54.480 9.5639
54.485 9.903148
54.490 10.194019
54.495 10.107053
54.500 10.101217
54.505 9.841718
54.510 9.77577
54.515 9.106293
54.520 8.838926
54.525 8.515775
54.530 8.548908
54.535 9.078663
54.540 9.601686
54.545 9.386485
54.550 9.619572
54.555 9.813393
54.560 9.973897
54.565 9.643904
54.570 8.917366
54.575 8.531629
54.580 8.532623
54.585 8.445029
54.590 8.458504
54.595 8.660756
54.600 8.902034
54.605 9.014445
54.610 8.848855
54.615 8.617177
54.620 9.055603
54.625 8.862142
54.630 8.362081
54.635 8.103068
54.640 8.156895
54.645 8.501232
54.650 8.977407
54.655 8.82684
54.660 9.094822
54.665 9.106356
54.670 9.335873
54.675 9.437806
54.680 9.039012
54.685 8.810769
54.690 8.898429
54.695 9.180372
54.700 9.772985
54.705 9.503222
54.710 9.537065
54.715 9.996809
54.720 9.698179
54.725 9.454221
54.730 9.187833
54.735 8.917802
54.740 9.601774
54.745 10.176487
54.750 10.644152
54.755 10.794625
54.760 10.43548
54.765 10.286537
54.770 10.63886
54.775 10.465352
54.780 10.14089
54.785 9.483173
54.790 9.72173
54.795 10.52107
54.800 10.548843
54.805 10.228654
54.810 9.505487
54.815 8.97016
54.820 9.419431
54.825 9.392448
54.830 9.165629
54.835 9.340824
54.840 9.484616
54.845 9.692147
54.850 10.028285
54.855 9.775488
54.860 9.604386
54.865 9.611046
54.870 9.577355
54.875 9.777954
54.880 9.925793
54.885 9.901109
54.890 10.472435
54.895 10.375785
54.900 10.009408
54.905 9.935586
54.910 9.790421
54.915 9.607255
54.920 9.335015
54.925 9.195297
54.930 9.810841
54.935 10.006924
54.940 9.932715
54.945 10.652456
54.950 10.711373
54.955 10.55915
54.960 10.07269
54.965 9.620867
54.970 9.68537
54.975 9.240824
54.980 8.755063
54.985 8.990563
54.990 9.323565
54.995 9.577538
55.000 9.523393
55.005 9.562165
55.010 9.783651
55.015 9.901309
55.020 10.070885
55.025 10.230294
55.030 10.61332
55.035 10.667609
55.040 10.709916
55.045 10.657616
55.050 10.306129
55.055 9.917656
55.060 9.640137
55.065 9.322851
55.070 9.449419
55.075 9.385484
55.080 9.625637
55.085 9.796926
55.090 10.125587
55.095 10.228168
55.100 10.374545
55.105 10.217769
55.110 10.158863
55.115 9.77286
55.120 9.336088
55.125 9.10904
55.130 8.917003
55.135 8.477684
55.140 8.712699
55.145 8.877787
55.150 8.92411
55.155 9.073349
55.160 9.359801
55.165 9.21243
55.170 9.060565
55.175 8.496989
55.180 8.671914
55.185 9.093452
55.190 9.264817
55.195 9.119358
55.200 9.490858
55.205 9.812671
55.210 10.117451
55.215 10.065695
55.220 9.977838
55.225 9.616216
55.230 9.452147
55.235 9.145648
55.240 9.150107
55.245 8.932034
55.250 8.649159
55.255 9.023985
55.260 9.228822
55.265 9.484675
55.270 9.794514
55.275 9.945992
55.280 10.354529
55.285 10.612167
55.290 9.820084
55.295 9.597183
55.300 9.617387
55.305 10.008334
55.310 10.012103
55.315 9.611609
55.320 9.47793
55.325 10.441645
55.330 10.5488
55.335 10.51668
55.340 10.018278
55.345 9.813126
55.350 9.6373
55.355 9.251242
55.360 8.867774
55.365 9.080914
55.370 8.787784
55.375 8.908065
55.380 8.797848
55.385 8.933732
55.390 9.262298
55.395 9.505688
55.400 9.443553
55.405 9.790587
55.410 9.745098
55.415 10.427928
55.420 10.374145
55.425 10.47447
55.430 10.626495
55.435 10.742522
55.440 11.125284
55.445 11.246375
55.450 10.700567
55.455 10.570914
55.460 9.868453
55.465 9.523814
55.470 9.126603
55.475 9.093669
55.480 9.116436
55.485 9.383825
55.490 9.780142
55.495 9.684434
55.500 9.598824
55.505 9.480479
55.510 9.040394
55.515 9.164976
55.520 8.87072
55.525 8.585745
55.530 8.497629
55.535 8.747475
55.540 9.170901
55.545 9.141236
55.550 9.213354
55.555 9.468514
55.560 9.592112
55.565 9.721482
55.570 9.257257
55.575 8.824263
55.580 8.613278
55.585 8.693349
55.590 8.687115
55.595 8.805693
55.600 9.116562
55.605 9.563728
55.610 10.337907
55.615 10.454132
55.620 10.219152
55.625 10.228533
55.630 10.191042
55.635 10.183701
55.640 9.948925
55.645 9.579778
55.650 10.146907
55.655 10.027493
55.660 9.828582
55.665 9.861756
55.670 9.551363
55.675 9.339339
55.680 9.330433
55.685 9.079498
55.690 9.323547
55.695 9.322668
55.700 9.134697
55.705 9.402282
55.710 9.448653
55.715 9.512921
55.720 9.665715
55.725 9.493623
55.730 9.532793
55.735 9.704697
55.740 9.379579
55.745 8.878575
55.750 8.523495
55.755 8.588456
55.760 8.978734
55.765 8.661386
55.770 8.509435
55.775 8.810815
55.780 9.581313
55.785 10.177023
55.790 9.842602
55.795 9.937897
55.800 9.894351
55.805 9.52246
55.810 9.243169
55.815 8.507496
55.820 8.158822
55.825 8.483308
55.830 8.570385
55.835 9.334403
55.840 9.679593
55.845 9.706486
55.850 9.834911
55.855 9.735559
55.860 9.585866
55.865 9.620755
55.870 9.220089
55.875 9.399979
55.880 9.527933
55.885 9.303222
55.890 8.922216
55.895 8.59209
55.900 8.715427
55.905 8.577274
55.910 8.724817
55.915 8.729759
55.920 8.740825
55.925 8.705912
55.930 9.070814
55.935 9.356875
55.940 9.342045
55.945 9.183906
55.950 9.481418
55.955 10.03442
55.960 10.328952
55.965 10.175245
55.970 9.863201
55.975 10.008326
55.980 9.678282
55.985 9.29337
55.990 8.924779
55.995 9.189209
56.000 9.49538
56.005 9.449523
56.010 9.045853
56.015 9.498735
56.020 9.739333
56.025 9.844396
56.030 9.614576
56.035 9.27924
56.040 9.322359
56.045 9.606997
56.050 9.193769
56.055 8.655375
56.060 8.157374
56.065 7.503259
56.070 7.302955
56.075 7.017568
56.080 7.162323
56.085 7.698124
56.090 8.25209
56.095 8.83588
56.100 9.32163
56.105 9.59086
56.110 10.056534
56.115 10.284127
56.120 9.988955
56.125 10.027083
56.130 9.811957
56.135 9.943449
56.140 10.184035
56.145 9.709699
56.150 9.821898
56.155 9.866672
56.160 9.694937
56.165 10.185239
56.170 10.193899
56.175 10.174652
56.180 9.916431
56.185 9.675744
56.190 10.44441
56.195 10.453839
56.200 10.190429
56.205 10.116338
56.210 9.92527
56.215 10.306342
56.220 10.073197
56.225 9.433681
56.230 9.358027
56.235 9.275934
56.240 9.257385
56.245 9.212019
56.250 9.10091
56.255 9.103261
56.260 9.173082
56.265 9.200549
56.270 9.211146
56.275 9.2996
56.280 9.503907
56.285 9.36553
56.290 9.654502
56.295 9.730839
56.300 9.37296
56.305 9.561181
56.310 9.410873
56.315 9.207608
56.320 8.887226
56.325 8.800797
56.330 8.669253
56.335 9.004067
56.340 9.143448
56.345 9.478843
56.350 9.736601
56.355 9.919235
56.360 10.013195
56.365 10.286068
56.370 10.06853
56.375 9.9923
56.380 9.741508
56.385 9.175022
56.390 9.515254
56.395 9.455702
56.400 9.226673
56.405 8.837309
56.410 8.881248
56.415 9.226982
56.420 9.799211
56.425 9.655113
56.430 9.61257
56.435 10.057999
56.440 10.542678
56.445 10.335782
56.450 10.03562
56.455 10.204031
56.460 10.592955
56.465 10.544714
56.470 10.292506
56.475 10.292703
56.480 10.379048
56.485 10.480726
56.490 10.3498
56.495 10.037356
56.500 10.277161
56.505 10.371828
56.510 10.270881
56.515 10.286349
56.520 10.398338
56.525 10.319345
56.530 10.584452
56.535 10.791847
56.540 10.634934
56.545 10.931923
56.550 11.383866
56.555 11.62189
56.560 11.383821
56.565 10.985736
56.570 10.744136
56.575 10.587757
56.580 10.220348
56.585 10.05344
56.590 9.882032
56.595 9.857399
56.600 9.895055
56.605 10.055996
56.610 10.045875
56.615 10.48577
56.620 10.589538
56.625 11.062012
56.630 11.024197
56.635 10.861229
56.640 10.915243
56.645 10.783419
56.650 10.406425
56.655 9.908593
56.660 9.225645
56.665 9.522186
56.670 10.022792
56.675 10.05043
56.680 10.403326
56.685 10.489697
56.690 10.869733
56.695 11.215162
56.700 11.186622
56.705 11.375285
56.710 11.209426
56.715 11.0099
56.720 11.057613
56.725 10.928646
56.730 10.951744
56.735 10.308885
56.740 10.314682
56.745 10.468544
56.750 10.377563
56.755 10.290232
56.760 10.099858
56.765 9.90999
56.770 9.82286
56.775 9.605261
56.780 9.32179
56.785 9.347284
56.790 9.391986
56.795 9.283093
56.800 9.384024
56.805 9.64252
56.810 9.69583
56.815 10.132535
56.820 10.086415
56.825 10.209274
56.830 10.217156
56.835 10.453429
56.840 10.58705
56.845 10.554254
56.850 10.543347
56.855 10.525702
56.860 10.256845
56.865 10.302212
56.870 10.13339
56.875 9.467275
56.880 9.116214
56.885 8.892925
56.890 9.205812
56.895 9.499752
56.900 9.17332
56.905 9.161589
56.910 9.339494
56.915 9.579777
56.920 9.316523
56.925 9.019104
56.930 8.896541
56.935 8.929586
56.940 9.072412
56.945 9.278586
56.950 9.1381
56.955 9.624435
56.960 9.973817
56.965 10.278125
56.970 10.395216
56.975 10.280828
56.980 10.253297
56.985 10.143963
56.990 9.887524
56.995 9.385546
57.000 9.22756
57.005 9.638182
57.010 9.758676
57.015 9.5307
57.020 9.587753
57.025 9.451635
57.030 9.241325
57.035 9.166126
57.040 8.648975
57.045 8.820059
57.050 9.098793
57.055 8.911078
57.060 8.929317
57.065 8.559208
57.070 8.290555
57.075 8.207175
57.080 8.249546
57.085 8.301345
57.090 8.251002
57.095 8.652655
57.100 9.414762
57.105 9.994502
57.110 10.165136
57.115 9.68903
57.120 9.79078
57.125 9.906889
57.130 9.87553
57.135 9.578758
57.140 9.339382
57.145 9.21058
57.150 9.843048
57.155 10.025288
57.160 10.010364
57.165 10.118208
57.170 10.280937
57.175 10.076183
57.180 9.855308
57.185 9.317752
57.190 9.156951
57.195 9.132783
57.200 8.913006
57.205 8.827454
57.210 8.902759
57.215 8.846333
57.220 8.833194
57.225 8.873554
57.230 8.897305
57.235 9.135141
57.240 8.973242
57.245 9.110195
57.250 9.375972
57.255 9.436151
57.260 9.309762
57.265 9.28975
57.270 9.636735
57.275 10.007314
57.280 10.072049
57.285 10.547819
57.290 11.101889
57.295 11.445258
57.300 11.432161
57.305 11.050669
57.310 10.919665
57.315 10.594587
57.320 9.794405
57.325 9.136358
57.330 9.061889
57.335 9.305087
57.340 8.996916
57.345 8.85133
57.350 8.903735
57.355 8.908587
57.360 9.033793
57.365 8.847451
57.370 8.781896
57.375 9.099915
57.380 9.066298
57.385 9.116846
57.390 9.029033
57.395 9.344081
57.400 9.201415
57.405 8.996487
57.410 9.077612
57.415 9.36162
57.420 9.494799
57.425 9.694639
57.430 9.719796
57.435 9.789568
57.440 9.341109
57.445 8.9949
57.450 8.811895
57.455 8.98186
57.460 8.938443
57.465 8.727825
57.470 9.000858
57.475 9.060849
57.480 9.343139
57.485 9.638612
57.490 9.837331
57.495 9.799456
57.500 9.225596
57.505 8.840486
57.510 8.830998
57.515 8.706022
57.520 8.452117
57.525 8.39792
57.530 8.510503
57.535 9.066793
57.540 9.572313
57.545 9.678224
57.550 9.858758
57.555 9.501225
57.560 9.516064
57.565 9.678302
57.570 10.01042
57.575 10.410793
57.580 10.602422
57.585 10.276164
57.590 10.67389
57.595 10.106378
57.600 10.229014
57.605 9.803685
57.610 9.184598
57.615 9.065822
57.620 8.85541
57.625 8.469203
57.630 8.786125
57.635 8.900374
57.640 9.031976
57.645 9.225353
57.650 9.921855
57.655 10.866127
57.660 11.0764
57.665 11.036983
57.670 10.534192
57.675 10.013682
57.680 9.805822
57.685 9.589751
57.690 9.345256
57.695 9.50396
57.700 9.670193
57.705 9.990147
57.710 10.242044
57.715 10.179541
57.720 10.0891
57.725 10.095423
57.730 10.265992
57.735 10.012471
57.740 9.97338
57.745 10.102738
57.750 10.38641
57.755 10.213428
57.760 10.057119
57.765 10.547602
57.770 10.624607
57.775 10.896736
57.780 10.897909
57.785 10.491097
57.790 10.697245
57.795 10.651973
57.800 9.802124
57.805 9.706145
57.810 9.019069
57.815 8.975452
57.820 9.178587
57.825 8.787668
57.830 9.06749
57.835 9.705486
57.840 9.850572
57.845 10.338612
57.850 10.182191
57.855 10.141823
57.860 10.379202
57.865 9.856856
57.870 9.337211
57.875 9.554203
57.880 9.966735
57.885 10.189247
57.890 10.315092
57.895 10.46677
57.900 10.792939
57.905 11.263521
57.910 11.038184
57.915 10.86635
57.920 10.471395
57.925 10.125184
57.930 10.124296
57.935 10.332818
57.940 10.299504
57.945 9.856951
57.950 10.086298
57.955 10.672423
57.960 10.799753
57.965 10.617936
57.970 10.145528
57.975 10.037719
57.980 10.319424
57.985 10.172533
57.990 10.333568
57.995 9.940325
58.000 9.888829
58.005 9.974593
58.010 9.947433
58.015 10.057539
58.020 9.63952
58.025 9.405432
58.030 9.62567
58.035 9.66795
58.040 9.614179
58.045 9.827432
58.050 10.04
58.055 10.092004
58.060 10.142181
58.065 10.097446
58.070 10.187611
58.075 10.349252
58.080 9.772569
58.085 9.339924
58.090 9.598631
58.095 9.912699
58.100 10.334694
58.105 10.347865
58.110 10.121385
58.115 9.953115
58.120 9.848012
58.125 9.678257
58.130 9.517801
58.135 9.139999
58.140 8.676331
58.145 8.70705
58.150 9.223925
58.155 9.517528
58.160 9.117231
58.165 8.610214
58.170 8.540446
58.175 9.289297
58.180 9.289657
58.185 8.869425
58.190 8.582417
58.195 9.24274
58.200 9.987579
58.205 10.257601
58.210 10.126771
58.215 10.47323
58.220 11.275379
58.225 11.166956
58.230 10.823304
58.235 10.448821
58.240 10.601476
58.245 10.377022
58.250 10.531811
58.255 10.515521
58.260 10.946529
58.265 11.33775
58.270 11.756182
58.275 11.73007
58.280 11.884427
58.285 11.883843
58.290 11.507045
58.295 11.46034
58.300 11.272306
58.305 11.01368
58.310 10.53237
58.315 9.936565
58.320 9.326897
58.325 9.214615
58.330 9.344849
58.335 9.532879
58.340 9.57352
58.345 9.565541
58.350 10.041672
58.355 10.556698
58.360 10.687073
58.365 10.041729
58.370 9.575609
58.375 9.736201
58.380 10.032804
58.385 10.057909
58.390 9.721654
58.395 9.616004
58.400 9.698351
58.405 9.899999
58.410 9.693648
58.415 9.803034
58.420 9.62258
58.425 9.278073
58.430 9.442992
58.435 9.502549
58.440 9.532218
58.445 9.634692
58.450 9.662799
58.455 9.767471
58.460 9.725157
58.465 9.393981
58.470 9.604903
58.475 9.347558
58.480 9.137075
58.485 9.021982
58.490 9.431381
58.495 9.867002
58.500 10.037908
58.505 9.837778
58.510 10.072536
58.515 10.213724
58.520 10.406256
58.525 10.479609
58.530 10.338254
58.535 10.213309
58.540 10.128336
58.545 10.380485
58.550 10.056775
58.555 9.749303
58.560 9.47365
58.565 9.589152
58.570 9.742711
58.575 9.967706
58.580 9.797602
58.585 9.965316
58.590 10.155022
58.595 10.44602
58.600 10.378423
58.605 10.451095
58.610 10.200472
58.615 10.29509
58.620 10.321754
58.625 10.413924
58.630 10.337709
58.635 10.399282
58.640 10.229776
58.645 10.603756
58.650 10.812564
58.655 10.391829
58.660 10.486547
58.665 10.815644
58.670 10.964253
58.675 11.208366
58.680 10.774585
58.685 10.852112
58.690 11.362924
58.695 11.091939
58.700 10.863898
58.705 10.765824
58.710 10.013726
58.715 9.782721
58.720 9.984135
58.725 9.939533
58.730 9.848428
58.735 10.103848
58.740 10.635903
58.745 11.429412
58.750 11.612305
58.755 11.138798
58.760 11.249061
58.765 11.117257
58.770 10.693163
58.775 10.183295
58.780 9.892604
58.785 10.060622
58.790 10.26006
58.795 9.806618
58.800 9.594875
58.805 9.917453
58.810 10.168913
58.815 10.229775
58.820 10.240654
58.825 9.934834
58.830 10.426198
58.835 11.072767
58.840 10.52037
58.845 10.119731
58.850 10.082387
58.855 10.199759
58.860 10.782263
58.865 10.770107
58.870 9.991301
58.875 9.753078
58.880 9.821903
58.885 9.482652
58.890 9.158304
58.895 8.836614
58.900 8.823433
58.905 9.379048
58.910 9.989473
58.915 10.165339
58.920 10.583716
58.925 10.941428
58.930 11.00996
58.935 10.608946
58.940 10.480602
58.945 10.540614
58.950 10.44261
58.955 10.295207
58.960 10.282484
58.965 10.55992
58.970 11.024531
58.975 11.519379
58.980 11.787329
58.985 11.775774
58.990 11.424008
58.995 10.711286
59.000 10.099044
59.005 9.762243
59.010 8.923487
59.015 8.105488
59.020 8.597489
59.025 9.093874
59.030 9.432321
59.035 9.670959
59.040 9.975295
59.045 10.679945
59.050 10.729167
59.055 9.92692
59.060 9.490372
59.065 9.192445
59.070 9.241542
59.075 9.071377
59.080 8.900226
59.085 9.292153
59.090 9.301615
59.095 9.87921
59.100 10.561509
59.105 10.444621
59.110 10.411613
59.115 10.194473
59.120 10.365706
59.125 11.021512
59.130 11.050605
59.135 10.801137
59.140 11.073079
59.145 11.36996
59.150 11.384075
59.155 10.992425
59.160 10.148735
59.165 9.758792
59.170 10.023695
59.175 9.827818
59.180 9.651514
59.185 9.065103
59.190 9.034804
59.195 9.079477
59.200 8.991495
59.205 8.806893
59.210 8.767602
59.215 9.198283
59.220 10.082117
59.225 9.92503
59.230 9.788672
59.235 9.824095
59.240 9.361866
59.245 9.516885
59.250 8.640568
59.255 8.364932
59.260 8.606437
59.265 8.472876
59.270 8.464171
59.275 8.561091
59.280 8.667276
59.285 9.537292
59.290 9.883202
59.295 10.211412
59.300 10.531313
59.305 10.433499
59.310 10.309615
59.315 9.801011
59.320 9.338674
59.325 8.778361
59.330 8.600451
59.335 8.563375
59.340 8.540441
59.345 8.482976
59.350 8.574224
59.355 8.814889
59.360 9.432249
59.365 9.539187
59.370 9.852938
59.375 10.219101
59.380 10.483561
59.385 10.513444
59.390 10.357248
59.395 10.15877
59.400 10.427773
59.405 10.031699
59.410 9.874397
59.415 9.824642
59.420 9.645981
59.425 9.420383
59.430 9.438516
59.435 9.143139
59.440 8.850379
59.445 9.106873
59.450 9.162278
59.455 9.037826
59.460 9.559296
59.465 9.529729
59.470 9.6271
59.475 10.186362
59.480 9.944812
59.485 10.101893
59.490 10.498113
59.495 10.429204
59.500 10.329774
59.505 10.001019
59.510 9.537569
59.515 9.442262
59.520 9.388209
59.525 9.20356
59.530 8.70679
59.535 8.812668
59.540 8.765222
59.545 8.675519
59.550 8.596874
59.555 8.820847
59.560 8.954933
59.565 9.564754
59.570 9.818881
59.575 10.218305
59.580 10.443472
59.585 10.386106
59.590 10.126422
59.595 9.754946
59.600 9.077259
59.605 8.99882
59.610 8.887133
59.615 8.793648
59.620 8.667786
59.625 8.648238
59.630 9.120286
59.635 9.900496
59.640 10.367682
59.645 10.320712
59.650 10.553885
59.655 10.383444
59.660 10.490659
59.665 10.1652
59.670 9.257853
59.675 8.642716
59.680 8.610471
59.685 8.673056
59.690 9.372439
59.695 9.313804
59.700 9.398186
59.705 9.418432
59.710 9.627594
59.715 9.54602
59.720 9.145826
59.725 8.79078
59.730 8.648718
59.735 8.77868
59.740 8.908842
59.745 8.902061
59.750 9.113202
59.755 9.152888
59.760 9.474619
59.765 9.655511
59.770 9.180335
59.775 8.874075
59.780 8.549113
59.785 8.649441
59.790 8.736189
59.795 8.34811
59.800 8.376675
59.805 8.41491
59.810 8.64377
59.815 8.976964
59.820 8.492135
59.825 8.636877
59.830 8.991945
59.835 8.94588
59.840 9.028318
59.845 9.337448
59.850 9.114403
59.855 9.59656
59.860 9.465304
59.865 9.222105
59.870 9.24945
59.875 8.870605
59.880 8.996636
59.885 9.584164
59.890 9.297447
59.895 9.69768
59.900 9.896027
59.905 10.331327
59.910 10.838565
59.915 10.569752
59.920 10.872075
59.925 11.143781
59.930 10.663904
59.935 10.815197
59.940 10.678832
59.945 10.377059
59.950 10.217957
59.955 9.765677
59.960 9.804086
59.965 9.779542
59.970 9.533141
59.975 9.774472
59.980 10.00088
59.985 9.735592
59.990 9.674426
59.995 9.48177
60.000 9.295372
60.005 9.29044
60.010 8.874278
60.015 8.64412
60.020 9.0489
60.025 9.087996
60.030 9.591449
60.035 9.775613
60.040 9.699214
60.045 9.823131
60.050 10.120179
60.055 9.73793
60.060 9.543652
60.065 9.282392
60.070 9.479033
60.075 9.618641
60.080 9.635514
60.085 9.203362
60.090 9.358248
60.095 9.193309
60.100 9.454566
60.105 9.406396
60.110 9.396064
60.115 9.657875
60.120 9.759818
60.125 9.736454
60.130 9.893459
60.135 9.626199
60.140 9.558965
60.145 9.436926
60.150 9.359222
60.155 9.543062
60.160 9.867561
60.165 9.902974
60.170 9.776255
60.175 9.634153
60.180 9.705801
60.185 9.647782
60.190 9.482955
60.195 9.203645
60.200 9.269549
60.205 9.477333
60.210 9.518925
60.215 10.142909
60.220 10.263541
60.225 10.250243
60.230 10.22607
60.235 9.938077
60.240 9.970192
60.245 10.551366
60.250 9.915214
60.255 10.073618
60.260 10.174463
60.265 9.85794
60.270 9.964296
60.275 9.958669
60.280 9.376928
60.285 9.471903
60.290 9.187374
60.295 9.470589
60.300 9.883779
60.305 9.749857
60.310 9.455614
60.315 9.107911
60.320 8.932415
60.325 9.048286
60.330 8.611376
60.335 8.324945
60.340 8.315787
60.345 8.548273
60.350 8.7098
60.355 8.923164
60.360 9.269006
60.365 9.334408
60.370 9.377446
60.375 9.466479
60.380 9.24206
60.385 9.410317
60.390 9.133132
60.395 8.929841
60.400 9.279998
60.405 9.400072
60.410 9.28096
60.415 9.400355
60.420 9.063145
60.425 9.066383
60.430 8.849885
60.435 8.88912
60.440 9.168158
60.445 9.335079
60.450 9.293442
60.455 9.498068
60.460 9.981494
60.465 10.219992
60.470 9.89847
60.475 9.508466
60.480 9.575752
60.485 9.502841
60.490 9.60169
60.495 9.447585
60.500 9.183091
60.505 9.642662
60.510 9.974139
60.515 10.165504
60.520 10.111125
60.525 9.804857
60.530 9.559086
60.535 9.034065
60.540 8.403157
60.545 7.985857
60.550 7.918571
60.555 8.303133
60.560 8.731799
60.565 8.744283
60.570 9.228756
60.575 8.903873
60.580 8.993525
60.585 8.996738
60.590 8.97149
60.595 8.762454
60.600 8.852935
60.605 9.297561
60.610 10.136329
60.615 10.406999
60.620 10.532082
60.625 10.317879
60.630 10.46539
60.635 10.423122
60.640 10.246412
60.645 10.012205
60.650 9.616795
60.655 9.304633
60.660 8.980037
60.665 9.054008
60.670 8.970088
60.675 8.791223
60.680 8.748513
60.685 8.784377
60.690 9.041821
60.695 9.330037
60.700 9.247839
60.705 9.809344
60.710 9.879902
60.715 10.411301
60.720 10.730872
60.725 10.665348
60.730 10.374266
60.735 10.023814
60.740 9.546935
60.745 9.090298
60.750 8.200441
60.755 7.82473
60.760 8.057484
60.765 8.064522
60.770 8.112412
60.775 8.000281
60.780 8.163958
60.785 8.418817
60.790 8.36883
60.795 8.33383
60.800 8.665389
60.805 8.757774
60.810 9.217691
60.815 9.441107
60.820 9.133162
60.825 8.941455
60.830 8.821444
60.835 9.452977
60.840 9.635884
60.845 9.353235
60.850 9.535319
60.855 9.851352
60.860 10.343607
60.865 10.441813
60.870 9.805585
60.875 9.541274
60.880 9.651982
60.885 9.778578
60.890 10.30792
60.895 10.576521
60.900 10.558238
60.905 10.731936
60.910 11.061022
60.915 10.854215
60.920 10.633167
60.925 10.339102
60.930 10.049592
60.935 10.248406
60.940 9.969461
60.945 9.654089
60.950 9.690893
60.955 9.437473
60.960 9.141912
60.965 8.898095
60.970 8.558516
60.975 8.774611
60.980 8.750628
60.985 9.037004
60.990 9.19023
60.995 9.059648
61.000 9.003829
61.005 9.068956
61.010 9.182723
61.015 9.357347
61.020 9.341586
61.025 9.999966
61.030 10.284103
61.035 10.252278
61.040 9.950724
61.045 10.007874
61.050 9.847854
61.055 9.592099
61.060 9.403261
61.065 9.360361
61.070 9.469063
61.075 9.450752
61.080 9.325658
61.085 9.411636
61.090 9.179249
61.095 9.071597
61.100 8.998406
61.105 8.666543
61.110 8.689002
61.115 8.468431
61.120 8.346926
61.125 8.238202
61.130 7.966465
61.135 7.89865
61.140 8.956424
61.145 9.122311
61.150 9.284822
61.155 9.362726
61.160 9.492605
61.165 9.447528
61.170 9.293554
61.175 8.481905
61.180 8.234098
61.185 8.260828
61.190 8.506119
61.195 8.845203
61.200 9.567129
61.205 9.750083
61.210 9.690294
61.215 9.803406
61.220 9.803625
61.225 10.14004
61.230 10.086311
61.235 9.809112
61.240 10.009704
61.245 9.957346
61.250 9.7949
61.255 9.747144
61.260 9.498765
61.265 9.205239
61.270 8.998494
61.275 8.715906
61.280 8.89067
61.285 8.816717
61.290 8.539107
61.295 8.31571
61.300 8.21576
61.305 8.063051
61.310 8.124349
61.315 8.181873
61.320 8.712239
61.325 8.911605
61.330 9.27882
61.335 9.595067
61.340 9.662267
61.345 9.642598
61.350 9.493147
61.355 9.538152
61.360 9.702934
61.365 9.487266
61.370 9.143777
61.375 8.936194
61.380 8.795913
61.385 8.76663
61.390 8.793161
61.395 8.402698
61.400 8.368175
61.405 8.518167
61.410 8.569273
61.415 8.792738
61.420 9.117292
61.425 8.967146
61.430 9.099042
61.435 9.059618
61.440 9.312705
61.445 9.607033
61.450 9.848221
61.455 9.498936
61.460 9.347093
61.465 9.247448
61.470 9.703276
61.475 9.834402
61.480 9.681134
61.485 9.479216
61.490 9.515364
61.495 9.713319
61.500 10.044446
61.505 9.624783
61.510 9.534715
61.515 9.657312
61.520 10.01008
61.525 10.278775
61.530 10.326447
61.535 10.263445
61.540 9.759972
61.545 9.630737
61.550 9.761189
61.555 9.470515
61.560 9.001106
61.565 8.667933
61.570 8.593553
61.575 9.285845
61.580 9.296316
61.585 9.117746
61.590 9.322835
61.595 9.874002
61.600 10.039852
61.605 9.791977
61.610 9.729413
61.615 9.545443
61.620 9.786474
61.625 9.511621
61.630 9.246694
61.635 9.502004
61.640 9.869125
61.645 9.762994
61.650 9.747925
61.655 9.443508
61.660 9.555043
61.665 9.678636
61.670 9.451161
61.675 8.832393
61.680 8.643554
61.685 8.710974
61.690 8.848249
61.695 8.69541
61.700 8.59274
61.705 8.795727
61.710 9.163872
61.715 9.44386
61.720 9.619123
61.725 9.703232
61.730 9.849054
61.735 9.783873
61.740 9.622021
61.745 9.615417
61.750 9.422312
61.755 9.171198
61.760 9.046741
61.765 9.07663
61.770 9.307935
61.775 9.41498
61.780 9.095469
61.785 9.328948
61.790 9.321779
61.795 9.569158
61.800 9.807889
61.805 9.821486
61.810 10.08806
61.815 10.429114
61.820 10.08318
61.825 9.543998
61.830 9.169287
61.835 9.13463
61.840 9.268131
61.845 8.830568
61.850 8.723098
61.855 8.879491
61.860 9.526542
61.865 10.164367
61.870 9.773278
61.875 9.839746
61.880 10.583822
61.885 10.940221
61.890 11.422678
61.895 11.018233
61.900 10.471176
61.905 10.852421
61.910 10.710199
61.915 10.308812
61.920 9.814785
61.925 9.650963
61.930 10.042763
61.935 10.089625
61.940 9.797339
61.945 9.339911
61.950 9.266659
61.955 9.273862
61.960 8.94758
61.965 8.583643
61.970 8.991351
61.975 8.982061
61.980 9.419189
61.985 9.901566
61.990 10.245253
61.995 10.132627
62.000 10.025276
62.005 9.82735
62.010 10.20296
62.015 10.093113
62.020 9.92875
62.025 9.771089
62.030 10.373058
62.035 11.027365
62.040 10.593825
62.045 10.247124
62.050 10.21107
62.055 9.577665
62.060 9.323761
62.065 8.725879
62.070 8.203075
62.075 8.456653
62.080 8.643419
62.085 9.046771
62.090 9.456662
62.095 9.973654
62.100 10.180222
62.105 10.356269
62.110 10.962992
62.115 11.038565
62.120 10.524595
62.125 10.495433
62.130 9.96676
62.135 9.927307
62.140 9.674503
62.145 8.837253
62.150 8.441197
62.155 8.516117
62.160 8.685295
62.165 8.875143
62.170 9.225938
62.175 9.473481
62.180 9.900084
62.185 9.920984
62.190 9.863703
62.195 9.529552
62.200 9.353506
62.205 9.047075
62.210 9.037531
62.215 8.791043
62.220 8.823688
62.225 8.819476
62.230 8.691941
62.235 8.689443
62.240 8.358731
62.245 8.251562
62.250 8.327947
62.255 8.274443
62.260 8.488976
62.265 8.949761
62.270 9.279563
62.275 9.71098
62.280 10.045769
62.285 10.061038
62.290 10.15082
62.295 10.089739
62.300 10.289184
62.305 10.031429
62.310 9.398073
62.315 8.739648
62.320 8.805056
62.325 8.894543
62.330 8.905573
62.335 8.614292
62.340 8.839752
62.345 9.113676
62.350 9.372101
62.355 9.377159
62.360 9.558393
62.365 9.329415
62.370 9.308837
62.375 9.726626
62.380 9.987435
62.385 9.975348
62.390 9.959881
62.395 9.769653
62.400 10.042114
62.405 10.293037
62.410 10.173983
62.415 9.970411
62.420 9.994841
62.425 9.725857
62.430 9.404962
62.435 9.57288
62.440 9.583691
62.445 9.164475
62.450 9.540913
62.455 9.764817
62.460 9.807549
62.465 10.18208
62.470 10.076642
62.475 10.220747
62.480 10.764125
62.485 10.472162
62.490 10.095215
62.495 10.028573
62.500 9.633993
62.505 9.358248
62.510 9.378624
62.515 9.582508
62.520 9.524806
62.525 9.855678
62.530 10.138368
62.535 10.618494
62.540 10.647431
62.545 10.219196
62.550 9.906205
62.555 10.491173
62.560 10.685641
62.565 10.541615
62.570 10.04572
62.575 10.170422
62.580 10.648628
62.585 10.978599
62.590 10.397791
62.595 10.445251
62.600 10.970488
62.605 11.334955
62.610 11.443728
62.615 11.38294
62.620 11.298644
62.625 11.603697
62.630 11.319011
62.635 11.026051
62.640 10.994678
62.645 11.068336
62.650 11.174103
62.655 11.089513
62.660 11.304406
62.665 11.012745
62.670 11.141034
62.675 11.193596
62.680 10.925536
62.685 10.788692
62.690 10.586281
62.695 10.684999
62.700 10.874478
62.705 10.952204
62.710 11.071157
62.715 11.356298
62.720 11.806417
62.725 12.004512
62.730 11.457131
62.735 11.237169
62.740 10.577707
62.745 10.369055
62.750 10.07852
62.755 9.485791
62.760 9.772286
62.765 10.102386
62.770 10.444797
62.775 10.592513
62.780 10.707438
62.785 10.425238
62.790 10.584311
62.795 10.29127
62.800 10.186457
62.805 10.214465
62.810 10.148069
62.815 10.108738
62.820 10.717219
62.825 10.792382
62.830 10.095844
62.835 10.109179
62.840 10.460751
62.845 10.477743
62.850 10.590867
62.855 9.883759
62.860 9.832915
62.865 10.385739
62.870 10.685268
62.875 10.610799
62.880 10.916513
62.885 10.657034
62.890 10.798382
62.895 10.620659
62.900 10.45204
62.905 9.94486
62.910 10.007792
62.915 10.000121
62.920 10.316525
62.925 10.475477
62.930 10.797678
62.935 10.798783
62.940 10.819343
62.945 10.25817
62.950 9.900152
62.955 9.795921
62.960 9.676346
62.965 9.265852
62.970 9.504995
62.975 9.902437
62.980 10.557375
62.985 10.719761
62.990 10.880575
62.995 10.834856
63.000 10.791359
63.005 10.435383
63.010 10.017717
63.015 10.00833
63.020 9.881868
63.025 9.577177
63.030 9.664756
63.035 9.755642
63.040 9.996822
63.045 10.217834
63.050 10.067618
63.055 10.137157
63.060 10.436368
63.065 10.359427
63.070 10.173081
63.075 9.776675
63.080 9.291876
63.085 9.140218
63.090 8.791036
63.095 8.400119
63.100 8.359247
63.105 8.594712
63.110 8.808507
63.115 8.896969
63.120 8.765648
63.125 9.201932
63.130 9.294056
63.135 9.410474
63.140 9.214198
63.145 8.949302
63.150 9.224826
63.155 9.058196
63.160 8.95414
63.165 9.027658
63.170 8.713629
63.175 8.852052
63.180 8.97978
63.185 8.411963
63.190 8.429779
63.195 8.474403
63.200 8.647255
63.205 9.202259
63.210 9.317923
63.215 9.583275
63.220 10.358075
63.225 10.589616
63.230 10.391125
63.235 9.994241
63.240 9.892962
63.245 9.640351
63.250 9.260541
63.255 9.037102
63.260 9.071841
63.265 9.002535
63.270 8.754969
63.275 8.622093
63.280 9.277794
63.285 9.526146
63.290 9.376797
63.295 9.771985
63.300 9.876154
63.305 10.423042
63.310 10.595249
63.315 10.496602
63.320 10.694505
63.325 10.508984
63.330 10.501932
63.335 10.686311
63.340 10.234941
63.345 9.971622
63.350 9.751832
63.355 9.745938
63.360 9.968637
63.365 9.578449
63.370 9.665597
63.375 9.873796
63.380 9.868282
63.385 9.876635
63.390 9.818047
63.395 9.890384
63.400 10.505263
63.405 10.571152
63.410 10.773431
63.415 10.569661
63.420 10.311604
63.425 10.950121
63.430 11.025353
63.435 10.568631
63.440 10.222682
63.445 9.915188
63.450 9.781307
63.455 9.419299
63.460 8.700892
63.465 8.377878
63.470 8.52026
63.475 8.509999
63.480 8.27388
63.485 8.694295
63.490 9.442095
63.495 9.559079
63.500 9.703677
63.505 9.525787
63.510 9.474839
63.515 9.815879
63.520 9.596429
63.525 9.49818
63.530 9.921096
63.535 9.78346
63.540 10.109844
63.545 10.272868
63.550 9.95616
63.555 9.628149
63.560 9.447772
63.565 8.912982
63.570 8.713565
63.575 8.382898
63.580 8.861943
63.585 9.345666
63.590 9.361337
63.595 9.36823
63.600 9.250213
63.605 9.28689
63.610 9.255338
63.615 8.991078
63.620 8.787182
63.625 8.918589
63.630 8.891117
63.635 9.071253
63.640 9.110742
63.645 9.117766
63.650 8.79522
63.655 8.947898
63.660 8.979305
63.665 9.184416
63.670 9.04327
63.675 9.377286
63.680 9.523622
63.685 9.846434
63.690 10.014096
63.695 10.120131
63.700 9.824637
63.705 9.86684
63.710 9.948155
63.715 9.89399
63.720 9.94682
63.725 10.197145
63.730 10.439116
63.735 11.127974
63.740 11.070431
63.745 11.035363
63.750 11.037908
63.755 10.626073
63.760 10.128705
63.765 9.529268
63.770 8.749162
63.775 8.827727
63.780 8.790703
63.785 8.902599
63.790 9.078474
63.795 9.180623
63.800 9.412906
63.805 9.566808
63.810 9.545721
63.815 9.319986
63.820 9.051217
63.825 9.011978
63.830 8.949594
63.835 8.871452
63.840 9.233727
63.845 9.593828
63.850 10.302956
63.855 10.57478
63.860 10.64573
63.865 10.758649
63.870 10.801708
63.875 10.780619
63.880 10.328845
63.885 9.734649
63.890 9.465481
63.895 9.09091
63.900 8.773229
63.905 8.550101
63.910 8.260861
63.915 7.966605
63.920 8.23915
63.925 8.549545
63.930 8.930908
63.935 9.042787
63.940 9.603762
63.945 9.757057
63.950 10.128528
63.955 10.129532
63.960 10.328411
63.965 10.752066
63.970 10.666101
63.975 10.393012
63.980 10.312106
63.985 9.974232
63.990 9.897736
63.995 9.560383
64.000 8.891324
64.005 9.145962
64.010 9.696387
64.015 10.257635
64.020 10.332808
64.025 10.348486
64.030 10.726602
64.035 11.376551
64.040 11.099166
64.045 10.642658
64.050 10.868155
64.055 11.220673
64.060 11.095622
64.065 10.642498
64.070 10.699367
64.075 10.99017
64.080 10.79417
64.085 10.031194
64.090 9.849014
64.095 9.932221
64.100 9.892366
64.105 9.524755
64.110 9.402869
64.115 9.75188
64.120 10.096506
64.125 9.92795
64.130 9.983152
64.135 10.460046
64.140 10.599502
64.145 10.675395
64.150 10.660989
64.155 10.543746
64.160 10.747032
64.165 10.621669
64.170 10.206113
64.175 10.212286
64.180 10.198377
64.185 9.870066
64.190 9.747619
64.195 9.568283
64.200 9.527417
64.205 9.792862
64.210 10.048989
64.215 10.192676
64.220 10.197594
64.225 10.267368
64.230 10.322316
64.235 10.237222
64.240 9.796742
64.245 9.519675
64.250 9.211934
64.255 9.069359
64.260 8.876415
64.265 8.844942
64.270 8.987463
64.275 9.408621
64.280 9.564775
64.285 9.622236
64.290 9.656117
64.295 9.45275
64.300 9.406056
64.305 9.310463
64.310 9.330919
64.315 8.911168
64.320 9.328017
64.325 9.201101
64.330 9.770862
64.335 10.178447
64.340 10.404842
64.345 10.307964
64.350 11.156071
64.355 11.154958
64.360 11.694844
64.365 11.612525
64.370 11.28137
64.375 11.241241
64.380 11.565356
64.385 11.046113
64.390 10.86234
64.395 10.554017
64.400 10.357445
64.405 10.658959
64.410 10.997333
64.415 10.767451
64.420 10.939917
64.425 10.992008
64.430 11.170075
64.435 11.494014
64.440 11.214136
64.445 10.87008
64.450 10.495551
64.455 9.937665
64.460 9.897076
64.465 9.883391
64.470 9.665087
64.475 9.792904
64.480 9.408056
64.485 9.761411
64.490 10.571066
64.495 10.851238
64.500 11.298921
64.505 10.920378
64.510 10.764145
64.515 11.750229
64.520 11.898486
64.525 11.661293
64.530 11.67244
64.535 11.271925
64.540 11.339946
64.545 11.308051
64.550 10.906603
64.555 10.575522
64.560 10.535572
64.565 10.392972
64.570 10.954327
64.575 11.419436
64.580 11.453632
64.585 11.172863
64.590 10.980904
64.595 11.052364
64.600 11.760321
64.605 11.665261
64.610 11.929247
64.615 11.888211
64.620 12.375652
64.625 12.49893
64.630 11.836397
64.635 11.314055
64.640 10.918344
64.645 10.587961
64.650 10.742542
64.655 11.031736
64.660 10.974933
64.665 11.488202
64.670 11.913742
64.675 12.364899
64.680 12.612414
64.685 12.085475
64.690 11.675278
64.695 11.743248
64.700 11.727818
64.705 11.213575
64.710 10.484353
64.715 10.352439
64.720 10.290812
64.725 10.1098
64.730 10.183681
64.735 9.943744
64.740 10.124207
64.745 10.853959
64.750 11.152296
64.755 11.845047
64.760 12.285455
64.765 12.209177
64.770 12.412568
64.775 12.282693
64.780 11.421776
64.785 10.855783
64.790 9.971069
64.795 9.716125
64.800 9.657962
64.805 9.604828
64.810 10.073525
64.815 10.813449
64.820 11.177558
64.825 11.539231
64.830 11.630814
64.835 12.214081
64.840 12.353648
64.845 12.226466
64.850 12.420163
64.855 13.207679
64.860 13.973834
64.865 14.136024
64.870 13.67691
64.875 13.614826
64.880 13.368237
64.885 13.149251
64.890 12.74466
64.895 12.312732
64.900 12.450105
64.905 12.478572
64.910 12.697911
64.915 13.280146
64.920 13.979504
64.925 13.953858
64.930 14.336958
64.935 14.603187
64.940 15.088653
64.945 15.341435
64.950 15.241683
64.955 15.166094
64.960 15.821657
64.965 16.131691
64.970 15.834957
64.975 15.622719
64.980 15.582624
64.985 16.510799
64.990 16.796215
64.995 16.95536
65.000 16.990259
65.005 17.428768
65.010 17.839397
65.015 17.926025
65.020 17.431852
65.025 17.040625
65.030 16.945267
65.035 16.799797
65.040 16.865389
65.045 16.386932
65.050 16.155724
65.055 16.445414
65.060 16.701902
65.065 16.227879
65.070 16.174635
65.075 15.909704
65.080 16.192009
65.085 16.066668
65.090 15.256285
65.095 15.788237
65.100 16.23945
65.105 16.414379
65.110 16.185789
65.115 16.326704
65.120 16.756783
65.125 17.654211
65.130 16.999451
65.135 16.764303
65.140 16.980518
65.145 17.157667
65.150 17.074091
65.155 16.377218
65.160 15.420432
65.165 15.102603
65.170 14.969456
65.175 14.387456
65.180 14.315447
65.185 14.219089
65.190 14.809527
65.195 14.725864
65.200 14.998499
65.205 14.633463
65.210 15.103618
65.215 15.379143
65.220 14.950122
65.225 14.740436
65.230 15.173475
65.235 15.010995
65.240 14.687103
65.245 13.830779
65.250 13.377196
65.255 13.504087
65.260 13.3131
65.265 12.86037
65.270 12.59786
65.275 12.884428
65.280 13.197443
65.285 13.202342
65.290 12.959894
65.295 12.913677
65.300 12.971457
65.305 12.81407
65.310 13.017735
65.315 12.824313
65.320 13.097556
65.325 13.267647
65.330 12.833714
65.335 12.39379
65.340 12.463777
65.345 12.737719
65.350 13.189512
65.355 13.010416
65.360 12.940118
65.365 13.302065
65.370 13.407481
65.375 13.403795
65.380 12.663296
65.385 12.28839
65.390 12.155149
65.395 11.881332
65.400 11.528668
65.405 11.53917
65.410 11.434473
65.415 11.34835
65.420 11.280179
65.425 11.059795
65.430 11.204592
65.435 11.475657
65.440 11.687801
65.445 11.947237
65.450 11.862782
65.455 11.570875
65.460 11.859106
65.465 11.789733
65.470 11.595125
65.475 11.033116
65.480 10.183113
65.485 10.046833
65.490 9.957936
65.495 10.118669
65.500 9.916188
65.505 9.76687
65.510 9.638882
65.515 9.40105
65.520 9.4778
65.525 9.558734
65.530 9.578499
65.535 9.794475
65.540 10.185748
65.545 10.489388
65.550 11.369181
65.555 11.288956
65.560 11.274794
65.565 11.077291
65.570 10.94264
65.575 11.024754
65.580 11.415117
65.585 11.475324
65.590 11.658736
65.595 11.736712
65.600 11.932192
65.605 11.812699
65.610 11.388623
65.615 10.718472
65.620 10.42933
65.625 10.383987
65.630 9.992448
65.635 9.868118
65.640 10.107266
65.645 10.136147
65.650 10.315736
65.655 10.590296
65.660 10.501053
65.665 10.397459
65.670 10.065511
65.675 10.094585
65.680 10.030051
65.685 9.737293
65.690 9.927127
65.695 10.155951
65.700 10.128732
65.705 10.440308
65.710 10.330075
65.715 10.69503
65.720 10.76538
65.725 10.398048
65.730 10.262709
65.735 10.543193
65.740 10.814091
65.745 10.741454
65.750 10.443352
65.755 10.134592
65.760 10.40247
65.765 10.555516
65.770 10.370172
65.775 10.508121
65.780 10.755648
65.785 11.089248
65.790 11.486218
65.795 11.050245
65.800 10.842409
65.805 10.851946
65.810 10.540939
65.815 10.645934
65.820 10.665723
65.825 10.655785
65.830 10.639881
65.835 10.484658
65.840 11.044099
65.845 11.063334
65.850 11.195306
65.855 11.478036
65.860 11.596351
65.865 11.54804
65.870 11.330975
65.875 10.60212
65.880 10.471844
65.885 9.780916
65.890 9.016282
65.895 8.86323
65.900 9.089352
65.905 9.889502
65.910 10.085712
65.915 10.2955
65.920 10.932605
65.925 11.373708
65.930 12.163623
65.935 12.401301
65.940 12.174177
65.945 12.181101
65.950 12.091502
65.955 12.219118
65.960 11.992243
65.965 11.469947
65.970 11.801762
65.975 11.792031
65.980 11.95913
65.985 11.749296
65.990 11.819955
65.995 11.890058
66.000 11.599687
66.005 10.75215
66.010 10.395397
66.015 10.366473
66.020 10.679482
66.025 10.489837
66.030 10.192514
66.035 10.245376
66.040 10.600059
66.045 10.665311
66.050 10.653505
66.055 10.49298
66.060 10.341465
66.065 10.431592
66.070 10.423551
66.075 10.534705
66.080 10.39848
66.085 10.394015
66.090 10.009944
66.095 10.413422
66.100 10.921117
66.105 11.382525
66.110 11.722644
66.115 11.837227
66.120 11.570038
66.125 11.514772
66.130 11.330321
66.135 10.648925
66.140 10.433126
66.145 10.208193
66.150 10.31683
66.155 10.649493
66.160 10.846057
66.165 11.048098
66.170 11.139223
66.175 10.818999
66.180 10.792967
66.185 10.958826
66.190 10.911582
66.195 10.982603
66.200 10.87229
66.205 10.950281
66.210 11.33155
66.215 11.160032
66.220 11.21421
66.225 11.52926
66.230 11.744404
66.235 11.697493
66.240 11.762839
66.245 11.628441
66.250 11.455216
66.255 11.193446
66.260 11.271542
66.265 11.498706
66.270 11.907934
66.275 12.059624
66.280 12.207245
66.285 12.504292
66.290 12.766085
66.295 12.922831
66.300 13.011053
66.305 13.151039
66.310 13.502055
66.315 14.068721
66.320 14.03939
66.325 13.743689
66.330 13.299739
66.335 13.090441
66.340 13.18195
66.345 12.853539
66.350 12.484271
66.355 12.265433
66.360 12.393424
66.365 12.457952
66.370 12.147298
66.375 11.782393
66.380 11.619177
66.385 11.393723
66.390 11.62641
66.395 11.601766
66.400 11.506961
66.405 11.547679
66.410 11.477923
66.415 11.749751
66.420 11.817658
66.425 12.008083
66.430 11.89769
66.435 12.3703
66.440 12.259242
66.445 11.929202
66.450 12.143179
66.455 12.001109
66.460 11.746061
66.465 11.874197
66.470 11.384109
66.475 11.328714
66.480 11.202168
66.485 10.909819
66.490 10.911399
66.495 11.060019
66.500 11.143296
66.505 10.985797
66.510 11.198527
66.515 11.409529
66.520 11.4432
66.525 11.758844
66.530 11.341489
66.535 11.053713
66.540 11.347059
66.545 10.913504
66.550 10.916178
66.555 10.821258
66.560 10.983123
66.565 11.38491
66.570 11.231052
66.575 10.95771
66.580 10.878297
66.585 10.335532
66.590 9.905602
66.595 9.403277
66.600 9.578937
66.605 9.93784
66.610 9.558422
66.615 10.008926
66.620 10.061512
66.625 10.347089
66.630 10.413187
66.635 9.763751
66.640 9.870538
66.645 10.258027
66.650 10.203447
66.655 10.330889
66.660 10.18909
66.665 10.30867
66.670 10.691853
66.675 10.513876
66.680 9.830909
66.685 9.533376
66.690 9.901594
66.695 9.325666
66.700 8.886747
66.705 8.393299
66.710 8.368802
66.715 8.562912
66.720 8.471596
66.725 8.261762
66.730 8.873425
66.735 8.939401
66.740 9.190507
66.745 9.450953
66.750 9.687804
66.755 9.876719
66.760 9.794909
66.765 9.815567
66.770 9.712542
66.775 9.953815
66.780 10.058119
66.785 9.829234
66.790 9.786325
66.795 9.697277
66.800 9.2523
66.805 9.50996
66.810 9.210057
66.815 9.164721
66.820 9.453421
66.825 9.42941
66.830 9.823227
66.835 10.06108
66.840 9.810466
66.845 9.665553
66.850 9.554631
66.855 8.948557
66.860 8.914661
66.865 8.380636
66.870 8.038664
66.875 7.855273
66.880 7.513318
66.885 7.796093
66.890 8.387521
66.895 8.349457
66.900 8.567274
66.905 8.938239
66.910 9.150851
66.915 9.621787
66.920 9.939684
66.925 9.827414
66.930 10.323104
66.935 10.777016
66.940 11.193186
66.945 11.349195
66.950 11.72381
66.955 11.474113
66.960 11.572768
66.965 11.213411
66.970 10.652875
66.975 9.86449
66.980 9.7124
66.985 8.826905
66.990 8.548232
66.995 8.123599
67.000 7.89564
67.005 8.302963
67.010 8.624872
67.015 8.66792
67.020 8.804737
67.025 8.847577
67.030 8.992314
67.035 9.525506
67.040 9.885075
67.045 10.161285
67.050 10.481393
67.055 10.502664
67.060 10.575942
67.065 10.548644
67.070 9.89482
67.075 9.698024
67.080 9.518071
67.085 9.11329
67.090 8.600198
67.095 8.174532
67.100 8.144926
67.105 8.331564
67.110 8.175334
67.115 7.881443
67.120 8.085925
67.125 8.594114
67.130 9.269323
67.135 9.855478
67.140 9.629592
67.145 9.588979
67.150 10.009394
67.155 10.370687
67.160 10.69417
67.165 10.661659
67.170 10.679383
67.175 11.245795
67.180 11.639228
67.185 11.751451
67.190 11.762867
67.195 11.892641
67.200 12.011672
67.205 11.595727
67.210 11.282656
67.215 10.940328
67.220 10.831804
67.225 10.367967
67.230 9.819711
67.235 9.705482
67.240 9.836214
67.245 10.03975
67.250 10.016968
67.255 10.314376
67.260 10.659661
67.265 10.932272
67.270 11.045781
67.275 10.666821
67.280 10.546165
67.285 10.336921
67.290 9.913842
67.295 9.723891
67.300 9.447042
67.305 9.31851
67.310 9.304241
67.315 9.543221
67.320 9.916929
67.325 9.874864
67.330 10.05695
67.335 10.791377
67.340 10.893219
67.345 10.833337
67.350 11.061364
67.355 10.971931
67.360 11.071207
67.365 10.52818
67.370 9.731494
67.375 9.629059
67.380 9.653935
67.385 9.164274
67.390 8.869053
67.395 9.113893
67.400 9.244233
67.405 9.272094
67.410 9.678453
67.415 10.06819
67.420 10.377375
67.425 10.377857
67.430 10.245342
67.435 10.514959
67.440 10.70471
67.445 10.477708
67.450 10.534266
67.455 10.316409
67.460 10.323991
67.465 10.122541
67.470 9.73322
67.475 9.425676
67.480 9.329422
67.485 8.800456
67.490 8.761107
67.495 8.880357
67.500 8.938401
67.505 9.062171
67.510 9.373204
67.515 9.538597
67.520 9.59748
67.525 9.795449
67.530 9.77258
67.535 10.179683
67.540 10.477898
67.545 10.131637
67.550 9.931332
67.555 10.127096
67.560 10.334349
67.565 10.299822
67.570 10.071957
67.575 9.617192
67.580 9.689357
67.585 10.000943
67.590 9.961164
67.595 9.298955
67.600 9.473928
67.605 9.763205
67.610 10.01655
67.615 9.783633
67.620 9.613097
67.625 9.814914
67.630 10.303378
67.635 10.380401
67.640 10.01469
67.645 9.789044
67.650 9.93069
67.655 10.298744
67.660 10.228987
67.665 10.235355
67.670 9.936231
67.675 9.972713
67.680 10.394413
67.685 10.789919
67.690 10.475184
67.695 10.442312
67.700 10.343728
67.705 10.641932
67.710 10.677493
67.715 10.353904
67.720 9.84178
67.725 9.978246
67.730 10.054715
67.735 9.905834
67.740 9.670339
67.745 9.76548
67.750 9.920983
67.755 9.803707
67.760 9.024845
67.765 8.975146
67.770 9.115755
67.775 9.072546
67.780 8.894526
67.785 8.94101
67.790 8.957409
67.795 9.557041
67.800 9.379146
67.805 9.171702
67.810 9.299103
67.815 9.67154
67.820 9.674984
67.825 10.017396
67.830 9.855153
67.835 10.283065
67.840 10.438057
67.845 10.503382
67.850 10.367017
67.855 10.411877
67.860 10.534281
67.865 10.526164
67.870 10.26154
67.875 10.415308
67.880 10.291545
67.885 10.261002
67.890 10.304361
67.895 9.862208
67.900 10.087065
67.905 10.083608
67.910 9.702721
67.915 9.63384
67.920 9.572803
67.925 9.425906
67.930 9.634696
67.935 9.560351
67.940 9.455502
67.945 9.528265
67.950 9.721773
67.955 9.617743
67.960 9.697098
67.965 9.903882
67.970 9.994018
67.975 10.382725
67.980 10.513685
67.985 10.737543
67.990 10.910862
67.995 10.781693
68.000 10.318529
68.005 10.128538
68.010 10.1189
68.015 10.280597
68.020 10.480758
68.025 10.573143
68.030 10.715491
68.035 10.6127
68.040 10.754283
68.045 10.640368
68.050 10.462855
68.055 10.114011
68.060 10.228506
68.065 10.310176
68.070 10.100307
68.075 10.187513
68.080 10.589698
68.085 10.834264
68.090 11.03105
68.095 10.874193
68.100 11.185794
68.105 11.164943
68.110 10.652502
68.115 10.50939
68.120 10.410035
68.125 10.656846
68.130 10.537453
68.135 10.431065
68.140 10.8035
68.145 11.155003
68.150 10.864685
68.155 10.888736
68.160 10.650664
68.165 10.500931
68.170 10.291286
68.175 10.119175
68.180 9.497008
68.185 9.400651
68.190 9.467566
68.195 9.407598
68.200 9.416038
68.205 9.385501
68.210 9.335584
68.215 9.807118
68.220 9.715687
68.225 9.383512
68.230 9.065228
68.235 8.866952
68.240 9.010926
68.245 9.125134
68.250 9.013238
68.255 9.260061
68.260 9.39537
68.265 10.000671
68.270 10.749095
68.275 10.993427
68.280 11.107464
68.285 11.450047
68.290 11.415268
68.295 11.472166
68.300 11.376259
68.305 11.133693
68.310 10.864965
68.315 10.610788
68.320 10.360775
68.325 10.144898
68.330 9.980937
68.335 9.760098
68.340 9.360771
68.345 9.614908
68.350 9.857437
68.355 9.796721
68.360 9.766644
68.365 9.527964
68.370 10.250702
68.375 10.893568
68.380 10.407623
68.385 10.364109
68.390 10.403012
68.395 10.406732
68.400 10.082871
68.405 9.316661
68.410 9.462271
68.415 9.523923
68.420 9.433434
68.425 9.191695
68.430 9.023737
68.435 9.355039
68.440 9.418524
68.445 9.364043
68.450 9.198548
68.455 9.289094
68.460 9.592531
68.465 9.715308
68.470 9.805641
68.475 9.509853
68.480 9.292976
68.485 9.311142
68.490 9.006567
68.495 9.144142
68.500 9.11762
68.505 8.65758
68.510 8.130475
68.515 7.870364
68.520 8.04317
68.525 7.873166
68.530 7.690664
68.535 7.603729
68.540 8.044864
68.545 8.682611
68.550 8.896973
68.555 9.352256
68.560 10.20712
68.565 10.17783
68.570 10.582668
68.575 10.539588
68.580 10.153675
68.585 10.202663
68.590 9.552361
68.595 9.080437
68.600 9.227005
68.605 9.331251
68.610 9.619698
68.615 9.916899
68.620 9.805792
68.625 9.704233
68.630 9.933381
68.635 9.91596
68.640 9.83837
68.645 9.545627
68.650 9.478874
68.655 9.715619
68.660 10.292786
68.665 10.218183
68.670 10.112157
68.675 9.746421
68.680 9.54355
68.685 9.659296
68.690 9.462731
68.695 8.985023
68.700 9.172925
68.705 9.188412
68.710 9.333558
68.715 9.522712
68.720 9.293211
68.725 9.168992
68.730 9.339755
68.735 9.346888
68.740 9.343281
68.745 9.071439
68.750 9.367273
68.755 9.382159
68.760 9.378172
68.765 9.347268
68.770 9.33329
68.775 9.334523
68.780 9.73912
68.785 9.78573
68.790 9.826887
68.795 10.370227
68.800 10.135089
68.805 10.164784
68.810 10.448121
68.815 10.332562
68.820 10.260365
68.825 10.558379
68.830 10.294592
68.835 10.427207
68.840 10.778816
68.845 10.607948
68.850 10.918046
68.855 11.02984
68.860 11.145158
68.865 11.65398
68.870 11.504249
68.875 11.295108
68.880 11.301947
68.885 10.917009
68.890 10.541329
68.895 10.245969
68.900 9.89883
68.905 9.899636
68.910 9.783565
68.915 9.804239
68.920 9.656994
68.925 10.028044
68.930 9.895922
68.935 9.896898
68.940 10.023149
68.945 9.344009
68.950 9.256632
68.955 9.335938
68.960 9.577207
68.965 9.666678
68.970 9.712176
68.975 10.043893
68.980 10.819148
68.985 10.803482
68.990 10.894955
68.995 10.934763
69.000 11.055547
69.005 11.151093
69.010 11.221087
69.015 11.463143
69.020 11.61913
69.025 11.590571
69.030 11.546549
69.035 11.337708
69.040 10.755118
69.045 10.660722
69.050 10.682364
69.055 10.943736
69.060 10.826679
69.065 10.824887
69.070 10.783224
69.075 11.313583
69.080 11.304016
69.085 11.531837
69.090 11.660892
69.095 11.526923
69.100 11.635856
69.105 11.913589
69.110 11.538108
69.115 11.473541
69.120 11.158161
69.125 11.369855
69.130 11.832273
69.135 11.978644
69.140 12.179307
69.145 11.970062
69.150 12.216843
69.155 12.045792
69.160 11.53624
69.165 11.271192
69.170 10.903894
69.175 10.849782
69.180 11.424301
69.185 10.897139
69.190 10.804562
69.195 11.008358
69.200 11.123299
69.205 11.409708
69.210 11.420401
69.215 11.058606
69.220 11.119972
69.225 11.264725
69.230 11.020118
69.235 10.745336
69.240 10.880908
69.245 10.973272
69.250 11.411362
69.255 11.828524
69.260 11.643063
69.265 11.710985
69.270 12.235762
69.275 11.864232
69.280 11.777321
69.285 11.245405
69.290 11.245997
69.295 11.246972
69.300 10.951805
69.305 10.693479
69.310 10.833922
69.315 10.693712
69.320 10.711886
69.325 10.396936
69.330 10.887636
69.335 11.009639
69.340 10.746455
69.345 10.531021
69.350 10.839259
69.355 10.856399
69.360 11.041441
69.365 11.159684
69.370 11.799606
69.375 12.245986
69.380 12.494931
69.385 12.568366
69.390 12.617832
69.395 12.198019
69.400 11.773074
69.405 11.291866
69.410 11.486081
69.415 11.525988
69.420 11.491569
69.425 11.855918
69.430 11.998371
69.435 12.24718
69.440 12.133871
69.445 11.793236
69.450 12.128767
69.455 12.812443
69.460 12.740757
69.465 13.024476
69.470 12.789109
69.475 12.765635
69.480 12.58592
69.485 12.160084
69.490 11.439262
69.495 11.062476
69.500 11.131637
69.505 11.011804
69.510 11.183057
69.515 11.168896
69.520 10.908316
69.525 11.047405
69.530 11.136017
69.535 10.759378
69.540 10.791602
69.545 10.862255
69.550 11.130419
69.555 11.645103
69.560 11.992333
69.565 11.96344
69.570 12.49055
69.575 12.999777
69.580 12.624908
69.585 12.272024
69.590 11.931382
69.595 11.784116
69.600 11.537957
69.605 11.06224
69.610 10.569286
69.615 10.712303
69.620 10.497472
69.625 10.691679
69.630 10.557228
69.635 10.622569
69.640 10.596256
69.645 10.837426
69.650 10.948837
69.655 11.784545
69.660 12.369913
69.665 12.562958
69.670 12.687
69.675 12.55378
69.680 12.336359
69.685 12.000488
69.690 10.871566
69.695 10.114577
69.700 10.088007
69.705 10.227249
69.710 10.134947
69.715 10.090274
69.720 10.172271
69.725 10.280378
69.730 10.233911
69.735 10.208139
69.740 10.272158
69.745 10.556633
69.750 10.652884
69.755 10.787732
69.760 10.912699
69.765 10.682223
69.770 10.717604
69.775 10.490416
69.780 10.218529
69.785 9.820339
69.790 9.708838
69.795 10.172873
69.800 10.423075
69.805 9.988753
69.810 9.718896
69.815 9.710041
69.820 10.028217
69.825 9.987079
69.830 9.361712
69.835 9.515698
69.840 9.542076
69.845 9.604911
69.850 10.084796
69.855 10.456544
69.860 10.404778
69.865 10.841781
69.870 11.14256
69.875 11.707036
69.880 11.758762
69.885 11.416375
69.890 11.344424
69.895 11.376534
69.900 10.855006
69.905 10.482503
69.910 10.265644
69.915 10.671749
69.920 10.28054
69.925 10.185259
69.930 10.433574
69.935 10.482792
69.940 10.160667
69.945 10.052671
69.950 9.553904
69.955 9.580313
69.960 9.3136
69.965 8.717021
69.970 8.407638
69.975 8.536253
69.980 8.401937
69.985 8.599036
69.990 8.804607
69.995 9.06798
70.000 9.458542
70.005 9.820013
70.010 9.884072
70.015 9.903766
70.020 9.870437
70.025 9.56934
70.030 9.099191
70.035 9.142228
70.040 8.676462
70.045 8.558763
70.050 9.041051
70.055 9.310764
70.060 9.695184
70.065 10.268335
70.070 10.414701
70.075 10.948183
70.080 10.818649
70.085 10.729128
70.090 10.629771
70.095 10.647125
70.100 10.442193
70.105 10.304922
70.110 10.481058
70.115 10.674841
70.120 10.78999
70.125 10.667523
70.130 10.934803
70.135 11.321931
70.140 11.469644
70.145 11.524866
70.150 11.245247
70.155 10.709821
70.160 10.231145
70.165 9.446233
70.170 8.906753
70.175 8.802592
70.180 8.583074
70.185 8.549942
70.190 9.053321
70.195 9.803146
70.200 10.304069
70.205 10.194536
70.210 10.264175
70.215 10.711936
70.220 11.016234
70.225 10.770331
70.230 10.421805
70.235 10.561158
70.240 10.681259
70.245 10.562725
70.250 10.764192
70.255 11.105572
70.260 11.184918
70.265 11.221311
70.270 11.270547
70.275 11.436191
70.280 11.452964
70.285 11.501105
70.290 11.368949
70.295 11.283091
70.300 11.399431
70.305 11.738602
70.310 11.619003
70.315 11.21912
70.320 10.437806
70.325 10.59242
70.330 10.417404
70.335 10.727527
70.340 10.557752
70.345 10.561035
70.350 10.778938
70.355 10.71382
70.360 10.496115
70.365 10.662859
70.370 10.385075
70.375 10.505412
70.380 10.412115
70.385 10.210979
70.390 9.930942
70.395 10.301681
70.400 10.152752
70.405 10.119043
70.410 9.857214
70.415 9.908261
70.420 10.102923
70.425 10.332329
70.430 10.0395
70.435 10.00225
70.440 10.269286
70.445 10.376887
70.450 10.518853
70.455 10.535458
70.460 10.497067
70.465 10.376426
70.470 10.303632
70.475 10.21881
70.480 10.513569
70.485 10.928854
70.490 10.945334
70.495 11.065022
70.500 11.113007
70.505 11.102612
70.510 11.08941
70.515 10.700542
70.520 10.4115
70.525 10.324909
70.530 10.140518
70.535 10.261917
70.540 9.645983
70.545 9.513194
70.550 9.587611
70.555 9.69967
70.560 9.971423
70.565 10.536339
70.570 10.674178
70.575 10.91907
70.580 10.721378
70.585 10.699123
70.590 10.429325
70.595 10.419766
70.600 10.351295
70.605 10.152458
70.610 10.072494
70.615 10.040863
70.620 10.516362
70.625 10.714058
70.630 10.85516
70.635 10.871319
70.640 11.004763
70.645 10.860416
70.650 10.161645
70.655 9.355916
70.660 9.356862
70.665 8.591675
70.670 8.28115
70.675 8.495492
70.680 8.778736
70.685 9.364623
70.690 9.74069
70.695 9.283043
70.700 9.346052
70.705 9.097403
70.710 8.794586
70.715 8.792451
70.720 8.628753
70.725 8.447387
70.730 9.103512
70.735 9.401744
70.740 9.039604
70.745 8.943337
70.750 8.844199
70.755 8.908429
70.760 8.915801
70.765 8.994803
70.770 9.372316
70.775 9.823895
70.780 9.677762
70.785 9.832822
70.790 10.098627
70.795 9.84673
70.800 9.484926
70.805 9.342693
70.810 9.376979
70.815 9.530188
70.820 9.9164
70.825 9.932339
70.830 10.033682
70.835 10.190167
70.840 9.882402
70.845 9.806158
70.850 9.652425
70.855 8.808187
70.860 8.675846
70.865 8.450429
70.870 8.262941
70.875 8.347112
70.880 8.620798
70.885 8.95993
70.890 9.480701
70.895 9.362909
70.900 9.520842
70.905 9.720348
70.910 9.975068
70.915 9.740816
70.920 9.61179
70.925 9.950253
70.930 10.362445
70.935 10.43832
70.940 10.385152
70.945 10.013267
70.950 10.027023
70.955 9.980612
70.960 9.774714
70.965 9.76887
70.970 9.795553
70.975 9.871104
70.980 10.011981
70.985 10.008669
70.990 9.538665
70.995 9.275751
71.000 9.060596
71.005 8.546607
71.010 8.332409
71.015 8.424293
71.020 8.579041
71.025 8.511035
71.030 8.450124
71.035 8.521167
71.040 8.947769
71.045 9.379912
71.050 9.284483
71.055 8.969257
71.060 9.180136
71.065 9.343734
71.070 9.275701
71.075 9.298846
71.080 9.201396
71.085 9.792472
71.090 10.095055
71.095 10.226432
71.100 10.191527
71.105 10.060503
71.110 9.899608
71.115 9.863195
71.120 9.52869
71.125 9.88723
71.130 9.853899
71.135 9.692914
71.140 9.824706
71.145 9.412486
71.150 9.210451
71.155 8.788834
71.160 8.463056
71.165 8.580373
71.170 8.682837
71.175 8.589883
71.180 9.035688
71.185 9.324655
71.190 9.186015
71.195 8.856544
71.200 8.898771
71.205 9.040704
71.210 9.157732
71.215 8.866547
71.220 8.772773
71.225 8.862746
71.230 9.004004
71.235 8.685249
71.240 8.542255
71.245 8.344217
71.250 8.06478
71.255 8.263399
71.260 8.159015
71.265 8.360659
71.270 8.777118
71.275 9.019207
71.280 9.518964
71.285 9.69827
71.290 9.471341
71.295 9.510676
71.300 9.008129
71.305 8.653161
71.310 8.735271
71.315 8.568317
71.320 8.581219
71.325 8.880512
71.330 9.500446
71.335 9.997484
71.340 10.000793
71.345 9.859846
71.350 9.98035
71.355 9.955596
71.360 9.865688
71.365 9.345013
71.370 9.337336
71.375 9.390414
71.380 9.397848
71.385 9.513206
71.390 9.370474
71.395 9.363641
71.400 9.064066
71.405 9.226035
71.410 9.396631
71.415 9.224081
71.420 9.483819
71.425 9.56412
71.430 9.745657
71.435 9.881217
71.440 9.490734
71.445 9.43871
71.450 9.695022
71.455 9.553671
71.460 9.52688
71.465 9.305701
71.470 8.970556
71.475 8.998333
71.480 8.288631
71.485 7.684915
71.490 7.592221
71.495 7.441306
71.500 7.711159
71.505 7.892962
71.510 7.784325
71.515 8.085953
71.520 7.94854
71.525 8.039861
71.530 8.21133
71.535 8.053866
71.540 8.103269
71.545 8.602469
71.550 9.378857
71.555 9.492722
71.560 9.743947
71.565 9.729651
71.570 9.960918
71.575 9.943383
71.580 9.633803
71.585 9.441556
71.590 9.613134
71.595 9.459344
71.600 9.783424
71.605 9.905182
71.610 9.905972
71.615 9.803453
71.620 10.017051
71.625 10.066526
71.630 10.429266
71.635 10.531352
71.640 10.66779
71.645 11.142841
71.650 11.089567
71.655 10.506504
71.660 9.961535
71.665 9.875391
71.670 9.551558
71.675 9.606539
71.680 9.284288
71.685 9.559482
71.690 9.951479
71.695 10.238798
71.700 9.861399
71.705 9.708356
71.710 9.54859
71.715 9.422252
71.720 9.528769
71.725 9.523741
71.730 9.439724
71.735 9.538078
71.740 9.742584
71.745 9.891911
71.750 10.069394
71.755 9.5733
71.760 9.65016
71.765 9.824126
71.770 9.842791
71.775 9.366396
71.780 9.299206
71.785 9.524223
71.790 9.590994
71.795 9.396594
71.800 9.474741
71.805 9.303762
71.810 9.127465
71.815 8.891416
71.820 8.857611
71.825 9.193861
71.830 9.338068
71.835 9.350272
71.840 9.552019
71.845 9.869649
71.850 9.868949
71.855 9.556595
71.860 8.971133
71.865 8.650599
71.870 8.69266
71.875 8.601684
71.880 8.636505
71.885 8.611229
71.890 8.371607
71.895 8.230925
71.900 8.415536
71.905 8.147229
71.910 8.187658
71.915 8.169663
71.920 8.29711
71.925 8.575165
71.930 8.537331
71.935 9.006863
71.940 9.229245
71.945 9.326129
71.950 9.430243
71.955 9.410687
71.960 9.856757
71.965 9.685269
71.970 9.009784
71.975 8.826922
71.980 8.667725
71.985 8.399575
71.990 8.612965
71.995 8.885794
72.000 9.339867
72.005 9.941939
72.010 9.895864
72.015 9.882934
72.020 9.985175
72.025 9.714633
72.030 9.497313
72.035 9.534909
72.040 9.355792
72.045 9.746765
72.050 9.711712
72.055 9.770983
72.060 9.836284
72.065 9.489973
72.070 9.088977
72.075 8.812755
72.080 8.743108
72.085 8.995721
72.090 8.846938
72.095 8.717334
72.100 8.678946
72.105 8.978773
72.110 8.981238
72.115 8.274395
72.120 8.721556
72.125 9.034706
72.130 9.698455
72.135 10.336862
72.140 10.22505
72.145 10.521664
72.150 10.610489
72.155 10.201524
72.160 9.994542
72.165 9.687692
72.170 9.394044
72.175 9.641854
72.180 9.570115
72.185 9.747389
72.190 9.814624
72.195 9.798954
72.200 9.404595
72.205 9.465464
72.210 9.116038
72.215 9.319874
72.220 9.213393
72.225 9.361712
72.230 9.581152
72.235 9.620576
72.240 9.849443
72.245 10.015085
72.250 10.210657
72.255 10.359466
72.260 10.480086
72.265 10.573298
72.270 10.39261
72.275 9.93547
72.280 9.742692
72.285 9.602049
72.290 9.64953
72.295 9.417717
72.300 9.278809
72.305 9.468961
72.310 9.811416
72.315 9.778169
72.320 9.178145
72.325 8.726709
72.330 8.877026
72.335 8.977036
72.340 9.084056
72.345 8.913225
72.350 8.732922
72.355 8.909697
72.360 8.875108
72.365 9.122006
72.370 9.471144
72.375 9.627517
72.380 9.919669
72.385 10.290833
72.390 10.316181
72.395 10.04513
72.400 9.760777
72.405 9.812488
72.410 9.679609
72.415 9.922502
72.420 10.126739
72.425 10.78242
72.430 10.978833
72.435 11.073409
72.440 10.711392
72.445 10.395117
72.450 10.55752
72.455 10.636101
72.460 10.502302
72.465 10.607678
72.470 10.20187
72.475 10.480102
72.480 10.515946
72.485 9.535899
72.490 8.958469
72.495 8.450981
72.500 8.196375
72.505 8.105003
72.510 8.228005
72.515 8.181176
72.520 8.509624
72.525 9.060598
72.530 9.112808
72.535 8.877121
72.540 8.656737
72.545 8.473757
72.550 8.713066
72.555 9.012585
72.560 8.951928
72.565 9.256519
72.570 9.761332
72.575 10.00938
72.580 10.487472
72.585 10.303659
72.590 9.50424
72.595 9.202161
72.600 9.193241
72.605 9.38577
72.610 9.203766
72.615 9.163438
72.620 9.689833
72.625 10.306025
72.630 10.473218
72.635 10.510376
72.640 10.077456
72.645 9.68713
72.650 9.120221
72.655 8.962862
72.660 8.863983
72.665 8.675762
72.670 8.700544
72.675 8.926644
72.680 9.473485
72.685 10.029654
72.690 10.290672
72.695 10.568021
72.700 10.424868
72.705 10.213352
72.710 9.775877
72.715 9.42513
72.720 9.205532
72.725 9.182639
72.730 9.284176
72.735 9.531149
72.740 9.669966
72.745 9.69167
72.750 9.920072
72.755 9.601482
72.760 8.951883
72.765 8.82708
72.770 9.00141
72.775 8.865688
72.780 8.616974
72.785 8.091834
72.790 8.169715
72.795 8.429575
72.800 8.794471
72.805 8.888786
72.810 9.064822
72.815 9.205763
72.820 9.184997
72.825 9.275035
72.830 8.978048
72.835 8.986112
72.840 8.998591
72.845 9.059784
72.850 9.306087
72.855 9.445413
72.860 9.536772
72.865 9.193055
72.870 9.0865
72.875 9.239321
72.880 9.68799
72.885 9.755485
72.890 9.440595
72.895 9.140178
72.900 9.364207
72.905 8.918336
72.910 8.696813
72.915 8.781199
72.920 9.19426
72.925 9.648913
72.930 9.291433
72.935 9.317022
72.940 9.682611
72.945 9.511614
72.950 9.16993
72.955 8.886847
72.960 9.032906
72.965 9.312889
72.970 8.743716
72.975 8.711403
72.980 8.701048
72.985 8.732944
72.990 8.549318
72.995 8.503098
73.000 8.751528
