!@!!GADDS PLOTSO FILE: Chi integration type
!@!!Title/SampleName: map-5a
!@!!Comment: ?
!@!!User: Bruker Instrument Administrator
!@!!Site: University of Illinois Chicago
!@!!Frame: map-5a_01_000.gfrm
!@!!Wavelengths    1.54184   1.54056   1.54439
!@!!Frame angles: 2Theta: 63.000 Omega: 50.000 Phi: 0.000 Chi: 90.000
!@!!Integration range: 2Theta: 53.000 to 73.000  Gamma: -105.000 to -75.000
!@!!Integration method: bin normalized
!@!N
!@!SS
!@!M
!@!L 0.0 0.0 0.0 0.0
!@!XDegrees
!@!YCounts
53.000 7.36463
53.005 7.056488
53.010 7.012746
53.015 6.868756
53.020 6.551141
53.025 6.443923
53.030 6.381493
53.035 6.453558
53.040 6.747513
53.045 6.322837
53.050 5.86634
53.055 6.033112
53.060 6.385819
53.065 6.303363
53.070 6.355178
53.075 6.479939
53.080 6.817082
53.085 6.91541
53.090 6.91046
53.095 7.130242
53.100 7.348545
53.105 7.375393
53.110 7.396829
53.115 7.523694
53.120 7.472177
53.125 7.244077
53.130 6.994021
53.135 6.887709
53.140 6.677061
53.145 6.361064
53.150 6.39675
53.155 6.307728
53.160 6.470774
53.165 6.382045
53.170 6.698253
53.175 6.924726
53.180 7.433598
53.185 8.369831
53.190 8.464458
53.195 8.203019
53.200 8.289698
53.205 8.378465
53.210 8.564377
53.215 7.896477
53.220 7.341711
53.225 7.345741
53.230 8.053551
53.235 7.989092
53.240 7.79643
53.245 7.639682
53.250 7.645156
53.255 8.011689
53.260 7.86301
53.265 7.29902
53.270 7.103559
53.275 6.925373
53.280 7.028468
53.285 7.202952
53.290 6.959643
53.295 6.930532
53.300 6.886896
53.305 7.211298
53.310 7.340215
53.315 7.132649
53.320 7.409199
53.325 7.335886
53.330 7.947681
53.335 7.873776
53.340 7.419474
53.345 7.641887
53.350 7.544915
53.355 7.204416
53.360 7.142039
53.365 6.815276
53.370 7.103813
53.375 7.237464
53.380 6.88234
53.385 6.899917
53.390 7.384406
53.395 7.774495
53.400 7.784343
53.405 7.648169
53.410 7.536926
53.415 8.046532
53.420 7.925885
53.425 7.45559
53.430 7.017433
53.435 7.017789
53.440 6.978964
53.445 6.802798
53.450 6.698689
53.455 7.190806
53.460 7.191268
53.465 7.276622
53.470 7.198714
53.475 7.423614
53.480 7.723954
53.485 7.263713
53.490 6.760044
53.495 6.818543
53.500 6.674442
53.505 7.00534
53.510 6.981849
53.515 6.860587
53.520 6.896135
53.525 6.976639
53.530 7.237207
53.535 7.345727
53.540 7.084824
53.545 7.345631
53.550 7.98032
53.555 8.150721
53.560 8.010014
53.565 8.039321
53.570 8.19539
53.575 8.333481
53.580 7.968051
53.585 7.311914
53.590 7.49953
53.595 7.817359
53.600 8.068086
53.605 7.879154
53.610 7.771764
53.615 7.998286
53.620 8.588237
53.625 8.28061
53.630 8.314056
53.635 7.989912
53.640 8.254873
53.645 8.478153
53.650 8.45401
53.655 8.371209
53.660 8.627192
53.665 8.392728
53.670 8.870024
53.675 9.103856
53.680 8.89405
53.685 8.665665
53.690 8.585309
53.695 8.743446
53.700 8.457126
53.705 8.12095
53.710 7.654374
53.715 7.468522
53.720 7.646714
53.725 7.212561
53.730 7.097195
53.735 6.849343
53.740 6.551096
53.745 6.840555
53.750 6.897911
53.755 6.567183
53.760 6.813787
53.765 7.317027
53.770 7.907111
53.775 8.1972
53.780 8.670651
53.785 9.048978
53.790 9.474679
53.795 9.298717
53.800 8.991985
53.805 8.505498
53.810 8.390403
53.815 8.296299
53.820 8.235229
53.825 8.201905
53.830 8.151604
53.835 8.002808
53.840 7.832113
53.845 7.58412
53.850 7.369824
53.855 7.436352
53.860 7.17609
53.865 6.813663
53.870 7.191288
53.875 7.629821
53.880 8.000031
53.885 8.277178
53.890 8.412962
53.895 8.5756
53.900 8.532132
53.905 8.469763
53.910 8.175613
53.915 7.644184
53.920 7.52653
53.925 7.768094
53.930 8.323483
53.935 8.442907
53.940 8.017588
53.945 7.737158
53.950 7.915242
53.955 7.764356
53.960 7.298254
53.965 7.167195
53.970 7.268981
53.975 7.53966
53.980 7.724536
53.985 7.42486
53.990 7.455493
53.995 7.692646
54.000 7.436039
54.005 7.467757
54.010 7.341342
54.015 7.534925
54.020 7.44856
54.025 7.287447
54.030 7.466863
54.035 7.681121
54.040 7.726906
54.045 7.940601
54.050 7.885225
54.055 7.927818
54.060 8.077264
54.065 8.094904
54.070 8.210019
54.075 8.25406
54.080 8.201065
54.085 8.061971
54.090 8.481271
54.095 8.757159
54.100 8.716909
54.105 8.693583
54.110 8.617547
54.115 8.849258
54.120 9.399031
54.125 9.194324
54.130 9.0278
54.135 9.264616
54.140 9.305869
54.145 8.893727
54.150 8.415115
54.155 8.187481
54.160 7.92095
54.165 7.937856
54.170 7.913376
54.175 7.949949
54.180 8.281927
54.185 8.720194
54.190 8.876237
54.195 9.282117
54.200 8.955296
54.205 9.123035
54.210 9.323321
54.215 9.125318
54.220 9.034743
54.225 8.883862
54.230 8.732618
54.235 9.539525
54.240 9.684992
54.245 9.68754
54.250 9.236046
54.255 8.556603
54.260 8.828807
54.265 8.712485
54.270 7.852923
54.275 7.26577
54.280 7.177258
54.285 7.763022
54.290 8.199928
54.295 8.409409
54.300 8.839672
54.305 9.126418
54.310 9.80283
54.315 10.468347
54.320 10.363121
54.325 10.167447
54.330 10.171604
54.335 10.240054
54.340 10.560865
54.345 10.616776
54.350 10.400599
54.355 10.285669
54.360 10.326641
54.365 9.641223
54.370 9.934469
54.375 9.769023
54.380 9.411552
54.385 9.352394
54.390 9.352703
54.395 9.390078
54.400 9.424726
54.405 8.911674
54.410 8.905234
54.415 9.143877
54.420 9.255328
54.425 9.199647
54.430 9.086406
54.435 8.773686
54.440 8.510772
54.445 8.561307
54.450 8.213535
54.455 8.322305
54.460 8.525731
54.465 8.939106
54.470 9.443147
54.475 9.678185
54.480 9.520723
54.485 9.196459
54.490 8.953315
54.495 8.928749
54.500 8.694839
54.505 8.042107
54.510 8.20572
54.515 8.539132
54.520 8.649262
54.525 8.664165
54.530 8.412487
54.535 8.388527
54.540 8.336167
54.545 8.092294
54.550 8.44243
54.555 8.416374
54.560 8.237391
54.565 8.347359
54.570 8.553072
54.575 8.825995
54.580 8.812917
54.585 8.615253
54.590 9.142246
54.595 9.43817
54.600 9.192215
54.605 9.167211
54.610 8.958773
54.615 8.961922
54.620 9.238069
54.625 9.159257
54.630 9.032266
54.635 9.255148
54.640 9.218654
54.645 8.851035
54.650 8.533911
54.655 8.36202
54.660 8.125607
54.665 8.278737
54.670 8.070969
54.675 8.186337
54.680 8.226475
54.685 8.404431
54.690 8.148995
54.695 8.200964
54.700 8.202078
54.705 8.313514
54.710 8.445803
54.715 8.468476
54.720 8.089602
54.725 8.51518
54.730 8.411892
54.735 8.14668
54.740 8.35755
54.745 8.650761
54.750 8.679635
54.755 8.900079
54.760 9.136628
54.765 9.559417
54.770 9.851096
54.775 9.662534
54.780 9.327785
54.785 9.500536
54.790 9.506968
54.795 9.303839
54.800 9.061818
54.805 9.237952
54.810 9.508463
54.815 9.77243
54.820 9.602448
54.825 9.421073
54.830 9.217484
54.835 9.126568
54.840 8.394876
54.845 8.425323
54.850 8.483035
54.855 8.469016
54.860 8.487255
54.865 8.408573
54.870 8.816838
54.875 9.331152
54.880 9.629723
54.885 9.762383
54.890 10.096648
54.895 10.647155
54.900 10.8661
54.905 10.455498
54.910 10.197088
54.915 9.758637
54.920 10.078504
54.925 9.933483
54.930 9.890357
54.935 10.015193
54.940 10.172864
54.945 10.025702
54.950 10.090272
54.955 9.739001
54.960 9.35533
54.965 8.693005
54.970 8.362956
54.975 8.294344
54.980 8.387902
54.985 8.444207
54.990 8.689942
54.995 8.822774
55.000 9.138934
55.005 9.389585
55.010 9.681184
55.015 9.785289
55.020 9.88649
55.025 9.791204
55.030 9.856017
55.035 9.697763
55.040 9.615197
55.045 9.556666
55.050 9.245713
55.055 9.184316
55.060 9.268234
55.065 9.312944
55.070 9.729961
55.075 9.670464
55.080 9.877279
55.085 9.84387
55.090 9.681439
55.095 9.825516
55.100 9.867073
55.105 9.723268
55.110 9.444997
55.115 9.116803
55.120 9.512428
55.125 9.96234
55.130 10.460713
55.135 10.268881
55.140 10.450509
55.145 10.880908
55.150 10.950582
55.155 10.775148
55.160 10.080588
55.165 9.498528
55.170 9.010283
55.175 8.724191
55.180 8.971664
55.185 9.347448
55.190 9.604469
55.195 9.477625
55.200 9.960691
55.205 10.547168
55.210 10.241375
55.215 9.580518
55.220 9.629937
55.225 9.689035
55.230 9.909696
55.235 9.654554
55.240 9.625422
55.245 9.961595
55.250 10.058576
55.255 10.000834
55.260 9.788463
55.265 9.982862
55.270 9.579909
55.275 9.542752
55.280 9.459031
55.285 9.325443
55.290 9.195899
55.295 9.366047
55.300 9.232031
55.305 9.508077
55.310 9.286679
55.315 9.128071
55.320 9.048352
55.325 9.043749
55.330 9.264029
55.335 9.475666
55.340 9.624296
55.345 10.124996
55.350 10.189472
55.355 10.177199
55.360 10.225575
55.365 9.88319
55.370 10.078428
55.375 10.242357
55.380 9.989525
55.385 9.868149
55.390 9.986104
55.395 10.137019
55.400 10.023655
55.405 9.518341
55.410 9.233352
55.415 9.483745
55.420 9.550625
55.425 9.066198
55.430 9.433306
55.435 9.725165
55.440 9.728045
55.445 9.969921
55.450 10.194577
55.455 10.338367
55.460 10.390697
55.465 10.052025
55.470 10.04434
55.475 10.381379
55.480 10.278348
55.485 10.395726
55.490 10.741224
55.495 10.57624
55.500 10.339355
55.505 10.154407
55.510 9.973291
55.515 9.889746
55.520 9.774939
55.525 9.646442
55.530 10.262294
55.535 10.891812
55.540 11.410292
55.545 11.439035
55.550 11.423664
55.555 11.457197
55.560 11.150832
55.565 10.685683
55.570 10.587761
55.575 9.871035
55.580 9.491317
55.585 9.234669
55.590 9.03396
55.595 9.230614
55.600 9.403417
55.605 9.065042
55.610 9.615568
55.615 9.744267
55.620 9.807943
55.625 9.782887
55.630 9.509583
55.635 9.055151
55.640 9.124539
55.645 8.993224
55.650 9.23105
55.655 9.037627
55.660 8.993337
55.665 9.375317
55.670 9.68591
55.675 9.525361
55.680 9.268222
55.685 9.231585
55.690 9.755708
55.695 10.083878
55.700 10.078027
55.705 9.978188
55.710 10.28005
55.715 10.527577
55.720 10.511691
55.725 10.641091
55.730 10.389849
55.735 10.716107
55.740 11.186809
55.745 11.897475
55.750 12.324836
55.755 12.593718
55.760 12.268573
55.765 12.232552
55.770 12.169021
55.775 11.540747
55.780 10.902989
55.785 10.439586
55.790 10.211733
55.795 10.04778
55.800 9.787042
55.805 9.622256
55.810 10.115662
55.815 10.272639
55.820 10.572283
55.825 10.930137
55.830 11.400048
55.835 11.824844
55.840 11.978226
55.845 11.556544
55.850 11.060896
55.855 10.640318
55.860 10.224826
55.865 10.000871
55.870 9.664289
55.875 9.868011
55.880 9.746459
55.885 10.216872
55.890 10.687619
55.895 10.956085
55.900 11.053354
55.905 11.179105
55.910 11.038438
55.915 11.331463
55.920 11.33771
55.925 10.938735
55.930 11.227974
55.935 11.181843
55.940 10.713328
55.945 10.658425
55.950 10.690642
55.955 10.273691
55.960 10.070292
55.965 9.632104
55.970 9.442915
55.975 9.71594
55.980 9.729925
55.985 9.748359
55.990 9.747961
55.995 9.873673
56.000 9.859874
56.005 10.083136
56.010 10.236656
56.015 9.773462
56.020 9.723877
56.025 9.735456
56.030 9.675945
56.035 9.684598
56.040 10.013852
56.045 10.18246
56.050 10.56846
56.055 10.865262
56.060 11.207477
56.065 11.604453
56.070 11.321177
56.075 10.989739
56.080 10.980865
56.085 10.987164
56.090 10.771317
56.095 10.829604
56.100 10.835671
56.105 11.100918
56.110 11.00255
56.115 10.667809
56.120 10.334301
56.125 9.871616
56.130 9.867052
56.135 9.839095
56.140 9.753554
56.145 9.774906
56.150 10.157639
56.155 10.467266
56.160 10.86772
56.165 10.860395
56.170 10.939527
56.175 10.891534
56.180 10.881024
56.185 10.875021
56.190 10.75513
56.195 10.477997
56.200 10.548647
56.205 10.7407
56.210 10.458501
56.215 10.491346
56.220 10.888076
56.225 11.29117
56.230 11.922644
56.235 11.823426
56.240 11.583987
56.245 11.953017
56.250 11.886358
56.255 11.133532
56.260 10.709093
56.265 10.225016
56.270 10.228304
56.275 10.80763
56.280 10.790865
56.285 11.017561
56.290 11.207382
56.295 10.843555
56.300 10.8094
56.305 10.888434
56.310 10.292087
56.315 10.420847
56.320 10.585363
56.325 11.253796
56.330 11.579
56.335 11.510224
56.340 11.629539
56.345 11.985989
56.350 11.693316
56.355 11.952587
56.360 11.471376
56.365 11.417212
56.370 11.307846
56.375 11.014904
56.380 11.125611
56.385 10.920302
56.390 10.207839
56.395 10.39703
56.400 10.461508
56.405 10.422409
56.410 11.007611
56.415 11.150552
56.420 11.167907
56.425 11.46903
56.430 11.564029
56.435 11.784954
56.440 11.70739
56.445 11.046566
56.450 10.794564
56.455 11.133524
56.460 11.229198
56.465 11.380168
56.470 11.274526
56.475 11.467185
56.480 12.231855
56.485 12.093569
56.490 11.982345
56.495 11.508527
56.500 11.443389
56.505 12.085503
56.510 12.251559
56.515 11.396843
56.520 11.767717
56.525 11.625093
56.530 12.047732
56.535 12.092875
56.540 11.503167
56.545 11.032684
56.550 10.892621
56.555 10.344171
56.560 10.280837
56.565 10.488758
56.570 10.119593
56.575 10.012827
56.580 10.617174
56.585 11.000698
56.590 11.408988
56.595 11.13286
56.600 10.94765
56.605 10.878369
56.610 10.884974
56.615 10.338614
56.620 10.212285
56.625 10.077712
56.630 10.338643
56.635 10.633488
56.640 11.140043
56.645 11.535716
56.650 11.760478
56.655 11.803815
56.660 12.293477
56.665 12.333582
56.670 12.094131
56.675 12.231089
56.680 12.286891
56.685 13.093526
56.690 13.399407
56.695 12.970103
56.700 12.634555
56.705 12.731662
56.710 12.277347
56.715 12.283467
56.720 11.941316
56.725 12.260502
56.730 12.726973
56.735 13.033028
56.740 12.828398
56.745 12.938071
56.750 12.819907
56.755 12.39809
56.760 12.238531
56.765 12.091107
56.770 12.172037
56.775 12.29283
56.780 12.317169
56.785 12.465832
56.790 12.540937
56.795 12.124343
56.800 12.314904
56.805 12.467876
56.810 12.560435
56.815 12.6296
56.820 12.704394
56.825 13.120125
56.830 13.34187
56.835 13.220586
56.840 13.361247
56.845 13.571244
56.850 13.205961
56.855 12.561339
56.860 12.244886
56.865 12.431695
56.870 12.354201
56.875 12.075572
56.880 11.991144
56.885 12.267656
56.890 12.661114
56.895 12.841845
56.900 12.533756
56.905 12.419256
56.910 12.600063
56.915 12.426682
56.920 12.513278
56.925 12.243171
56.930 11.724832
56.935 11.882324
56.940 11.579041
56.945 11.188992
56.950 10.846295
56.955 10.872894
56.960 10.997855
56.965 11.10091
56.970 11.032303
56.975 11.434548
56.980 11.687604
56.985 12.057456
56.990 12.145347
56.995 12.400624
57.000 12.42764
57.005 12.886201
57.010 13.078683
57.015 13.379066
57.020 13.216342
57.025 12.990346
57.030 12.728529
57.035 13.077369
57.040 12.294227
57.045 11.963575
57.050 11.494903
57.055 11.196974
57.060 11.10175
57.065 10.76052
57.070 10.980045
57.075 11.620854
57.080 11.642578
57.085 12.186561
57.090 12.357308
57.095 12.94108
57.100 13.049397
57.105 13.139725
57.110 12.907987
57.115 12.917724
57.120 12.664484
57.125 12.600474
57.130 12.322289
57.135 12.667597
57.140 12.612476
57.145 12.436582
57.150 12.029856
57.155 12.000503
57.160 12.295914
57.165 12.508653
57.170 13.000085
57.175 13.506301
57.180 13.719065
57.185 13.91704
57.190 14.20445
57.195 14.034179
57.200 13.739868
57.205 13.132175
57.210 12.358877
57.215 12.044878
57.220 12.084972
57.225 12.111718
57.230 12.195748
57.235 12.340307
57.240 12.651406
57.245 12.986044
57.250 13.41883
57.255 13.164365
57.260 12.545491
57.265 12.280073
57.270 12.361149
57.275 11.884123
57.280 11.576798
57.285 11.951265
57.290 12.572478
57.295 13.387854
57.300 13.09504
57.305 12.568059
57.310 12.82973
57.315 13.600001
57.320 13.544466
57.325 13.282648
57.330 13.112259
57.335 13.508344
57.340 13.81579
57.345 13.960931
57.350 13.523774
57.355 13.23303
57.360 13.116989
57.365 12.854916
57.370 12.408232
57.375 12.26294
57.380 11.876085
57.385 11.369998
57.390 11.013631
57.395 11.108652
57.400 11.57295
57.405 11.712699
57.410 11.151932
57.415 11.145554
57.420 11.42487
57.425 11.673618
57.430 11.762292
57.435 11.562921
57.440 11.827457
57.445 12.220541
57.450 12.227688
57.455 12.437416
57.460 12.222408
57.465 12.255286
57.470 12.041648
57.475 12.306804
57.480 12.381861
57.485 12.964614
57.490 12.773066
57.495 12.774673
57.500 12.676557
57.505 12.985862
57.510 12.544094
57.515 12.030062
57.520 12.520665
57.525 12.805331
57.530 12.936314
57.535 12.920467
57.540 12.801394
57.545 13.8908
57.550 14.105844
57.555 13.509466
57.560 13.4505
57.565 13.572055
57.570 13.819436
57.575 13.823377
57.580 13.485728
57.585 13.478699
57.590 13.186094
57.595 12.84094
57.600 12.753348
57.605 13.263549
57.610 13.012928
57.615 12.906502
57.620 12.984261
57.625 13.466491
57.630 13.841002
57.635 13.775203
57.640 13.08486
57.645 13.000863
57.650 13.104942
57.655 13.437496
57.660 13.113524
57.665 13.154109
57.670 12.500635
57.675 12.906279
57.680 12.811444
57.685 12.40601
57.690 12.199172
57.695 12.340766
57.700 12.241272
57.705 12.566404
57.710 11.991674
57.715 12.204364
57.720 12.131925
57.725 11.934071
57.730 11.869637
57.735 11.65168
57.740 11.960153
57.745 12.247148
57.750 12.298241
57.755 12.255908
57.760 12.202459
57.765 12.118865
57.770 12.534773
57.775 12.269138
57.780 12.072361
57.785 12.371023
57.790 12.3232
57.795 12.088077
57.800 11.901947
57.805 11.844975
57.810 12.153636
57.815 12.58336
57.820 12.210699
57.825 12.319399
57.830 12.811488
57.835 12.69649
57.840 12.657277
57.845 12.715976
57.850 12.479591
57.855 12.667326
57.860 12.997707
57.865 12.744304
57.870 12.856308
57.875 12.733947
57.880 12.312411
57.885 12.386189
57.890 12.134788
57.895 12.056002
57.900 12.276541
57.905 12.196117
57.910 12.006452
57.915 11.933445
57.920 11.901225
57.925 12.107996
57.930 11.860634
57.935 11.421003
57.940 11.301818
57.945 11.785247
57.950 11.853526
57.955 12.131227
57.960 11.998459
57.965 12.256393
57.970 13.051832
57.975 12.77747
57.980 12.906455
57.985 12.959374
57.990 12.658472
57.995 12.643996
58.000 12.575213
58.005 12.566153
58.010 13.120688
58.015 13.146138
58.020 13.30579
58.025 13.584795
58.030 13.696967
58.035 13.646759
58.040 13.585349
58.045 13.805155
58.050 13.406456
58.055 13.622186
58.060 13.579921
58.065 13.53028
58.070 13.28354
58.075 13.715477
58.080 13.078702
58.085 13.117437
58.090 12.778378
58.095 12.975587
58.100 12.960788
58.105 13.410085
58.110 13.028696
58.115 13.118831
58.120 13.121785
58.125 13.261684
58.130 12.94599
58.135 13.220234
58.140 13.236509
58.145 13.487347
58.150 14.019053
58.155 13.981579
58.160 14.186257
58.165 14.954192
58.170 14.393075
58.175 14.022324
58.180 13.972885
58.185 14.428047
58.190 14.08616
58.195 13.485033
58.200 12.659561
58.205 12.742653
58.210 12.491668
58.215 12.079785
58.220 11.762114
58.225 11.840499
58.230 11.805699
58.235 12.099752
58.240 12.310067
58.245 12.707373
58.250 13.149559
58.255 13.389836
58.260 13.811031
58.265 14.106005
58.270 14.088851
58.275 14.32848
58.280 14.429646
58.285 14.076726
58.290 13.598808
58.295 13.840341
58.300 14.093719
58.305 14.249625
58.310 14.367481
58.315 14.118169
58.320 13.888152
58.325 14.100187
58.330 13.828554
58.335 13.635791
58.340 13.247829
58.345 13.312108
58.350 13.724216
58.355 14.231773
58.360 14.419069
58.365 14.933419
58.370 15.286257
58.375 15.617023
58.380 15.397567
58.385 15.000797
58.390 14.776828
58.395 14.700893
58.400 13.904666
58.405 13.582038
58.410 12.927958
58.415 12.82534
58.420 12.774584
58.425 12.374002
58.430 12.351012
58.435 12.311302
58.440 12.58491
58.445 13.11859
58.450 13.014766
58.455 13.721346
58.460 14.151606
58.465 14.882515
58.470 15.05718
58.475 14.95265
58.480 15.451671
58.485 15.734103
58.490 15.39049
58.495 15.437327
58.500 14.963826
58.505 14.923247
58.510 14.754955
58.515 14.867374
58.520 14.998372
58.525 14.433855
58.530 14.034399
58.535 14.005055
58.540 14.024748
58.545 14.383693
58.550 14.063075
58.555 13.437504
58.560 13.438862
58.565 13.456584
58.570 13.458497
58.575 14.07828
58.580 14.386394
58.585 14.583613
58.590 15.445069
58.595 15.657692
58.600 15.59826
58.605 15.818655
58.610 15.150074
58.615 14.470461
58.620 14.359849
58.625 14.151356
58.630 14.326674
58.635 14.119287
58.640 13.784039
58.645 13.903209
58.650 14.133818
58.655 13.7877
58.660 13.886719
58.665 13.60612
58.670 13.782891
58.675 13.814343
58.680 13.586984
58.685 14.05054
58.690 14.483473
58.695 14.685615
58.700 14.728668
58.705 14.909174
58.710 14.926676
58.715 14.96303
58.720 14.380538
58.725 14.069798
58.730 13.377069
58.735 13.744385
58.740 14.023067
58.745 14.549968
58.750 14.676098
58.755 15.458397
58.760 15.817021
58.765 16.322893
58.770 16.067261
58.775 15.543324
58.780 15.277836
58.785 14.515619
58.790 14.002931
58.795 13.681944
58.800 13.63979
58.805 13.546528
58.810 13.857094
58.815 13.840357
58.820 14.262548
58.825 14.316311
58.830 14.950664
58.835 14.563875
58.840 14.538088
58.845 14.284376
58.850 14.030509
58.855 13.846439
58.860 13.647148
58.865 13.169263
58.870 13.565373
58.875 13.844331
58.880 13.924831
58.885 14.387026
58.890 14.568041
58.895 14.796981
58.900 14.194921
58.905 13.633594
58.910 13.127959
58.915 12.831239
58.920 12.977939
58.925 12.707932
58.930 12.381883
58.935 13.040735
58.940 13.434404
58.945 13.747239
58.950 13.670683
58.955 13.483321
58.960 13.70068
58.965 13.470618
58.970 13.571909
58.975 13.900586
58.980 14.599972
58.985 15.133719
58.990 14.941009
58.995 15.277324
59.000 15.609381
59.005 15.756658
59.010 15.517879
59.015 14.970057
59.020 14.669386
59.025 14.855984
59.030 14.344925
59.035 14.164031
59.040 13.93974
59.045 14.141575
59.050 14.411022
59.055 14.526108
59.060 14.831421
59.065 15.299995
59.070 15.582475
59.075 15.957632
59.080 15.693213
59.085 15.264992
59.090 15.550662
59.095 15.916902
59.100 15.693033
59.105 15.705361
59.110 15.49821
59.115 15.372041
59.120 15.575434
59.125 14.967393
59.130 14.925688
59.135 15.245243
59.140 14.998141
59.145 15.114831
59.150 15.709439
59.155 15.635655
59.160 15.483044
59.165 15.030135
59.170 15.073709
59.175 15.602388
59.180 15.125607
59.185 14.602049
59.190 14.800965
59.195 14.952234
59.200 14.621021
59.205 14.079927
59.210 13.705738
59.215 14.183714
59.220 14.160517
59.225 14.201324
59.230 14.659054
59.235 14.790028
59.240 15.026412
59.245 14.873187
59.250 13.85294
59.255 13.843286
59.260 13.921082
59.265 13.605463
59.270 13.697848
59.275 13.585213
59.280 13.998691
59.285 15.156618
59.290 15.150331
59.295 14.890357
59.300 14.916449
59.305 15.179565
59.310 15.000583
59.315 15.048858
59.320 14.357704
59.325 14.47156
59.330 14.511196
59.335 14.859159
59.340 14.64737
59.345 14.986634
59.350 15.123604
59.355 15.584356
59.360 15.362672
59.365 15.512251
59.370 15.898652
59.375 16.137188
59.380 15.907228
59.385 15.856889
59.390 16.127201
59.395 15.898651
59.400 15.451564
59.405 14.501531
59.410 14.611986
59.415 14.841262
59.420 14.415309
59.425 13.829182
59.430 13.695306
59.435 13.787854
59.440 14.307179
59.445 14.200312
59.450 14.189207
59.455 14.439371
59.460 15.176631
59.465 15.613464
59.470 15.972333
59.475 15.916882
59.480 16.307915
59.485 16.641438
59.490 16.660158
59.495 16.200336
59.500 15.919179
59.505 15.622803
59.510 15.420807
59.515 14.790219
59.520 14.795427
59.525 14.697786
59.530 14.376084
59.535 14.6773
59.540 14.694783
59.545 14.815622
59.550 14.813781
59.555 14.696206
59.560 15.117802
59.565 15.740717
59.570 15.637071
59.575 15.7882
59.580 15.726619
59.585 16.066175
59.590 15.961134
59.595 15.68118
59.600 15.827674
59.605 16.068346
59.610 16.410749
59.615 16.58963
59.620 16.620121
59.625 16.691608
59.630 16.722376
59.635 16.348375
59.640 16.190077
59.645 15.948873
59.650 15.484729
59.655 15.336667
59.660 15.560308
59.665 15.735687
59.670 16.26268
59.675 16.227961
59.680 16.281965
59.685 16.397696
59.690 16.735941
59.695 16.238859
59.700 16.06724
59.705 15.802264
59.710 16.393137
59.715 16.593607
59.720 16.594469
59.725 16.053312
59.730 16.529684
59.735 16.922947
59.740 17.021734
59.745 16.799528
59.750 16.988495
59.755 17.44178
59.760 17.884407
59.765 17.724501
59.770 17.590668
59.775 17.724745
59.780 16.992245
59.785 16.681679
59.790 16.189888
59.795 15.847672
59.800 15.887663
59.805 15.558384
59.810 14.663488
59.815 15.176741
59.820 15.280923
59.825 15.157882
59.830 15.289259
59.835 15.183508
59.840 15.604989
59.845 16.850485
59.850 16.787704
59.855 16.729376
59.860 17.119518
59.865 17.116102
59.870 17.21122
59.875 17.20697
59.880 17.204456
59.885 17.450653
59.890 17.575218
59.895 17.626965
59.900 18.053631
59.905 17.855448
59.910 17.890146
59.915 17.80415
59.920 17.661894
59.925 17.530735
59.930 17.718534
59.935 17.556206
59.940 17.914799
59.945 18.185745
59.950 18.199972
59.955 17.988102
59.960 18.179195
59.965 18.401098
59.970 18.66329
59.975 18.892416
59.980 19.423714
59.985 19.482426
59.990 19.869408
59.995 19.459152
60.000 19.00984
60.005 18.97237
60.010 19.405485
60.015 18.742794
60.020 18.615307
60.025 18.4869
60.030 18.686172
60.035 18.972752
60.040 19.074394
60.045 19.095074
60.050 19.102081
60.055 18.996534
60.060 19.346664
60.065 20.315611
60.070 20.366411
60.075 19.992554
60.080 19.445215
60.085 19.426695
60.090 19.3498
60.095 19.184216
60.100 18.609507
60.105 18.478857
60.110 18.414364
60.115 18.824022
60.120 19.151218
60.125 19.275425
60.130 19.573078
60.135 19.651468
60.140 19.481129
60.145 19.552626
60.150 19.495527
60.155 19.217834
60.160 19.098303
60.165 18.538651
60.170 18.550943
60.175 19.024765
60.180 18.781115
60.185 19.083296
60.190 19.353373
60.195 19.23514
60.200 19.574125
60.205 19.969563
60.210 20.164722
60.215 20.423763
60.220 20.235592
60.225 20.100912
60.230 20.222963
60.235 20.148897
60.240 19.08017
60.245 18.964592
60.250 18.517239
60.255 18.957804
60.260 19.329336
60.265 19.339594
60.270 19.955103
60.275 20.669891
60.280 20.664051
60.285 20.523096
60.290 20.015984
60.295 19.902252
60.300 19.561337
60.305 18.961231
60.310 18.708176
60.315 18.724503
60.320 19.232914
60.325 19.3685
60.330 19.161953
60.335 19.535511
60.340 19.51825
60.345 19.246746
60.350 19.487339
60.355 19.12347
60.360 18.398294
60.365 18.646881
60.370 17.973881
60.375 17.92959
60.380 18.233809
60.385 17.706364
60.390 17.739864
60.395 18.170235
60.400 17.998299
60.405 18.603607
60.410 19.231443
60.415 19.515915
60.420 19.594746
60.425 19.401207
60.430 20.120417
60.435 20.081236
60.440 19.724764
60.445 19.120174
60.450 18.713839
60.455 18.915239
60.460 19.247433
60.465 18.13229
60.470 18.682943
60.475 19.011744
60.480 19.059139
60.485 18.922222
60.490 18.796879
60.495 18.863642
60.500 19.194361
60.505 18.995266
60.510 18.693899
60.515 18.360151
60.520 18.984819
60.525 19.950214
60.530 20.072296
60.535 19.650187
60.540 19.901062
60.545 19.773464
60.550 20.048643
60.555 19.2563
60.560 18.525049
60.565 18.603867
60.570 18.56451
60.575 18.742855
60.580 19.581696
60.585 19.718819
60.590 19.529341
60.595 18.96044
60.600 18.890303
60.605 19.177485
60.610 18.680904
60.615 18.093426
60.620 18.313297
60.625 18.842266
60.630 18.939976
60.635 18.578274
60.640 18.512306
60.645 19.067364
60.650 18.929447
60.655 18.444969
60.660 18.371077
60.665 18.329092
60.670 18.478104
60.675 18.495295
60.680 17.614082
60.685 17.175335
60.690 17.542866
60.695 17.644417
60.700 17.243494
60.705 17.298414
60.710 17.104967
60.715 17.625193
60.720 17.984152
60.725 17.6457
60.730 17.423033
60.735 17.499968
60.740 17.537548
60.745 17.572357
60.750 17.556223
60.755 17.660746
60.760 17.624332
60.765 17.642172
60.770 17.873802
60.775 17.846771
60.780 17.807301
60.785 17.748322
60.790 17.5194
60.795 17.611568
60.800 17.645716
60.805 17.466608
60.810 17.743404
60.815 17.688482
60.820 17.581703
60.825 17.733131
60.830 17.658779
60.835 17.945232
60.840 18.009737
60.845 17.364634
60.850 17.676373
60.855 17.782541
60.860 17.622948
60.865 17.450796
60.870 17.438166
60.875 17.56699
60.880 18.004089
60.885 18.155071
60.890 17.831491
60.895 17.614891
60.900 17.573986
60.905 17.535156
60.910 17.57732
60.915 17.15744
60.920 17.21212
60.925 17.448664
60.930 17.954191
60.935 17.419878
60.940 16.696526
60.945 17.048536
60.950 16.768993
60.955 16.109035
60.960 15.924189
60.965 15.800924
60.970 16.034748
60.975 16.573786
60.980 16.248251
60.985 16.332975
60.990 16.007351
60.995 15.680593
61.000 15.853915
61.005 16.185535
61.010 15.981013
61.015 15.895638
61.020 16.089746
61.025 16.686764
61.030 17.397116
61.035 17.472427
61.040 17.44998
61.045 17.191208
61.050 17.076166
61.055 16.860834
61.060 16.442465
61.065 16.164351
61.070 16.392349
61.075 16.581541
61.080 16.997131
61.085 17.586035
61.090 18.019653
61.095 18.29678
61.100 17.74411
61.105 17.202873
61.110 16.866526
61.115 16.317621
61.120 15.715236
61.125 15.317988
61.130 15.33781
61.135 15.496339
61.140 15.591439
61.145 15.398078
61.150 15.274389
61.155 15.653091
61.160 15.608833
61.165 15.190681
61.170 14.988596
61.175 14.813494
61.180 15.359435
61.185 15.961271
61.190 16.29068
61.195 16.638393
61.200 17.219339
61.205 17.833082
61.210 18.450243
61.215 18.400194
61.220 18.433727
61.225 18.005518
61.230 18.289005
61.235 18.638906
61.240 18.526608
61.245 18.466621
61.250 18.303471
61.255 17.917252
61.260 17.653521
61.265 17.262276
61.270 16.956165
61.275 16.575159
61.280 16.246128
61.285 16.18173
61.290 16.78051
61.295 17.299753
61.300 17.00223
61.305 16.710014
61.310 16.798464
61.315 16.993752
61.320 16.626181
61.325 16.131067
61.330 15.843637
61.335 16.032351
61.340 16.041565
61.345 15.920108
61.350 16.029593
61.355 16.2218
61.360 16.220919
61.365 16.328091
61.370 16.293432
61.375 16.214117
61.380 16.050888
61.385 15.77198
61.390 15.821029
61.395 15.559505
61.400 15.116758
61.405 15.248443
61.410 15.10312
61.415 14.636882
61.420 14.733814
61.425 14.978844
61.430 15.16393
61.435 15.653144
61.440 15.21152
61.445 15.610581
61.450 16.551306
61.455 16.691147
61.460 17.025305
61.465 17.33053
61.470 17.21504
61.475 17.595963
61.480 17.503765
61.485 17.135942
61.490 16.813259
61.495 16.324339
61.500 16.269161
61.505 16.00186
61.510 15.602986
61.515 15.406394
61.520 15.658018
61.525 15.722186
61.530 15.420879
61.535 15.237681
61.540 15.426681
61.545 15.36713
61.550 15.486072
61.555 15.148716
61.560 15.237858
61.565 15.742457
61.570 15.869637
61.575 16.012491
61.580 16.331226
61.585 15.957994
61.590 15.968432
61.595 15.87142
61.600 15.726443
61.605 15.866047
61.610 15.590869
61.615 15.151883
61.620 15.777339
61.625 15.615615
61.630 15.130808
61.635 14.80352
61.640 14.501544
61.645 14.651464
61.650 14.90951
61.655 14.505419
61.660 14.909822
61.665 15.234859
61.670 15.233115
61.675 15.580831
61.680 15.515574
61.685 15.945287
61.690 15.60889
61.695 14.953438
61.700 15.065731
61.705 15.13693
61.710 14.783377
61.715 14.543999
61.720 14.324366
61.725 14.660532
61.730 14.961251
61.735 14.889868
61.740 14.622845
61.745 14.731282
61.750 14.932707
61.755 15.185482
61.760 15.388898
61.765 15.698326
61.770 16.271439
61.775 16.690138
61.780 17.008612
61.785 17.573576
61.790 16.928181
61.795 16.824949
61.800 16.819956
61.805 16.732998
61.810 16.903355
61.815 16.483679
61.820 16.027557
61.825 16.168701
61.830 16.201712
61.835 16.049801
61.840 15.573767
61.845 15.294493
61.850 15.482057
61.855 15.591544
61.860 16.056004
61.865 16.989031
61.870 17.203211
61.875 17.380299
61.880 17.196604
61.885 16.99612
61.890 17.532175
61.895 17.559143
61.900 17.074497
61.905 17.440731
61.910 17.858564
61.915 17.577429
61.920 17.759548
61.925 17.775249
61.930 16.936762
61.935 16.885931
61.940 16.357269
61.945 15.703745
61.950 16.268301
61.955 16.297022
61.960 15.933548
61.965 16.332504
61.970 16.187008
61.975 16.228481
61.980 16.54999
61.985 16.710552
61.990 16.426689
61.995 16.087233
62.000 16.268179
62.005 16.164385
62.010 16.134737
62.015 16.201477
62.020 15.948151
62.025 15.943108
62.030 16.282185
62.035 15.963802
62.040 16.385004
62.045 16.270464
62.050 16.02294
62.055 15.799889
62.060 15.687602
62.065 15.64822
62.070 15.81778
62.075 15.245549
62.080 15.519953
62.085 15.53003
62.090 15.989313
62.095 16.649565
62.100 16.756191
62.105 16.191523
62.110 16.195297
62.115 15.842463
62.120 15.969039
62.125 15.49518
62.130 14.92168
62.135 14.684569
62.140 15.330292
62.145 15.856263
62.150 16.363239
62.155 16.443827
62.160 16.396904
62.165 16.528996
62.170 16.511833
62.175 16.180584
62.180 15.740754
62.185 15.290296
62.190 15.924735
62.195 16.2824
62.200 16.1434
62.205 16.186258
62.210 16.120338
62.215 15.960713
62.220 15.817693
62.225 15.130401
62.230 14.712048
62.235 14.593399
62.240 14.450551
62.245 14.217473
62.250 14.607476
62.255 15.097079
62.260 14.743007
62.265 14.365825
62.270 14.119256
62.275 14.651933
62.280 15.592977
62.285 15.43569
62.290 15.462239
62.295 16.142662
62.300 16.700478
62.305 16.546133
62.310 15.906618
62.315 15.276974
62.320 15.642265
62.325 14.934698
62.330 14.712492
62.335 14.716406
62.340 15.198254
62.345 15.684838
62.350 15.815681
62.355 15.648655
62.360 16.375814
62.365 16.620655
62.370 16.633799
62.375 16.384371
62.380 16.185928
62.385 15.909314
62.390 15.708101
62.395 15.316831
62.400 14.940047
62.405 15.300071
62.410 15.224319
62.415 15.190632
62.420 15.369129
62.425 15.391844
62.430 15.275146
62.435 15.750388
62.440 15.477753
62.445 15.408834
62.450 15.604936
62.455 15.774367
62.460 16.005362
62.465 16.725674
62.470 16.667444
62.475 17.15107
62.480 17.487597
62.485 17.446775
62.490 17.238964
62.495 17.313492
62.500 16.705467
62.505 16.177235
62.510 15.894442
62.515 15.682183
62.520 16.056753
62.525 16.050039
62.530 16.107758
62.535 16.30187
62.540 16.510639
62.545 16.885122
62.550 17.173525
62.555 16.881289
62.560 17.366323
62.565 16.774847
62.570 16.82181
62.575 16.795792
62.580 16.404427
62.585 16.100414
62.590 16.06447
62.595 15.692836
62.600 16.257633
62.605 15.942063
62.610 15.518772
62.615 15.578238
62.620 15.486019
62.625 15.492544
62.630 16.007717
62.635 15.581429
62.640 15.995099
62.645 16.260609
62.650 16.345686
62.655 16.423388
62.660 16.23419
62.665 15.572638
62.670 15.565492
62.675 15.717669
62.680 15.986339
62.685 15.759061
62.690 15.499622
62.695 15.896447
62.700 16.350033
62.705 16.586321
62.710 16.509142
62.715 16.545086
62.720 16.798628
62.725 17.050423
62.730 17.16221
62.735 16.860304
62.740 16.689528
62.745 16.637917
62.750 17.00633
62.755 16.998297
62.760 16.785654
62.765 16.244717
62.770 16.9681
62.775 17.015524
62.780 17.033804
62.785 16.972591
62.790 17.288189
62.795 17.681099
62.800 17.401058
62.805 17.24514
62.810 17.516558
62.815 17.307991
62.820 17.07835
62.825 16.764469
62.830 16.517426
62.835 16.505171
62.840 16.001362
62.845 15.438555
62.850 14.870629
62.855 14.370914
62.860 14.701832
62.865 14.939083
62.870 15.018055
62.875 15.019381
62.880 15.339138
62.885 15.760165
62.890 15.714036
62.895 15.245353
62.900 14.953458
62.905 14.937381
62.910 15.315176
62.915 15.375786
62.920 15.505723
62.925 15.776479
62.930 15.913939
62.935 16.022821
62.940 16.219767
62.945 16.081181
62.950 16.056282
62.955 16.300285
62.960 16.270752
62.965 15.834141
62.970 16.530743
62.975 17.125774
62.980 17.201307
62.985 17.180494
62.990 17.016602
62.995 17.626249
63.000 17.676132
63.005 16.910973
63.010 16.079966
63.015 16.005402
63.020 16.030565
63.025 15.751449
63.030 15.596046
63.035 16.160593
63.040 15.708832
63.045 15.919692
63.050 16.072987
63.055 15.886986
63.060 15.895653
63.065 15.483596
63.070 15.857886
63.075 16.354773
63.080 16.770931
63.085 16.825109
63.090 16.626282
63.095 16.302179
63.100 16.430635
63.105 16.019855
63.110 16.210367
63.115 15.727654
63.120 15.788292
63.125 16.089502
63.130 16.373602
63.135 16.206739
63.140 15.634128
63.145 15.079762
63.150 14.89681
63.155 14.270411
63.160 14.140382
63.165 14.584888
63.170 14.915279
63.175 15.700164
63.180 16.251957
63.185 16.649319
63.190 17.650221
63.195 17.714706
63.200 17.461689
63.205 17.544771
63.210 17.481741
63.215 17.388266
63.220 17.106016
63.225 16.687851
63.230 16.931639
63.235 16.889235
63.240 16.62686
63.245 16.272083
63.250 16.531597
63.255 16.336025
63.260 16.482311
63.265 16.237879
63.270 16.242357
63.275 16.677189
63.280 17.069813
63.285 16.896477
63.290 17.11371
63.295 17.621193
63.300 17.662245
63.305 17.619802
63.310 17.646704
63.315 17.493889
63.320 17.524139
63.325 17.204651
63.330 17.420515
63.335 17.312967
63.340 17.464468
63.345 17.29101
63.350 17.343172
63.355 16.984879
63.360 16.817717
63.365 16.640163
63.370 16.50222
63.375 16.435337
63.380 16.67454
63.385 16.592838
63.390 16.698057
63.395 17.370251
63.400 16.96773
63.405 17.008738
63.410 16.338886
63.415 16.079998
63.420 16.150904
63.425 16.464354
63.430 16.25061
63.435 16.219395
63.440 16.893311
63.445 17.035955
63.450 16.948915
63.455 17.356846
63.460 17.656761
63.465 17.662868
63.470 18.173292
63.475 18.601704
63.480 18.851133
63.485 18.883169
63.490 18.703308
63.495 18.075125
63.500 17.629223
63.505 17.091982
63.510 16.52911
63.515 16.436855
63.520 16.338596
63.525 15.960855
63.530 15.77059
63.535 16.347931
63.540 15.898921
63.545 15.950305
63.550 16.257849
63.555 16.064152
63.560 16.802189
63.565 17.056921
63.570 16.666027
63.575 17.218538
63.580 17.110125
63.585 16.772709
63.590 16.978741
63.595 16.3466
63.600 16.506119
63.605 16.599535
63.610 16.150625
63.615 16.152372
63.620 16.657885
63.625 16.87619
63.630 17.386587
63.635 17.021515
63.640 16.987034
63.645 17.803766
63.650 18.000763
63.655 17.76026
63.660 17.668083
63.665 17.081963
63.670 17.264023
63.675 17.530046
63.680 17.164801
63.685 17.447119
63.690 17.501425
63.695 17.506891
63.700 17.554739
63.705 17.223347
63.710 16.558701
63.715 16.424175
63.720 15.930979
63.725 15.568008
63.730 15.451272
63.735 15.754404
63.740 16.825008
63.745 17.374165
63.750 17.002556
63.755 16.92667
63.760 17.178822
63.765 17.373898
63.770 17.441751
63.775 16.728092
63.780 16.787088
63.785 16.965744
63.790 16.707758
63.795 16.482224
63.800 15.903689
63.805 15.205365
63.810 15.322923
63.815 14.693013
63.820 14.38687
63.825 14.583246
63.830 14.681239
63.835 15.124898
63.840 15.558695
63.845 15.709572
63.850 16.219229
63.855 16.916323
63.860 17.987654
63.865 18.659029
63.870 18.565462
63.875 18.616419
63.880 18.573875
63.885 18.178709
63.890 17.994652
63.895 17.195496
63.900 16.786657
63.905 16.933107
63.910 16.839237
63.915 16.451952
63.920 16.757608
63.925 16.257565
63.930 15.88873
63.935 15.674645
63.940 16.063536
63.945 15.89467
63.950 16.092539
63.955 16.767973
63.960 17.716053
63.965 17.841103
63.970 18.031815
63.975 17.907246
63.980 17.972496
63.985 17.962015
63.990 17.871822
63.995 17.708817
64.000 17.635654
64.005 17.207642
64.010 17.555567
64.015 18.484825
64.020 18.698664
64.025 18.803598
64.030 18.880142
64.035 18.778038
64.040 18.920979
64.045 18.355402
64.050 17.683643
64.055 17.434391
64.060 17.005709
64.065 16.841398
64.070 17.27565
64.075 17.239714
64.080 17.179399
64.085 16.655012
64.090 16.524582
64.095 16.236301
64.100 16.036066
64.105 16.105146
64.110 16.235888
64.115 16.259731
64.120 16.585964
64.125 16.402758
64.130 16.324121
64.135 16.12517
64.140 15.804546
64.145 15.37449
64.150 14.958044
64.155 15.341285
64.160 15.38915
64.165 15.813984
64.170 15.94537
64.175 16.112783
64.180 16.590773
64.185 17.08465
64.190 16.671583
64.195 16.476488
64.200 16.454515
64.205 17.089359
64.210 17.014666
64.215 17.387794
64.220 17.132818
64.225 17.410797
64.230 17.491928
64.235 17.24765
64.240 16.482677
64.245 16.548891
64.250 15.906173
64.255 15.712676
64.260 15.018915
64.265 14.955745
64.270 15.52022
64.275 15.864246
64.280 15.708655
64.285 15.728771
64.290 16.080685
64.295 16.329477
64.300 16.352036
64.305 16.308636
64.310 16.547808
64.315 16.659828
64.320 16.607567
64.325 16.464684
64.330 16.837416
64.335 16.710028
64.340 16.141111
64.345 16.092834
64.350 16.61273
64.355 16.946785
64.360 17.141146
64.365 17.368351
64.370 17.448898
64.375 17.970215
64.380 18.287384
64.385 18.120049
64.390 18.231281
64.395 18.619867
64.400 18.996635
64.405 19.214766
64.410 18.764484
64.415 18.628527
64.420 18.234222
64.425 17.945955
64.430 17.606434
64.435 17.390228
64.440 17.340191
64.445 17.477175
64.450 16.950979
64.455 16.923176
64.460 16.919514
64.465 17.61585
64.470 18.28299
64.475 18.274321
64.480 18.269495
64.485 18.92276
64.490 19.400175
64.495 19.847603
64.500 20.110792
64.505 19.871372
64.510 20.290516
64.515 20.180851
64.520 19.875088
64.525 19.581238
64.530 19.640865
64.535 18.796675
64.540 18.581779
64.545 18.885046
64.550 19.272518
64.555 19.472744
64.560 19.689669
64.565 19.43458
64.570 19.682173
64.575 19.15206
64.580 19.234282
64.585 19.395733
64.590 19.05509
64.595 18.78389
64.600 18.088039
64.605 17.59367
64.610 17.606958
64.615 17.197388
64.620 17.167446
64.625 17.074165
64.630 16.947065
64.635 17.796814
64.640 19.091633
64.645 20.15649
64.650 19.828493
64.655 19.747417
64.660 19.961092
64.665 19.799807
64.670 19.581396
64.675 19.22835
64.680 18.493132
64.685 18.84141
64.690 18.537735
64.695 18.512432
64.700 18.790144
64.705 18.387081
64.710 18.111496
64.715 18.074863
64.720 17.675907
64.725 17.591566
64.730 17.767715
64.735 18.024071
64.740 17.898546
64.745 17.047047
64.750 17.106205
64.755 17.323404
64.760 17.946407
64.765 17.841827
64.770 18.020527
64.775 18.007011
64.780 18.393351
64.785 18.371046
64.790 18.409903
64.795 18.030251
64.800 18.727167
64.805 18.62739
64.810 18.59412
64.815 18.561899
64.820 18.240536
64.825 18.173113
64.830 17.789759
64.835 17.592632
64.840 17.751635
64.845 17.842682
64.850 17.914965
64.855 18.466665
64.860 18.196096
64.865 18.549131
64.870 18.679031
64.875 18.630545
64.880 19.195293
64.885 19.240448
64.890 18.660395
64.895 18.859404
64.900 18.592257
64.905 18.121084
64.910 18.368483
64.915 18.00326
64.920 18.265854
64.925 18.461939
64.930 18.418116
64.935 18.483885
64.940 18.358271
64.945 18.253479
64.950 18.277575
64.955 18.388107
64.960 18.730902
64.965 19.228956
64.970 19.751781
64.975 20.025021
64.980 20.101555
64.985 20.665777
64.990 20.297894
64.995 19.918667
65.000 19.62644
65.005 19.72187
65.010 19.83988
65.015 19.653217
65.020 19.611107
65.025 19.537586
65.030 19.483347
65.035 19.69799
65.040 19.401396
65.045 19.777042
65.050 20.199266
65.055 20.178608
65.060 20.978456
65.065 21.212738
65.070 21.324919
65.075 21.329762
65.080 21.507399
65.085 21.256243
65.090 20.738371
65.095 20.132582
65.100 20.170494
65.105 19.716171
65.110 19.385744
65.115 18.794846
65.120 19.342815
65.125 20.11124
65.130 20.69713
65.135 20.998869
65.140 21.251806
65.145 21.314322
65.150 21.698334
65.155 21.571363
65.160 21.321457
65.165 21.39452
65.170 21.181
65.175 21.035997
65.180 21.123106
65.185 20.867167
65.190 20.895599
65.195 20.426022
65.200 20.413671
65.205 20.406183
65.210 20.683088
65.215 20.323223
65.220 20.514557
65.225 19.910505
65.230 19.879208
65.235 19.528522
65.240 19.118912
65.245 18.738455
65.250 18.704088
65.255 18.226698
65.260 18.97382
65.265 19.080339
65.270 19.01679
65.275 19.879013
65.280 20.083862
65.285 20.465109
65.290 20.563868
65.295 20.438341
65.300 20.608034
65.305 21.487879
65.310 22.045847
65.315 22.601334
65.320 23.007147
65.325 22.871067
65.330 23.07819
65.335 22.666319
65.340 22.416027
65.345 21.834345
65.350 21.700943
65.355 21.553968
65.360 22.267197
65.365 22.247461
65.370 22.710037
65.375 22.342464
65.380 22.294493
65.385 22.391459
65.390 22.967762
65.395 22.923506
65.400 23.374971
65.405 23.380882
65.410 23.117392
65.415 23.703707
65.420 23.360703
65.425 22.675762
65.430 22.566513
65.435 22.615873
65.440 23.556446
65.445 24.14242
65.450 23.886709
65.455 23.79051
65.460 24.679729
65.465 24.479258
65.470 24.308987
65.475 23.987091
65.480 23.518826
65.485 23.746433
65.490 24.184908
65.495 23.756325
65.500 24.336119
65.505 24.089546
65.510 23.970371
65.515 24.072309
65.520 23.974146
65.525 23.515211
65.530 23.820068
65.535 24.212078
65.540 24.747417
65.545 24.771244
65.550 24.822905
65.555 25.032713
65.560 25.224825
65.565 24.677759
65.570 24.483795
65.575 24.906712
65.580 25.594011
65.585 26.558315
65.590 27.131002
65.595 28.362053
65.600 28.584702
65.605 28.775864
65.610 29.497694
65.615 29.915312
65.620 30.159163
65.625 30.39744
65.630 29.967697
65.635 30.476593
65.640 30.728079
65.645 30.328894
65.650 30.062225
65.655 30.406977
65.660 30.997967
65.665 31.15163
65.670 30.68236
65.675 30.508915
65.680 30.605059
65.685 30.681479
65.690 30.085022
65.695 30.02177
65.700 30.204157
65.705 30.86323
65.710 30.863882
65.715 31.363289
65.720 32.152153
65.725 31.624275
65.730 31.381735
65.735 31.642477
65.740 31.292528
65.745 31.746601
65.750 32.25547
65.755 32.716202
65.760 32.834213
65.765 33.228291
65.770 33.22876
65.775 33.414265
65.780 32.780579
65.785 31.90074
65.790 31.190672
65.795 31.612196
65.800 31.417099
65.805 31.776962
65.810 31.897295
65.815 32.234211
65.820 33.07481
65.825 33.408726
65.830 34.30088
65.835 34.90823
65.840 35.896034
65.845 36.849354
65.850 37.14637
65.855 37.33078
65.860 37.856926
65.865 37.73354
65.870 37.08342
65.875 36.039406
65.880 36.418247
65.885 36.006054
65.890 37.041172
65.895 36.760872
65.900 36.750099
65.905 36.703514
65.910 36.668232
65.915 36.698097
65.920 36.425583
65.925 34.921631
65.930 35.131157
65.935 35.37756
65.940 35.867779
65.945 36.100822
65.950 36.218128
65.955 36.903374
65.960 36.929581
65.965 36.588062
65.970 35.582565
65.975 34.894249
65.980 34.549259
65.985 33.96825
65.990 34.556187
65.995 35.588936
66.000 36.273968
66.005 36.510693
66.010 36.450542
66.015 36.403751
66.020 36.286415
66.025 35.339474
66.030 34.42915
66.035 34.025284
66.040 33.582096
66.045 34.047287
66.050 34.562473
66.055 34.944546
66.060 34.747715
66.065 34.59848
66.070 34.875393
66.075 35.198372
66.080 35.166897
66.085 35.179916
66.090 35.005028
66.095 34.977386
66.100 34.856461
66.105 34.103527
66.110 34.245796
66.115 34.379356
66.120 34.017693
66.125 34.399963
66.130 35.221939
66.135 34.939987
66.140 36.675659
66.145 36.495392
66.150 35.130028
66.155 34.138264
66.160 33.116043
66.165 33.012531
66.170 32.937572
66.175 31.715628
66.180 32.672829
66.185 33.382057
66.190 33.377087
66.195 33.0802
66.200 32.047726
66.205 32.361279
66.210 32.06398
66.215 31.919987
66.220 31.821192
66.225 31.936562
66.230 32.821331
66.235 33.091751
66.240 32.606758
66.245 32.340801
66.250 31.859343
66.255 31.326612
66.260 31.186958
66.265 31.234221
66.270 32.202213
66.275 32.068687
66.280 32.020966
66.285 32.015934
66.290 32.075695
66.295 31.582207
66.300 30.571461
66.305 30.192614
66.310 30.546616
66.315 30.679804
66.320 30.711344
66.325 31.241961
66.330 31.501787
66.335 31.617432
66.340 31.239182
66.345 30.623327
66.350 29.778376
66.355 29.436661
66.360 29.576731
66.365 29.728796
66.370 29.824085
66.375 28.880859
66.380 28.72764
66.385 28.403662
66.390 27.883554
66.395 27.613356
66.400 27.869682
66.405 27.775789
66.410 28.957779
66.415 29.381386
66.420 30.285881
66.425 31.438932
66.430 31.518238
66.435 31.03195
66.440 30.942814
66.445 29.857515
66.450 28.992258
66.455 28.461672
66.460 27.316702
66.465 26.842781
66.470 26.595251
66.475 26.602402
66.480 27.573881
66.485 27.962658
66.490 27.979019
66.495 28.512766
66.500 29.165207
66.505 29.235643
66.510 28.694431
66.515 27.681334
66.520 27.36941
66.525 27.078913
66.530 27.129181
66.535 27.09436
66.540 27.137896
66.545 27.377277
66.550 28.234306
66.555 28.551388
66.560 28.798912
66.565 28.522993
66.570 28.134329
66.575 27.787281
66.580 27.530371
66.585 27.937691
66.590 27.884354
66.595 27.900969
66.600 27.588163
66.605 27.225964
66.610 27.004427
66.615 26.532732
66.620 25.982903
66.625 26.197449
66.630 26.427633
66.635 26.396336
66.640 26.64143
66.645 27.289211
66.650 27.376637
66.655 26.786724
66.660 26.59309
66.665 25.84276
66.670 25.751383
66.675 25.74468
66.680 25.458138
66.685 24.991173
66.690 24.539583
66.695 24.089407
66.700 23.87414
66.705 23.505568
66.710 23.168076
66.715 23.275795
66.720 23.79423
66.725 23.917891
66.730 24.015924
66.735 24.454439
66.740 24.415087
66.745 24.660004
66.750 24.095942
66.755 23.512438
66.760 23.42774
66.765 23.392359
66.770 23.39184
66.775 23.431988
66.780 23.503071
66.785 23.649164
66.790 23.596731
66.795 23.565632
66.800 23.536623
66.805 22.902512
66.810 22.73572
66.815 22.464529
66.820 22.560652
66.825 22.406345
66.830 21.555548
66.835 21.061083
66.840 22.424313
66.845 22.799061
66.850 22.745457
66.855 22.606152
66.860 23.437782
66.865 23.840979
66.870 23.977205
66.875 23.246651
66.880 22.830843
66.885 22.156023
66.890 21.87352
66.895 21.542233
66.900 22.00296
66.905 21.94434
66.910 21.818901
66.915 22.478424
66.920 22.349562
66.925 22.328867
66.930 21.818239
66.935 20.629822
66.940 20.171961
66.945 20.055439
66.950 20.3284
66.955 20.925257
66.960 21.353765
66.965 21.300793
66.970 21.688522
66.975 22.184105
66.980 22.550772
66.985 22.341133
66.990 22.66091
66.995 22.688145
67.000 23.391459
67.005 23.753315
67.010 24.201515
67.015 24.341351
67.020 24.322071
67.025 23.513245
67.030 22.91444
67.035 23.569838
67.040 23.647732
67.045 23.094534
67.050 22.23251
67.055 21.952681
67.060 22.052336
67.065 21.151783
67.070 20.031839
67.075 19.61927
67.080 19.149239
67.085 19.406055
67.090 19.459974
67.095 20.16251
67.100 21.672928
67.105 21.904509
67.110 22.210482
67.115 22.363417
67.120 22.316057
67.125 22.734125
67.130 22.466328
67.135 22.098043
67.140 22.218794
67.145 22.445234
67.150 22.443245
67.155 22.72921
67.160 22.138256
67.165 21.765324
67.170 21.390884
67.175 21.384933
67.180 21.10244
67.185 21.159359
67.190 21.120213
67.195 21.327652
67.200 21.747339
67.205 21.653532
67.210 21.445263
67.215 21.757212
67.220 21.555588
67.225 21.621246
67.230 21.781031
67.235 21.584908
67.240 22.410357
67.245 22.589212
67.250 22.306011
67.255 22.513802
67.260 22.578085
67.265 22.630251
67.270 22.781446
67.275 22.468657
67.280 21.563713
67.285 21.42227
67.290 21.414648
67.295 21.274128
67.300 21.277563
67.305 20.71771
67.310 19.729017
67.315 20.073233
67.320 19.780113
67.325 19.550058
67.330 19.494486
67.335 19.86071
67.340 20.238966
67.345 21.387541
67.350 21.73373
67.355 22.182449
67.360 22.171804
67.365 22.177338
67.370 22.218279
67.375 22.222717
67.380 21.969725
67.385 21.729633
67.390 21.447346
67.395 20.790197
67.400 20.798817
67.405 20.36002
67.410 20.705282
67.415 20.788872
67.420 20.866982
67.425 21.159166
67.430 21.7146
67.435 21.755342
67.440 21.36101
67.445 21.093489
67.450 20.955486
67.455 20.970501
67.460 20.95808
67.465 20.927273
67.470 21.003048
67.475 21.106987
67.480 21.4505
67.485 22.414398
67.490 23.011538
67.495 22.673706
67.500 22.61273
67.505 23.267324
67.510 23.433214
67.515 23.153025
67.520 21.584791
67.525 20.687937
67.530 20.278433
67.535 20.07715
67.540 19.756519
67.545 19.605488
67.550 19.484873
67.555 20.221127
67.560 20.800442
67.565 21.926905
67.570 22.033827
67.575 21.656536
67.580 21.959543
67.585 21.763947
67.590 21.56436
67.595 21.525734
67.600 21.461744
67.605 21.210505
67.610 21.571426
67.615 21.834461
67.620 22.518448
67.625 22.611258
67.630 22.424898
67.635 22.314522
67.640 22.706223
67.645 21.7936
67.650 21.113926
67.655 20.241209
67.660 19.776106
67.665 19.940403
67.670 19.683725
67.675 19.718933
67.680 19.872351
67.685 20.076426
67.690 20.410166
67.695 20.60647
67.700 20.485516
67.705 20.296959
67.710 19.988466
67.715 20.206518
67.720 20.223015
67.725 19.857164
67.730 19.934858
67.735 19.932297
67.740 19.529327
67.745 19.322943
67.750 19.627476
67.755 19.779366
67.760 20.100588
67.765 20.307158
67.770 20.418995
67.775 20.815445
67.780 20.908323
67.785 20.293732
67.790 20.153652
67.795 19.699125
67.800 19.791824
67.805 19.647675
67.810 19.283133
67.815 19.731983
67.820 20.199223
67.825 20.557791
67.830 21.524305
67.835 21.519148
67.840 21.545464
67.845 21.658127
67.850 21.03124
67.855 20.619934
67.860 19.897732
67.865 18.878124
67.870 18.98691
67.875 19.580664
67.880 20.179766
67.885 20.972673
67.890 21.554583
67.895 22.034828
67.900 22.276749
67.905 22.278145
67.910 22.243149
67.915 21.958672
67.920 21.612724
67.925 21.629597
67.930 22.069643
67.935 21.611259
67.940 21.120743
67.945 21.018364
67.950 21.077662
67.955 20.969755
67.960 20.89044
67.965 21.073801
67.970 21.866247
67.975 22.164652
67.980 22.418497
67.985 22.539812
67.990 22.970482
67.995 22.938601
68.000 22.275166
68.005 21.662329
68.010 21.523035
68.015 21.097509
68.020 21.49502
68.025 21.228882
68.030 21.294666
68.035 21.0886
68.040 20.921631
68.045 20.832096
68.050 20.785391
68.055 20.32515
68.060 20.128422
68.065 20.662128
68.070 21.716585
68.075 21.874672
68.080 21.6751
68.085 22.062187
68.090 22.043312
68.095 22.01453
68.100 21.436274
68.105 20.856081
68.110 20.943939
68.115 20.732124
68.120 20.585121
68.125 21.037064
68.130 21.089035
68.135 21.018433
68.140 20.336626
68.145 20.311386
68.150 20.809946
68.155 20.584023
68.160 20.065571
68.165 20.047905
68.170 20.411863
68.175 20.890409
68.180 21.004864
68.185 21.458439
68.190 21.736917
68.195 22.279459
68.200 22.212542
68.205 22.421532
68.210 23.018108
68.215 23.137918
68.220 22.563257
68.225 22.039673
68.230 21.463753
68.235 21.17536
68.240 21.241722
68.245 21.136925
68.250 21.4986
68.255 21.627806
68.260 21.945076
68.265 22.05431
68.270 22.264263
68.275 22.031872
68.280 21.376223
68.285 20.434395
68.290 20.27438
68.295 20.109798
68.300 20.060823
68.305 20.873137
68.310 20.790159
68.315 21.643066
68.320 21.767643
68.325 21.966963
68.330 21.917868
68.335 22.122807
68.340 21.591368
68.345 21.052477
68.350 20.657198
68.355 20.461287
68.360 20.449848
68.365 20.200211
68.370 19.213499
68.375 18.882967
68.380 19.413363
68.385 19.597149
68.390 19.589006
68.395 19.537508
68.400 19.51848
68.405 19.965389
68.410 20.333797
68.415 20.316851
68.420 20.128695
68.425 20.893408
68.430 20.819395
68.435 21.031185
68.440 21.486042
68.445 21.622404
68.450 21.707449
68.455 22.262323
68.460 22.237082
68.465 22.213001
68.470 22.220444
68.475 21.546503
68.480 21.043739
68.485 20.938875
68.490 20.284773
68.495 19.977776
68.500 20.123394
68.505 20.386114
68.510 20.661354
68.515 21.202854
68.520 21.460541
68.525 21.702972
68.530 22.293079
68.535 21.83913
68.540 21.365963
68.545 21.27249
68.550 21.176851
68.555 20.935104
68.560 20.997168
68.565 20.987923
68.570 21.519398
68.575 22.110613
68.580 22.151688
68.585 22.004381
68.590 22.791498
68.595 22.445684
68.600 22.410702
68.605 22.672161
68.610 22.356966
68.615 22.687864
68.620 22.326651
68.625 21.509108
68.630 21.010376
68.635 20.777025
68.640 20.588266
68.645 20.840452
68.650 20.750626
68.655 20.698809
68.660 20.748501
68.665 21.521999
68.670 22.186581
68.675 22.034975
68.680 21.82032
68.685 21.617718
68.690 21.710972
68.695 21.637838
68.700 21.274328
68.705 20.246273
68.710 21.123138
68.715 21.137146
68.720 21.103029
68.725 21.604912
68.730 21.976315
68.735 22.203579
68.740 22.141781
68.745 21.707411
68.750 22.034536
68.755 21.916214
68.760 21.398821
68.765 21.347294
68.770 21.281078
68.775 21.307373
68.780 20.522425
68.785 20.243196
68.790 20.676785
68.795 20.921152
68.800 20.690477
68.805 20.564156
68.810 20.82617
68.815 21.405148
68.820 21.45627
68.825 20.966223
68.830 20.664711
68.835 20.744709
68.840 20.394241
68.845 19.968624
68.850 19.499565
68.855 19.476736
68.860 19.87916
68.865 19.66791
68.870 19.546638
68.875 19.668806
68.880 19.61117
68.885 19.888519
68.890 19.913616
68.895 19.633583
68.900 20.249741
68.905 21.040314
68.910 21.485231
68.915 21.735071
68.920 21.521864
68.925 21.55471
68.930 21.98171
68.935 22.034636
68.940 21.830879
68.945 22.125652
68.950 22.630484
68.955 22.856525
68.960 22.647392
68.965 22.036909
68.970 22.481306
68.975 22.658264
68.980 22.379206
68.985 22.475714
68.990 22.849405
68.995 22.896629
69.000 23.753407
69.005 23.567051
69.010 23.013674
69.015 23.332714
69.020 22.618183
69.025 22.526623
69.030 22.585997
69.035 21.727892
69.040 21.603443
69.045 21.75841
69.050 22.122915
69.055 22.370789
69.060 22.173235
69.065 22.399414
69.070 23.298473
69.075 23.961878
69.080 24.380821
69.085 24.038309
69.090 24.612768
69.095 24.577324
69.100 24.865038
69.105 24.811264
69.110 24.592062
69.115 24.622776
69.120 25.236807
69.125 25.310247
69.130 25.828112
69.135 25.032911
69.140 24.628798
69.145 24.661348
69.150 24.132082
69.155 23.933071
69.160 24.239702
69.165 24.40728
69.170 25.132235
69.175 25.811985
69.180 26.611389
69.185 27.394016
69.190 27.19643
69.195 27.156231
69.200 27.123163
69.205 26.453327
69.210 25.973858
69.215 25.517591
69.220 25.764711
69.225 26.163328
69.230 26.158119
69.235 25.931635
69.240 25.708981
69.245 26.140392
69.250 26.173933
69.255 25.990641
69.260 26.264097
69.265 26.449404
69.270 26.24275
69.275 26.773138
69.280 26.579599
69.285 25.673073
69.290 25.716309
69.295 25.81147
69.300 25.632629
69.305 26.100908
69.310 26.186573
69.315 26.285982
69.320 26.895168
69.325 26.992426
69.330 27.314436
69.335 27.454462
69.340 27.799473
69.345 27.835642
69.350 28.121363
69.355 27.927345
69.360 27.332897
69.365 27.261204
69.370 27.269941
69.375 27.188065
69.380 27.68969
69.385 27.119871
69.390 27.357271
69.395 27.615271
69.400 27.600504
69.405 27.231421
69.410 26.715467
69.415 26.730526
69.420 27.212704
69.425 26.506235
69.430 26.598886
69.435 26.760511
69.440 27.445713
69.445 27.492611
69.450 27.25563
69.455 27.013414
69.460 27.696653
69.465 27.081139
69.470 26.833786
69.475 25.870182
69.480 25.722433
69.485 26.314144
69.490 26.793163
69.495 27.298641
69.500 27.772203
69.505 28.198887
69.510 28.550079
69.515 28.87212
69.520 28.033264
69.525 27.337238
69.530 26.301722
69.535 25.749336
69.540 25.891184
69.545 26.133787
69.550 25.651377
69.555 25.871014
69.560 25.90489
69.565 25.774691
69.570 26.082096
69.575 26.753794
69.580 26.973352
69.585 27.353359
69.590 27.438967
69.595 27.290813
69.600 27.009918
69.605 26.976408
69.610 27.102512
69.615 26.997572
69.620 27.282526
69.625 27.06941
69.630 27.428837
69.635 28.184849
69.640 27.846596
69.645 26.909538
69.650 26.694069
69.655 26.603401
69.660 26.327154
69.665 25.80027
69.670 25.605646
69.675 25.941166
69.680 26.6325
69.685 27.166687
69.690 27.982626
69.695 28.891371
69.700 29.908829
69.705 29.985285
69.710 30.111742
69.715 29.432114
69.720 29.036047
69.725 27.468569
69.730 26.548618
69.735 25.81242
69.740 25.778299
69.745 25.673319
69.750 25.460936
69.755 25.025999
69.760 25.27434
69.765 25.265163
69.770 24.919424
69.775 25.138542
69.780 25.02626
69.785 25.201588
69.790 25.805122
69.795 25.968735
69.800 26.124592
69.805 26.259277
69.810 25.874115
69.815 26.943859
69.820 27.103029
69.825 26.946117
69.830 27.093719
69.835 26.95775
69.840 26.685015
69.845 26.13143
69.850 25.055607
69.855 24.442814
69.860 23.762045
69.865 23.193483
69.870 23.184057
69.875 22.534142
69.880 22.475817
69.885 22.625021
69.890 22.551504
69.895 22.505056
69.900 22.60503
69.905 22.249237
69.910 22.153904
69.915 21.88991
69.920 21.760059
69.925 21.817089
69.930 22.457462
69.935 23.120613
69.940 23.249743
69.945 23.267288
69.950 23.024485
69.955 22.882473
69.960 23.192778
69.965 22.416052
69.970 21.789423
69.975 22.400103
69.980 22.763468
69.985 23.317936
69.990 23.433933
69.995 22.910238
70.000 22.724094
70.005 22.39887
70.010 22.641222
70.015 22.250299
70.020 21.663374
70.025 21.985638
70.030 22.205658
70.035 22.228079
70.040 22.252645
70.045 21.673437
70.050 21.751938
70.055 22.290117
70.060 22.089727
70.065 22.159618
70.070 21.879427
70.075 21.701344
70.080 21.694174
70.085 21.689137
70.090 21.549116
70.095 21.341288
70.100 20.951527
70.105 21.359152
70.110 21.225536
70.115 20.938002
70.120 20.381063
70.125 19.806131
70.130 20.529692
70.135 20.759357
70.140 20.957054
70.145 21.395952
70.150 21.822245
70.155 22.254341
70.160 22.46925
70.165 22.118395
70.170 22.339746
70.175 22.480312
70.180 22.162754
70.185 21.609701
70.190 20.700769
70.195 20.538078
70.200 20.480577
70.205 19.450916
70.210 19.162996
70.215 18.924671
70.220 19.217426
70.225 19.43918
70.230 19.353085
70.235 19.583635
70.240 20.228144
70.245 19.854082
70.250 19.937378
70.255 19.659771
70.260 19.777889
70.265 20.087742
70.270 19.861622
70.275 19.91897
70.280 20.1542
70.285 20.903521
70.290 21.316587
70.295 21.410425
70.300 20.902634
70.305 21.17061
70.310 21.494167
70.315 21.508192
70.320 20.980663
70.325 20.99374
70.330 20.844927
70.335 20.968679
70.340 19.988575
70.345 19.986877
70.350 19.640507
70.355 19.343695
70.360 18.937361
70.365 19.248632
70.370 18.92388
70.375 19.296335
70.380 18.925497
70.385 18.705915
70.390 18.547333
70.395 18.741892
70.400 18.462841
70.405 18.630564
70.410 17.763834
70.415 17.664038
70.420 17.334127
70.425 17.269157
70.430 17.362368
70.435 17.764433
70.440 18.006744
70.445 17.99465
70.450 18.600672
70.455 19.387621
70.460 19.902805
70.465 19.653364
70.470 19.602455
70.475 19.970699
70.480 20.440729
70.485 20.516911
70.490 19.961405
70.495 19.341095
70.500 19.143795
70.505 18.901455
70.510 18.93891
70.515 18.871065
70.520 18.973984
70.525 19.17948
70.530 19.1686
70.535 19.490019
70.540 19.912788
70.545 19.363668
70.550 18.717205
70.555 18.409384
70.560 18.40485
70.565 18.536346
70.570 18.51177
70.575 18.516388
70.580 18.733871
70.585 18.862097
70.590 18.806362
70.595 18.488482
70.600 18.434507
70.605 18.201794
70.610 18.060965
70.615 18.272385
70.620 18.536079
70.625 18.349705
70.630 18.577387
70.635 18.290583
70.640 18.036091
70.645 18.325144
70.650 17.76852
70.655 17.928751
70.660 18.101337
70.665 18.049658
70.670 18.355179
70.675 18.379971
70.680 18.089212
70.685 18.370043
70.690 18.801508
70.695 19.195299
70.700 19.729696
70.705 19.376268
70.710 19.459749
70.715 19.709126
70.720 20.02935
70.725 19.701113
70.730 19.380259
70.735 18.960352
70.740 19.475012
70.745 19.739578
70.750 19.58832
70.755 19.293272
70.760 19.185381
70.765 18.874205
70.770 19.084925
70.775 18.581066
70.780 18.337912
70.785 18.355618
70.790 18.13905
70.795 18.603308
70.800 18.377804
70.805 17.803654
70.810 17.723362
70.815 16.821739
70.820 16.443914
70.825 16.852135
70.830 17.155972
70.835 17.729734
70.840 17.898415
70.845 18.200447
70.850 18.784849
70.855 18.890093
70.860 18.828707
70.865 18.47983
70.870 18.422405
70.875 18.720091
70.880 18.710342
70.885 19.115328
70.890 19.102791
70.895 18.769789
70.900 19.055891
70.905 18.609581
70.910 18.12484
70.915 17.922766
70.920 17.21821
70.925 17.645187
70.930 18.444637
70.935 18.889065
70.940 19.945162
70.945 20.357944
70.950 20.42798
70.955 20.587214
70.960 20.035744
70.965 18.956547
70.970 18.954563
70.975 18.719536
70.980 18.783484
70.985 18.666044
70.990 18.297993
70.995 18.31097
71.000 18.620623
71.005 17.966097
71.010 17.931026
71.015 18.2931
71.020 19.116882
71.025 19.981379
71.030 19.913836
71.035 19.517248
71.040 19.780699
71.045 20.157715
71.050 19.809238
71.055 19.316109
71.060 19.048529
71.065 18.785807
71.070 18.943129
71.075 18.949747
71.080 18.578737
71.085 18.533175
71.090 18.407555
71.095 18.617304
71.100 18.954876
71.105 18.697321
71.110 19.224977
71.115 19.801968
71.120 20.18133
71.125 20.366056
71.130 20.376442
71.135 20.391056
71.140 20.210699
71.145 19.133125
71.150 18.574856
71.155 18.310104
71.160 17.881622
71.165 17.739073
71.170 17.954653
71.175 18.65152
71.180 18.978708
71.185 18.90778
71.190 18.306654
71.195 18.495613
71.200 18.647793
71.205 18.470167
71.210 18.178341
71.215 18.363968
71.220 18.404224
71.225 19.026356
71.230 18.89707
71.235 18.961777
71.240 18.874472
71.245 18.919859
71.250 19.524591
71.255 19.878332
71.260 20.072342
71.265 20.174637
71.270 19.911797
71.275 19.627935
71.280 18.999071
71.285 18.096798
71.290 17.705122
71.295 16.959204
71.300 16.645954
71.305 16.568794
71.310 16.996809
71.315 16.556845
71.320 16.676949
71.325 16.788651
71.330 16.933739
71.335 17.302561
71.340 17.810978
71.345 18.012461
71.350 18.791824
71.355 19.061838
71.360 19.239143
71.365 19.42333
71.370 19.105326
71.375 19.100302
71.380 19.074291
71.385 18.523481
71.390 18.072819
71.395 17.831051
71.400 18.30291
71.405 18.107998
71.410 18.19169
71.415 18.626896
71.420 18.681684
71.425 19.002287
71.430 19.084349
71.435 18.954992
71.440 18.709427
71.445 18.647091
71.450 18.701187
71.455 18.90873
71.460 18.694757
71.465 18.752451
71.470 19.106766
71.475 19.397961
71.480 19.230162
71.485 19.028038
71.490 19.329512
71.495 19.672861
71.500 19.374355
71.505 19.21785
71.510 19.0581
71.515 18.562204
71.520 18.49482
71.525 18.529541
71.530 18.486774
71.535 18.297834
71.540 18.340302
71.545 18.320377
71.550 18.681927
71.555 18.327534
71.560 18.18605
71.565 18.404066
71.570 18.801233
71.575 18.753969
71.580 18.950659
71.585 18.892927
71.590 19.005756
71.595 18.784769
71.600 18.615627
71.605 18.292233
71.610 17.792702
71.615 17.503298
71.620 17.975851
71.625 18.060038
71.630 18.507727
71.635 18.87183
71.640 19.383026
71.645 19.745735
71.650 19.97891
71.655 20.020643
71.660 20.22954
71.665 19.837936
71.670 19.738649
71.675 19.799999
71.680 18.969711
71.685 18.848127
71.690 18.615685
71.695 18.483959
71.700 18.295738
71.705 18.0222
71.710 18.201052
71.715 18.959421
71.720 18.668543
71.725 18.075506
71.730 18.519659
71.735 18.418282
71.740 18.163122
71.745 18.255674
71.750 18.369963
71.755 18.645796
71.760 18.827049
71.765 18.813251
71.770 19.017305
71.775 19.337475
71.780 19.233191
71.785 19.330614
71.790 19.519207
71.795 19.59721
71.800 19.676203
71.805 20.228296
71.810 20.043823
71.815 19.975084
71.820 19.866653
71.825 19.459736
71.830 19.684456
71.835 19.170246
71.840 18.408527
71.845 18.519077
71.850 18.522774
71.855 18.686792
71.860 18.8489
71.865 18.454477
71.870 18.730879
71.875 19.701477
71.880 19.628014
71.885 19.640245
71.890 19.660107
71.895 19.30604
71.900 19.424585
71.905 18.597546
71.910 17.928841
71.915 17.203405
71.920 16.824198
71.925 17.191893
71.930 17.451191
71.935 17.545517
71.940 17.777187
71.945 17.592516
71.950 18.119928
71.955 17.750418
71.960 17.459288
71.965 17.630798
71.970 17.943666
71.975 18.177326
71.980 18.41349
71.985 18.707327
71.990 18.903913
71.995 19.266857
72.000 18.67696
72.005 18.434311
72.010 18.148706
72.015 17.496469
72.020 17.331133
72.025 17.035414
72.030 16.910627
72.035 17.044596
72.040 17.585604
72.045 18.067518
72.050 18.563057
72.055 18.680725
72.060 18.784729
72.065 19.239786
72.070 19.284546
72.075 19.087082
72.080 19.079182
72.085 18.850803
72.090 18.828667
72.095 18.540073
72.100 18.914257
72.105 18.369709
72.110 18.049295
72.115 18.166401
72.120 18.045
72.125 18.297787
72.130 18.187389
72.135 17.890398
72.140 17.972984
72.145 17.839813
72.150 17.759165
72.155 17.901806
72.160 17.572922
72.165 17.657629
72.170 17.196768
72.175 16.915043
72.180 16.432961
72.185 16.438143
72.190 15.960321
72.195 15.752117
72.200 15.91121
72.205 16.875837
72.210 17.496197
72.215 18.043537
72.220 17.948433
72.225 17.913973
72.230 17.976673
72.235 18.211763
72.240 18.325741
72.245 18.217974
72.250 18.362907
72.255 18.615524
72.260 18.522755
72.265 18.327185
72.270 17.590015
72.275 16.979942
72.280 16.634083
72.285 16.343945
72.290 16.247652
72.295 16.269678
72.300 16.64543
72.305 16.46636
72.310 16.788296
72.315 17.329542
72.320 17.468962
72.325 17.972197
72.330 17.816114
72.335 17.740131
72.340 17.704041
72.345 17.807024
72.350 17.900686
72.355 18.226709
72.360 18.994759
72.365 19.380444
72.370 19.902447
72.375 20.122969
72.380 19.798676
72.385 19.583462
72.390 19.004768
72.395 17.71104
72.400 17.860069
72.405 17.500961
72.410 17.405497
72.415 17.389727
72.420 17.585094
72.425 18.239449
72.430 19.032221
72.435 18.678442
72.440 18.530607
72.445 18.579914
72.450 18.413313
72.455 18.383238
72.460 17.948507
72.465 17.565531
72.470 17.823614
72.475 17.971607
72.480 17.681896
72.485 17.551691
72.490 17.271141
72.495 16.648901
72.500 16.268026
72.505 15.912286
72.510 15.888297
72.515 15.973935
72.520 15.982381
72.525 15.998605
72.530 16.054474
72.535 16.434849
72.540 16.552832
72.545 16.405146
72.550 16.68178
72.555 17.453976
72.560 18.241903
72.565 18.546293
72.570 18.602551
72.575 18.382935
72.580 18.506899
72.585 17.885191
72.590 17.37006
72.595 17.270874
72.600 17.447449
72.605 17.831205
72.610 18.667116
72.615 19.013477
72.620 19.356588
72.625 19.488909
72.630 19.719215
72.635 19.262897
72.640 18.513962
72.645 17.916391
72.650 17.404285
72.655 17.031944
72.660 16.62442
72.665 16.426266
72.670 16.521044
72.675 16.477894
72.680 17.112913
72.685 16.966446
72.690 17.293314
72.695 17.047894
72.700 16.727955
72.705 17.193787
72.710 17.345493
72.715 17.229887
72.720 17.592991
72.725 17.731068
72.730 18.152
72.735 18.305122
72.740 17.906336
72.745 17.629635
72.750 17.513308
72.755 17.089668
72.760 16.736032
72.765 16.740227
72.770 16.905441
72.775 17.339087
72.780 17.564957
72.785 17.451935
72.790 17.59314
72.795 16.916615
72.800 17.016565
72.805 16.721384
72.810 16.832691
72.815 16.378298
72.820 16.397388
72.825 16.994013
72.830 17.02846
72.835 17.018332
72.840 16.736929
72.845 16.941811
72.850 17.99777
72.855 17.808876
72.860 17.096239
72.865 17.616781
72.870 17.89916
72.875 17.819666
72.880 17.426306
72.885 16.522285
72.890 16.963554
72.895 17.48192
72.900 17.464502
72.905 17.423197
72.910 17.639051
72.915 18.316687
72.920 19.371058
72.925 19.401052
72.930 18.837547
72.935 18.705841
72.940 18.908854
72.945 18.299248
72.950 17.749426
72.955 17.06237
72.960 17.12554
72.965 17.412174
72.970 17.513842
72.975 17.346359
72.980 17.523569
72.985 17.475719
72.990 17.409761
72.995 17.659233
73.000 17.166367
