!@!!GADDS PLOTSO FILE: Chi integration type
!@!!Title/SampleName: map-d3
!@!!Comment: ?
!@!!User: Bruker Instrument Administrator
!@!!Site: University of Illinois Chicago
!@!!Frame: map-d3_01_000.gfrm
!@!!Wavelengths    1.54184   1.54056   1.54439
!@!!Frame angles: 2Theta: 63.000 Omega: 50.000 Phi: 0.000 Chi: 90.000
!@!!Integration range: 2Theta: 53.000 to 73.000  Gamma: -105.000 to -75.000
!@!!Integration method: bin normalized
!@!N
!@!SS
!@!M
!@!L 0.0 0.0 0.0 0.0
!@!XDegrees
!@!YCounts
53.000 7.569862
53.005 7.626081
53.010 7.625356
53.015 8.149819
53.020 8.300053
53.025 8.420744
53.030 8.742146
53.035 9.154128
53.040 9.128373
53.045 9.152792
53.050 8.65597
53.055 8.941599
53.060 8.729893
53.065 8.338722
53.070 8.195915
53.075 8.026733
53.080 8.023531
53.085 8.292228
53.090 7.998396
53.095 8.690662
53.100 9.215441
53.105 9.314244
53.110 9.686139
53.115 9.289488
53.120 9.063194
53.125 8.827737
53.130 8.431381
53.135 8.112126
53.140 7.822327
53.145 7.539586
53.150 7.894581
53.155 7.824355
53.160 7.816997
53.165 7.821189
53.170 8.038049
53.175 8.429806
53.180 8.155606
53.185 7.675707
53.190 7.80292
53.195 8.228606
53.200 8.262427
53.205 8.143908
53.210 7.96619
53.215 8.255704
53.220 8.684775
53.225 8.459105
53.230 7.789302
53.235 7.375752
53.240 7.496672
53.245 7.853935
53.250 7.928242
53.255 8.200119
53.260 8.305525
53.265 8.899765
53.270 9.248916
53.275 9.017527
53.280 8.921542
53.285 8.74089
53.290 8.738011
53.295 9.293688
53.300 9.062847
53.305 8.983178
53.310 8.835092
53.315 8.975861
53.320 9.156599
53.325 9.122684
53.330 8.96989
53.335 9.252056
53.340 9.143689
53.345 9.173967
53.350 8.943095
53.355 8.752831
53.360 8.41918
53.365 7.891113
53.370 7.590296
53.375 7.619656
53.380 7.699939
53.385 7.831214
53.390 8.470626
53.395 8.647894
53.400 8.90014
53.405 9.241788
53.410 9.060158
53.415 9.038761
53.420 8.672129
53.425 8.082468
53.430 8.35183
53.435 8.186626
53.440 7.975182
53.445 8.32932
53.450 8.375305
53.455 8.516677
53.460 8.49497
53.465 8.365494
53.470 8.515644
53.475 8.663604
53.480 8.583391
53.485 8.444674
53.490 8.711188
53.495 8.549613
53.500 8.583592
53.505 8.930607
53.510 9.079382
53.515 9.039883
53.520 8.696608
53.525 8.225995
53.530 7.926992
53.535 7.875728
53.540 7.306297
53.545 7.035249
53.550 7.216202
53.555 7.767779
53.560 8.597105
53.565 8.632738
53.570 8.43266
53.575 8.58017
53.580 8.695505
53.585 8.409764
53.590 8.363364
53.595 8.349423
53.600 8.931234
53.605 9.102125
53.610 9.515389
53.615 9.653381
53.620 9.835424
53.625 9.837452
53.630 9.781353
53.635 9.280569
53.640 9.046808
53.645 8.469913
53.650 8.382815
53.655 8.350616
53.660 8.266668
53.665 8.686804
53.670 9.506098
53.675 9.670434
53.680 9.727417
53.685 9.680898
53.690 9.567348
53.695 8.996109
53.700 8.562596
53.705 8.283875
53.710 8.399766
53.715 8.407294
53.720 8.701234
53.725 8.436935
53.730 8.760595
53.735 9.128469
53.740 9.074173
53.745 9.268121
53.750 9.301164
53.755 9.206278
53.760 9.990473
53.765 10.05476
53.770 9.980776
53.775 9.769342
53.780 10.006534
53.785 9.904001
53.790 9.84429
53.795 9.277426
53.800 8.580794
53.805 8.814394
53.810 8.916931
53.815 8.827709
53.820 9.204619
53.825 9.118057
53.830 9.225758
53.835 9.059979
53.840 8.572083
53.845 8.573667
53.850 8.579388
53.855 8.427281
53.860 8.874227
53.865 9.029903
53.870 9.415809
53.875 9.586254
53.880 9.499929
53.885 9.135868
53.890 9.276454
53.895 9.352281
53.900 9.568033
53.905 9.652762
53.910 9.405738
53.915 9.391661
53.920 9.577872
53.925 9.395367
53.930 9.398412
53.935 8.675927
53.940 8.254789
53.945 8.553629
53.950 8.60114
53.955 8.341204
53.960 8.451583
53.965 8.718931
53.970 9.207249
53.975 9.559971
53.980 9.410144
53.985 9.774188
53.990 10.132854
53.995 10.018037
54.000 9.850878
54.005 9.846225
54.010 9.951791
54.015 10.057096
54.020 9.659935
54.025 9.946691
54.030 10.162601
54.035 10.158433
54.040 10.258261
54.045 10.573153
54.050 10.395694
54.055 10.357205
54.060 9.769198
54.065 9.858777
54.070 9.979179
54.075 9.674652
54.080 9.350183
54.085 9.164185
54.090 8.991575
54.095 8.760284
54.100 8.348784
54.105 8.56624
54.110 8.597869
54.115 8.544671
54.120 8.896465
54.125 9.073547
54.130 9.246169
54.135 9.513923
54.140 9.13989
54.145 9.031961
54.150 8.913108
54.155 9.343891
54.160 9.779975
54.165 9.765086
54.170 9.834063
54.175 9.768627
54.180 10.099319
54.185 9.981352
54.190 9.483018
54.195 9.601121
54.200 9.707915
54.205 9.761576
54.210 10.047758
54.215 10.371605
54.220 10.751392
54.225 10.738379
54.230 10.358997
54.235 10.496222
54.240 9.944106
54.245 9.785998
54.250 9.4915
54.255 9.369286
54.260 9.099853
54.265 8.994676
54.270 9.157928
54.275 9.969087
54.280 9.822895
54.285 10.096237
54.290 10.240868
54.295 10.975938
54.300 11.657248
54.305 11.688979
54.310 11.334714
54.315 11.43289
54.320 10.816333
54.325 10.641953
54.330 9.842802
54.335 9.26041
54.340 9.036674
54.345 8.821095
54.350 9.113513
54.355 9.350193
54.360 9.421694
54.365 9.087837
54.370 9.127461
54.375 9.22399
54.380 9.791431
54.385 9.605769
54.390 9.797877
54.395 9.855076
54.400 9.847974
54.405 9.402677
54.410 9.458714
54.415 8.782673
54.420 8.843332
54.425 8.781549
54.430 9.128819
54.435 9.476372
54.440 9.809955
54.445 9.655752
54.450 10.049129
54.455 9.802053
54.460 9.49879
54.465 9.381302
54.470 9.184764
54.475 9.045936
54.480 9.151595
54.485 9.038722
54.490 9.230698
54.495 9.290776
54.500 9.556259
54.505 9.557984
54.510 9.416638
54.515 9.202051
54.520 9.017432
54.525 9.206037
54.530 9.349624
54.535 9.420125
54.540 9.177287
54.545 9.627214
54.550 9.954299
54.555 9.638329
54.560 9.626965
54.565 9.788327
54.570 9.656666
54.575 10.062325
54.580 9.709291
54.585 10.092283
54.590 10.475074
54.595 10.160251
54.600 9.752537
54.605 10.158499
54.610 10.274341
54.615 10.684093
54.620 10.501254
54.625 10.52933
54.630 10.669732
54.635 10.642839
54.640 10.780122
54.645 10.790943
54.650 10.656944
54.655 10.560938
54.660 10.224783
54.665 10.595899
54.670 10.861629
54.675 10.663898
54.680 10.461391
54.685 10.303413
54.690 10.444592
54.695 10.404958
54.700 9.998314
54.705 9.67828
54.710 9.609745
54.715 9.481171
54.720 9.545773
54.725 9.496863
54.730 9.633327
54.735 9.494404
54.740 9.105182
54.745 8.947478
54.750 9.101697
54.755 9.374784
54.760 9.615652
54.765 9.903366
54.770 10.194724
54.775 10.580112
54.780 10.959638
54.785 10.580667
54.790 10.196787
54.795 10.20106
54.800 10.127743
54.805 10.402747
54.810 10.349342
54.815 10.138005
54.820 10.654071
54.825 10.613174
54.830 10.511836
54.835 9.960095
54.840 9.638605
54.845 9.773756
54.850 10.272288
54.855 10.511378
54.860 10.430654
54.865 10.712669
54.870 11.328983
54.875 11.689649
54.880 11.756605
54.885 11.093443
54.890 10.814642
54.895 10.61141
54.900 10.595428
54.905 10.385706
54.910 10.118391
54.915 9.84719
54.920 10.231519
54.925 10.576714
54.930 10.944826
54.935 10.96393
54.940 10.80991
54.945 10.901122
54.950 11.086647
54.955 10.515592
54.960 10.407301
54.965 9.813624
54.970 9.544049
54.975 9.78656
54.980 9.414153
54.985 9.762395
54.990 10.030769
54.995 9.910676
55.000 9.910036
55.005 10.111284
55.010 10.206164
55.015 10.424239
55.020 9.831676
55.025 9.692114
55.030 9.710852
55.035 9.615458
55.040 9.417748
55.045 9.520955
55.050 9.17287
55.055 9.228639
55.060 9.226079
55.065 9.0965
55.070 9.492009
55.075 9.235049
55.080 9.067695
55.085 9.124492
55.090 9.670176
55.095 10.652256
55.100 11.025329
55.105 11.144361
55.110 11.315728
55.115 11.529309
55.120 11.792412
55.125 11.275632
55.130 11.49929
55.135 11.672628
55.140 11.888492
55.145 11.941287
55.150 11.780592
55.155 11.93018
55.160 11.90536
55.165 11.390936
55.170 11.269145
55.175 10.880038
55.180 11.247975
55.185 11.28281
55.190 11.216275
55.195 11.350132
55.200 11.212638
55.205 11.053186
55.210 10.947976
55.215 10.748193
55.220 10.534111
55.225 10.669599
55.230 10.233244
55.235 10.456798
55.240 11.153394
55.245 11.760773
55.250 11.872584
55.255 12.135369
55.260 12.205769
55.265 12.771585
55.270 12.569225
55.275 11.951571
55.280 11.605559
55.285 11.567109
55.290 11.173862
55.295 10.739488
55.300 10.285041
55.305 10.416389
55.310 10.414604
55.315 10.081061
55.320 10.427168
55.325 10.729156
55.330 10.912593
55.335 10.771421
55.340 10.66197
55.345 11.054099
55.350 11.363176
55.355 11.073459
55.360 11.284465
55.365 11.302451
55.370 11.702076
55.375 11.294347
55.380 10.764473
55.385 10.709821
55.390 10.890028
55.395 10.661817
55.400 10.514152
55.405 10.383998
55.410 10.845425
55.415 10.774146
55.420 10.837131
55.425 11.487232
55.430 11.694944
55.435 11.210838
55.440 11.176926
55.445 11.465705
55.450 11.49985
55.455 11.065825
55.460 11.018934
55.465 11.095289
55.470 11.518949
55.475 10.996335
55.480 10.735687
55.485 10.903053
55.490 10.995154
55.495 10.661554
55.500 10.870269
55.505 11.152165
55.510 11.552177
55.515 11.718496
55.520 11.584394
55.525 11.660879
55.530 11.394632
55.535 11.286321
55.540 11.04196
55.545 10.456355
55.550 10.65664
55.555 10.599481
55.560 10.572217
55.565 10.579318
55.570 10.695436
55.575 10.996534
55.580 11.19957
55.585 11.627733
55.590 11.465969
55.595 11.375672
55.600 11.403947
55.605 11.030773
55.610 11.145928
55.615 10.876162
55.620 10.568824
55.625 11.170783
55.630 11.184165
55.635 11.175097
55.640 11.328402
55.645 11.509527
55.650 11.903552
55.655 11.842712
55.660 11.390915
55.665 11.392676
55.670 11.293775
55.675 11.054628
55.680 10.608245
55.685 10.656839
55.690 10.661139
55.695 10.392231
55.700 10.364466
55.705 11.100506
55.710 11.28174
55.715 11.468609
55.720 11.352835
55.725 11.526709
55.730 11.838249
55.735 12.007981
55.740 11.484105
55.745 11.958709
55.750 12.054039
55.755 12.079695
55.760 12.324975
55.765 12.185811
55.770 11.837127
55.775 11.786396
55.780 11.239854
55.785 11.415994
55.790 11.453598
55.795 11.096671
55.800 11.371577
55.805 11.457998
55.810 11.639842
55.815 11.711267
55.820 11.257113
55.825 11.39629
55.830 12.227376
55.835 11.974685
55.840 12.013909
55.845 12.209042
55.850 12.534602
55.855 12.783709
55.860 12.672475
55.865 12.30672
55.870 12.535241
55.875 12.863543
55.880 12.748105
55.885 12.488318
55.890 12.573092
55.895 12.395141
55.900 12.550975
55.905 12.7541
55.910 12.429515
55.915 12.35872
55.920 12.459449
55.925 12.267673
55.930 12.626627
55.935 12.096504
55.940 12.056107
55.945 12.891787
55.950 12.73726
55.955 12.27902
55.960 11.791179
55.965 11.62157
55.970 11.869859
55.975 10.98483
55.980 10.355574
55.985 10.667678
55.990 10.471743
55.995 10.0443
56.000 10.042037
56.005 10.569707
56.010 10.947312
56.015 10.932931
56.020 11.307229
56.025 11.682355
56.030 11.829999
56.035 11.421251
56.040 11.050053
56.045 11.483628
56.050 11.551198
56.055 11.745371
56.060 12.297188
56.065 12.458888
56.070 12.302619
56.075 12.1152
56.080 11.88297
56.085 11.777826
56.090 11.22354
56.095 11.037287
56.100 11.228335
56.105 11.323303
56.110 11.2175
56.115 10.919384
56.120 11.459609
56.125 11.806171
56.130 11.813546
56.135 11.903008
56.140 11.662148
56.145 11.587883
56.150 11.895288
56.155 11.154297
56.160 10.925825
56.165 11.134465
56.170 11.488858
56.175 11.833945
56.180 11.706478
56.185 11.309836
56.190 11.247621
56.195 11.657904
56.200 11.376315
56.205 11.123722
56.210 11.118888
56.215 11.226565
56.220 11.920364
56.225 12.292838
56.230 12.117812
56.235 12.448592
56.240 12.599286
56.245 13.219414
56.250 13.543077
56.255 13.50904
56.260 13.460061
56.265 13.107417
56.270 12.785919
56.275 12.586358
56.280 11.971461
56.285 11.959332
56.290 11.888733
56.295 12.154799
56.300 12.820001
56.305 13.019586
56.310 13.3834
56.315 13.520987
56.320 13.694522
56.325 13.690684
56.330 13.201545
56.335 12.91801
56.340 12.941808
56.345 12.445882
56.350 11.948373
56.355 11.404082
56.360 11.404194
56.365 11.606209
56.370 11.436474
56.375 11.347129
56.380 11.57579
56.385 11.684197
56.390 11.414841
56.395 10.832916
56.400 10.715699
56.405 10.461016
56.410 10.434171
56.415 10.410369
56.420 11.087825
56.425 11.752982
56.430 11.999672
56.435 12.086613
56.440 11.934848
56.445 11.73936
56.450 11.629662
56.455 10.8766
56.460 10.964292
56.465 11.224098
56.470 11.30778
56.475 11.80895
56.480 11.882811
56.485 12.156178
56.490 12.655376
56.495 12.563919
56.500 12.512414
56.505 12.630624
56.510 12.408501
56.515 12.509035
56.520 11.940948
56.525 11.383319
56.530 10.890497
56.535 10.834462
56.540 10.924968
56.545 11.347296
56.550 11.309965
56.555 11.406456
56.560 11.577909
56.565 11.911078
56.570 11.700308
56.575 11.290933
56.580 11.382936
56.585 11.36938
56.590 11.57057
56.595 11.831497
56.600 11.717876
56.605 11.971283
56.610 12.315343
56.615 12.745549
56.620 13.242854
56.625 12.916387
56.630 12.541966
56.635 12.32351
56.640 12.323143
56.645 11.922755
56.650 11.118942
56.655 10.683349
56.660 10.685543
56.665 10.923171
56.670 11.151827
56.675 11.491047
56.680 11.942147
56.685 11.825977
56.690 11.914516
56.695 12.409054
56.700 12.988392
56.705 12.845245
56.710 12.442975
56.715 12.207108
56.720 12.928395
56.725 13.538858
56.730 13.022853
56.735 12.524538
56.740 12.237194
56.745 12.286902
56.750 12.786989
56.755 12.423721
56.760 12.553377
56.765 12.782406
56.770 13.050151
56.775 13.348373
56.780 12.803009
56.785 12.067294
56.790 12.105112
56.795 11.649261
56.800 11.435099
56.805 11.491225
56.810 11.790783
56.815 12.31327
56.820 12.727768
56.825 12.771494
56.830 13.16893
56.835 13.240395
56.840 12.861685
56.845 12.924392
56.850 12.108952
56.855 11.590034
56.860 11.720115
56.865 11.487517
56.870 11.377319
56.875 11.461921
56.880 12.084491
56.885 12.50476
56.890 12.51388
56.895 12.046022
56.900 12.486315
56.905 13.121714
56.910 13.155439
56.915 12.647569
56.920 12.919986
56.925 13.112133
56.930 12.996081
56.935 12.575457
56.940 12.307247
56.945 12.656724
56.950 12.374398
56.955 12.44542
56.960 12.37906
56.965 12.552834
56.970 12.376477
56.975 12.99107
56.980 13.031122
56.985 13.539812
56.990 13.728889
56.995 14.226896
57.000 14.547021
57.005 14.612514
57.010 14.061286
57.015 14.241225
57.020 14.218521
57.025 14.147034
57.030 13.68147
57.035 13.468245
57.040 13.487121
57.045 13.304132
57.050 12.916374
57.055 12.880632
57.060 13.216082
57.065 13.550009
57.070 13.388394
57.075 13.010782
57.080 13.075466
57.085 13.17653
57.090 13.394192
57.095 13.097047
57.100 13.190139
57.105 13.4501
57.110 13.744557
57.115 13.625573
57.120 12.882648
57.125 12.151577
57.130 12.186997
57.135 12.548791
57.140 12.805982
57.145 12.901197
57.150 13.013179
57.155 13.739069
57.160 14.003188
57.165 13.935846
57.170 13.530261
57.175 13.50283
57.180 12.888493
57.185 12.54036
57.190 11.956374
57.195 11.820426
57.200 11.751028
57.205 12.000266
57.210 12.295387
57.215 12.933148
57.220 13.623093
57.225 13.907882
57.230 14.066135
57.235 13.933784
57.240 13.381045
57.245 13.147984
57.250 12.580022
57.255 12.297147
57.260 12.277748
57.265 12.491399
57.270 12.571038
57.275 12.478736
57.280 12.129354
57.285 12.468246
57.290 12.715562
57.295 12.669433
57.300 12.250016
57.305 12.106236
57.310 11.928283
57.315 12.466765
57.320 11.995302
57.325 11.668397
57.330 11.494044
57.335 11.371902
57.340 11.587306
57.345 12.104818
57.350 12.789678
57.355 12.992276
57.360 13.160915
57.365 13.462014
57.370 13.781222
57.375 14.114118
57.380 14.008183
57.385 13.515046
57.390 13.641818
57.395 13.551216
57.400 13.708806
57.405 13.13047
57.410 13.027918
57.415 13.249926
57.420 13.44006
57.425 13.441673
57.430 13.569182
57.435 13.379829
57.440 13.606302
57.445 13.540939
57.450 12.812273
57.455 11.942691
57.460 11.767174
57.465 12.046725
57.470 12.567122
57.475 12.69093
57.480 12.663893
57.485 13.03229
57.490 14.030903
57.495 14.120955
57.500 14.099716
57.505 13.80127
57.510 14.102905
57.515 13.958293
57.520 13.942863
57.525 14.164074
57.530 14.281595
57.535 14.172563
57.540 14.903992
57.545 15.03174
57.550 15.010685
57.555 14.747626
57.560 14.429157
57.565 14.461033
57.570 14.486333
57.575 13.753408
57.580 13.243941
57.585 13.163008
57.590 13.790332
57.595 13.886201
57.600 13.661154
57.605 13.476834
57.610 13.745088
57.615 14.319735
57.620 14.555882
57.625 14.429198
57.630 14.291396
57.635 14.628584
57.640 14.830857
57.645 14.516765
57.650 14.100693
57.655 14.175062
57.660 14.316115
57.665 14.212038
57.670 13.542243
57.675 13.02296
57.680 13.481125
57.685 13.710093
57.690 13.623578
57.695 13.025805
57.700 13.030072
57.705 13.048875
57.710 12.919824
57.715 12.662696
57.720 12.438336
57.725 12.456551
57.730 11.955561
57.735 12.111152
57.740 12.637149
57.745 12.363854
57.750 12.025465
57.755 12.258057
57.760 12.410176
57.765 13.175987
57.770 13.395807
57.775 13.728611
57.780 14.017118
57.785 14.185017
57.790 14.282476
57.795 13.934169
57.800 13.639124
57.805 13.536568
57.810 13.389346
57.815 13.553715
57.820 13.423843
57.825 13.039675
57.830 13.548594
57.835 13.488077
57.840 12.891319
57.845 12.26413
57.850 12.183913
57.855 12.252699
57.860 12.253109
57.865 12.539056
57.870 13.03458
57.875 13.463887
57.880 13.608405
57.885 13.482628
57.890 13.691964
57.895 13.472437
57.900 13.219901
57.905 12.986498
57.910 12.885652
57.915 13.041974
57.920 13.11504
57.925 12.957639
57.930 13.146766
57.935 13.729492
57.940 13.840783
57.945 14.479951
57.950 15.367726
57.955 15.370913
57.960 15.25997
57.965 14.865904
57.970 14.388981
57.975 13.626451
57.980 13.336303
57.985 12.904323
57.990 12.761633
57.995 13.199768
58.000 13.078748
58.005 13.215013
58.010 14.194994
58.015 14.47972
58.020 14.124349
58.025 13.995364
58.030 13.917227
58.035 14.385159
58.040 13.948261
58.045 13.720415
58.050 13.446702
58.055 13.893722
58.060 13.977751
58.065 13.955287
58.070 14.055219
58.075 14.232843
58.080 14.050339
58.085 13.749601
58.090 14.044866
58.095 14.817072
58.100 15.043156
58.105 15.072083
58.110 14.821117
58.115 14.822627
58.120 15.269092
58.125 15.018768
58.130 15.309155
58.135 15.332838
58.140 15.825687
58.145 16.336029
58.150 15.82871
58.155 15.033738
58.160 14.405849
58.165 13.230752
58.170 12.48592
58.175 11.755115
58.180 11.772378
58.185 12.501033
58.190 12.745193
58.195 12.86951
58.200 13.392673
58.205 13.616609
58.210 13.43339
58.215 13.294936
58.220 12.911637
58.225 12.771631
58.230 12.603721
58.235 12.59992
58.240 12.519732
58.245 12.560732
58.250 12.765491
58.255 13.012094
58.260 13.032616
58.265 12.832966
58.270 12.832338
58.275 13.037647
58.280 13.244178
58.285 13.043436
58.290 12.794778
58.295 13.064085
58.300 13.11043
58.305 13.103877
58.310 12.956355
58.315 13.383058
58.320 13.716998
58.325 13.863979
58.330 13.936391
58.335 14.599543
58.340 15.142088
58.345 15.252663
58.350 14.285181
58.355 14.121279
58.360 14.092475
58.365 13.72902
58.370 13.1011
58.375 12.893771
58.380 12.954824
58.385 13.380259
58.390 13.510158
58.395 13.79301
58.400 13.985161
58.405 14.326372
58.410 14.691182
58.415 15.476933
58.420 15.404889
58.425 15.48713
58.430 15.48913
58.435 15.791019
58.440 15.582427
58.445 14.87033
58.450 14.746099
58.455 14.789926
58.460 14.861479
58.465 15.040749
58.470 14.79407
58.475 14.675257
58.480 15.122682
58.485 15.269615
58.490 15.115637
58.495 14.627006
58.500 14.360354
58.505 14.511142
58.510 14.559301
58.515 14.542469
58.520 13.863688
58.525 14.00908
58.530 14.573092
58.535 14.767311
58.540 14.896319
58.545 14.757785
58.550 14.794887
58.555 14.82316
58.560 14.879149
58.565 14.462165
58.570 14.5658
58.575 14.548713
58.580 14.499928
58.585 14.209381
58.590 14.396945
58.595 14.765224
58.600 14.999385
58.605 14.50935
58.610 13.904996
58.615 13.477763
58.620 13.506252
58.625 13.717536
58.630 13.485847
58.635 12.907745
58.640 12.945802
58.645 13.322601
58.650 13.920146
58.655 14.529055
58.660 14.71531
58.665 14.530165
58.670 14.852632
58.675 15.675867
58.680 15.95254
58.685 15.523314
58.690 15.18013
58.695 15.215697
58.700 15.683018
58.705 15.894128
58.710 15.248231
58.715 14.997662
58.720 14.788595
58.725 14.443005
58.730 14.22595
58.735 14.051811
58.740 14.362063
58.745 14.632051
58.750 14.612754
58.755 14.652376
58.760 14.580271
58.765 14.013729
58.770 13.670794
58.775 13.687091
58.780 14.070611
58.785 14.080193
58.790 14.040016
58.795 14.410134
58.800 14.98505
58.805 15.131164
58.810 14.537165
58.815 13.819682
58.820 14.32995
58.825 14.447834
58.830 14.322974
58.835 13.62743
58.840 13.714416
58.845 13.708342
58.850 13.649248
58.855 13.539591
58.860 13.392707
58.865 13.379946
58.870 14.096227
58.875 14.382646
58.880 14.884833
58.885 15.88782
58.890 15.963167
58.895 16.16573
58.900 15.558481
58.905 15.409479
58.910 15.063354
58.915 14.627215
58.920 13.692645
58.925 13.577372
58.930 13.651922
58.935 14.001851
58.940 13.843415
58.945 13.691256
58.950 13.964601
58.955 13.865713
58.960 13.649821
58.965 13.690286
58.970 13.786551
58.975 14.162363
58.980 14.417323
58.985 14.577353
58.990 15.151804
58.995 15.090405
59.000 15.218099
59.005 15.308459
59.010 16.027248
59.015 16.258196
59.020 15.93651
59.025 15.81075
59.030 16.569355
59.035 16.470873
59.040 16.516623
59.045 15.657869
59.050 15.551833
59.055 15.851632
59.060 15.475886
59.065 15.281279
59.070 15.53377
59.075 15.542561
59.080 15.689867
59.085 16.005913
59.090 16.158821
59.095 16.796829
59.100 16.352699
59.105 16.276798
59.110 16.292067
59.115 16.539577
59.120 16.251497
59.125 16.361252
59.130 16.311905
59.135 17.26911
59.140 17.352499
59.145 17.185797
59.150 16.81715
59.155 16.646242
59.160 16.884146
59.165 16.318069
59.170 15.259393
59.175 15.155311
59.180 15.290007
59.185 15.624616
59.190 15.363252
59.195 14.675344
59.200 14.571392
59.205 14.755045
59.210 14.884599
59.215 14.617126
59.220 14.403602
59.225 14.400448
59.230 14.416648
59.235 14.492965
59.240 14.525577
59.245 14.204836
59.250 13.845658
59.255 13.044918
59.260 12.767314
59.265 12.815241
59.270 12.635316
59.275 13.07355
59.280 13.112873
59.285 13.359817
59.290 14.044407
59.295 14.566322
59.300 14.988485
59.305 14.898952
59.310 14.502403
59.315 14.588112
59.320 14.81741
59.325 15.233377
59.330 15.40119
59.335 15.279562
59.340 15.941701
59.345 16.142542
59.350 16.4041
59.355 15.781947
59.360 15.105502
59.365 14.836999
59.370 15.110537
59.375 14.984035
59.380 15.471169
59.385 15.507032
59.390 16.305405
59.395 16.480652
59.400 16.986074
59.405 16.944708
59.410 16.575224
59.415 16.105608
59.420 16.175043
59.425 16.399794
59.430 16.677244
59.435 16.053965
59.440 15.898828
59.445 16.492699
59.450 16.514811
59.455 16.338907
59.460 16.177818
59.465 16.589426
59.470 16.67909
59.475 16.241438
59.480 16.297487
59.485 17.031191
59.490 17.307362
59.495 17.405695
59.500 17.027338
59.505 17.067421
59.510 16.95352
59.515 16.390049
59.520 15.869398
59.525 15.594977
59.530 15.676417
59.535 16.098686
59.540 16.718374
59.545 17.149506
59.550 17.305365
59.555 17.080959
59.560 17.08259
59.565 17.066622
59.570 16.539499
59.575 16.489914
59.580 16.28916
59.585 16.306023
59.590 16.372171
59.595 16.734037
59.600 17.142902
59.605 17.682257
59.610 17.829369
59.615 17.954603
59.620 18.037891
59.625 18.850285
59.630 18.962984
59.635 18.310326
59.640 18.036772
59.645 18.031952
59.650 17.898108
59.655 17.491064
59.660 16.519302
59.665 16.562885
59.670 17.060347
59.675 16.712418
59.680 16.020487
59.685 16.153448
59.690 16.770132
59.695 17.404953
59.700 17.837858
59.705 18.385155
59.710 19.577662
59.715 20.302839
59.720 20.594023
59.725 20.378986
59.730 20.08733
59.735 19.986042
59.740 18.913137
59.745 17.675583
59.750 17.407551
59.755 17.531292
59.760 17.59029
59.765 17.686844
59.770 17.337795
59.775 17.509769
59.780 17.829884
59.785 18.451324
59.790 18.865065
59.795 19.421499
59.800 19.273621
59.805 19.02619
59.810 19.310293
59.815 19.431986
59.820 19.092598
59.825 18.713634
59.830 18.089682
59.835 17.818134
59.840 17.847206
59.845 18.271872
59.850 18.628422
59.855 18.673048
59.860 18.889816
59.865 18.790117
59.870 19.12591
59.875 18.899719
59.880 18.557631
59.885 18.044115
59.890 17.719063
59.895 17.390738
59.900 17.427456
59.905 17.286829
59.910 17.783014
59.915 17.619118
59.920 17.773596
59.925 17.880266
59.930 18.166534
59.935 17.996801
59.940 17.524632
59.945 16.958328
59.950 16.789808
59.955 16.679451
59.960 16.876652
59.965 17.342991
59.970 17.481003
59.975 17.789022
59.980 17.8374
59.985 17.839897
59.990 17.87636
59.995 17.602873
60.000 18.169622
60.005 18.850214
60.010 19.56007
60.015 20.844065
60.020 21.165411
60.025 21.593037
60.030 21.58103
60.035 21.294277
60.040 21.08992
60.045 21.0158
60.050 20.876278
60.055 20.960346
60.060 20.762381
60.065 20.316406
60.070 19.711775
60.075 19.705126
60.080 19.13751
60.085 18.584593
60.090 18.035925
60.095 18.124689
60.100 18.63373
60.105 19.515812
60.110 19.707092
60.115 19.838316
60.120 20.064886
60.125 20.273859
60.130 20.150808
60.135 19.815237
60.140 19.122412
60.145 19.159382
60.150 18.874037
60.155 18.712349
60.160 19.592144
60.165 19.641817
60.170 19.859707
60.175 20.105442
60.180 20.212393
60.185 20.769407
60.190 21.326609
60.195 21.024014
60.200 20.997631
60.205 20.424089
60.210 19.996212
60.215 19.6178
60.220 19.19323
60.225 19.281837
60.230 19.148952
60.235 19.171953
60.240 19.548031
60.245 20.081629
60.250 20.337727
60.255 20.270033
60.260 19.493307
60.265 19.437271
60.270 19.365667
60.275 19.143419
60.280 18.765942
60.285 19.145521
60.290 20.105476
60.295 20.407179
60.300 20.94153
60.305 21.107706
60.310 21.454321
60.315 22.017105
60.320 21.803459
60.325 21.58659
60.330 21.715111
60.335 20.761381
60.340 20.934294
60.345 20.795551
60.350 20.589581
60.355 20.600586
60.360 19.692474
60.365 19.759529
60.370 20.328711
60.375 20.156406
60.380 19.974552
60.385 19.862823
60.390 19.965401
60.395 20.463144
60.400 19.944719
60.405 20.377869
60.410 20.719236
60.415 21.344175
60.420 21.347763
60.425 21.662416
60.430 22.587467
60.435 22.981953
60.440 21.980663
60.445 22.1723
60.450 21.653767
60.455 20.797085
60.460 19.744555
60.465 19.08843
60.470 19.006756
60.475 19.576551
60.480 19.531391
60.485 19.754269
60.490 20.586134
60.495 20.753832
60.500 20.261047
60.505 20.299377
60.510 19.866987
60.515 19.469637
60.520 19.323305
60.525 19.22131
60.530 19.374456
60.535 19.339878
60.540 19.348988
60.545 19.533552
60.550 19.83551
60.555 19.744165
60.560 19.894842
60.565 19.760168
60.570 20.131268
60.575 19.926804
60.580 20.144194
60.585 20.340506
60.590 20.597076
60.595 20.846428
60.600 21.383442
60.605 21.900875
60.610 22.869705
60.615 22.407675
60.620 22.05374
60.625 22.09948
60.630 21.832987
60.635 21.730179
60.640 21.175587
60.645 20.312145
60.650 20.164021
60.655 19.794668
60.660 19.152916
60.665 19.141665
60.670 18.920788
60.675 18.787161
60.680 18.680321
60.685 18.376745
60.690 18.286072
60.695 17.903646
60.700 17.498215
60.705 17.904165
60.710 17.932495
60.715 18.25683
60.720 18.379747
60.725 18.632668
60.730 18.933283
60.735 19.559635
60.740 18.986736
60.745 18.10257
60.750 17.925558
60.755 18.022058
60.760 18.221882
60.765 18.208721
60.770 17.349298
60.775 17.431057
60.780 17.953312
60.785 17.997374
60.790 18.131371
60.795 17.952126
60.800 17.774624
60.805 17.642723
60.810 17.917303
60.815 18.134918
60.820 18.09338
60.825 17.692497
60.830 17.59231
60.835 18.50738
60.840 18.519508
60.845 18.503469
60.850 18.185261
60.855 18.329285
60.860 18.05909
60.865 17.644577
60.870 16.961073
60.875 17.343378
60.880 16.496519
60.885 16.763521
60.890 17.028959
60.895 17.443239
60.900 18.205694
60.905 18.569372
60.910 18.035177
60.915 18.241026
60.920 18.227524
60.925 17.999561
60.930 18.229836
60.935 17.344917
60.940 17.310369
60.945 17.325106
60.950 17.460289
60.955 17.384077
60.960 17.280647
60.965 16.946608
60.970 17.042223
60.975 16.897394
60.980 16.644014
60.985 16.436647
60.990 17.019146
60.995 17.103348
61.000 17.781244
61.005 17.568417
61.010 17.31352
61.015 17.899675
61.020 18.017628
61.025 17.011904
61.030 16.976448
61.035 16.388889
61.040 15.892313
61.045 15.538706
61.050 15.432611
61.055 15.063725
61.060 15.329862
61.065 15.092608
61.070 15.814816
61.075 16.681719
61.080 17.111198
61.085 17.49354
61.090 17.667435
61.095 17.465387
61.100 17.542988
61.105 17.034769
61.110 16.835346
61.115 16.298346
61.120 15.96722
61.125 16.109312
61.130 16.155781
61.135 15.783706
61.140 16.319427
61.145 16.972172
61.150 17.810183
61.155 17.933422
61.160 17.667873
61.165 17.809288
61.170 17.585682
61.175 17.327143
61.180 16.739111
61.185 16.76029
61.190 17.123747
61.195 17.762571
61.200 18.479189
61.205 19.08806
61.210 18.872641
61.215 19.109148
61.220 18.790876
61.225 18.280386
61.230 18.160879
61.235 17.560789
61.240 17.084339
61.245 17.330521
61.250 17.161959
61.255 17.202812
61.260 17.124718
61.265 16.825653
61.270 16.341578
61.275 16.064671
61.280 15.736776
61.285 15.754537
61.290 15.385757
61.295 15.25368
61.300 15.447308
61.305 15.866826
61.310 15.851298
61.315 15.911309
61.320 15.763975
61.325 16.293684
61.330 16.53216
61.335 15.909326
61.340 15.918062
61.345 16.349327
61.350 16.342632
61.355 16.335136
61.360 16.045664
61.365 15.778289
61.370 16.099363
61.375 15.862429
61.380 15.451873
61.385 15.273612
61.390 15.34558
61.395 15.25741
61.400 15.182533
61.405 14.920508
61.410 15.238437
61.415 15.74017
61.420 15.861428
61.425 16.165108
61.430 15.995638
61.435 16.773983
61.440 16.826591
61.445 16.656557
61.450 16.259892
61.455 16.197079
61.460 16.024485
61.465 16.237719
61.470 15.978552
61.475 16.181507
61.480 16.776106
61.485 17.910969
61.490 18.068388
61.495 18.260029
61.500 18.073505
61.505 18.176275
61.510 18.074848
61.515 17.669483
61.520 16.702763
61.525 16.388987
61.530 16.372622
61.535 16.569334
61.540 16.698467
61.545 17.009045
61.550 17.436296
61.555 18.047413
61.560 17.984907
61.565 17.70722
61.570 17.800491
61.575 17.951361
61.580 17.879078
61.585 17.693092
61.590 17.591597
61.595 17.954998
61.600 17.683083
61.605 17.163887
61.610 16.481518
61.615 16.191427
61.620 15.915571
61.625 15.755057
61.630 15.689722
61.635 15.717433
61.640 16.122444
61.645 16.383995
61.650 16.192368
61.655 15.736675
61.660 15.507844
61.665 15.260638
61.670 15.476025
61.675 15.038537
61.680 15.402051
61.685 16.224815
61.690 16.455986
61.695 16.311888
61.700 16.228102
61.705 16.542004
61.710 16.477699
61.715 16.203402
61.720 15.37315
61.725 15.574488
61.730 16.668018
61.735 17.049469
61.740 16.8463
61.745 16.66399
61.750 16.827536
61.755 17.106197
61.760 17.506683
61.765 16.859938
61.770 16.969749
61.775 17.226976
61.780 17.603411
61.785 17.091934
61.790 17.447546
61.795 17.185547
61.800 17.272432
61.805 17.567453
61.810 18.333334
61.815 19.005234
61.820 18.815918
61.825 18.278481
61.830 18.249748
61.835 18.176455
61.840 17.883091
61.845 16.982161
61.850 16.738386
61.855 17.549988
61.860 18.035673
61.865 17.883484
61.870 17.730242
61.875 17.664745
61.880 17.40752
61.885 16.964718
61.890 16.335329
61.895 15.722867
61.900 15.775393
61.905 15.914433
61.910 15.987113
61.915 16.078955
61.920 16.118532
61.925 16.372637
61.930 16.526613
61.935 16.144682
61.940 16.254276
61.945 16.136862
61.950 15.954441
61.955 15.883514
61.960 15.400543
61.965 15.170747
61.970 15.883181
61.975 15.89866
61.980 15.652966
61.985 15.64162
61.990 15.600283
61.995 15.953851
62.000 16.776945
62.005 16.608921
62.010 16.266283
62.015 16.256762
62.020 16.55508
62.025 16.598896
62.030 16.685978
62.035 16.962313
62.040 17.211424
62.045 17.534966
62.050 17.993376
62.055 18.028353
62.060 18.394588
62.065 18.258121
62.070 17.305492
62.075 16.676315
62.080 16.644831
62.085 16.867188
62.090 16.812811
62.095 16.452646
62.100 15.978312
62.105 15.780488
62.110 16.352278
62.115 16.562216
62.120 16.103577
62.125 15.774728
62.130 15.924846
62.135 16.468161
62.140 16.71258
62.145 16.642399
62.150 17.085503
62.155 17.918699
62.160 18.119585
62.165 18.300426
62.170 18.925219
62.175 19.283724
62.180 19.481148
62.185 18.73987
62.190 18.575554
62.195 18.777697
62.200 18.706682
62.205 17.973452
62.210 17.115591
62.215 16.477911
62.220 16.524668
62.225 16.303284
62.230 16.410732
62.235 16.094656
62.240 15.793054
62.245 16.042532
62.250 16.232443
62.255 15.780557
62.260 15.428085
62.265 15.299906
62.270 15.325251
62.275 15.648605
62.280 15.293601
62.285 15.384339
62.290 15.560373
62.295 15.217134
62.300 15.297771
62.305 15.283347
62.310 15.279984
62.315 15.823442
62.320 15.94383
62.325 16.254917
62.330 17.000162
62.335 16.949358
62.340 16.570261
62.345 15.856427
62.350 15.000646
62.355 14.228698
62.360 14.494858
62.365 15.149214
62.370 15.167376
62.375 16.152046
62.380 16.974308
62.385 17.546616
62.390 17.870596
62.395 17.510569
62.400 17.198448
62.405 17.172707
62.410 17.104757
62.415 17.446102
62.420 17.393862
62.425 17.469275
62.430 17.066647
62.435 16.881653
62.440 17.043692
62.445 16.759398
62.450 16.283739
62.455 16.285408
62.460 16.100924
62.465 16.459995
62.470 16.170376
62.475 15.705181
62.480 15.853336
62.485 16.081982
62.490 15.891008
62.495 15.782512
62.500 15.733055
62.505 16.284843
62.510 16.935148
62.515 17.338669
62.520 17.105503
62.525 17.393406
62.530 17.274006
62.535 16.443064
62.540 15.607797
62.545 15.21645
62.550 14.55575
62.555 14.659975
62.560 14.586124
62.565 14.705824
62.570 15.313295
62.575 15.672851
62.580 15.69407
62.585 15.762014
62.590 15.549068
62.595 15.640762
62.600 16.055668
62.605 16.126171
62.610 16.27557
62.615 16.47592
62.620 16.72127
62.625 17.261002
62.630 17.137562
62.635 17.064034
62.640 16.715698
62.645 16.117199
62.650 15.851378
62.655 15.388531
62.660 15.380811
62.665 15.562386
62.670 16.135288
62.675 16.868952
62.680 17.377172
62.685 17.159813
62.690 18.04534
62.695 17.985332
62.700 17.558941
62.705 16.643383
62.710 16.465183
62.715 16.776373
62.720 16.930325
62.725 16.445381
62.730 16.529123
62.735 16.609312
62.740 16.64068
62.745 16.325918
62.750 15.932202
62.755 16.724989
62.760 17.228666
62.765 16.801254
62.770 16.65266
62.775 17.041729
62.780 16.799744
62.785 16.31517
62.790 15.680949
62.795 15.990971
62.800 16.983032
62.805 17.626196
62.810 17.480328
62.815 17.097517
62.820 17.789995
62.825 17.704899
62.830 17.996349
62.835 17.859678
62.840 17.923563
62.845 17.984774
62.850 18.442797
62.855 18.2027
62.860 18.378815
62.865 17.568001
62.870 17.102476
62.875 16.295105
62.880 16.135996
62.885 16.174767
62.890 15.921923
62.895 15.707715
62.900 15.033178
62.905 14.946289
62.910 15.073545
62.915 15.351377
62.920 15.30419
62.925 15.316829
62.930 15.213233
62.935 15.788905
62.940 16.075243
62.945 16.963549
62.950 17.154171
62.955 18.134125
62.960 18.298256
62.965 18.139307
62.970 18.109184
62.975 17.696896
62.980 17.946028
62.985 17.828753
62.990 17.601994
62.995 17.668016
63.000 17.863276
63.005 18.343336
63.010 18.491489
63.015 17.544352
63.020 17.0826
63.025 16.519489
63.030 16.008558
63.035 16.047045
63.040 15.236691
63.045 15.770948
63.050 16.165001
63.055 16.122135
63.060 15.77511
63.065 16.222406
63.070 16.090155
63.075 16.179062
63.080 15.484332
63.085 15.239353
63.090 15.171889
63.095 15.309601
63.100 15.010317
63.105 15.364864
63.110 15.720034
63.115 16.318657
63.120 16.177408
63.125 16.52231
63.130 16.908085
63.135 17.158438
63.140 16.730927
63.145 16.363493
63.150 15.947063
63.155 16.078749
63.160 16.500088
63.165 16.540827
63.170 16.676689
63.175 17.114031
63.180 17.909389
63.185 17.705009
63.190 17.750774
63.195 16.799597
63.200 16.530167
63.205 16.376665
63.210 16.583664
63.215 16.310663
63.220 16.704224
63.225 16.8235
63.230 17.450781
63.235 17.500561
63.240 17.328081
63.245 16.985027
63.250 17.110031
63.255 17.679171
63.260 18.361893
63.265 18.323887
63.270 18.489651
63.275 18.783743
63.280 18.981668
63.285 18.457022
63.290 17.703096
63.295 17.063873
63.300 17.348072
63.305 17.509459
63.310 17.849224
63.315 17.802094
63.320 17.608604
63.325 17.323738
63.330 17.588236
63.335 16.946241
63.340 16.566498
63.345 15.691065
63.350 15.773431
63.355 16.298199
63.360 17.063648
63.365 17.303949
63.370 17.858568
63.375 18.406292
63.380 19.066681
63.385 19.288889
63.390 19.171404
63.395 19.04837
63.400 18.417845
63.405 18.39118
63.410 18.134367
63.415 17.746071
63.420 17.152588
63.425 17.511038
63.430 17.620739
63.435 18.384287
63.440 19.146162
63.445 18.971996
63.450 19.382353
63.455 20.25049
63.460 19.836546
63.465 19.607927
63.470 19.450043
63.475 18.894007
63.480 19.450676
63.485 18.836599
63.490 17.341301
63.495 17.003584
63.500 16.666256
63.505 16.18133
63.510 16.041323
63.515 15.622354
63.520 16.074095
63.525 17.084618
63.530 17.087982
63.535 17.146021
63.540 17.306305
63.545 16.617273
63.550 16.378448
63.555 16.451719
63.560 16.580425
63.565 16.93675
63.570 16.656614
63.575 15.94586
63.580 16.198725
63.585 16.560011
63.590 16.728819
63.595 17.197069
63.600 17.302752
63.605 17.59244
63.610 17.76585
63.615 17.70727
63.620 18.07633
63.625 18.219868
63.630 17.683096
63.635 17.466625
63.640 17.308172
63.645 17.857191
63.650 18.460392
63.655 17.957018
63.660 17.669153
63.665 17.874748
63.670 17.892273
63.675 18.054615
63.680 18.144514
63.685 17.701862
63.690 17.402136
63.695 17.0385
63.700 16.265318
63.705 16.138302
63.710 15.902945
63.715 15.683042
63.720 16.443239
63.725 16.57543
63.730 16.561052
63.735 17.231646
63.740 16.628601
63.745 16.397266
63.750 16.237127
63.755 15.806617
63.760 15.889186
63.765 16.04355
63.770 15.820807
63.775 16.147701
63.780 16.393461
63.785 16.562313
63.790 16.533522
63.795 16.782009
63.800 16.542128
63.805 16.606506
63.810 16.866442
63.815 16.997585
63.820 16.944639
63.825 16.815931
63.830 16.866388
63.835 16.711599
63.840 16.868727
63.845 16.905621
63.850 16.631159
63.855 16.479916
63.860 16.866781
63.865 17.341246
63.870 17.336372
63.875 16.833733
63.880 16.642944
63.885 16.685318
63.890 16.941761
63.895 16.802265
63.900 16.337299
63.905 16.488956
63.910 16.295496
63.915 16.959436
63.920 17.017475
63.925 17.28636
63.930 17.627663
63.935 17.768175
63.940 18.22147
63.945 18.831034
63.950 18.344622
63.955 18.440786
63.960 18.144508
63.965 17.554056
63.970 17.223219
63.975 16.537527
63.980 16.54491
63.985 17.225164
63.990 17.148067
63.995 17.453758
64.000 17.884245
64.005 18.847424
64.010 19.766638
64.015 20.02376
64.020 19.323832
64.025 19.159735
64.030 18.805117
64.035 18.245033
64.040 17.734119
64.045 16.924927
64.050 16.476574
64.055 16.47275
64.060 16.832342
64.065 17.032333
64.070 17.572771
64.075 17.253698
64.080 17.542488
64.085 18.125757
64.090 18.681793
64.095 18.501785
64.100 18.239265
64.105 18.06185
64.110 18.454416
64.115 18.246988
64.120 17.694122
64.125 17.331228
64.130 17.173485
64.135 17.524288
64.140 17.601484
64.145 17.572697
64.150 17.762007
64.155 18.011993
64.160 18.036676
64.165 17.903973
64.170 17.949257
64.175 18.06662
64.180 17.991642
64.185 17.799908
64.190 17.606745
64.195 17.36722
64.200 17.169849
64.205 17.036945
64.210 17.04948
64.215 17.180174
64.220 17.035938
64.225 17.593988
64.230 18.30806
64.235 18.583654
64.240 18.426762
64.245 18.312038
64.250 18.334351
64.255 18.697226
64.260 18.841558
64.265 18.692854
64.270 18.697643
64.275 18.765921
64.280 18.393709
64.285 18.485365
64.290 18.476419
64.295 17.891672
64.300 17.315451
64.305 16.852907
64.310 16.889767
64.315 17.323057
64.320 17.239044
64.325 16.978556
64.330 16.521635
64.335 16.662727
64.340 16.361574
64.345 16.294308
64.350 16.54505
64.355 16.337133
64.360 16.229214
64.365 16.985859
64.370 17.291925
64.375 18.126448
64.380 18.119566
64.385 18.091991
64.390 18.254656
64.395 18.276659
64.400 18.332119
64.405 18.519953
64.410 18.654673
64.415 18.476391
64.420 18.724396
64.425 18.741728
64.430 18.964186
64.435 19.041212
64.440 18.866623
64.445 18.997213
64.450 19.047123
64.455 19.283487
64.460 19.735216
64.465 19.74721
64.470 19.597713
64.475 19.643871
64.480 19.385042
64.485 19.585985
64.490 19.991161
64.495 20.73287
64.500 20.640516
64.505 20.63954
64.510 21.026739
64.515 21.002584
64.520 21.014965
64.525 19.934191
64.530 18.991926
64.535 18.786917
64.540 18.356943
64.545 18.013033
64.550 18.212345
64.555 18.251419
64.560 18.083803
64.565 18.808474
64.570 19.817669
64.575 20.1535
64.580 20.004257
64.585 19.877995
64.590 19.658262
64.595 19.968384
64.600 19.618938
64.605 19.272799
64.610 19.469475
64.615 19.866615
64.620 19.836758
64.625 19.778185
64.630 19.630741
64.635 19.180359
64.640 18.49394
64.645 18.380716
64.650 18.254133
64.655 17.440855
64.660 16.939005
64.665 16.96517
64.670 16.988195
64.675 17.662241
64.680 17.504751
64.685 16.804991
64.690 17.238754
64.695 18.154675
64.700 17.851784
64.705 17.70295
64.710 17.849546
64.715 17.847908
64.720 18.40098
64.725 18.15451
64.730 17.358974
64.735 17.348606
64.740 17.582052
64.745 17.228468
64.750 17.012541
64.755 17.011114
64.760 17.558744
64.765 18.082794
64.770 18.640591
64.775 19.004669
64.780 18.943127
64.785 19.513021
64.790 20.15914
64.795 20.464195
64.800 20.805828
64.805 20.446505
64.810 20.215492
64.815 20.557865
64.820 20.548466
64.825 20.052139
64.830 19.639626
64.835 19.547058
64.840 20.108641
64.845 20.201849
64.850 20.509388
64.855 20.283836
64.860 20.418999
64.865 19.786657
64.870 19.293396
64.875 18.996275
64.880 19.111578
64.885 18.910576
64.890 18.76152
64.895 18.740274
64.900 19.712814
64.905 19.818069
64.910 19.696583
64.915 20.078293
64.920 20.163774
64.925 20.531164
64.930 20.082102
64.935 19.519159
64.940 19.559406
64.945 19.56842
64.950 19.355331
64.955 19.251841
64.960 19.13644
64.965 19.739769
64.970 19.741707
64.975 19.796055
64.980 20.245989
64.985 20.050762
64.990 20.327101
64.995 20.019857
65.000 20.130163
65.005 20.360077
65.010 20.74766
65.015 20.54619
65.020 21.613962
65.025 21.65295
65.030 21.622982
65.035 21.634455
65.040 21.893026
65.045 21.698645
65.050 21.230103
65.055 20.1744
65.060 20.198967
65.065 20.467598
65.070 20.921513
65.075 20.898012
65.080 20.777536
65.085 21.356112
65.090 21.509907
65.095 21.944952
65.100 21.965626
65.105 22.204014
65.110 22.370878
65.115 22.546049
65.120 22.811161
65.125 22.400328
65.130 21.725933
65.135 21.531727
65.140 20.844679
65.145 20.645912
65.150 20.437801
65.155 20.445017
65.160 20.698591
65.165 21.197216
65.170 21.642466
65.175 21.952051
65.180 22.095854
65.185 22.165783
65.190 21.551947
65.195 21.284573
65.200 20.800194
65.205 20.799398
65.210 20.919647
65.215 21.083817
65.220 21.209665
65.225 22.195156
65.230 23.677744
65.235 24.328215
65.240 24.458565
65.245 24.641109
65.250 24.882887
65.255 24.957129
65.260 24.452627
65.265 23.688042
65.270 23.162073
65.275 22.738588
65.280 22.804832
65.285 22.630592
65.290 22.459476
65.295 22.573893
65.300 22.582722
65.305 23.141279
65.310 23.179367
65.315 22.8797
65.320 23.196905
65.325 23.453615
65.330 23.329786
65.335 23.290792
65.340 22.938923
65.345 23.262321
65.350 23.476395
65.355 22.995472
65.360 22.113052
65.365 21.831533
65.370 22.034081
65.375 22.091337
65.380 22.387642
65.385 22.712381
65.390 23.564192
65.395 24.466085
65.400 25.071083
65.405 24.80368
65.410 24.792854
65.415 24.970587
65.420 24.642431
65.425 24.973898
65.430 25.822401
65.435 25.953163
65.440 26.413332
65.445 25.798777
65.450 25.263107
65.455 24.993324
65.460 24.840143
65.465 24.529953
65.470 24.445259
65.475 24.293236
65.480 24.585789
65.485 24.664217
65.490 25.330704
65.495 25.29768
65.500 25.1434
65.505 25.250751
65.510 26.332314
65.515 26.952822
65.520 27.157513
65.525 27.411057
65.530 26.859529
65.535 27.33573
65.540 27.878557
65.545 27.941202
65.550 27.772072
65.555 27.764515
65.560 27.502008
65.565 27.735947
65.570 27.086456
65.575 26.813974
65.580 26.545961
65.585 26.739176
65.590 26.531664
65.595 27.099855
65.600 27.335352
65.605 27.754517
65.610 27.40819
65.615 28.112459
65.620 28.775667
65.625 28.937696
65.630 28.874903
65.635 29.250765
65.640 29.763304
65.645 30.239775
65.650 29.837332
65.655 29.772516
65.660 30.153822
65.665 30.770796
65.670 30.928774
65.675 30.848366
65.680 31.690598
65.685 31.551598
65.690 31.825836
65.695 32.013268
65.700 31.69047
65.705 32.106117
65.710 32.74078
65.715 32.71587
65.720 33.177509
65.725 33.561302
65.730 33.633259
65.735 33.908894
65.740 33.827702
65.745 33.881039
65.750 34.291161
65.755 34.525749
65.760 34.06641
65.765 33.831802
65.770 33.434372
65.775 32.771561
65.780 31.888113
65.785 31.87966
65.790 32.101479
65.795 32.979748
65.800 33.774544
65.805 34.514996
65.810 35.838417
65.815 36.204342
65.820 36.354362
65.825 37.091156
65.830 36.698513
65.835 35.315529
65.840 34.817707
65.845 34.182686
65.850 34.15984
65.855 34.242249
65.860 34.487564
65.865 35.128956
65.870 35.644508
65.875 35.996586
65.880 36.75095
65.885 36.945843
65.890 36.818417
65.895 35.855389
65.900 35.781654
65.905 35.583809
65.910 35.162865
65.915 35.311741
65.920 35.725521
65.925 35.927544
65.930 35.996197
65.935 36.58979
65.940 37.078552
65.945 37.66964
65.950 36.890697
65.955 36.881519
65.960 37.312176
65.965 37.220631
65.970 37.481129
65.975 37.723007
65.980 37.352985
65.985 37.670139
65.990 37.408428
65.995 36.470448
66.000 37.000099
66.005 36.336994
66.010 36.310497
66.015 35.421673
66.020 35.21484
66.025 35.708981
66.030 36.6521
66.035 35.940536
66.040 35.515915
66.045 35.20303
66.050 35.309795
66.055 34.626091
66.060 34.041759
66.065 33.961784
66.070 34.374165
66.075 34.386681
66.080 35.195484
66.085 36.079948
66.090 36.221214
66.095 36.829521
66.100 37.621315
66.105 38.150383
66.110 38.417011
66.115 37.811188
66.120 37.528934
66.125 36.882519
66.130 35.461021
66.135 33.778709
66.140 32.665203
66.145 32.643478
66.150 32.393654
66.155 32.456669
66.160 33.64407
66.165 33.957302
66.170 34.617374
66.175 34.790543
66.180 34.69334
66.185 34.861546
66.190 34.405258
66.195 33.509586
66.200 34.115974
66.205 33.12542
66.210 33.398285
66.215 32.637146
66.220 32.266609
66.225 32.404938
66.230 32.227177
66.235 31.293146
66.240 31.570377
66.245 30.84902
66.250 30.883972
66.255 30.69817
66.260 30.625036
66.265 31.091143
66.270 32.311352
66.275 32.744411
66.280 32.973915
66.285 32.725277
66.290 32.73494
66.295 32.105503
66.300 31.117912
66.305 29.914425
66.310 28.123594
66.315 27.998623
66.320 28.663744
66.325 28.929007
66.330 29.166058
66.335 29.860647
66.340 30.378614
66.345 31.088932
66.350 31.91506
66.355 32.295818
66.360 32.200287
66.365 31.768705
66.370 31.598366
66.375 31.453032
66.380 30.670477
66.385 29.331432
66.390 28.942175
66.395 29.276012
66.400 29.736792
66.405 29.667116
66.410 29.883188
66.415 30.799067
66.420 30.575222
66.425 30.562067
66.430 30.468531
66.435 30.182409
66.440 30.364136
66.445 29.249296
66.450 29.060057
66.455 29.650938
66.460 28.960979
66.465 28.678484
66.470 28.199265
66.475 27.653097
66.480 27.548981
66.485 27.584253
66.490 27.115604
66.495 27.1747
66.500 26.828365
66.505 27.082163
66.510 27.537088
66.515 27.705973
66.520 27.275379
66.525 26.893929
66.530 26.621176
66.535 26.976187
66.540 27.102539
66.545 26.706337
66.550 27.050892
66.555 27.007254
66.560 26.949488
66.565 26.680748
66.570 26.146101
66.575 25.805584
66.580 25.492838
66.585 24.560678
66.590 24.133242
66.595 24.062344
66.600 24.043663
66.605 24.483528
66.610 24.610445
66.615 24.931803
66.620 24.667114
66.625 24.760174
66.630 24.504492
66.635 24.594046
66.640 24.762333
66.645 24.347094
66.650 24.328623
66.655 24.362076
66.660 24.541687
66.665 25.078592
66.670 25.285603
66.675 24.716124
66.680 24.728016
66.685 23.906656
66.690 24.121714
66.695 23.654787
66.700 22.96707
66.705 22.612284
66.710 23.040037
66.715 23.005732
66.720 23.594213
66.725 23.346071
66.730 23.511042
66.735 23.359543
66.740 23.759712
66.745 23.378029
66.750 23.889732
66.755 24.179274
66.760 24.781237
66.765 24.492498
66.770 23.833391
66.775 22.95718
66.780 23.185766
66.785 22.459883
66.790 21.439768
66.795 21.047604
66.800 21.793797
66.805 22.655066
66.810 23.648941
66.815 23.579771
66.820 23.619013
66.825 24.29138
66.830 24.063065
66.835 23.941942
66.840 24.70673
66.845 24.12306
66.850 24.006128
66.855 23.995689
66.860 23.710566
66.865 23.602501
66.870 23.209324
66.875 22.970211
66.880 23.149822
66.885 23.115471
66.890 23.465469
66.895 23.740019
66.900 24.265778
66.905 24.56422
66.910 23.910639
66.915 23.925856
66.920 23.692307
66.925 23.132639
66.930 22.498379
66.935 22.149946
66.940 22.014027
66.945 21.486816
66.950 20.546152
66.955 19.879292
66.960 19.868349
66.965 20.075375
66.970 19.899637
66.975 20.211012
66.980 21.033245
66.985 21.698338
66.990 22.663651
66.995 22.216835
67.000 21.987978
67.005 21.59514
67.010 21.464024
67.015 21.704824
67.020 21.324594
67.025 21.150806
67.030 22.209373
67.035 22.461723
67.040 22.34391
67.045 22.072729
67.050 21.835911
67.055 22.087711
67.060 22.292383
67.065 21.643206
67.070 21.819042
67.075 21.835102
67.080 21.881432
67.085 21.708784
67.090 22.096149
67.095 21.980085
67.100 21.406307
67.105 21.129419
67.110 21.4135
67.115 21.964571
67.120 22.060772
67.125 21.686636
67.130 22.164354
67.135 22.864494
67.140 23.268164
67.145 23.640528
67.150 23.396362
67.155 23.53215
67.160 23.566925
67.165 23.095993
67.170 23.510344
67.175 23.907362
67.180 23.626465
67.185 23.200546
67.190 23.207582
67.195 23.230022
67.200 23.353268
67.205 23.078529
67.210 22.996351
67.215 22.77141
67.220 22.428902
67.225 21.793934
67.230 21.579254
67.235 21.18166
67.240 21.282135
67.245 21.850239
67.250 22.178295
67.255 22.90452
67.260 22.781853
67.265 22.890287
67.270 23.207764
67.275 22.848225
67.280 21.985533
67.285 21.748905
67.290 21.341148
67.295 21.948231
67.300 22.407782
67.305 22.291359
67.310 22.439281
67.315 22.493504
67.320 22.757008
67.325 23.010176
67.330 22.347054
67.335 21.453541
67.340 21.371141
67.345 21.130342
67.350 20.915245
67.355 20.462149
67.360 20.872736
67.365 21.041912
67.370 21.125544
67.375 21.054169
67.380 20.522196
67.385 20.1759
67.390 19.997154
67.395 19.564476
67.400 19.938486
67.405 20.278769
67.410 20.437351
67.415 20.609461
67.420 21.228144
67.425 21.738344
67.430 21.569553
67.435 21.299044
67.440 20.625072
67.445 20.443325
67.450 20.600206
67.455 20.41161
67.460 20.30109
67.465 20.682953
67.470 21.214466
67.475 21.618542
67.480 21.672668
67.485 21.785269
67.490 22.06106
67.495 21.984087
67.500 21.466885
67.505 21.991796
67.510 22.89613
67.515 22.918661
67.520 22.235041
67.525 21.577173
67.530 22.04092
67.535 22.411068
67.540 21.157257
67.545 20.631432
67.550 21.073311
67.555 21.645086
67.560 21.40192
67.565 20.716831
67.570 20.450552
67.575 20.814585
67.580 20.76914
67.585 20.641041
67.590 21.052916
67.595 21.663393
67.600 22.556955
67.605 22.518873
67.610 21.921804
67.615 21.860107
67.620 21.23637
67.625 21.410166
67.630 21.404308
67.635 20.755922
67.640 20.960218
67.645 21.444143
67.650 21.87944
67.655 21.942545
67.660 21.703653
67.665 21.151276
67.670 21.680544
67.675 21.815338
67.680 22.127069
67.685 21.810625
67.690 22.361073
67.695 22.444998
67.700 22.578707
67.705 22.217443
67.710 22.066877
67.715 22.520498
67.720 22.696077
67.725 22.416027
67.730 22.747433
67.735 23.263824
67.740 23.549679
67.745 23.902374
67.750 23.267868
67.755 22.94746
67.760 22.905434
67.765 22.569645
67.770 22.411772
67.775 21.914169
67.780 20.982195
67.785 20.779413
67.790 20.825283
67.795 20.71677
67.800 20.542149
67.805 20.38781
67.810 20.078888
67.815 19.943575
67.820 19.828104
67.825 19.170877
67.830 19.225538
67.835 18.939756
67.840 18.486847
67.845 18.597229
67.850 19.278185
67.855 19.948545
67.860 20.178675
67.865 20.00733
67.870 20.814627
67.875 20.747252
67.880 21.007833
67.885 20.542248
67.890 20.300161
67.895 20.058262
67.900 20.093456
67.905 19.903112
67.910 20.152365
67.915 20.197906
67.920 20.297771
67.925 19.638931
67.930 20.024393
67.935 19.552927
67.940 19.478067
67.945 20.134794
67.950 20.060749
67.955 20.492477
67.960 20.833124
67.965 20.413803
67.970 20.736187
67.975 20.886969
67.980 20.713566
67.985 20.932758
67.990 20.905945
67.995 21.116549
68.000 21.715384
68.005 21.992878
68.010 21.638784
68.015 21.273876
68.020 21.101091
68.025 20.753641
68.030 20.913082
68.035 20.865381
68.040 20.480843
68.045 20.370932
68.050 20.285219
68.055 20.204956
68.060 20.370253
68.065 20.01185
68.070 20.185106
68.075 19.93462
68.080 19.95499
68.085 20.409288
68.090 20.415098
68.095 19.753719
68.100 20.006054
68.105 20.269356
68.110 21.33153
68.115 21.342644
68.120 20.865986
68.125 21.124386
68.130 21.796619
68.135 21.649996
68.140 21.634508
68.145 21.335888
68.150 21.437143
68.155 22.023247
68.160 22.72613
68.165 22.819162
68.170 23.298635
68.175 22.560997
68.180 22.29722
68.185 22.327902
68.190 21.717157
68.195 21.365284
68.200 21.495466
68.205 21.465414
68.210 21.496426
68.215 21.606543
68.220 21.42387
68.225 21.098112
68.230 20.249453
68.235 20.245615
68.240 20.526661
68.245 21.078407
68.250 21.077494
68.255 21.099783
68.260 21.323765
68.265 21.985804
68.270 21.702789
68.275 20.812803
68.280 20.027018
68.285 19.227793
68.290 18.99716
68.295 19.182085
68.300 18.806616
68.305 19.047068
68.310 19.307703
68.315 19.862417
68.320 20.676451
68.325 21.084322
68.330 21.346952
68.335 21.612375
68.340 21.124651
68.345 21.048756
68.350 20.733305
68.355 20.68412
68.360 20.644814
68.365 20.050415
68.370 19.76215
68.375 20.090595
68.380 20.438848
68.385 21.050358
68.390 21.502846
68.395 21.730759
68.400 21.608374
68.405 21.666525
68.410 21.312965
68.415 21.3167
68.420 21.106627
68.425 21.097614
68.430 20.714869
68.435 20.645164
68.440 20.594576
68.445 20.887417
68.450 21.000681
68.455 20.571836
68.460 20.375109
68.465 20.903971
68.470 21.313744
68.475 20.964184
68.480 20.83864
68.485 20.885925
68.490 21.13862
68.495 21.433311
68.500 21.601603
68.505 21.61067
68.510 21.888958
68.515 21.65889
68.520 21.245298
68.525 20.864759
68.530 20.365499
68.535 20.511686
68.540 20.544483
68.545 20.723087
68.550 20.801502
68.555 20.719555
68.560 21.201019
68.565 21.907928
68.570 21.584099
68.575 21.601509
68.580 22.230604
68.585 22.654783
68.590 22.889938
68.595 21.46883
68.600 21.043203
68.605 22.05138
68.610 22.15309
68.615 21.771839
68.620 21.759186
68.625 22.388796
68.630 23.315334
68.635 23.102476
68.640 22.370861
68.645 21.969404
68.650 22.258207
68.655 21.701612
68.660 21.131435
68.665 20.997734
68.670 21.277449
68.675 20.769884
68.680 20.314945
68.685 19.98267
68.690 20.766396
68.695 21.13065
68.700 21.317472
68.705 21.000378
68.710 21.371416
68.715 21.170876
68.720 20.631006
68.725 20.524027
68.730 20.9223
68.735 20.669044
68.740 20.530598
68.745 21.253363
68.750 21.728783
68.755 21.500721
68.760 21.184664
68.765 21.022167
68.770 21.279751
68.775 20.726322
68.780 20.079712
68.785 20.500343
68.790 20.901062
68.795 20.897654
68.800 20.057478
68.805 20.043888
68.810 20.509714
68.815 20.638517
68.820 20.70085
68.825 20.543581
68.830 19.946472
68.835 20.9118
68.840 20.950142
68.845 21.195585
68.850 21.526506
68.855 22.63022
68.860 23.225283
68.865 23.56633
68.870 23.42547
68.875 23.405897
68.880 23.731689
68.885 22.950222
68.890 22.03054
68.895 21.828428
68.900 22.031282
68.905 21.811499
68.910 22.045521
68.915 22.022741
68.920 22.122583
68.925 22.530243
68.930 22.380541
68.935 22.363506
68.940 23.146465
68.945 23.318253
68.950 23.675056
68.955 23.867861
68.960 24.169693
68.965 24.93292
68.970 24.645466
68.975 24.318312
68.980 23.995832
68.985 23.873373
68.990 23.858515
68.995 23.354021
69.000 23.000145
69.005 23.156057
69.010 22.978086
69.015 22.900749
69.020 22.503292
69.025 22.212994
69.030 22.453638
69.035 23.113918
69.040 23.297394
69.045 23.513027
69.050 24.087164
69.055 24.802666
69.060 25.179371
69.065 25.139391
69.070 24.983898
69.075 24.891302
69.080 25.158537
69.085 24.96542
69.090 24.746855
69.095 24.783033
69.100 24.387875
69.105 24.682093
69.110 24.774874
69.115 24.786499
69.120 24.829439
69.125 24.721323
69.130 24.747869
69.135 24.917149
69.140 25.403105
69.145 25.492107
69.150 25.237759
69.155 24.996767
69.160 25.382212
69.165 25.599745
69.170 25.102009
69.175 23.910021
69.180 24.104523
69.185 23.904524
69.190 24.294683
69.195 23.80827
69.200 23.713326
69.205 23.977346
69.210 24.043327
69.215 24.339298
69.220 25.177216
69.225 25.325932
69.230 25.263792
69.235 25.218189
69.240 25.522505
69.245 25.75839
69.250 25.433651
69.255 25.215744
69.260 25.09046
69.265 25.344105
69.270 25.857777
69.275 25.6614
69.280 26.227644
69.285 26.773479
69.290 26.681393
69.295 26.400999
69.300 26.503748
69.305 26.755615
69.310 27.144373
69.315 27.008427
69.320 25.989086
69.325 26.027748
69.330 25.672432
69.335 25.73279
69.340 25.798317
69.345 25.493044
69.350 25.159046
69.355 26.433107
69.360 26.966316
69.365 27.513123
69.370 26.942339
69.375 26.522964
69.380 27.217287
69.385 27.269209
69.390 27.132746
69.395 27.350382
69.400 27.604635
69.405 27.56579
69.410 27.338194
69.415 26.978231
69.420 27.199862
69.425 26.904148
69.430 26.629868
69.435 27.458799
69.440 28.325451
69.445 28.730841
69.450 28.958981
69.455 29.369287
69.460 29.228363
69.465 29.012613
69.470 27.66946
69.475 27.536421
69.480 27.869778
69.485 27.858467
69.490 27.978085
69.495 28.339743
69.500 27.991858
69.505 28.3804
69.510 28.354282
69.515 27.379507
69.520 27.073292
69.525 26.590187
69.530 26.789078
69.535 26.905195
69.540 26.427538
69.545 26.970139
69.550 27.926617
69.555 27.918949
69.560 27.03639
69.565 26.807917
69.570 27.305807
69.575 27.565105
69.580 26.89502
69.585 26.455318
69.590 26.620266
69.595 27.287672
69.600 27.913431
69.605 27.075588
69.610 27.293495
69.615 27.640577
69.620 27.293633
69.625 27.348152
69.630 26.866835
69.635 26.541412
69.640 27.278049
69.645 27.439228
69.650 27.198626
69.655 26.961599
69.660 26.921597
69.665 26.811121
69.670 26.221365
69.675 25.944172
69.680 25.787083
69.685 25.725693
69.690 25.960564
69.695 26.850283
69.700 27.293682
69.705 27.207178
69.710 26.573713
69.715 26.388035
69.720 26.554182
69.725 26.770559
69.730 26.37878
69.735 26.473425
69.740 26.682178
69.745 27.0846
69.750 26.89624
69.755 26.540503
69.760 26.137976
69.765 25.603287
69.770 25.149178
69.775 25.002214
69.780 25.088711
69.785 24.979097
69.790 24.682608
69.795 24.092609
69.800 23.900627
69.805 23.887066
69.810 23.847414
69.815 23.699957
69.820 24.11845
69.825 24.291578
69.830 24.661945
69.835 24.855495
69.840 24.548223
69.845 24.648727
69.850 24.489754
69.855 24.444603
69.860 24.120388
69.865 23.861633
69.870 23.527031
69.875 24.424622
69.880 24.435526
69.885 24.229731
69.890 23.233559
69.895 23.529287
69.900 23.393921
69.905 23.247807
69.910 22.609161
69.915 21.94977
69.920 21.807837
69.925 23.044889
69.930 22.28528
69.935 22.458174
69.940 22.319313
69.945 22.488049
69.950 23.14082
69.955 23.542847
69.960 22.961855
69.965 23.117498
69.970 22.616537
69.975 22.573793
69.980 22.437956
69.985 22.107943
69.990 22.342674
69.995 22.678848
70.000 22.69837
70.005 22.684551
70.010 22.171806
70.015 21.70665
70.020 21.518892
70.025 21.460585
70.030 21.787163
70.035 21.981497
70.040 22.089863
70.045 21.864077
70.050 21.983961
70.055 21.139074
70.060 20.317421
70.065 19.982746
70.070 20.940088
70.075 20.910057
70.080 20.995079
70.085 21.133558
70.090 21.648893
70.095 21.887461
70.100 21.803141
70.105 20.626484
70.110 20.637096
70.115 20.566881
70.120 20.306372
70.125 19.845081
70.130 20.02412
70.135 19.61948
70.140 19.861872
70.145 20.472355
70.150 20.783106
70.155 20.976795
70.160 20.879902
70.165 20.687038
70.170 20.846952
70.175 20.223837
70.180 19.893082
70.185 19.349649
70.190 19.577127
70.195 19.338629
70.200 19.138308
70.205 18.457861
70.210 19.109653
70.215 19.123455
70.220 19.766031
70.225 20.300808
70.230 20.558115
70.235 20.419304
70.240 20.73304
70.245 20.331907
70.250 20.279503
70.255 19.530403
70.260 18.618597
70.265 18.423527
70.270 19.081951
70.275 18.954342
70.280 18.391798
70.285 17.758892
70.290 17.335165
70.295 17.593721
70.300 17.93095
70.305 17.846432
70.310 18.355946
70.315 18.702204
70.320 19.290897
70.325 19.479477
70.330 19.617887
70.335 19.763552
70.340 19.476561
70.345 19.1416
70.350 20.076416
70.355 19.96562
70.360 20.319138
70.365 20.223494
70.370 20.309906
70.375 20.696724
70.380 21.077028
70.385 20.462383
70.390 20.747753
70.395 20.713213
70.400 20.549181
70.405 20.193762
70.410 19.765745
70.415 19.168274
70.420 19.249868
70.425 18.966454
70.430 18.48683
70.435 18.564617
70.440 19.190786
70.445 19.551512
70.450 19.475925
70.455 19.568399
70.460 19.917233
70.465 20.366098
70.470 20.25185
70.475 19.410189
70.480 19.120869
70.485 18.991758
70.490 18.668219
70.495 18.444105
70.500 18.78303
70.505 18.821966
70.510 19.245083
70.515 19.913918
70.520 20.242428
70.525 20.30686
70.530 20.499645
70.535 20.296724
70.540 20.582865
70.545 20.64855
70.550 19.518476
70.555 19.547703
70.560 20.042908
70.565 19.881035
70.570 19.653591
70.575 18.851208
70.580 18.714725
70.585 19.739023
70.590 19.483418
70.595 19.15053
70.600 19.299267
70.605 19.409872
70.610 19.568327
70.615 20.225353
70.620 20.38035
70.625 20.757109
70.630 20.261362
70.635 19.925949
70.640 20.149427
70.645 19.897913
70.650 18.966967
70.655 18.182848
70.660 17.388147
70.665 17.35535
70.670 17.175133
70.675 16.86721
70.680 16.849426
70.685 17.843193
70.690 18.78672
70.695 19.484531
70.700 19.604816
70.705 19.792639
70.710 20.068869
70.715 20.384714
70.720 19.937679
70.725 19.12566
70.730 19.927092
70.735 20.816177
70.740 20.736025
70.745 20.305826
70.750 20.151176
70.755 20.027939
70.760 20.383617
70.765 20.220558
70.770 20.133488
70.775 21.107071
70.780 21.186966
70.785 20.588219
70.790 20.198997
70.795 19.390347
70.800 18.55575
70.805 17.60634
70.810 16.797298
70.815 16.926584
70.820 17.644871
70.825 18.519688
70.830 18.13929
70.835 18.212917
70.840 18.469091
70.845 18.703911
70.850 18.674973
70.855 18.001953
70.860 17.517311
70.865 17.834921
70.870 17.58
70.875 17.942619
70.880 17.775593
70.885 18.378891
70.890 18.894228
70.895 18.762478
70.900 18.610662
70.905 18.860868
70.910 18.056398
70.915 17.700813
70.920 16.909983
70.925 16.997301
70.930 17.607409
70.935 17.88228
70.940 17.938822
70.945 18.099367
70.950 18.533854
70.955 18.877539
70.960 18.571701
70.965 18.542562
70.970 18.669504
70.975 18.515686
70.980 18.536095
70.985 18.375481
70.990 18.430645
70.995 18.467793
71.000 17.700327
71.005 17.461548
71.010 17.86459
71.015 17.941668
71.020 18.186298
71.025 18.185131
71.030 18.830439
71.035 19.559435
71.040 19.679367
71.045 19.510384
71.050 19.430529
71.055 19.640165
71.060 20.054718
71.065 19.397369
71.070 18.840464
71.075 18.918957
71.080 18.77878
71.085 18.756439
71.090 18.277147
71.095 17.618151
71.100 17.757286
71.105 17.835039
71.110 17.806133
71.115 17.653486
71.120 17.883816
71.125 17.990601
71.130 18.513926
71.135 18.372936
71.140 18.490515
71.145 18.250751
71.150 18.155365
71.155 18.240688
71.160 18.314322
71.165 18.24708
71.170 18.9739
71.175 18.718512
71.180 19.023548
71.185 19.569572
71.190 19.265398
71.195 19.200096
71.200 18.941013
71.205 18.867445
71.210 19.602203
71.215 19.300055
71.220 19.015841
71.225 18.366396
71.230 18.455162
71.235 18.401602
71.240 17.976452
71.245 17.376003
71.250 17.29966
71.255 17.330608
71.260 17.535131
71.265 17.820545
71.270 17.861847
71.275 17.826611
71.280 18.470869
71.285 18.390568
71.290 18.424286
71.295 17.839451
71.300 17.319803
71.305 17.795593
71.310 18.602592
71.315 18.309187
71.320 18.21229
71.325 18.55695
71.330 19.354313
71.335 19.657866
71.340 19.092405
71.345 18.952251
71.350 19.341496
71.355 19.120811
71.360 18.876059
71.365 18.984369
71.370 18.917717
71.375 18.701607
71.380 18.327225
71.385 18.676342
71.390 18.840485
71.395 18.248363
71.400 17.80673
71.405 17.867714
71.410 17.950474
71.415 17.483297
71.420 16.614256
71.425 16.911543
71.430 16.883064
71.435 16.424162
71.440 16.070787
71.445 16.669546
71.450 17.493938
71.455 18.014202
71.460 18.313828
71.465 19.077297
71.470 19.852242
71.475 20.337006
71.480 20.355978
71.485 20.003798
71.490 19.806858
71.495 20.430235
71.500 20.307604
71.505 19.967653
71.510 18.992123
71.515 18.949135
71.520 19.308039
71.525 19.365341
71.530 19.022488
71.535 18.65391
71.540 18.736464
71.545 19.031233
71.550 18.748482
71.555 18.655954
71.560 18.32316
71.565 18.336088
71.570 18.654728
71.575 18.580305
71.580 18.319197
71.585 17.988012
71.590 18.128019
71.595 18.722197
71.600 18.431757
71.605 18.774759
71.610 19.30298
71.615 19.869549
71.620 20.190262
71.625 19.472975
71.630 19.372793
71.635 19.867208
71.640 19.858707
71.645 19.91585
71.650 20.027187
71.655 19.371315
71.660 19.148579
71.665 19.019516
71.670 17.896376
71.675 17.963968
71.680 17.335104
71.685 17.316362
71.690 17.992077
71.695 18.156183
71.700 18.160879
71.705 18.577627
71.710 17.994127
71.715 18.407869
71.720 18.39933
71.725 18.335732
71.730 18.397028
71.735 18.825148
71.740 18.556866
71.745 18.714806
71.750 18.022821
71.755 17.726288
71.760 17.379805
71.765 17.306005
71.770 16.812727
71.775 16.981405
71.780 17.161674
71.785 17.118813
71.790 17.18734
71.795 17.112505
71.800 17.208372
71.805 17.496958
71.810 17.408703
71.815 17.248236
71.820 18.258356
71.825 18.906151
71.830 18.82765
71.835 18.22459
71.840 18.149727
71.845 18.061729
71.850 18.083702
71.855 17.55999
71.860 17.110321
71.865 17.359999
71.870 17.982883
71.875 18.484184
71.880 17.738121
71.885 17.720364
71.890 17.673376
71.895 17.671415
71.900 17.761015
71.905 17.588041
71.910 18.185453
71.915 19.427423
71.920 19.029953
71.925 19.579378
71.930 20.386873
71.935 20.529327
71.940 20.19256
71.945 19.035688
71.950 18.880507
71.955 19.00395
71.960 18.446686
71.965 17.971222
71.970 18.083076
71.975 17.812471
71.980 18.393064
71.985 18.726458
71.990 18.431616
71.995 18.327677
72.000 17.801231
72.005 18.051586
72.010 18.662483
72.015 18.667936
72.020 18.790861
72.025 19.043686
72.030 19.255348
72.035 19.57003
72.040 19.169994
72.045 19.046917
72.050 18.790693
72.055 18.164017
72.060 18.254545
72.065 18.062546
72.070 18.27763
72.075 18.288366
72.080 18.218058
72.085 18.598925
72.090 18.590879
72.095 18.383001
72.100 18.701603
72.105 18.728905
72.110 18.611908
72.115 18.270802
72.120 18.662535
72.125 18.801172
72.130 19.648905
72.135 19.94228
72.140 19.80381
72.145 20.036741
72.150 19.989178
72.155 20.201881
72.160 20.126888
72.165 19.3703
72.170 18.827393
72.175 19.261038
72.180 19.418606
72.185 18.812494
72.190 17.875486
72.195 17.919994
72.200 18.129122
72.205 18.260471
72.210 17.915272
72.215 17.999283
72.220 18.194624
72.225 18.009476
72.230 17.363949
72.235 17.38217
72.240 17.326242
72.245 17.451044
72.250 16.858551
72.255 17.015862
72.260 17.15139
72.265 17.231054
72.270 17.112823
72.275 16.76404
72.280 16.557175
72.285 16.72311
72.290 16.999744
72.295 17.561264
72.300 17.647654
72.305 17.84976
72.310 18.219721
72.315 18.741505
72.320 19.140856
72.325 19.501209
72.330 19.403198
72.335 19.145447
72.340 18.609531
72.345 18.370975
72.350 18.351538
72.355 18.111235
72.360 17.416193
72.365 17.309259
72.370 17.404303
72.375 17.593096
72.380 17.993837
72.385 17.371239
72.390 17.569088
72.395 18.18475
72.400 17.881706
72.405 17.757471
72.410 17.566891
72.415 17.588579
72.420 17.795477
72.425 16.9506
72.430 16.744789
72.435 16.856159
72.440 16.866549
72.445 17.043621
72.450 16.624578
72.455 16.649918
72.460 16.813055
72.465 16.889503
72.470 17.585226
72.475 17.391422
72.480 17.316153
72.485 17.375912
72.490 17.879843
72.495 18.285595
72.500 18.734034
72.505 18.657673
72.510 18.950859
72.515 19.247232
72.520 19.193218
72.525 19.702049
72.530 19.50569
72.535 19.256565
72.540 19.087204
72.545 19.142685
72.550 19.067419
72.555 18.915306
72.560 18.425175
72.565 17.820711
72.570 17.930067
72.575 18.058548
72.580 18.099302
72.585 17.81975
72.590 17.53858
72.595 16.95293
72.600 16.800396
72.605 16.616726
72.610 16.675316
72.615 16.162107
72.620 16.568422
72.625 17.021341
72.630 17.195745
72.635 17.431261
72.640 17.131855
72.645 16.837255
72.650 16.864647
72.655 16.817923
72.660 17.163275
72.665 17.735649
72.670 17.833887
72.675 18.100826
72.680 18.563641
72.685 18.734121
72.690 18.485418
72.695 18.511427
72.700 18.171286
72.705 17.8402
72.710 17.966146
72.715 17.815184
72.720 17.915064
72.725 17.582048
72.730 17.595163
72.735 17.792574
72.740 17.820604
72.745 17.424829
72.750 17.240646
72.755 16.879147
72.760 15.848601
72.765 15.582032
72.770 15.620204
72.775 15.885924
72.780 15.716983
72.785 15.210067
72.790 15.57236
72.795 15.989119
72.800 15.649669
72.805 15.487515
72.810 15.88329
72.815 16.166636
72.820 16.572758
72.825 17.227068
72.830 17.368523
72.835 18.058275
72.840 18.35215
72.845 18.248472
72.850 18.544773
72.855 17.948116
72.860 17.394974
72.865 17.382448
72.870 16.772055
72.875 16.051548
72.880 15.928242
72.885 15.608718
72.890 15.921414
72.895 15.712804
72.900 15.801784
72.905 16.301424
72.910 16.446182
72.915 16.282312
72.920 16.514704
72.925 16.545156
72.930 16.683699
72.935 16.53581
72.940 16.84667
72.945 17.153812
72.950 16.98035
72.955 16.782719
72.960 16.947676
72.965 16.792269
72.970 16.878885
72.975 16.69939
72.980 17.187685
72.985 17.578102
72.990 17.919268
72.995 18.11845
73.000 18.371027
