!@!!GADDS PLOTSO FILE: Chi integration type
!@!!Title/SampleName: map-d8
!@!!Comment: ?
!@!!User: Bruker Instrument Administrator
!@!!Site: University of Illinois Chicago
!@!!Frame: map-d8_01_000.gfrm
!@!!Wavelengths    1.54184   1.54056   1.54439
!@!!Frame angles: 2Theta: 63.000 Omega: 50.000 Phi: 0.000 Chi: 90.000
!@!!Integration range: 2Theta: 53.000 to 73.000  Gamma: -105.000 to -75.000
!@!!Integration method: bin normalized
!@!N
!@!SS
!@!M
!@!L 0.0 0.0 0.0 0.0
!@!XDegrees
!@!YCounts
53.000 9.138781
53.005 8.662924
53.010 8.774461
53.015 9.093688
53.020 9.181073
53.025 8.784821
53.030 8.865197
53.035 9.504241
53.040 9.894615
53.045 9.785322
53.050 9.473346
53.055 9.39174
53.060 9.524457
53.065 9.358357
53.070 9.194142
53.075 9.149165
53.080 8.821745
53.085 9.002338
53.090 9.355476
53.095 9.486654
53.100 9.251644
53.105 9.255819
53.110 9.452097
53.115 9.87547
53.120 9.546988
53.125 9.529901
53.130 9.427881
53.135 9.704547
53.140 9.571968
53.145 9.183417
53.150 9.305215
53.155 9.249384
53.160 9.222726
53.165 9.11728
53.170 8.767992
53.175 8.784937
53.180 8.874409
53.185 9.276952
53.190 9.39127
53.195 9.449374
53.200 9.728957
53.205 9.860978
53.210 10.013783
53.215 10.421655
53.220 10.160639
53.225 10.484359
53.230 10.213759
53.235 10.435122
53.240 10.53893
53.245 10.179513
53.250 9.696574
53.255 9.586995
53.260 9.683883
53.265 9.875531
53.270 9.854665
53.275 10.463099
53.280 10.566125
53.285 10.755812
53.290 10.626003
53.295 10.535811
53.300 10.515853
53.305 10.214328
53.310 10.092119
53.315 10.360162
53.320 10.444669
53.325 10.874416
53.330 10.660869
53.335 10.524845
53.340 10.832514
53.345 10.510172
53.350 10.212563
53.355 9.787522
53.360 9.422586
53.365 9.961017
53.370 10.094531
53.375 9.343083
53.380 9.155457
53.385 9.273064
53.390 9.40025
53.395 9.161057
53.400 9.222308
53.405 9.577885
53.410 10.239123
53.415 10.459048
53.420 10.34839
53.425 10.404909
53.430 10.807239
53.435 10.975091
53.440 11.149369
53.445 11.148985
53.450 11.350949
53.455 11.529214
53.460 11.810975
53.465 11.445562
53.470 10.900529
53.475 10.070597
53.480 10.094772
53.485 10.76836
53.490 10.995791
53.495 10.76977
53.500 10.943226
53.505 11.622385
53.510 12.075673
53.515 11.773616
53.520 11.164215
53.525 10.808282
53.530 10.78966
53.535 11.054228
53.540 10.828377
53.545 10.476068
53.550 10.022297
53.555 9.959334
53.560 10.185678
53.565 10.052312
53.570 9.61749
53.575 10.060596
53.580 10.392147
53.585 10.83446
53.590 10.823948
53.595 10.583789
53.600 11.157553
53.605 11.049765
53.610 10.727573
53.615 10.437675
53.620 10.475303
53.625 10.904898
53.630 11.225012
53.635 11.363269
53.640 11.606495
53.645 11.88412
53.650 12.476526
53.655 12.032822
53.660 11.767982
53.665 11.589192
53.670 11.248762
53.675 11.024474
53.680 10.983404
53.685 10.735508
53.690 11.038504
53.695 10.914635
53.700 10.505857
53.705 10.257854
53.710 10.091059
53.715 9.979115
53.720 10.425697
53.725 10.388384
53.730 10.800294
53.735 10.791478
53.740 11.260613
53.745 11.625854
53.750 11.636071
53.755 11.373556
53.760 11.282248
53.765 11.001628
53.770 11.122432
53.775 10.676598
53.780 10.620197
53.785 10.975342
53.790 11.396405
53.795 11.609702
53.800 11.88386
53.805 11.920671
53.810 12.110689
53.815 11.755712
53.820 11.416909
53.825 10.978108
53.830 10.768764
53.835 10.676773
53.840 10.510721
53.845 10.524203
53.850 10.541113
53.855 10.751753
53.860 11.059427
53.865 10.871102
53.870 11.015967
53.875 11.424124
53.880 11.369802
53.885 11.318691
53.890 11.395283
53.895 11.137779
53.900 11.192305
53.905 11.215416
53.910 11.114964
53.915 11.245096
53.920 11.207992
53.925 11.599605
53.930 12.045561
53.935 12.112926
53.940 12.099998
53.945 12.293562
53.950 12.566246
53.955 12.34983
53.960 12.032597
53.965 12.149374
53.970 12.159741
53.975 12.07845
53.980 12.035396
53.985 12.033914
53.990 12.672951
53.995 12.713889
54.000 12.544839
54.005 12.389597
54.010 12.329192
54.015 12.164543
54.020 11.602007
54.025 10.769991
54.030 10.267394
54.035 10.213357
54.040 10.127892
54.045 10.095971
54.050 9.969284
54.055 10.120728
54.060 10.407074
54.065 10.57167
54.070 10.730526
54.075 10.86766
54.080 10.997603
54.085 11.397452
54.090 11.445843
54.095 11.610087
54.100 11.793429
54.105 11.742599
54.110 12.154879
54.115 12.184845
54.120 12.264414
54.125 11.976676
54.130 11.404773
54.135 11.444053
54.140 11.493015
54.145 11.023155
54.150 10.851897
54.155 11.13881
54.160 11.670608
54.165 11.960915
54.170 11.775385
54.175 11.701642
54.180 12.005154
54.185 11.909063
54.190 11.43231
54.195 11.411859
54.200 11.983477
54.205 12.051752
54.210 11.936825
54.215 11.544316
54.220 11.807055
54.225 12.341075
54.230 12.390745
54.235 12.003243
54.240 11.358294
54.245 11.434321
54.250 11.524765
54.255 11.530659
54.260 11.420889
54.265 11.226666
54.270 11.157215
54.275 11.785889
54.280 11.884666
54.285 11.449574
54.290 11.318515
54.295 11.27839
54.300 11.05033
54.305 11.109038
54.310 11.111765
54.315 11.287936
54.320 11.615729
54.325 11.879184
54.330 12.428106
54.335 12.842089
54.340 12.886304
54.345 12.470533
54.350 12.014003
54.355 12.14485
54.360 11.30221
54.365 10.739354
54.370 10.323104
54.375 10.673411
54.380 11.484375
54.385 11.744587
54.390 11.422785
54.395 11.743106
54.400 12.189923
54.405 12.009155
54.410 11.666056
54.415 11.452222
54.420 11.447481
54.425 11.481184
54.430 11.475631
54.435 11.250596
54.440 11.294607
54.445 10.979952
54.450 10.952165
54.455 11.027164
54.460 11.200548
54.465 10.852556
54.470 10.78317
54.475 10.978546
54.480 11.033144
54.485 10.933884
54.490 11.042433
54.495 11.252345
54.500 11.70451
54.505 11.853796
54.510 11.665887
54.515 12.128799
54.520 12.549364
54.525 12.168188
54.530 11.710728
54.535 11.042347
54.540 10.758468
54.545 10.923279
54.550 10.862535
54.555 10.53474
54.560 10.339795
54.565 10.396068
54.570 11.021322
54.575 11.290624
54.580 11.374663
54.585 11.231061
54.590 11.343039
54.595 12.124634
54.600 12.437042
54.605 12.71023
54.610 12.807407
54.615 12.935559
54.620 13.401647
54.625 13.280008
54.630 13.16503
54.635 13.091615
54.640 12.832709
54.645 12.840519
54.650 12.724218
54.655 12.123923
54.660 12.235188
54.665 12.386625
54.670 12.278418
54.675 12.774387
54.680 12.815949
54.685 12.645012
54.690 13.012005
54.695 12.858522
54.700 12.921899
54.705 13.306793
54.710 13.032979
54.715 12.094897
54.720 12.047416
54.725 11.990959
54.730 12.310557
54.735 12.061481
54.740 11.933412
54.745 12.182901
54.750 13.04344
54.755 13.416803
54.760 13.519276
54.765 13.477342
54.770 14.068509
54.775 13.941066
54.780 13.772937
54.785 13.66774
54.790 13.429581
54.795 13.686182
54.800 13.616569
54.805 13.739505
54.810 13.738684
54.815 13.863967
54.820 14.251279
54.825 14.456538
54.830 13.917491
54.835 13.34063
54.840 12.757895
54.845 12.732322
54.850 11.875276
54.855 11.336258
54.860 10.963755
54.865 11.020459
54.870 11.347486
54.875 11.635334
54.880 12.203574
54.885 13.166989
54.890 13.009688
54.895 12.784489
54.900 13.380534
54.905 12.999274
54.910 12.634502
54.915 12.538137
54.920 12.308833
54.925 12.764386
54.930 12.749937
54.935 12.272897
54.940 12.450996
54.945 12.330379
54.950 12.113357
54.955 12.094205
54.960 12.400289
54.965 12.394507
54.970 12.41091
54.975 12.818028
54.980 13.0187
54.985 12.998772
54.990 12.780572
54.995 12.853388
55.000 12.591589
55.005 12.885878
55.010 12.692329
55.015 12.571595
55.020 12.511501
55.025 12.997025
55.030 12.864541
55.035 13.312787
55.040 13.37873
55.045 13.229138
55.050 13.340511
55.055 12.95331
55.060 12.897038
55.065 12.631737
55.070 11.802625
55.075 11.576599
55.080 11.635245
55.085 12.033321
55.090 12.328666
55.095 12.419619
55.100 12.83587
55.105 13.102147
55.110 13.341877
55.115 13.258809
55.120 12.919559
55.125 12.65662
55.130 12.347608
55.135 12.843314
55.140 12.829212
55.145 12.433998
55.150 12.505972
55.155 12.583473
55.160 12.858482
55.165 12.842296
55.170 12.851428
55.175 13.156953
55.180 13.54949
55.185 13.542295
55.190 13.090306
55.195 13.181733
55.200 12.867263
55.205 12.595007
55.210 12.644386
55.215 12.648779
55.220 12.807969
55.225 12.944099
55.230 12.916487
55.235 13.438864
55.240 13.098081
55.245 12.97144
55.250 12.488573
55.255 11.917763
55.260 11.971353
55.265 11.742371
55.270 11.355892
55.275 11.507982
55.280 11.574628
55.285 11.961348
55.290 12.162821
55.295 12.253072
55.300 11.874208
55.305 11.912625
55.310 12.009059
55.315 11.710448
55.320 11.792047
55.325 12.309952
55.330 12.692579
55.335 13.028156
55.340 12.963231
55.345 12.70833
55.350 12.846422
55.355 12.842603
55.360 12.51564
55.365 12.483743
55.370 12.758675
55.375 13.324806
55.380 13.702859
55.385 13.875823
55.390 13.929247
55.395 13.662848
55.400 13.456017
55.405 13.450245
55.410 13.465357
55.415 13.025271
55.420 12.904168
55.425 13.339268
55.430 14.21722
55.435 14.226644
55.440 13.855348
55.445 13.905246
55.450 14.271015
55.455 14.390551
55.460 13.973366
55.465 13.909734
55.470 14.399852
55.475 14.511101
55.480 14.343176
55.485 14.575994
55.490 14.985768
55.495 15.062051
55.500 14.602556
55.505 14.407671
55.510 14.275891
55.515 14.310969
55.520 13.926403
55.525 13.473708
55.530 13.380839
55.535 13.82676
55.540 14.157814
55.545 14.52372
55.550 15.104212
55.555 14.821136
55.560 14.491176
55.565 14.173957
55.570 13.736146
55.575 13.251343
55.580 12.922949
55.585 12.89407
55.590 13.239026
55.595 14.012056
55.600 13.705703
55.605 13.191035
55.610 12.823741
55.615 12.341644
55.620 12.122366
55.625 11.600539
55.630 11.107047
55.635 11.796072
55.640 12.225091
55.645 12.948511
55.650 12.938493
55.655 13.083357
55.660 13.446898
55.665 13.701415
55.670 13.707903
55.675 13.333462
55.680 12.967239
55.685 13.366618
55.690 13.2633
55.695 13.089396
55.700 12.606723
55.705 12.533748
55.710 13.180294
55.715 13.532287
55.720 13.474381
55.725 13.67942
55.730 13.810162
55.735 13.790465
55.740 13.357065
55.745 12.74872
55.750 12.789214
55.755 12.497794
55.760 12.478183
55.765 12.654428
55.770 13.211667
55.775 14.200234
55.780 14.223827
55.785 13.741047
55.790 13.465045
55.795 12.945333
55.800 12.422213
55.805 11.802279
55.810 10.907644
55.815 10.822148
55.820 11.265697
55.825 11.611389
55.830 12.20615
55.835 13.056975
55.840 13.462952
55.845 14.476494
55.850 14.646008
55.855 14.553667
55.860 14.351585
55.865 13.823593
55.870 13.455122
55.875 13.442088
55.880 13.184616
55.885 12.983935
55.890 12.588362
55.895 12.803414
55.900 12.830569
55.905 12.793607
55.910 12.742241
55.915 12.622323
55.920 13.285911
55.925 13.600586
55.930 13.619492
55.935 14.094862
55.940 13.680462
55.945 13.185038
55.950 13.48884
55.955 13.526064
55.960 13.333473
55.965 12.863417
55.970 12.240254
55.975 12.695626
55.980 13.658045
55.985 13.221992
55.990 13.581582
55.995 13.815432
56.000 14.250526
56.005 14.543231
56.010 14.346526
56.015 13.610806
56.020 13.706706
56.025 13.137118
56.030 13.380246
56.035 13.730576
56.040 13.913072
56.045 14.07984
56.050 14.395296
56.055 14.660979
56.060 14.743567
56.065 14.701957
56.070 14.509374
56.075 14.061404
56.080 14.018891
56.085 14.3658
56.090 14.584325
56.095 14.47156
56.100 14.233271
56.105 14.189389
56.110 14.854376
56.115 15.115816
56.120 14.613689
56.125 14.56317
56.130 14.490355
56.135 14.343638
56.140 14.573476
56.145 14.372275
56.150 14.236547
56.155 14.10048
56.160 13.749002
56.165 13.64659
56.170 13.507056
56.175 13.572778
56.180 13.666121
56.185 13.620704
56.190 13.73894
56.195 13.361917
56.200 13.969156
56.205 14.014287
56.210 14.05317
56.215 14.741139
56.220 15.613393
56.225 16.184444
56.230 16.561155
56.235 16.590357
56.240 16.938492
56.245 16.629284
56.250 15.404737
56.255 14.639579
56.260 14.067785
56.265 13.991916
56.270 13.538119
56.275 13.254713
56.280 12.728948
56.285 12.821882
56.290 13.110652
56.295 13.205037
56.300 13.792466
56.305 13.486428
56.310 13.592082
56.315 14.044744
56.320 14.207432
56.325 14.057354
56.330 14.090888
56.335 14.324188
56.340 14.851212
56.345 14.902907
56.350 14.681874
56.355 15.215366
56.360 15.528879
56.365 15.083347
56.370 15.076962
56.375 14.413211
56.380 14.329544
56.385 14.814388
56.390 14.251813
56.395 14.501058
56.400 14.835857
56.405 14.203892
56.410 14.71409
56.415 14.982282
56.420 15.222152
56.425 15.296194
56.430 14.78702
56.435 14.410308
56.440 14.954529
56.445 14.536422
56.450 14.364003
56.455 14.244759
56.460 14.266466
56.465 14.62288
56.470 14.577855
56.475 14.358826
56.480 14.519307
56.485 14.334679
56.490 15.389378
56.495 15.777179
56.500 15.878606
56.505 16.448853
56.510 17.074362
56.515 17.671104
56.520 16.74052
56.525 15.362715
56.530 15.818448
56.535 15.768294
56.540 15.186563
56.545 14.598663
56.550 14.208558
56.555 14.84285
56.560 14.672215
56.565 13.932307
56.570 13.625127
56.575 14.148824
56.580 13.7892
56.585 13.640836
56.590 13.360262
56.595 13.333652
56.600 13.614987
56.605 13.87711
56.610 13.819502
56.615 14.80409
56.620 15.065266
56.625 15.360117
56.630 15.28121
56.635 15.493637
56.640 15.686496
56.645 16.085899
56.650 15.585626
56.655 15.555411
56.660 15.683757
56.665 15.634966
56.670 15.058081
56.675 15.020783
56.680 14.599536
56.685 14.91617
56.690 15.161243
56.695 14.743295
56.700 14.810243
56.705 15.164616
56.710 15.420485
56.715 16.02984
56.720 16.347527
56.725 16.14819
56.730 16.557926
56.735 16.322092
56.740 16.185284
56.745 15.197702
56.750 14.649071
56.755 14.722782
56.760 14.850521
56.765 14.927554
56.770 15.007357
56.775 15.369787
56.780 16.185936
56.785 15.658158
56.790 15.42789
56.795 15.906048
56.800 16.564571
56.805 16.008755
56.810 15.591409
56.815 15.303087
56.820 15.198591
56.825 14.339737
56.830 13.489326
56.835 13.197453
56.840 13.804689
56.845 13.773691
56.850 13.888129
56.855 14.33896
56.860 14.807241
56.865 14.669559
56.870 15.242529
56.875 15.625659
56.880 15.655519
56.885 15.381747
56.890 15.05683
56.895 15.222349
56.900 14.860338
56.905 13.760255
56.910 12.951267
56.915 12.973531
56.920 13.475045
56.925 13.9674
56.930 14.413692
56.935 14.984221
56.940 15.240388
56.945 15.94896
56.950 16.372875
56.955 16.149137
56.960 16.265984
56.965 16.138931
56.970 16.724682
56.975 17.011343
56.980 16.636549
56.985 16.284716
56.990 16.393623
56.995 16.349628
57.000 16.405436
57.005 15.847043
57.010 15.461986
57.015 15.0621
57.020 15.785251
57.025 15.406434
57.030 14.897066
57.035 14.450735
57.040 14.276009
57.045 14.664779
57.050 14.727517
57.055 14.225137
57.060 14.288778
57.065 13.934767
57.070 14.460698
57.075 14.883229
57.080 14.905212
57.085 15.136168
57.090 15.102667
57.095 15.030849
57.100 15.644164
57.105 15.49503
57.110 15.521851
57.115 15.651367
57.120 15.305755
57.125 15.450927
57.130 15.435027
57.135 15.408907
57.140 15.380233
57.145 15.032354
57.150 15.285934
57.155 15.967032
57.160 16.551083
57.165 17.206587
57.170 17.117935
57.175 17.080311
57.180 17.628998
57.185 18.009977
57.190 17.498297
57.195 16.68421
57.200 16.094984
57.205 15.789145
57.210 15.938718
57.215 15.434518
57.220 14.773943
57.225 14.216458
57.230 14.079322
57.235 14.004306
57.240 14.091845
57.245 13.843617
57.250 13.759171
57.255 13.864803
57.260 14.223013
57.265 14.687448
57.270 15.137559
57.275 14.951116
57.280 15.05201
57.285 14.982621
57.290 15.067494
57.295 15.245602
57.300 15.353202
57.305 15.627571
57.310 16.11569
57.315 16.067177
57.320 15.634068
57.325 16.276949
57.330 16.857033
57.335 16.946932
57.340 16.596394
57.345 16.354702
57.350 16.184515
57.355 16.336651
57.360 15.621106
57.365 15.436873
57.370 15.453325
57.375 15.685094
57.380 15.886442
57.385 15.977589
57.390 16.341639
57.395 16.427038
57.400 15.99984
57.405 15.779593
57.410 15.571586
57.415 15.800378
57.420 16.319475
57.425 16.477678
57.430 16.342569
57.435 16.416893
57.440 16.431234
57.445 16.300718
57.450 16.461418
57.455 16.41571
57.460 16.193464
57.465 16.311083
57.470 16.206663
57.475 15.651775
57.480 15.310726
57.485 14.765281
57.490 14.304372
57.495 14.065832
57.500 13.921746
57.505 13.957242
57.510 14.29582
57.515 14.628519
57.520 14.738955
57.525 14.511784
57.530 14.416367
57.535 13.864433
57.540 13.864267
57.545 14.374504
57.550 14.571961
57.555 14.640179
57.560 15.482531
57.565 16.07325
57.570 16.638632
57.575 16.807573
57.580 16.370676
57.585 15.965242
57.590 15.991343
57.595 15.542405
57.600 15.258505
57.605 15.273112
57.610 15.334671
57.615 15.21686
57.620 15.129497
57.625 14.896791
57.630 14.930263
57.635 15.176328
57.640 15.411209
57.645 16.293287
57.650 16.422842
57.655 16.654699
57.660 16.823616
57.665 17.090841
57.670 17.262947
57.675 16.858723
57.680 16.381519
57.685 16.827644
57.690 17.050892
57.695 17.078129
57.700 16.559114
57.705 16.071859
57.710 16.23093
57.715 16.13382
57.720 16.286503
57.725 16.713165
57.730 17.067223
57.735 17.15839
57.740 17.089952
57.745 16.756052
57.750 16.65024
57.755 16.070667
57.760 15.395602
57.765 15.118264
57.770 15.159792
57.775 15.144641
57.780 15.058951
57.785 14.578265
57.790 14.772975
57.795 14.95444
57.800 15.172592
57.805 15.471992
57.810 15.657159
57.815 16.035385
57.820 16.231852
57.825 15.783854
57.830 15.509076
57.835 14.76519
57.840 14.511063
57.845 14.632406
57.850 13.877184
57.855 13.654936
57.860 14.276099
57.865 14.473635
57.870 15.553001
57.875 15.857075
57.880 15.398436
57.885 15.845592
57.890 16.577524
57.895 16.760698
57.900 17.055382
57.905 16.41704
57.910 16.111704
57.915 16.224268
57.920 16.723751
57.925 17.046312
57.930 17.117617
57.935 17.06765
57.940 17.676767
57.945 17.630489
57.950 18.100296
57.955 17.684443
57.960 17.059977
57.965 16.868359
57.970 16.639029
57.975 16.766642
57.980 17.309771
57.985 17.016106
57.990 16.675953
57.995 15.977903
58.000 15.745073
58.005 15.531935
58.010 15.099065
58.015 14.969551
58.020 15.307917
58.025 15.542192
58.030 16.640127
58.035 16.801867
58.040 17.221384
58.045 17.081846
58.050 17.00963
58.055 16.606237
58.060 16.84679
58.065 16.44832
58.070 16.671074
58.075 16.590952
58.080 17.337236
58.085 17.538746
58.090 17.894276
58.095 18.01339
58.100 17.805939
58.105 17.561974
58.110 17.269245
58.115 16.584953
58.120 16.493299
58.125 16.662537
58.130 16.350416
58.135 16.312143
58.140 16.562344
58.145 16.483662
58.150 16.515196
58.155 16.075207
58.160 15.537206
58.165 15.134791
58.170 15.239162
58.175 14.936487
58.180 14.948102
58.185 14.926081
58.190 14.873166
58.195 14.926323
58.200 14.782516
58.205 14.680368
58.210 15.244414
58.215 14.963059
58.220 14.963749
58.225 15.495469
58.230 15.500538
58.235 15.770154
58.240 15.772504
58.245 15.866529
58.250 16.106768
58.255 16.503401
58.260 15.943418
58.265 15.94837
58.270 15.694177
58.275 15.575312
58.280 15.093671
58.285 15.910154
58.290 16.622286
58.295 17.298189
58.300 17.497225
58.305 17.847635
58.310 17.819414
58.315 17.729649
58.320 16.845198
58.325 16.221561
58.330 15.908035
58.335 16.233295
58.340 16.168427
58.345 16.598721
58.350 16.897478
58.355 16.934542
58.360 16.426191
58.365 16.404594
58.370 16.506901
58.375 16.421324
58.380 16.105217
58.385 16.578199
58.390 17.406778
58.395 17.428648
58.400 18.019123
58.405 18.117105
58.410 18.184759
58.415 17.993423
58.420 17.130278
58.425 16.625853
58.430 17.004759
58.435 16.252035
58.440 16.088577
58.445 16.112514
58.450 15.990929
58.455 16.152035
58.460 16.37258
58.465 16.942146
58.470 17.143217
58.475 16.722912
58.480 17.236704
58.485 17.734978
58.490 17.203588
58.495 16.813726
58.500 16.564705
58.505 16.430407
58.510 16.772383
58.515 16.453651
58.520 16.595531
58.525 17.137712
58.530 17.198744
58.535 17.015724
58.540 16.708698
58.545 16.672365
58.550 16.543667
58.555 16.624168
58.560 16.403353
58.565 16.35405
58.570 16.847929
58.575 17.529404
58.580 17.592173
58.585 17.28846
58.590 16.829168
58.595 16.727089
58.600 16.185097
58.605 16.031681
58.610 16.070957
58.615 15.849632
58.620 16.212507
58.625 16.845943
58.630 17.381447
58.635 18.3248
58.640 18.08588
58.645 17.529594
58.650 17.827393
58.655 17.782438
58.660 17.865486
58.665 17.282616
58.670 16.586296
58.675 16.544626
58.680 16.670074
58.685 16.704397
58.690 16.737574
58.695 16.426373
58.700 16.672247
58.705 17.035259
58.710 17.330011
58.715 17.260468
58.720 16.713253
58.725 16.6346
58.730 16.360584
58.735 16.422661
58.740 16.044651
58.745 15.595998
58.750 15.566129
58.755 15.917068
58.760 15.865413
58.765 15.768265
58.770 15.690269
58.775 15.970581
58.780 15.886416
58.785 15.76898
58.790 15.47807
58.795 15.763001
58.800 16.126926
58.805 15.695803
58.810 15.774381
58.815 16.031637
58.820 16.390654
58.825 16.125666
58.830 15.65931
58.835 15.504824
58.840 15.326641
58.845 15.04245
58.850 15.057192
58.855 15.179134
58.860 15.616281
58.865 15.966294
58.870 15.788768
58.875 16.227581
58.880 16.391438
58.885 16.714615
58.890 16.964983
58.895 17.107981
58.900 17.200285
58.905 17.154947
58.910 17.332952
58.915 17.477842
58.920 17.684523
58.925 17.337116
58.930 16.649258
58.935 16.45421
58.940 16.640871
58.945 16.475368
58.950 16.265957
58.955 15.683422
58.960 16.093988
58.965 16.604105
58.970 16.964434
58.975 17.030281
58.980 16.849995
58.985 16.737978
58.990 16.754063
58.995 17.09519
59.000 17.117588
59.005 17.074011
59.010 17.34783
59.015 17.737045
59.020 18.124191
59.025 17.85425
59.030 17.255857
59.035 17.576088
59.040 18.103231
59.045 18.792059
59.050 19.35079
59.055 19.255898
59.060 20.035603
59.065 20.274527
59.070 20.03441
59.075 19.261471
59.080 18.527729
59.085 18.24884
59.090 18.457048
59.095 17.847712
59.100 18.0123
59.105 17.645302
59.110 17.417765
59.115 17.205975
59.120 17.271891
59.125 16.715399
59.130 16.644896
59.135 16.902798
59.140 17.679203
59.145 17.905651
59.150 17.645718
59.155 17.811325
59.160 18.665882
59.165 17.957846
59.170 17.585972
59.175 17.317137
59.180 17.734278
59.185 17.642128
59.190 17.471386
59.195 17.206097
59.200 17.831224
59.205 17.620129
59.210 17.960203
59.215 18.571836
59.220 18.815117
59.225 18.402994
59.230 18.594713
59.235 18.574007
59.240 18.515711
59.245 18.469412
59.250 18.131142
59.255 18.326885
59.260 18.28623
59.265 18.088961
59.270 18.565617
59.275 18.940199
59.280 18.572247
59.285 18.133579
59.290 18.082321
59.295 18.456934
59.300 18.398758
59.305 18.013424
59.310 17.888918
59.315 17.59481
59.320 17.972626
59.325 18.204189
59.330 17.81109
59.335 17.59013
59.340 17.402014
59.345 17.254604
59.350 17.243465
59.355 17.192101
59.360 16.793678
59.365 16.876564
59.370 17.39263
59.375 17.773563
59.380 17.843668
59.385 18.329487
59.390 18.684259
59.395 18.891558
59.400 20.004461
59.405 19.594076
59.410 19.534296
59.415 20.094692
59.420 19.782171
59.425 19.338991
59.430 19.139189
59.435 18.56422
59.440 18.71512
59.445 18.212631
59.450 17.059187
59.455 16.790974
59.460 17.022131
59.465 17.490364
59.470 16.958941
59.475 17.232008
59.480 17.968195
59.485 18.320353
59.490 18.402863
59.495 18.299452
59.500 18.382483
59.505 18.212435
59.510 18.001345
59.515 17.667915
59.520 17.821449
59.525 17.983908
59.530 17.920042
59.535 17.619286
59.540 18.412275
59.545 18.54747
59.550 18.770399
59.555 18.807819
59.560 19.488663
59.565 20.075651
59.570 20.346771
59.575 20.393393
59.580 20.379305
59.585 20.69281
59.590 21.446215
59.595 21.546167
59.600 21.25633
59.605 21.52965
59.610 21.991323
59.615 22.328728
59.620 22.409664
59.625 21.729582
59.630 21.563492
59.635 21.649851
59.640 20.927767
59.645 20.078125
59.650 19.92948
59.655 19.060204
59.660 18.763584
59.665 18.457527
59.670 18.826864
59.675 19.857046
59.680 20.456259
59.685 20.73525
59.690 21.422365
59.695 21.351923
59.700 21.293707
59.705 20.961067
59.710 20.527731
59.715 20.389708
59.720 19.573517
59.725 18.830616
59.730 18.806282
59.735 19.04608
59.740 18.386009
59.745 18.07707
59.750 18.12845
59.755 19.351046
59.760 20.387169
59.765 20.817034
59.770 20.988575
59.775 21.824396
59.780 21.521389
59.785 21.018822
59.790 20.112242
59.795 19.353123
59.800 19.153877
59.805 18.997187
59.810 18.70612
59.815 19.023729
59.820 19.028151
59.825 19.378622
59.830 19.620012
59.835 20.609631
59.840 20.671486
59.845 20.497648
59.850 20.645018
59.855 20.440449
59.860 19.931576
59.865 19.912045
59.870 19.207487
59.875 18.943766
59.880 19.361574
59.885 19.792126
59.890 21.070177
59.895 21.765015
59.900 22.318853
59.905 22.148073
59.910 22.895691
59.915 23.327545
59.920 23.087477
59.925 23.084084
59.930 22.904745
59.935 22.6742
59.940 23.285826
59.945 23.045553
59.950 23.466602
59.955 23.635435
59.960 23.48485
59.965 24.161425
59.970 24.008389
59.975 23.302681
59.980 22.386747
59.985 21.435619
59.990 21.633892
59.995 21.210289
60.000 20.517576
60.005 21.267927
60.010 21.953295
60.015 22.276148
60.020 22.561964
60.025 22.477312
60.030 23.254419
60.035 23.337219
60.040 22.427559
60.045 22.403584
60.050 23.036613
60.055 22.964792
60.060 22.264017
60.065 21.740746
60.070 21.588636
60.075 22.130484
60.080 22.742926
60.085 22.611776
60.090 22.621532
60.095 23.391996
60.100 23.772516
60.105 24.632582
60.110 24.409483
60.115 24.119041
60.120 24.366079
60.125 24.894754
60.130 24.588743
60.135 25.188766
60.140 24.823992
60.145 24.902962
60.150 24.496078
60.155 24.551054
60.160 24.327387
60.165 24.815392
60.170 24.370102
60.175 24.084051
60.180 23.88875
60.185 24.279217
60.190 24.075245
60.195 23.771755
60.200 23.5837
60.205 23.426523
60.210 23.841866
60.215 23.633438
60.220 23.048315
60.225 22.890457
60.230 22.995609
60.235 22.983355
60.240 23.440475
60.245 23.682562
60.250 24.023466
60.255 23.887104
60.260 23.256453
60.265 22.637365
60.270 22.01429
60.275 21.839569
60.280 21.454863
60.285 21.169621
60.290 21.129595
60.295 22.08036
60.300 22.604607
60.305 22.62632
60.310 22.524441
60.315 22.368824
60.320 22.267906
60.325 22.805696
60.330 21.902552
60.335 22.011021
60.340 21.940481
60.345 22.055807
60.350 22.365561
60.355 22.713573
60.360 22.66094
60.365 23.019999
60.370 22.593477
60.375 23.104929
60.380 22.748079
60.385 22.967073
60.390 23.023922
60.395 22.298552
60.400 22.014095
60.405 22.56291
60.410 22.542318
60.415 23.189669
60.420 23.047714
60.425 23.576933
60.430 24.654442
60.435 25.076166
60.440 24.129044
60.445 23.81234
60.450 23.515551
60.455 23.680683
60.460 23.602846
60.465 23.446539
60.470 24.002157
60.475 24.340591
60.480 23.634501
60.485 22.798498
60.490 22.850592
60.495 22.640596
60.500 22.241018
60.505 21.92638
60.510 21.693453
60.515 22.506706
60.520 22.692514
60.525 22.161049
60.530 22.579082
60.535 22.301157
60.540 21.819586
60.545 21.899956
60.550 21.555449
60.555 21.446653
60.560 21.391098
60.565 21.122351
60.570 21.20933
60.575 21.224106
60.580 21.122786
60.585 20.89204
60.590 21.041014
60.595 21.821087
60.600 22.449903
60.605 23.02037
60.610 23.20529
60.615 23.275192
60.620 23.74048
60.625 23.869032
60.630 23.213547
60.635 22.00523
60.640 21.169497
60.645 20.911667
60.650 20.832733
60.655 20.320314
60.660 20.50515
60.665 20.399231
60.670 20.423658
60.675 20.990845
60.680 21.625263
60.685 21.649868
60.690 21.899406
60.695 21.348644
60.700 21.187973
60.705 21.583735
60.710 21.203001
60.715 20.996265
60.720 20.972071
60.725 21.232618
60.730 21.281794
60.735 21.341053
60.740 21.300753
60.745 21.078083
60.750 20.89839
60.755 21.509727
60.760 21.192871
60.765 21.917166
60.770 21.901804
60.775 21.11788
60.780 21.253042
60.785 21.30706
60.790 20.552889
60.795 20.36174
60.800 19.737246
60.805 20.126617
60.810 21.116234
60.815 21.138657
60.820 20.43693
60.825 20.204163
60.830 20.313877
60.835 20.312317
60.840 19.760017
60.845 19.220394
60.850 19.870338
60.855 20.468164
60.860 21.073772
60.865 21.368917
60.870 21.194248
60.875 20.983324
60.880 20.472712
60.885 19.395832
60.890 19.180456
60.895 18.783661
60.900 18.454958
60.905 18.425306
60.910 18.799524
60.915 19.011351
60.920 19.50691
60.925 19.420906
60.930 19.654264
60.935 19.54068
60.940 19.521616
60.945 19.402943
60.950 19.072214
60.955 18.770273
60.960 18.969095
60.965 18.682486
60.970 18.48703
60.975 18.175852
60.980 18.066868
60.985 18.884237
60.990 19.40383
60.995 18.746838
61.000 19.077156
61.005 19.604639
61.010 19.415144
61.015 19.045868
61.020 18.230204
61.025 18.270414
61.030 19.14135
61.035 19.043802
61.040 19.020502
61.045 19.255083
61.050 19.326891
61.055 19.345272
61.060 18.606766
61.065 18.219353
61.070 17.68491
61.075 17.413769
61.080 17.908518
61.085 18.198301
61.090 18.123814
61.095 18.637939
61.100 18.964151
61.105 19.449114
61.110 19.375443
61.115 18.947897
61.120 18.875505
61.125 19.507862
61.130 19.442802
61.135 19.054251
61.140 19.081799
61.145 19.306713
61.150 19.550133
61.155 19.819225
61.160 19.275404
61.165 18.938171
61.170 19.074255
61.175 18.976065
61.180 18.694326
61.185 18.66354
61.190 18.404619
61.195 18.450235
61.200 19.051632
61.205 18.846642
61.210 18.70966
61.215 18.735031
61.220 18.663975
61.225 18.837856
61.230 19.584656
61.235 19.415075
61.240 19.385557
61.245 19.359514
61.250 19.313923
61.255 19.193453
61.260 18.729486
61.265 18.418978
61.270 17.871098
61.275 17.662209
61.280 17.449911
61.285 17.639824
61.290 18.199574
61.295 18.20122
61.300 17.66996
61.305 17.686991
61.310 17.513603
61.315 17.397467
61.320 17.336103
61.325 16.781799
61.330 16.656567
61.335 16.402039
61.340 16.120632
61.345 16.634218
61.350 16.397158
61.355 15.826759
61.360 15.899498
61.365 16.707645
61.370 17.314077
61.375 17.780514
61.380 17.947769
61.385 18.644815
61.390 19.297836
61.395 19.151812
61.400 19.041162
61.405 19.335749
61.410 19.406355
61.415 19.259501
61.420 19.245493
61.425 19.02054
61.430 19.049183
61.435 18.680511
61.440 18.310854
61.445 18.298658
61.450 18.200361
61.455 18.156981
61.460 18.474398
61.465 18.5242
61.470 18.58679
61.475 19.107662
61.480 19.560247
61.485 19.564371
61.490 19.343277
61.495 18.604422
61.500 18.208351
61.505 18.511721
61.510 18.439487
61.515 18.75646
61.520 18.61228
61.525 18.69702
61.530 19.083614
61.535 19.391079
61.540 18.801071
61.545 18.476772
61.550 18.24963
61.555 18.823372
61.560 18.910797
61.565 18.828571
61.570 18.814474
61.575 19.303066
61.580 18.941458
61.585 18.67016
61.590 18.228039
61.595 18.711037
61.600 19.026117
61.605 18.635241
61.610 18.299377
61.615 18.519224
61.620 18.405277
61.625 18.359575
61.630 18.04447
61.635 18.302181
61.640 18.998533
61.645 19.256033
61.650 19.04044
61.655 18.857969
61.660 18.700588
61.665 18.322899
61.670 18.122265
61.675 17.486012
61.680 17.081667
61.685 16.963224
61.690 17.372408
61.695 17.579159
61.700 18.103573
61.705 18.046419
61.710 18.528194
61.715 18.874557
61.720 19.247166
61.725 19.126381
61.730 19.202761
61.735 19.213469
61.740 19.457485
61.745 19.269928
61.750 19.47051
61.755 18.906492
61.760 18.763184
61.765 18.521002
61.770 18.506811
61.775 18.339378
61.780 18.184782
61.785 18.193869
61.790 18.39715
61.795 18.528042
61.800 18.165922
61.805 17.702324
61.810 17.554134
61.815 17.66386
61.820 18.300634
61.825 19.116211
61.830 19.494028
61.835 20.011127
61.840 20.622982
61.845 20.14448
61.850 20.266438
61.855 20.308788
61.860 20.200008
61.865 20.003767
61.870 20.292158
61.875 20.340574
61.880 20.960499
61.885 20.657591
61.890 19.316343
61.895 19.300501
61.900 19.516375
61.905 19.028782
61.910 19.043839
61.915 19.031502
61.920 18.974386
61.925 19.113026
61.930 18.664455
61.935 18.346497
61.940 18.385864
61.945 18.102865
61.950 18.361895
61.955 18.305943
61.960 17.921377
61.965 18.049038
61.970 17.99169
61.975 18.256336
61.980 18.23918
61.985 17.489668
61.990 17.968998
61.995 18.338419
62.000 18.287006
62.005 18.465071
62.010 18.345797
62.015 18.22522
62.020 18.347128
62.025 18.04401
62.030 17.595354
62.035 17.202875
62.040 16.878357
62.045 16.940762
62.050 17.013716
62.055 17.344021
62.060 17.339865
62.065 17.909842
62.070 17.959751
62.075 18.124229
62.080 18.330853
62.085 18.597794
62.090 18.800734
62.095 19.037247
62.100 18.596312
62.105 18.654871
62.110 19.223719
62.115 18.944326
62.120 19.355722
62.125 19.587936
62.130 19.752131
62.135 20.143059
62.140 20.501944
62.145 20.348225
62.150 20.205791
62.155 20.09535
62.160 19.639668
62.165 19.605982
62.170 19.706287
62.175 20.185835
62.180 20.430265
62.185 20.334314
62.190 19.953888
62.195 20.348896
62.200 20.008707
62.205 19.757536
62.210 18.915497
62.215 19.256205
62.220 19.464283
62.225 19.224497
62.230 18.803989
62.235 19.312286
62.240 19.478575
62.245 18.880753
62.250 18.309935
62.255 17.944042
62.260 17.694731
62.265 17.561142
62.270 17.239666
62.275 17.196264
62.280 17.151588
62.285 16.87277
62.290 16.568207
62.295 16.555504
62.300 16.681189
62.305 16.170067
62.310 16.276155
62.315 16.266666
62.320 16.284235
62.325 16.413008
62.330 16.135569
62.335 16.333086
62.340 16.478157
62.345 16.240841
62.350 16.582541
62.355 16.941525
62.360 17.444679
62.365 17.818733
62.370 18.066626
62.375 18.179255
62.380 18.292915
62.385 17.911247
62.390 17.364759
62.395 17.003506
62.400 17.293285
62.405 17.192995
62.410 17.619356
62.415 18.017004
62.420 18.206774
62.425 18.646172
62.430 18.35935
62.435 17.879599
62.440 17.635616
62.445 17.741577
62.450 17.846922
62.455 18.208866
62.460 19.062378
62.465 19.567202
62.470 19.536741
62.475 19.863531
62.480 19.946692
62.485 19.651562
62.490 19.613482
62.495 19.054195
62.500 19.051971
62.505 19.098589
62.510 18.509192
62.515 17.52421
62.520 17.271708
62.525 17.304295
62.530 17.421215
62.535 17.560349
62.540 17.307344
62.545 17.053097
62.550 17.374134
62.555 17.762348
62.560 17.281017
62.565 16.687675
62.570 16.44413
62.575 16.35795
62.580 16.815668
62.585 17.54697
62.590 16.990898
62.595 17.153994
62.600 17.594131
62.605 17.437775
62.610 17.836853
62.615 17.992441
62.620 17.318596
62.625 17.001879
62.630 16.578171
62.635 16.626074
62.640 17.379032
62.645 16.976513
62.650 17.212776
62.655 17.507874
62.660 18.396713
62.665 19.289782
62.670 20.014391
62.675 19.775913
62.680 19.791555
62.685 19.536978
62.690 19.248539
62.695 19.369488
62.700 18.93503
62.705 18.266994
62.710 18.823271
62.715 19.579306
62.720 20.118469
62.725 20.21113
62.730 19.861959
62.735 20.226568
62.740 19.97933
62.745 19.764668
62.750 19.517147
62.755 18.942226
62.760 18.752403
62.765 18.647383
62.770 19.34403
62.775 19.774523
62.780 19.455153
62.785 19.633514
62.790 19.819361
62.795 19.927034
62.800 20.803549
62.805 20.639456
62.810 20.006119
62.815 19.571198
62.820 19.441339
62.825 19.640005
62.830 19.336578
62.835 17.894026
62.840 17.043377
62.845 17.537338
62.850 18.36215
62.855 18.14164
62.860 18.099859
62.865 18.396566
62.870 18.445013
62.875 18.689634
62.880 18.358166
62.885 17.54274
62.890 17.297686
62.895 17.00868
62.900 16.715563
62.905 17.286253
62.910 17.200848
62.915 17.536451
62.920 18.122726
62.925 18.234125
62.930 18.080452
62.935 17.866192
62.940 17.571522
62.945 17.45241
62.950 17.494757
62.955 17.150799
62.960 17.038874
62.965 16.769976
62.970 17.224257
62.975 17.425396
62.980 16.843292
62.985 16.766249
62.990 17.228428
62.995 17.73415
63.000 18.524504
63.005 18.578365
63.010 19.071241
63.015 19.587486
63.020 20.12361
63.025 19.351545
63.030 18.755934
63.035 18.940559
63.040 19.017073
63.045 18.979998
63.050 19.212849
63.055 18.904625
63.060 19.442875
63.065 19.737679
63.070 19.290598
63.075 18.919077
63.080 18.835115
63.085 18.550381
63.090 18.431934
63.095 18.112398
63.100 18.113646
63.105 18.169567
63.110 18.574892
63.115 18.629728
63.120 18.646353
63.125 18.634829
63.130 18.695965
63.135 19.521187
63.140 20.101768
63.145 19.416014
63.150 19.197411
63.155 18.974226
63.160 19.35528
63.165 19.728516
63.170 18.664539
63.175 18.056456
63.180 18.674679
63.185 19.232628
63.190 19.305389
63.195 18.678978
63.200 18.357941
63.205 18.39311
63.210 18.848799
63.215 18.888443
63.220 18.230499
63.225 18.151697
63.230 18.867378
63.235 19.41782
63.240 19.992357
63.245 19.669319
63.250 18.792582
63.255 19.255846
63.260 19.484879
63.265 18.951519
63.270 18.912441
63.275 18.761814
63.280 18.973379
63.285 19.58857
63.290 19.268307
63.295 18.901777
63.300 19.201855
63.305 19.491488
63.310 19.801157
63.315 19.904699
63.320 20.278772
63.325 20.522871
63.330 20.74382
63.335 20.122232
63.340 19.212757
63.345 18.634348
63.350 18.511808
63.355 18.699244
63.360 18.64629
63.365 18.342567
63.370 18.337481
63.375 18.519152
63.380 19.077923
63.385 19.17972
63.390 18.399261
63.395 18.206972
63.400 18.491255
63.405 18.390474
63.410 18.138828
63.415 17.952808
63.420 17.533813
63.425 17.536623
63.430 17.477486
63.435 17.51103
63.440 18.150873
63.445 17.814426
63.450 17.60663
63.455 17.909353
63.460 18.489817
63.465 18.151106
63.470 17.653692
63.475 17.662155
63.480 18.564104
63.485 18.562435
63.490 18.246981
63.495 17.903297
63.500 18.127243
63.505 18.292959
63.510 18.03521
63.515 17.803619
63.520 18.107052
63.525 18.598043
63.530 18.405619
63.535 18.959848
63.540 18.879217
63.545 18.774803
63.550 18.589327
63.555 18.595079
63.560 17.719429
63.565 17.997705
63.570 18.005718
63.575 18.138117
63.580 17.655529
63.585 17.075239
63.590 16.858418
63.595 17.570171
63.600 17.424833
63.605 17.386242
63.610 17.459671
63.615 18.153124
63.620 19.177082
63.625 19.861635
63.630 19.170948
63.635 19.176867
63.640 19.064774
63.645 18.694864
63.650 18.424667
63.655 17.899134
63.660 17.257065
63.665 17.373268
63.670 17.346121
63.675 17.374866
63.680 17.605202
63.685 17.570993
63.690 17.862118
63.695 17.770994
63.700 17.55611
63.705 17.671268
63.710 17.697239
63.715 18.129509
63.720 18.3029
63.725 17.810379
63.730 18.018442
63.735 18.257206
63.740 18.486355
63.745 18.444656
63.750 18.553043
63.755 18.754642
63.760 19.069452
63.765 19.053497
63.770 19.437822
63.775 18.976938
63.780 18.978758
63.785 18.600014
63.790 18.494614
63.795 18.427603
63.800 18.657976
63.805 18.241276
63.810 18.222839
63.815 18.349077
63.820 18.528471
63.825 18.097874
63.830 18.154068
63.835 18.041504
63.840 18.432203
63.845 19.091555
63.850 18.967968
63.855 18.602228
63.860 18.85511
63.865 19.193632
63.870 18.962709
63.875 18.777632
63.880 18.953175
63.885 19.279238
63.890 19.641476
63.895 19.377512
63.900 19.145632
63.905 19.465504
63.910 19.056664
63.915 18.8825
63.920 19.049435
63.925 19.263012
63.930 19.351341
63.935 19.206131
63.940 19.499689
63.945 19.621429
63.950 19.601467
63.955 19.268427
63.960 19.101742
63.965 19.436666
63.970 19.351305
63.975 18.892626
63.980 18.552898
63.985 18.13299
63.990 18.228294
63.995 18.196747
64.000 18.547707
64.005 18.793627
64.010 19.431904
64.015 20.84067
64.020 21.453728
64.025 21.563223
64.030 21.653955
64.035 21.245644
64.040 21.512545
64.045 21.169823
64.050 20.726765
64.055 20.84178
64.060 21.066507
64.065 21.422752
64.070 21.451197
64.075 21.421103
64.080 22.108557
64.085 22.161798
64.090 22.071806
64.095 21.989876
64.100 21.438564
64.105 21.014303
64.110 21.0826
64.115 20.813965
64.120 20.665689
64.125 20.52354
64.130 20.66394
64.135 21.099131
64.140 21.364481
64.145 20.583502
64.150 19.960474
64.155 19.639181
64.160 19.523575
64.165 19.601423
64.170 19.659655
64.175 19.738741
64.180 20.567219
64.185 21.360588
64.190 21.788519
64.195 21.856342
64.200 21.199011
64.205 20.942125
64.210 21.047752
64.215 20.640919
64.220 20.049765
64.225 20.210518
64.230 21.083481
64.235 21.472189
64.240 21.790228
64.245 21.859472
64.250 21.45219
64.255 21.222361
64.260 20.403959
64.265 19.519011
64.270 19.382923
64.275 18.887964
64.280 18.423887
64.285 18.255112
64.290 17.948797
64.295 17.511162
64.300 16.9902
64.305 16.76969
64.310 16.85578
64.315 17.110262
64.320 17.522776
64.325 17.764881
64.330 18.175987
64.335 18.647207
64.340 19.046026
64.345 19.083702
64.350 19.42881
64.355 19.569109
64.360 19.502678
64.365 19.514603
64.370 19.08824
64.375 18.685173
64.380 19.010069
64.385 18.958107
64.390 18.804361
64.395 18.334215
64.400 18.374413
64.405 18.66304
64.410 19.111917
64.415 19.070017
64.420 19.109821
64.425 19.371044
64.430 20.147148
64.435 20.721678
64.440 21.169556
64.445 21.112772
64.450 21.492933
64.455 21.652899
64.460 21.812969
64.465 21.384298
64.470 20.400415
64.475 20.460758
64.480 20.398081
64.485 20.051992
64.490 19.873728
64.495 19.937084
64.500 20.685354
64.505 21.472374
64.510 21.406052
64.515 21.025274
64.520 20.747595
64.525 20.261408
64.530 19.840727
64.535 19.440773
64.540 19.251095
64.545 18.787491
64.550 18.864038
64.555 18.624924
64.560 18.930367
64.565 19.700745
64.570 19.834778
64.575 19.534691
64.580 19.695774
64.585 19.839823
64.590 20.274574
64.595 19.983562
64.600 19.298525
64.605 18.689699
64.610 19.01428
64.615 19.292992
64.620 19.322613
64.625 19.674406
64.630 20.303896
64.635 20.292368
64.640 19.939953
64.645 19.265169
64.650 18.922022
64.655 18.773882
64.660 18.192783
64.665 17.664585
64.670 17.84087
64.675 18.107426
64.680 18.600737
64.685 19.217777
64.690 19.475857
64.695 19.700661
64.700 19.439396
64.705 19.544529
64.710 19.796253
64.715 19.948891
64.720 19.651091
64.725 19.543049
64.730 19.551462
64.735 19.963057
64.740 20.215523
64.745 20.54406
64.750 20.183588
64.755 19.686394
64.760 19.328016
64.765 20.07188
64.770 20.714561
64.775 20.787762
64.780 21.026535
64.785 21.28557
64.790 21.613094
64.795 21.540703
64.800 20.651512
64.805 20.571489
64.810 20.197651
64.815 19.723211
64.820 20.118921
64.825 20.585175
64.830 20.335777
64.835 19.719332
64.840 19.185331
64.845 19.749714
64.850 20.749243
64.855 20.656305
64.860 20.753227
64.865 21.642546
64.870 22.243025
64.875 22.60363
64.880 22.239733
64.885 21.448484
64.890 21.768127
64.895 21.59973
64.900 21.687782
64.905 21.777
64.910 21.500473
64.915 21.661423
64.920 22.454405
64.925 22.746267
64.930 22.746881
64.935 22.520367
64.940 23.528395
64.945 24.495968
64.950 24.845598
64.955 23.849604
64.960 23.609873
64.965 24.029985
64.970 23.547461
64.975 22.838438
64.980 22.433567
64.985 21.536531
64.990 21.600206
64.995 20.980297
65.000 20.792894
65.005 21.309563
65.010 22.267532
65.015 22.7789
65.020 23.638018
65.025 24.520077
65.030 25.075718
65.035 25.537725
65.040 24.920401
65.045 23.859222
65.050 23.506422
65.055 23.815857
65.060 23.326628
65.065 23.071632
65.070 22.93078
65.075 23.815783
65.080 24.525341
65.085 24.876053
65.090 24.7976
65.095 24.775627
65.100 24.903713
65.105 25.514956
65.110 25.574015
65.115 24.947788
65.120 24.341316
65.125 24.276947
65.130 24.794882
65.135 24.675106
65.140 23.999937
65.145 23.886631
65.150 24.643372
65.155 25.223612
65.160 25.5191
65.165 25.498287
65.170 25.590021
65.175 26.00371
65.180 25.779942
65.185 24.941053
65.190 24.578201
65.195 23.955141
65.200 24.088551
65.205 24.598433
65.210 24.215652
65.215 24.131886
65.220 24.462132
65.225 24.74992
65.230 25.210335
65.235 24.874313
65.240 24.649916
65.245 25.012089
65.250 24.76004
65.255 25.075792
65.260 25.044928
65.265 24.95067
65.270 25.2775
65.275 24.929796
65.280 25.247023
65.285 25.831877
65.290 25.644022
65.295 25.308323
65.300 24.892426
65.305 24.823997
65.310 24.880262
65.315 24.637566
65.320 24.605446
65.325 24.177347
65.330 24.265505
65.335 23.320927
65.340 23.171762
65.345 23.107059
65.350 22.749598
65.355 22.74605
65.360 23.431383
65.365 24.266226
65.370 26.097919
65.375 26.556385
65.380 26.76091
65.385 26.996513
65.390 27.391727
65.395 27.708534
65.400 27.210924
65.405 26.187784
65.410 26.220697
65.415 26.153505
65.420 26.102077
65.425 25.691444
65.430 25.03647
65.435 25.343363
65.440 25.484673
65.445 26.299292
65.450 26.672758
65.455 26.451963
65.460 25.993179
65.465 26.362274
65.470 26.915033
65.475 27.149475
65.480 27.293184
65.485 27.462858
65.490 27.980503
65.495 28.486099
65.500 28.197094
65.505 27.626265
65.510 28.075502
65.515 27.910179
65.520 28.211508
65.525 28.858585
65.530 28.925772
65.535 29.218348
65.540 29.406818
65.545 28.798004
65.550 28.045105
65.555 27.806135
65.560 28.306561
65.565 28.894299
65.570 29.421759
65.575 29.838615
65.580 30.675997
65.585 31.480232
65.590 31.483599
65.595 30.707079
65.600 30.052853
65.605 29.993063
65.610 30.305128
65.615 30.677864
65.620 30.890202
65.625 30.374687
65.630 30.187883
65.635 30.35453
65.640 30.439625
65.645 30.411638
65.650 30.081226
65.655 29.836979
65.660 30.506779
65.665 30.987904
65.670 31.716518
65.675 32.10384
65.680 33.439899
65.685 33.891735
65.690 33.868507
65.695 34.3479
65.700 35.245274
65.705 35.672157
65.710 35.698162
65.715 35.527458
65.720 35.91164
65.725 36.279221
65.730 36.878532
65.735 36.732769
65.740 36.327637
65.745 35.873096
65.750 35.924664
65.755 36.422112
65.760 36.480377
65.765 34.993958
65.770 34.451942
65.775 34.988091
65.780 36.187233
65.785 36.172638
65.790 36.218739
65.795 36.016224
65.800 37.302456
65.805 38.017063
65.810 37.514042
65.815 36.792599
65.820 36.586769
65.825 35.77343
65.830 36.768616
65.835 36.957973
65.840 37.039818
65.845 37.065022
65.850 37.085033
65.855 37.592007
65.860 38.387577
65.865 38.500767
65.870 38.089046
65.875 37.614082
65.880 37.967659
65.885 38.624012
65.890 39.176998
65.895 38.812881
65.900 38.593964
65.905 39.097065
65.910 39.518604
65.915 39.018379
65.920 39.015781
65.925 39.058727
65.930 39.052353
65.935 38.823711
65.940 38.905235
65.945 38.677467
65.950 39.217274
65.955 38.893013
65.960 38.507652
65.965 38.916866
65.970 38.874611
65.975 39.332283
65.980 39.721924
65.985 39.839882
65.990 39.85265
65.995 40.081421
66.000 40.06451
66.005 39.701279
66.010 39.117985
66.015 38.933475
66.020 39.144283
66.025 39.420116
66.030 39.247253
66.035 39.737022
66.040 40.565407
66.045 40.586185
66.050 40.133465
66.055 39.845417
66.060 40.070496
66.065 38.934277
66.070 38.209557
66.075 38.083328
66.080 37.934662
66.085 38.632706
66.090 38.301834
66.095 37.891792
66.100 38.513718
66.105 37.866291
66.110 37.103153
66.115 37.603214
66.120 38.010872
66.125 38.683006
66.130 38.175957
66.135 37.837406
66.140 38.06189
66.145 38.005444
66.150 36.801113
66.155 36.301491
66.160 36.031918
66.165 37.389786
66.170 37.705463
66.175 37.532745
66.180 38.007202
66.185 38.469116
66.190 37.646568
66.195 37.699047
66.200 36.994938
66.205 37.250954
66.210 37.4132
66.215 36.925156
66.220 37.056469
66.225 37.225883
66.230 36.814247
66.235 37.248161
66.240 37.301392
66.245 37.909569
66.250 38.601376
66.255 37.946339
66.260 37.642063
66.265 37.094494
66.270 36.046169
66.275 34.807381
66.280 33.735508
66.285 32.794636
66.290 33.032677
66.295 32.907776
66.300 32.822384
66.305 32.321308
66.310 32.095242
66.315 32.025219
66.320 31.546303
66.325 30.69017
66.330 29.729937
66.335 29.58922
66.340 30.776487
66.345 31.653658
66.350 32.032516
66.355 33.21339
66.360 33.808887
66.365 33.974934
66.370 34.084179
66.375 33.315109
66.380 33.314137
66.385 32.828732
66.390 32.698158
66.395 32.654591
66.400 32.820915
66.405 32.383419
66.410 32.536926
66.415 31.587799
66.420 31.066473
66.425 31.267834
66.430 31.332438
66.435 31.076633
66.440 30.189114
66.445 29.31806
66.450 29.164505
66.455 29.283796
66.460 28.839626
66.465 28.476698
66.470 28.847786
66.475 30.078594
66.480 30.300835
66.485 30.634575
66.490 30.445316
66.495 30.094873
66.500 30.223864
66.505 29.896921
66.510 29.646391
66.515 29.934654
66.520 29.345606
66.525 28.773975
66.530 29.020981
66.535 29.004284
66.540 28.799
66.545 28.387457
66.550 27.601889
66.555 27.839767
66.560 28.2356
66.565 28.209843
66.570 28.397223
66.575 28.655373
66.580 29.264849
66.585 29.411449
66.590 29.528727
66.595 29.246031
66.600 28.121515
66.605 27.33913
66.610 27.13802
66.615 26.955322
66.620 27.273916
66.625 26.781607
66.630 27.31967
66.635 27.601887
66.640 28.128557
66.645 28.294216
66.650 27.429501
66.655 27.267107
66.660 26.637903
66.665 26.110552
66.670 26.247534
66.675 26.178652
66.680 26.540155
66.685 27.104939
66.690 26.93918
66.695 26.825243
66.700 26.992435
66.705 26.842487
66.710 26.617617
66.715 26.191341
66.720 26.216343
66.725 26.767382
66.730 27.002502
66.735 26.422972
66.740 26.456612
66.745 26.199965
66.750 25.935556
66.755 26.287588
66.760 26.999599
66.765 27.519678
66.770 27.648739
66.775 27.347975
66.780 27.430111
66.785 26.666105
66.790 25.947035
66.795 24.702953
66.800 24.219915
66.805 24.879454
66.810 25.076296
66.815 25.260963
66.820 25.652052
66.825 25.321583
66.830 25.598436
66.835 25.806213
66.840 25.693989
66.845 25.14843
66.850 25.209753
66.855 25.446426
66.860 25.339912
66.865 25.305248
66.870 25.569651
66.875 24.906832
66.880 24.770578
66.885 24.173546
66.890 23.959965
66.895 24.075371
66.900 23.755671
66.905 23.560865
66.910 23.4182
66.915 23.592232
66.920 23.567137
66.925 23.457872
66.930 23.095007
66.935 22.649656
66.940 22.43516
66.945 23.04854
66.950 23.027824
66.955 22.929636
66.960 22.982712
66.965 23.339636
66.970 23.421726
66.975 23.120596
66.980 23.641994
66.985 24.303349
66.990 24.149172
66.995 23.628326
67.000 23.81975
67.005 24.298971
67.010 24.509148
67.015 23.449446
67.020 22.766806
67.025 22.723001
67.030 22.954582
67.035 22.392544
67.040 22.219561
67.045 22.826057
67.050 23.084131
67.055 23.319778
67.060 23.304953
67.065 23.507647
67.070 24.583305
67.075 25.190212
67.080 24.445705
67.085 24.059258
67.090 24.12393
67.095 24.689074
67.100 24.416998
67.105 23.343512
67.110 22.220436
67.115 22.306505
67.120 23.040356
67.125 22.340813
67.130 22.285624
67.135 22.491756
67.140 22.507765
67.145 22.940145
67.150 22.641302
67.155 22.736246
67.160 23.05164
67.165 22.65279
67.170 22.271654
67.175 22.183058
67.180 22.589876
67.185 22.433697
67.190 22.246782
67.195 22.48366
67.200 22.339378
67.205 22.505833
67.210 22.511215
67.215 22.392313
67.220 22.780321
67.225 22.524355
67.230 22.123274
67.235 23.244532
67.240 22.807833
67.245 22.838919
67.250 23.166393
67.255 23.470932
67.260 23.927685
67.265 24.150618
67.270 23.343155
67.275 23.96829
67.280 23.735102
67.285 23.506626
67.290 22.95833
67.295 22.858883
67.300 22.812672
67.305 23.205816
67.310 23.05348
67.315 23.433624
67.320 23.045372
67.325 23.516342
67.330 23.689157
67.335 23.472076
67.340 22.991583
67.345 22.200609
67.350 21.758806
67.355 22.139957
67.360 22.497913
67.365 22.379196
67.370 22.616764
67.375 22.775593
67.380 23.454527
67.385 23.588192
67.390 23.214485
67.395 22.317526
67.400 22.094814
67.405 22.465096
67.410 22.719566
67.415 22.228687
67.420 22.178242
67.425 22.25403
67.430 22.616549
67.435 23.113228
67.440 22.816195
67.445 22.73517
67.450 22.748722
67.455 22.530806
67.460 22.537571
67.465 22.196665
67.470 21.572977
67.475 21.754875
67.480 22.072378
67.485 22.910376
67.490 23.663893
67.495 23.476633
67.500 24.135344
67.505 24.078608
67.510 23.850878
67.515 23.57946
67.520 24.092051
67.525 24.285542
67.530 24.327032
67.535 24.335791
67.540 24.881828
67.545 24.910812
67.550 25.077011
67.555 24.320093
67.560 24.170256
67.565 24.30003
67.570 23.889061
67.575 23.344673
67.580 23.419983
67.585 23.209984
67.590 22.759663
67.595 21.86278
67.600 21.650469
67.605 21.989645
67.610 21.705044
67.615 21.729883
67.620 21.938316
67.625 22.308344
67.630 22.770416
67.635 22.165417
67.640 21.760014
67.645 21.890377
67.650 21.46014
67.655 21.849474
67.660 22.121338
67.665 22.560823
67.670 23.014286
67.675 23.205908
67.680 23.604225
67.685 23.452705
67.690 22.332125
67.695 22.161364
67.700 22.120331
67.705 22.020998
67.710 22.04645
67.715 22.354683
67.720 22.605772
67.725 23.090483
67.730 23.373175
67.735 23.335009
67.740 23.944832
67.745 23.418093
67.750 23.015543
67.755 23.148293
67.760 22.891802
67.765 22.645164
67.770 22.805235
67.775 22.988029
67.780 23.65436
67.785 23.927607
67.790 23.614357
67.795 22.306444
67.800 21.749344
67.805 21.534485
67.810 21.405333
67.815 21.866257
67.820 22.169516
67.825 22.231598
67.830 23.151289
67.835 23.020096
67.840 22.482668
67.845 21.855034
67.850 21.430563
67.855 21.213461
67.860 21.207144
67.865 21.323631
67.870 21.967936
67.875 22.172215
67.880 21.951748
67.885 21.371582
67.890 21.601007
67.895 21.121502
67.900 20.84691
67.905 20.69746
67.910 20.962952
67.915 21.18331
67.920 21.285229
67.925 21.572033
67.930 22.739532
67.935 23.294872
67.940 23.472042
67.945 22.793142
67.950 22.634779
67.955 22.60438
67.960 22.172157
67.965 21.895838
67.970 21.147371
67.975 20.849728
67.980 21.718994
67.985 21.621193
67.990 22.137699
67.995 22.038643
68.000 21.520813
68.005 21.628269
68.010 21.887554
68.015 21.488182
68.020 21.782888
68.025 20.933704
68.030 20.963139
68.035 21.319679
68.040 21.924822
68.045 22.02091
68.050 22.324409
68.055 22.145754
68.060 22.604471
68.065 22.1569
68.070 22.099794
68.075 21.409718
68.080 21.442713
68.085 21.716131
68.090 21.896791
68.095 22.013012
68.100 22.299978
68.105 22.631767
68.110 22.96887
68.115 23.580429
68.120 23.459152
68.125 22.997063
68.130 22.987087
68.135 22.594118
68.140 22.105404
68.145 21.417765
68.150 20.186024
68.155 20.313974
68.160 20.705086
68.165 20.42009
68.170 20.928392
68.175 20.949017
68.180 21.551008
68.185 21.91004
68.190 21.412163
68.195 21.233433
68.200 21.29077
68.205 21.126446
68.210 20.934685
68.215 21.085407
68.220 21.409531
68.225 21.990561
68.230 22.018816
68.235 22.186182
68.240 22.021196
68.245 22.629248
68.250 22.444048
68.255 22.276348
68.260 22.03718
68.265 21.77807
68.270 21.792141
68.275 22.171244
68.280 21.608686
68.285 21.229864
68.290 21.313837
68.295 21.960815
68.300 21.925323
68.305 22.00617
68.310 21.946175
68.315 22.034763
68.320 22.489159
68.325 22.562439
68.330 22.122349
68.335 22.205803
68.340 22.202673
68.345 22.994505
68.350 23.0065
68.355 22.819685
68.360 22.749132
68.365 22.432833
68.370 22.506203
68.375 21.497992
68.380 20.485172
68.385 21.682716
68.390 21.48497
68.395 21.805149
68.400 21.846992
68.405 21.92931
68.410 23.184958
68.415 23.077795
68.420 22.201668
68.425 21.852005
68.430 21.387217
68.435 20.971371
68.440 21.054848
68.445 20.962141
68.450 21.353418
68.455 21.174038
68.460 20.292488
68.465 20.433222
68.470 20.655952
68.475 20.628677
68.480 20.473051
68.485 20.353336
68.490 21.166821
68.495 22.011696
68.500 22.096741
68.505 22.355145
68.510 22.058605
68.515 21.809322
68.520 21.625238
68.525 21.394514
68.530 21.310308
68.535 21.247446
68.540 21.140554
68.545 22.039976
68.550 21.816153
68.555 21.856335
68.560 22.311293
68.565 22.767282
68.570 23.144093
68.575 22.877426
68.580 22.2117
68.585 22.041828
68.590 21.802471
68.595 22.070061
68.600 21.881618
68.605 22.262602
68.610 22.78546
68.615 23.056963
68.620 23.902018
68.625 23.954731
68.630 23.908632
68.635 23.936268
68.640 23.62105
68.645 23.093777
68.650 22.903177
68.655 22.350899
68.660 22.656996
68.665 22.261377
68.670 22.364365
68.675 22.706545
68.680 23.4615
68.685 23.940907
68.690 24.35795
68.695 24.25182
68.700 24.09741
68.705 24.125074
68.710 24.244835
68.715 24.470924
68.720 24.267384
68.725 23.623466
68.730 23.437622
68.735 23.174702
68.740 22.759596
68.745 22.513075
68.750 21.995316
68.755 22.496183
68.760 22.709789
68.765 22.762466
68.770 22.906532
68.775 22.641199
68.780 21.873024
68.785 21.50947
68.790 20.924641
68.795 20.684784
68.800 20.268667
68.805 19.976297
68.810 20.354248
68.815 20.741632
68.820 20.85207
68.825 20.85671
68.830 21.582241
68.835 22.456244
68.840 22.273081
68.845 22.367094
68.850 21.903221
68.855 22.337358
68.860 22.620331
68.865 22.75985
68.870 23.140953
68.875 23.839937
68.880 23.918337
68.885 24.044367
68.890 23.704557
68.895 23.988918
68.900 23.891357
68.905 23.721716
68.910 23.02833
68.915 23.193933
68.920 23.059364
68.925 23.359676
68.930 23.182749
68.935 23.50065
68.940 23.479589
68.945 24.433392
68.950 24.324905
68.955 24.18845
68.960 24.611181
68.965 24.523531
68.970 24.99296
68.975 25.815931
68.980 25.742647
68.985 26.092993
68.990 26.659657
68.995 26.649122
69.000 27.118994
69.005 26.713125
69.010 26.235443
69.015 26.066494
69.020 25.931992
69.025 25.476631
69.030 25.460489
69.035 24.855171
69.040 25.426785
69.045 25.596529
69.050 25.383684
69.055 25.501762
69.060 26.057701
69.065 26.331339
69.070 27.101685
69.075 27.402643
69.080 26.946959
69.085 27.51367
69.090 27.824804
69.095 27.155462
69.100 26.95402
69.105 26.287758
69.110 25.406162
69.115 26.51614
69.120 26.486607
69.125 26.096489
69.130 26.319818
69.135 26.539248
69.140 26.007856
69.145 25.78694
69.150 25.682856
69.155 26.133495
69.160 26.294825
69.165 25.788811
69.170 25.845457
69.175 27.138437
69.180 28.329933
69.185 28.46664
69.190 27.828022
69.195 28.713236
69.200 29.031956
69.205 29.073757
69.210 28.600918
69.215 27.586992
69.220 27.326778
69.225 27.657652
69.230 27.267511
69.235 27.36215
69.240 26.919155
69.245 26.4174
69.250 26.625839
69.255 26.535498
69.260 25.916327
69.265 25.74338
69.270 25.913662
69.275 26.134756
69.280 26.218897
69.285 26.865479
69.290 27.738354
69.295 28.050047
69.300 28.181168
69.305 28.267685
69.310 29.007826
69.315 28.920959
69.320 28.795341
69.325 28.359522
69.330 28.018047
69.335 27.800598
69.340 27.257048
69.345 27.528378
69.350 27.302532
69.355 26.976528
69.360 27.302042
69.365 28.03124
69.370 27.998652
69.375 28.604343
69.380 28.316895
69.385 28.155884
69.390 29.070551
69.395 28.709059
69.400 29.242449
69.405 29.645124
69.410 29.823263
69.415 30.089739
69.420 30.437067
69.425 30.101677
69.430 30.775331
69.435 30.615416
69.440 30.738644
69.445 30.124994
69.450 30.101517
69.455 29.859217
69.460 29.237902
69.465 29.257998
69.470 29.544682
69.475 29.009663
69.480 29.602346
69.485 30.573366
69.490 30.970051
69.495 31.541031
69.500 31.183939
69.505 31.418299
69.510 31.915546
69.515 31.60644
69.520 31.124041
69.525 31.005087
69.530 30.612511
69.535 30.707102
69.540 31.136868
69.545 31.218803
69.550 31.365566
69.555 31.405907
69.560 31.206781
69.565 31.402079
69.570 31.565063
69.575 31.425831
69.580 31.180313
69.585 31.199936
69.590 31.286798
69.595 30.977688
69.600 30.433437
69.605 29.914688
69.610 29.614922
69.615 29.524607
69.620 29.568539
69.625 30.007362
69.630 30.158678
69.635 29.790188
69.640 29.48925
69.645 29.184639
69.650 29.346292
69.655 29.203596
69.660 28.575756
69.665 28.598
69.670 28.561304
69.675 28.494656
69.680 28.080366
69.685 28.243677
69.690 28.72637
69.695 28.928898
69.700 29.218189
69.705 29.68791
69.710 29.429394
69.715 29.12763
69.720 28.197491
69.725 27.326748
69.730 27.27038
69.735 27.779972
69.740 27.556664
69.745 27.959232
69.750 28.488094
69.755 28.402662
69.760 28.651785
69.765 28.277735
69.770 27.666691
69.775 27.608137
69.780 28.120098
69.785 28.802137
69.790 29.355267
69.795 28.696629
69.800 29.11043
69.805 29.504343
69.810 28.979259
69.815 28.863653
69.820 28.078741
69.825 27.454556
69.830 27.471972
69.835 26.142845
69.840 25.577904
69.845 26.105883
69.850 25.867146
69.855 26.289988
69.860 26.79438
69.865 26.92144
69.870 28.042936
69.875 28.432673
69.880 27.596708
69.885 26.912907
69.890 26.713602
69.895 26.224854
69.900 25.838762
69.905 25.103821
69.910 24.875212
69.915 24.98888
69.920 25.468731
69.925 25.436996
69.930 25.298597
69.935 25.710056
69.940 26.080486
69.945 26.006954
69.950 25.577663
69.955 24.98184
69.960 24.037296
69.965 23.58363
69.970 22.731186
69.975 21.752974
69.980 21.629519
69.985 21.835398
69.990 22.049669
69.995 22.631622
70.000 21.975595
70.005 22.196182
70.010 22.833773
70.015 22.542191
70.020 22.292568
70.025 21.936079
70.030 22.530169
70.035 23.731236
70.040 23.434948
70.045 22.688627
70.050 22.146612
70.055 22.033716
70.060 21.356621
70.065 20.21167
70.070 19.943144
70.075 20.541443
70.080 21.175594
70.085 21.729708
70.090 22.492222
70.095 22.95697
70.100 23.874027
70.105 23.682459
70.110 23.527344
70.115 23.890194
70.120 23.56846
70.125 23.357443
70.130 23.672474
70.135 23.011189
70.140 23.004469
70.145 23.043177
70.150 22.674833
70.155 22.604595
70.160 22.41641
70.165 21.878626
70.170 22.023207
70.175 21.929407
70.180 21.670071
70.185 21.730499
70.190 21.546606
70.195 21.43029
70.200 21.703964
70.205 21.54866
70.210 21.854324
70.215 21.845175
70.220 22.234764
70.225 21.585354
70.230 20.931471
70.235 20.934467
70.240 20.713657
70.245 20.093275
70.250 20.058298
70.255 20.54748
70.260 21.602083
70.265 21.67996
70.270 21.311508
70.275 21.572987
70.280 22.052916
70.285 21.784498
70.290 20.914623
70.295 20.722765
70.300 20.837938
70.305 20.495495
70.310 19.566195
70.315 19.595207
70.320 19.315289
70.325 19.335573
70.330 19.388666
70.335 19.449924
70.340 20.60388
70.345 21.00602
70.350 20.922352
70.355 21.549873
70.360 22.544722
70.365 22.619598
70.370 22.670294
70.375 22.6182
70.380 22.175549
70.385 21.865921
70.390 21.900349
70.395 20.744211
70.400 20.900341
70.405 21.125555
70.410 20.902782
70.415 21.236155
70.420 20.897673
70.425 20.82827
70.430 21.414774
70.435 21.160105
70.440 20.502619
70.445 20.934484
70.450 21.380148
70.455 22.035463
70.460 22.051203
70.465 22.294802
70.470 22.52984
70.475 22.8881
70.480 22.384092
70.485 22.247898
70.490 22.15933
70.495 21.868767
70.500 21.650871
70.505 21.235605
70.510 21.472534
70.515 21.604879
70.520 21.468225
70.525 20.971079
70.530 20.427401
70.535 20.601702
70.540 21.327974
70.545 21.486286
70.550 21.349138
70.555 21.260874
70.560 22.047651
70.565 22.393574
70.570 22.010569
70.575 21.065929
70.580 20.009527
70.585 20.311352
70.590 20.164537
70.595 20.492037
70.600 20.284719
70.605 19.766258
70.610 19.799641
70.615 20.359995
70.620 19.626318
70.625 19.619316
70.630 18.693403
70.635 18.909718
70.640 19.74761
70.645 19.354416
70.650 19.410814
70.655 19.81637
70.660 19.767036
70.665 19.985865
70.670 20.085218
70.675 19.329752
70.680 19.778845
70.685 19.889353
70.690 20.49478
70.695 20.846579
70.700 20.853806
70.705 20.662914
70.710 20.893167
70.715 20.621723
70.720 20.428268
70.725 20.213472
70.730 20.084879
70.735 20.378788
70.740 20.652136
70.745 20.418789
70.750 20.66791
70.755 20.767956
70.760 20.237759
70.765 19.81715
70.770 20.138927
70.775 20.427336
70.780 20.660343
70.785 19.929905
70.790 19.890327
70.795 20.415878
70.800 20.520037
70.805 19.863104
70.810 20.067097
70.815 20.41559
70.820 21.805269
70.825 22.0347
70.830 21.790695
70.835 21.793453
70.840 22.29248
70.845 22.467897
70.850 22.280014
70.855 21.506168
70.860 21.568729
70.865 21.822773
70.870 21.67211
70.875 21.080772
70.880 20.888161
70.885 20.70212
70.890 20.522566
70.895 19.553263
70.900 19.628561
70.905 19.994194
70.910 19.997896
70.915 19.77986
70.920 19.932911
70.925 19.812214
70.930 20.152037
70.935 19.950068
70.940 19.678658
70.945 19.945166
70.950 20.054026
70.955 19.877253
70.960 19.832804
70.965 19.839289
70.970 19.421412
70.975 19.121614
70.980 19.123549
70.985 19.072348
70.990 18.980137
70.995 19.051313
71.000 18.985126
71.005 18.944809
71.010 18.598669
71.015 18.195593
71.020 18.376524
71.025 18.300545
71.030 17.691343
71.035 18.006445
71.040 18.147102
71.045 19.125105
71.050 20.160654
71.055 20.186285
71.060 20.240456
71.065 20.520128
71.070 20.425442
71.075 20.088068
71.080 19.976217
71.085 18.982079
71.090 18.934694
71.095 18.779318
71.100 18.771929
71.105 18.792334
71.110 18.625488
71.115 18.182587
71.120 18.421419
71.125 18.67086
71.130 19.172762
71.135 19.000467
71.140 19.150888
71.145 19.132286
71.150 19.358063
71.155 19.106245
71.160 19.242249
71.165 19.557682
71.170 20.178692
71.175 20.521286
71.180 20.290102
71.185 19.842377
71.190 19.90991
71.195 19.009718
71.200 18.399446
71.205 18.163244
71.210 18.62241
71.215 19.091923
71.220 19.521849
71.225 19.363771
71.230 19.829268
71.235 19.589329
71.240 19.346189
71.245 19.28245
71.250 19.160568
71.255 19.083027
71.260 18.906578
71.265 19.031292
71.270 19.401451
71.275 19.442062
71.280 19.2341
71.285 18.835093
71.290 19.247185
71.295 19.097092
71.300 18.749792
71.305 18.873541
71.310 18.619549
71.315 18.570972
71.320 18.977942
71.325 18.827324
71.330 19.286663
71.335 19.371828
71.340 18.90625
71.345 18.753361
71.350 18.762119
71.355 18.845295
71.360 19.421244
71.365 19.237684
71.370 18.724331
71.375 19.134039
71.380 19.66481
71.385 19.777805
71.390 19.428448
71.395 19.377861
71.400 19.583807
71.405 19.613888
71.410 19.799372
71.415 19.296526
71.420 19.085478
71.425 19.180182
71.430 19.106134
71.435 19.281601
71.440 19.466909
71.445 19.33589
71.450 20.177546
71.455 20.280949
71.460 20.350384
71.465 20.488167
71.470 20.767565
71.475 20.685707
71.480 20.712267
71.485 20.493191
71.490 20.502733
71.495 20.186918
71.500 19.490183
71.505 19.054979
71.510 19.124313
71.515 18.704363
71.520 18.543329
71.525 19.131664
71.530 19.495296
71.535 20.246937
71.540 20.403446
71.545 19.947189
71.550 20.088341
71.555 19.850317
71.560 19.154139
71.565 19.050467
71.570 19.333174
71.575 19.328104
71.580 19.252012
71.585 19.791956
71.590 20.624098
71.595 20.826675
71.600 20.736425
71.605 19.760189
71.610 19.967726
71.615 19.606213
71.620 18.784435
71.625 18.008631
71.630 17.603867
71.635 17.440344
71.640 17.740509
71.645 17.632252
71.650 17.600752
71.655 17.338181
71.660 17.66387
71.665 18.098759
71.670 18.652332
71.675 19.261211
71.680 20.038239
71.685 20.500071
71.690 20.500057
71.695 20.386965
71.700 20.380987
71.705 19.902908
71.710 19.51738
71.715 19.56176
71.720 20.093624
71.725 19.673389
71.730 19.630791
71.735 19.314911
71.740 18.724434
71.745 18.581064
71.750 17.893318
71.755 17.847395
71.760 18.289986
71.765 18.041945
71.770 18.090199
71.775 18.871223
71.780 18.495848
71.785 18.32984
71.790 18.150475
71.795 18.167446
71.800 18.578911
71.805 18.780565
71.810 18.658752
71.815 19.382938
71.820 20.021135
71.825 20.159637
71.830 20.148149
71.835 20.234375
71.840 20.291031
71.845 19.977703
71.850 19.270031
71.855 18.726894
71.860 18.363848
71.865 18.067656
71.870 17.699226
71.875 17.912045
71.880 18.574057
71.885 18.913708
71.890 19.395212
71.895 19.744884
71.900 19.666548
71.905 19.522287
71.910 19.359968
71.915 18.858051
71.920 18.742645
71.925 18.431904
71.930 18.801115
71.935 19.430685
71.940 19.451769
71.945 19.333197
71.950 19.880527
71.955 19.586206
71.960 19.988346
71.965 20.168922
71.970 20.078844
71.975 19.271162
71.980 19.47364
71.985 19.68231
71.990 20.038113
71.995 19.666788
72.000 19.577875
72.005 19.996836
72.010 20.631691
72.015 20.307003
72.020 20.015968
72.025 20.425268
72.030 20.088352
72.035 19.806747
72.040 19.398939
72.045 19.117569
72.050 19.343975
72.055 19.129459
72.060 19.023699
72.065 19.589596
72.070 19.261995
72.075 19.513876
72.080 19.233381
72.085 19.218027
72.090 19.596411
72.095 19.648355
72.100 19.425472
72.105 19.712143
72.110 19.768829
72.115 19.820499
72.120 19.080309
72.125 18.731976
72.130 19.101719
72.135 19.738087
72.140 19.772947
72.145 19.66724
72.150 19.428976
72.155 19.552723
72.160 19.148796
72.165 18.681768
72.170 18.361752
72.175 18.268551
72.180 18.457245
72.185 18.808609
72.190 18.499535
72.195 18.824921
72.200 18.984774
72.205 19.49555
72.210 19.093849
72.215 19.127569
72.220 19.036482
72.225 18.601124
72.230 18.567478
72.235 17.487268
72.240 17.531826
72.245 18.313694
72.250 18.588421
72.255 18.893017
72.260 18.980783
72.265 19.061831
72.270 19.200998
72.275 19.260946
72.280 19.43553
72.285 20.273872
72.290 20.617558
72.295 20.601786
72.300 20.331457
72.305 20.397755
72.310 20.127687
72.315 18.798738
72.320 18.283548
72.325 18.661179
72.330 18.807163
72.335 19.210091
72.340 19.558531
72.345 19.727381
72.350 20.345612
72.355 19.931227
72.360 19.853094
72.365 19.692417
72.370 19.292139
72.375 19.029135
72.380 19.340025
72.385 19.58523
72.390 19.233477
72.395 18.468969
72.400 17.958826
72.405 17.91448
72.410 17.509363
72.415 17.056919
72.420 16.869957
72.425 17.073208
72.430 17.804556
72.435 18.265451
72.440 18.23118
72.445 18.840212
72.450 19.101862
72.455 19.057171
72.460 19.131117
72.465 19.157082
72.470 19.542072
72.475 19.52615
72.480 19.429466
72.485 19.029074
72.490 18.935146
72.495 19.26453
72.500 18.95627
72.505 19.199381
72.510 19.028198
72.515 18.869249
72.520 19.550886
72.525 19.190485
72.530 18.4004
72.535 18.364195
72.540 18.490589
72.545 18.413261
72.550 18.214449
72.555 18.388264
72.560 18.569439
72.565 18.962654
72.570 18.833359
72.575 18.774797
72.580 18.897278
72.585 18.64912
72.590 18.253222
72.595 18.180075
72.600 18.496716
72.605 18.219757
72.610 17.914082
72.615 17.690197
72.620 18.070642
72.625 18.194492
72.630 18.34
72.635 18.355417
72.640 18.268209
72.645 18.679804
72.650 18.823008
72.655 17.803196
72.660 17.460297
72.665 17.475647
72.670 17.107262
72.675 16.703409
72.680 16.124201
72.685 16.092888
72.690 17.367119
72.695 17.522928
72.700 17.724504
72.705 17.902576
72.710 17.888567
72.715 18.345015
72.720 17.906094
72.725 17.612617
72.730 17.569191
72.735 17.809528
72.740 18.340416
72.745 18.243834
72.750 18.427961
72.755 19.098228
72.760 19.219355
72.765 19.22543
72.770 18.5975
72.775 18.597898
72.780 19.154497
72.785 19.413363
72.790 19.175426
72.795 18.804024
72.800 19.289968
72.805 19.282099
72.810 18.917576
72.815 18.276129
72.820 17.733912
72.825 17.625015
72.830 18.172884
72.835 17.82218
72.840 17.729103
72.845 17.708424
72.850 18.238605
72.855 18.614277
72.860 18.655146
72.865 17.844772
72.870 18.646774
72.875 19.003973
72.880 19.11021
72.885 18.494265
72.890 18.023975
72.895 18.158897
72.900 18.369154
72.905 17.749031
72.910 18.489359
72.915 18.436867
72.920 18.431601
72.925 18.364895
72.930 17.60153
72.935 17.423447
72.940 16.813919
72.945 16.418819
72.950 16.169287
72.955 16.369331
72.960 16.324898
72.965 16.650293
72.970 16.830956
72.975 16.922598
72.980 16.591753
72.985 17.267532
72.990 17.293524
72.995 17.319704
73.000 17.407038
