!@!!GADDS PLOTSO FILE: Chi integration type
!@!!Title/SampleName: map-110
!@!!Comment: ?
!@!!User: Bruker Instrument Administrator
!@!!Site: University of Illinois Chicago
!@!!Frame: map-110_01_000.gfrm
!@!!Wavelengths    1.54184   1.54056   1.54439
!@!!Frame angles: 2Theta: 63.000 Omega: 50.000 Phi: 0.000 Chi: 90.000
!@!!Integration range: 2Theta: 53.000 to 73.000  Gamma: -105.000 to -75.000
!@!!Integration method: bin normalized
!@!N
!@!SS
!@!M
!@!L 0.0 0.0 0.0 0.0
!@!XDegrees
!@!YCounts
53.000 7.614722
53.005 7.594124
53.010 7.367694
53.015 7.082787
53.020 6.76572
53.025 6.544513
53.030 6.575867
53.035 6.884998
53.040 7.189029
53.045 7.571727
53.050 8.320932
53.055 8.817556
53.060 8.76497
53.065 8.242135
53.070 8.033473
53.075 8.181999
53.080 8.036741
53.085 7.530306
53.090 7.265075
53.095 7.366956
53.100 7.465939
53.105 7.447504
53.110 7.096254
53.115 7.119021
53.120 7.213756
53.125 7.386425
53.130 7.416802
53.135 7.276208
53.140 7.333417
53.145 7.656861
53.150 7.9917
53.155 8.375896
53.160 8.336155
53.165 8.780151
53.170 8.774918
53.175 8.325395
53.180 7.948272
53.185 7.702071
53.190 7.677727
53.195 7.980841
53.200 7.839879
53.205 8.192022
53.210 8.354959
53.215 8.312503
53.220 8.178696
53.225 7.990455
53.230 8.144957
53.235 7.605394
53.240 7.502677
53.245 7.555356
53.250 7.559041
53.255 7.782882
53.260 7.560012
53.265 7.518961
53.270 8.008936
53.275 8.491458
53.280 8.549345
53.285 8.33805
53.290 7.964314
53.295 7.84851
53.300 7.711754
53.305 7.801934
53.310 7.961854
53.315 8.300239
53.320 8.627089
53.325 9.02465
53.330 9.328463
53.335 9.206063
53.340 8.946802
53.345 8.613242
53.350 9.16415
53.355 9.434002
53.360 9.110295
53.365 9.062626
53.370 9.745219
53.375 9.488906
53.380 9.518124
53.385 9.119268
53.390 9.36917
53.395 10.092826
53.400 10.242821
53.405 9.964936
53.410 9.797114
53.415 9.565007
53.420 9.304611
53.425 8.974525
53.430 8.553475
53.435 8.025305
53.440 8.277611
53.445 8.425739
53.450 8.18912
53.455 8.243781
53.460 8.069059
53.465 8.287643
53.470 7.941131
53.475 8.0797
53.480 8.42637
53.485 8.751311
53.490 8.584301
53.495 8.624743
53.500 8.803235
53.505 9.037578
53.510 8.781492
53.515 8.667692
53.520 8.526498
53.525 8.772084
53.530 8.548047
53.535 8.455227
53.540 8.431728
53.545 8.18551
53.550 7.991962
53.555 8.172767
53.560 8.090321
53.565 8.33868
53.570 8.380279
53.575 8.999637
53.580 9.226612
53.585 9.201159
53.590 9.507932
53.595 9.34641
53.600 9.186829
53.605 9.223763
53.610 8.719879
53.615 8.699944
53.620 8.149742
53.625 7.995155
53.630 7.900532
53.635 7.572911
53.640 7.192191
53.645 7.398699
53.650 7.630302
53.655 7.828636
53.660 7.629382
53.665 8.011961
53.670 8.754354
53.675 9.006234
53.680 8.646751
53.685 8.591528
53.690 8.793186
53.695 9.016297
53.700 8.717078
53.705 8.393611
53.710 8.574152
53.715 8.788404
53.720 9.139112
53.725 9.243606
53.730 9.03829
53.735 8.871643
53.740 9.376116
53.745 8.989655
53.750 9.220472
53.755 8.732479
53.760 8.350876
53.765 8.55436
53.770 8.306574
53.775 8.050989
53.780 8.349025
53.785 8.350435
53.790 8.988346
53.795 9.159396
53.800 9.064676
53.805 9.037328
53.810 8.921678
53.815 8.789109
53.820 8.274828
53.825 7.902967
53.830 7.912122
53.835 8.456968
53.840 8.725336
53.845 8.92947
53.850 8.977309
53.855 8.942025
53.860 9.076832
53.865 8.826801
53.870 8.45949
53.875 8.539226
53.880 8.271339
53.885 8.181558
53.890 8.484942
53.895 8.610744
53.900 8.931441
53.905 8.783884
53.910 8.796642
53.915 9.23755
53.920 9.597752
53.925 9.864037
53.930 10.457749
53.935 10.198995
53.940 10.217009
53.945 9.959176
53.950 9.681462
53.955 9.508839
53.960 8.759124
53.965 8.307961
53.970 8.719484
53.975 8.814519
53.980 8.835374
53.985 8.679511
53.990 8.850327
53.995 8.523223
54.000 8.318542
54.005 7.943625
54.010 8.020644
54.015 8.11841
54.020 8.384654
54.025 8.662938
54.030 8.701348
54.035 8.697682
54.040 8.680927
54.045 8.566325
54.050 8.30934
54.055 8.147193
54.060 8.440262
54.065 9.001725
54.070 9.140862
54.075 9.291083
54.080 9.627019
54.085 9.904428
54.090 9.51599
54.095 9.335474
54.100 9.258692
54.105 9.244743
54.110 9.347302
54.115 9.304137
54.120 9.574344
54.125 9.552869
54.130 9.674866
54.135 9.983073
54.140 9.580564
54.145 9.266924
54.150 8.963062
54.155 8.819292
54.160 8.964863
54.165 8.606654
54.170 8.239382
54.175 8.109498
54.180 8.251107
54.185 8.349578
54.190 8.392817
54.195 8.404524
54.200 8.714057
54.205 9.134423
54.210 9.57822
54.215 9.295374
54.220 9.35677
54.225 10.022779
54.230 10.011292
54.235 9.733345
54.240 9.368008
54.245 9.514797
54.250 9.717265
54.255 9.538489
54.260 9.0322
54.265 9.068164
54.270 9.665637
54.275 10.252672
54.280 10.097234
54.285 10.09083
54.290 9.881817
54.295 9.884822
54.300 9.573622
54.305 8.652936
54.310 8.212519
54.315 7.925729
54.320 7.696252
54.325 7.741555
54.330 7.902055
54.335 8.457327
54.340 9.104546
54.345 9.668017
54.350 9.94729
54.355 9.915244
54.360 10.02473
54.365 9.643357
54.370 9.18857
54.375 8.987417
54.380 8.537369
54.385 8.854909
54.390 9.53576
54.395 9.416687
54.400 9.822923
54.405 9.945374
54.410 9.928159
54.415 9.70657
54.420 9.157636
54.425 8.970664
54.430 8.921229
54.435 8.924407
54.440 9.296025
54.445 10.02817
54.450 10.649778
54.455 10.98025
54.460 10.99862
54.465 11.213713
54.470 10.83218
54.475 9.940105
54.480 9.349622
54.485 9.17103
54.490 9.091614
54.495 9.039876
54.500 8.513265
54.505 8.789104
54.510 8.9967
54.515 9.043722
54.520 9.23294
54.525 9.2699
54.530 9.130548
54.535 9.471069
54.540 9.41132
54.545 9.386506
54.550 9.254835
54.555 9.085136
54.560 8.961408
54.565 9.151879
54.570 9.063623
54.575 8.648157
54.580 8.403722
54.585 8.114432
54.590 7.833607
54.595 7.712735
54.600 7.694576
54.605 7.867059
54.610 8.677721
54.615 9.124817
54.620 9.512056
54.625 9.941294
54.630 10.021214
54.635 9.983232
54.640 9.990838
54.645 9.886711
54.650 9.660224
54.655 9.336377
54.660 9.084252
54.665 9.079871
54.670 8.748004
54.675 8.786453
54.680 8.986367
54.685 9.393904
54.690 9.414824
54.695 9.203081
54.700 9.284225
54.705 9.293032
54.710 9.29214
54.715 8.764222
54.720 8.544491
54.725 8.619475
54.730 8.833792
54.735 9.038872
54.740 9.426904
54.745 9.366657
54.750 8.973638
54.755 8.942889
54.760 9.076259
54.765 9.324227
54.770 9.463151
54.775 9.167311
54.780 9.173278
54.785 9.689066
54.790 9.781819
54.795 9.472439
54.800 9.00592
54.805 8.371037
54.810 8.174162
54.815 8.172201
54.820 8.371079
54.825 8.689134
54.830 9.161507
54.835 9.397525
54.840 10.092686
54.845 10.205755
54.850 10.087771
54.855 9.526845
54.860 9.376379
54.865 9.161316
54.870 9.264691
54.875 9.387167
54.880 9.942296
54.885 10.431767
54.890 10.799125
54.895 10.590937
54.900 10.027857
54.905 10.092054
54.910 9.644134
54.915 9.336811
54.920 8.914217
54.925 9.109484
54.930 9.444864
54.935 9.893995
54.940 9.683209
54.945 9.865245
54.950 10.005878
54.955 9.683667
54.960 8.968471
54.965 9.136978
54.970 9.129991
54.975 8.661487
54.980 8.204751
54.985 7.871899
54.990 7.993735
54.995 8.679729
55.000 8.475807
55.005 8.734528
55.010 9.133974
55.015 9.393531
55.020 9.671165
55.025 9.462884
55.030 8.921305
55.035 8.881588
55.040 8.607791
55.045 8.564988
55.050 8.942492
55.055 9.210108
55.060 9.496714
55.065 9.443749
55.070 9.325227
55.075 9.400341
55.080 9.144454
55.085 8.832865
55.090 8.47175
55.095 8.863126
55.100 9.203724
55.105 9.127627
55.110 9.486141
55.115 9.572366
55.120 9.320796
55.125 8.949266
55.130 8.595418
55.135 8.656024
55.140 9.070844
55.145 8.988732
55.150 8.807285
55.155 9.037251
55.160 9.286053
55.165 9.049709
55.170 9.034019
55.175 8.483192
55.180 8.436674
55.185 8.996922
55.190 9.917748
55.195 10.197996
55.200 10.477048
55.205 10.416357
55.210 10.857166
55.215 11.252048
55.220 10.930482
55.225 10.204196
55.230 10.111265
55.235 10.244953
55.240 10.421201
55.245 10.281008
55.250 10.001056
55.255 10.007635
55.260 9.635645
55.265 9.909913
55.270 9.895257
55.275 9.794156
55.280 9.66807
55.285 9.973551
55.290 10.050189
55.295 10.283908
55.300 10.007821
55.305 10.053778
55.310 9.94823
55.315 9.774825
55.320 9.905487
55.325 10.354329
55.330 10.054906
55.335 9.525214
55.340 9.31129
55.345 9.657621
55.350 9.934218
55.355 9.47335
55.360 9.411036
55.365 9.847056
55.370 10.261564
55.375 10.282402
55.380 9.993609
55.385 9.852474
55.390 9.710788
55.395 9.542806
55.400 9.201089
55.405 9.041351
55.410 9.119853
55.415 9.368643
55.420 9.60039
55.425 9.402133
55.430 9.202219
55.435 9.511857
55.440 9.702038
55.445 9.226469
55.450 8.890574
55.455 8.968394
55.460 9.191655
55.465 9.433564
55.470 9.578209
55.475 9.812757
55.480 10.388936
55.485 10.441609
55.490 10.140822
55.495 10.173401
55.500 10.263485
55.505 10.115526
55.510 9.722949
55.515 9.856085
55.520 9.558908
55.525 9.61913
55.530 9.881176
55.535 9.872487
55.540 9.984844
55.545 9.781259
55.550 10.083837
55.555 10.468917
55.560 10.198447
55.565 9.960756
55.570 10.209906
55.575 9.975989
55.580 9.86731
55.585 9.405412
55.590 9.566888
55.595 9.768768
55.600 9.819535
55.605 9.738019
55.610 10.454265
55.615 10.842583
55.620 11.400831
55.625 11.320553
55.630 11.478733
55.635 11.52751
55.640 11.414073
55.645 11.40608
55.650 11.158712
55.655 10.989415
55.660 10.637897
55.665 10.520987
55.670 10.39665
55.675 10.109995
55.680 9.898266
55.685 9.884813
55.690 9.386893
55.695 9.440777
55.700 9.893619
55.705 10.306591
55.710 10.349266
55.715 10.64586
55.720 10.87813
55.725 11.875486
55.730 11.902689
55.735 11.030791
55.740 10.265882
55.745 10.242051
55.750 10.208349
55.755 9.679039
55.760 8.596064
55.765 8.239043
55.770 8.621412
55.775 8.96879
55.780 8.857885
55.785 8.439476
55.790 8.581771
55.795 8.859614
55.800 9.138304
55.805 9.542089
55.810 9.738752
55.815 10.371333
55.820 10.661171
55.825 10.893099
55.830 11.257544
55.835 11.136567
55.840 10.276579
55.845 10.493127
55.850 10.28443
55.855 10.230204
55.860 10.313692
55.865 9.9374
55.870 10.130527
55.875 10.162517
55.880 9.655373
55.885 9.418499
55.890 9.752831
55.895 10.222571
55.900 10.157544
55.905 10.48338
55.910 11.149893
55.915 10.833597
55.920 10.577028
55.925 9.856014
55.930 9.855496
55.935 10.410813
55.940 9.993156
55.945 9.993972
55.950 10.203108
55.955 11.010403
55.960 11.541862
55.965 11.708858
55.970 11.769338
55.975 11.660893
55.980 11.492784
55.985 11.563653
55.990 10.916391
55.995 10.175558
56.000 9.525022
56.005 9.218114
56.010 9.950292
56.015 9.775539
56.020 9.631301
56.025 10.146697
56.030 10.058315
56.035 10.445124
56.040 10.411924
56.045 10.104428
56.050 10.3289
56.055 10.593174
56.060 10.305754
56.065 10.644094
56.070 10.502026
56.075 10.634971
56.080 10.884338
56.085 10.985291
56.090 10.757921
56.095 11.192245
56.100 11.149706
56.105 11.077142
56.110 10.739842
56.115 10.184947
56.120 10.108301
56.125 9.930121
56.130 9.623816
56.135 9.709059
56.140 9.513469
56.145 9.845132
56.150 9.914989
56.155 10.137835
56.160 10.034827
56.165 9.922269
56.170 10.144988
56.175 10.299765
56.180 10.048898
56.185 10.119522
56.190 9.964422
56.195 9.910136
56.200 10.11475
56.205 10.076374
56.210 9.986609
56.215 10.451322
56.220 10.441835
56.225 10.292223
56.230 10.298334
56.235 10.282596
56.240 10.258717
56.245 10.434121
56.250 10.449189
56.255 10.701463
56.260 10.842599
56.265 11.029659
56.270 11.372145
56.275 11.562472
56.280 11.257701
56.285 10.88999
56.290 10.868393
56.295 11.119032
56.300 10.836587
56.305 10.74154
56.310 10.720091
56.315 10.587612
56.320 10.5035
56.325 10.627555
56.330 10.89069
56.335 10.878965
56.340 10.498832
56.345 10.265599
56.350 10.485729
56.355 10.244365
56.360 10.017079
56.365 9.946902
56.370 9.390032
56.375 9.485063
56.380 9.935267
56.385 10.507797
56.390 10.947445
56.395 11.028432
56.400 11.188518
56.405 11.86771
56.410 12.256866
56.415 12.186078
56.420 11.832558
56.425 11.782085
56.430 11.898434
56.435 11.766447
56.440 11.328368
56.445 10.881964
56.450 10.421309
56.455 10.252334
56.460 10.200773
56.465 9.922181
56.470 10.003169
56.475 10.145982
56.480 10.10375
56.485 10.18342
56.490 11.033115
56.495 10.827859
56.500 11.038834
56.505 11.090569
56.510 11.344829
56.515 11.524247
56.520 11.408906
56.525 10.766271
56.530 10.243326
56.535 10.424587
56.540 10.891785
56.545 10.83478
56.550 11.029543
56.555 10.973779
56.560 11.367134
56.565 11.935166
56.570 11.15255
56.575 10.561889
56.580 10.140572
56.585 10.144873
56.590 10.201634
56.595 10.009022
56.600 9.793987
56.605 9.789583
56.610 10.056588
56.615 9.776698
56.620 9.850792
56.625 10.272446
56.630 10.43012
56.635 11.019659
56.640 11.130914
56.645 11.087349
56.650 11.718669
56.655 11.905436
56.660 11.671633
56.665 11.644743
56.670 11.600329
56.675 12.019137
56.680 12.162898
56.685 12.11013
56.690 11.711055
56.695 11.710427
56.700 11.202784
56.705 11.228094
56.710 11.420103
56.715 11.177096
56.720 11.0318
56.725 11.492039
56.730 11.926678
56.735 12.232474
56.740 11.531711
56.745 10.696898
56.750 11.065455
56.755 11.300509
56.760 11.181849
56.765 10.655982
56.770 10.978273
56.775 11.465873
56.780 11.63034
56.785 10.91154
56.790 10.292214
56.795 10.314346
56.800 10.716033
56.805 10.488032
56.810 10.344683
56.815 10.823771
56.820 11.327324
56.825 11.67207
56.830 11.77805
56.835 11.782059
56.840 11.516618
56.845 11.250327
56.850 11.074248
56.855 11.098883
56.860 10.856067
56.865 10.28572
56.870 10.444251
56.875 11.37508
56.880 11.795839
56.885 11.412402
56.890 11.023151
56.895 10.913305
56.900 10.861498
56.905 10.763952
56.910 9.930579
56.915 10.100986
56.920 10.61908
56.925 11.447237
56.930 11.421307
56.935 11.214671
56.940 10.918648
56.945 11.164673
56.950 10.612564
56.955 10.512242
56.960 10.170364
56.965 10.56272
56.970 11.119022
56.975 11.530908
56.980 11.350504
56.985 11.612769
56.990 11.641787
56.995 11.730312
57.000 11.336234
57.005 11.077479
57.010 10.611067
57.015 11.067722
57.020 11.157517
57.025 11.31431
57.030 10.866154
57.035 10.684513
57.040 10.538903
57.045 10.477384
57.050 10.655016
57.055 10.825282
57.060 10.722903
57.065 11.078708
57.070 11.668496
57.075 12.340049
57.080 13.042764
57.085 12.725568
57.090 12.282877
57.095 12.280831
57.100 12.41744
57.105 12.198905
57.110 11.569815
57.115 10.644526
57.120 10.404364
57.125 10.458176
57.130 10.479308
57.135 10.548463
57.140 10.586613
57.145 11.133426
57.150 11.348262
57.155 11.39558
57.160 11.76986
57.165 11.876395
57.170 11.569173
57.175 11.739431
57.180 11.639962
57.185 11.693281
57.190 11.561421
57.195 11.202613
57.200 11.289021
57.205 11.503626
57.210 11.332846
57.215 10.97522
57.220 11.141397
57.225 11.663481
57.230 11.790434
57.235 11.592199
57.240 11.05966
57.245 10.693113
57.250 10.850438
57.255 10.746475
57.260 10.371109
57.265 10.391864
57.270 10.565428
57.275 11.128775
57.280 11.19084
57.285 10.852854
57.290 10.772277
57.295 10.492705
57.300 10.940992
57.305 10.989965
57.310 10.543753
57.315 10.642393
57.320 10.903329
57.325 11.218939
57.330 11.320497
57.335 10.789863
57.340 11.019637
57.345 11.420416
57.350 11.658199
57.355 11.794747
57.360 11.50941
57.365 11.721849
57.370 11.888532
57.375 11.531105
57.380 11.403845
57.385 10.985535
57.390 11.087059
57.395 11.073992
57.400 10.832227
57.405 11.021567
57.410 11.07952
57.415 11.196529
57.420 11.483079
57.425 11.333952
57.430 11.452728
57.435 11.275879
57.440 11.107537
57.445 11.318417
57.450 11.836895
57.455 11.76246
57.460 11.913527
57.465 12.164896
57.470 12.25068
57.475 12.190487
57.480 12.120001
57.485 12.206141
57.490 12.253279
57.495 12.034229
57.500 12.536596
57.505 12.497263
57.510 12.162943
57.515 11.918268
57.520 11.629285
57.525 12.475728
57.530 12.311978
57.535 11.749388
57.540 12.266096
57.545 12.287161
57.550 12.122259
57.555 11.671637
57.560 11.138201
57.565 11.138165
57.570 11.679482
57.575 11.692255
57.580 11.824653
57.585 12.157582
57.590 12.450999
57.595 12.786529
57.600 13.22611
57.605 13.015489
57.610 12.584355
57.615 12.673425
57.620 12.143929
57.625 11.471898
57.630 10.928326
57.635 10.313761
57.640 10.02571
57.645 10.234513
57.650 10.471951
57.655 11.073142
57.660 11.669301
57.665 12.106393
57.670 11.989731
57.675 12.030993
57.680 11.843472
57.685 11.818161
57.690 11.885758
57.695 12.026666
57.700 11.95031
57.705 12.31817
57.710 12.96788
57.715 13.290895
57.720 13.370224
57.725 13.405464
57.730 13.065844
57.735 13.058535
57.740 12.572364
57.745 12.125583
57.750 12.078404
57.755 12.06056
57.760 12.088267
57.765 12.039678
57.770 12.071671
57.775 12.261237
57.780 11.787979
57.785 11.453636
57.790 11.214212
57.795 10.883921
57.800 10.58907
57.805 10.623438
57.810 11.175776
57.815 11.65875
57.820 12.027878
57.825 12.08405
57.830 12.234446
57.835 12.073607
57.840 11.639719
57.845 11.165734
57.850 10.944793
57.855 10.61913
57.860 10.542726
57.865 10.627081
57.870 10.812248
57.875 10.715564
57.880 10.729092
57.885 10.766677
57.890 10.615157
57.895 11.113304
57.900 11.377036
57.905 11.897996
57.910 12.047155
57.915 11.889616
57.920 11.837686
57.925 11.636279
57.930 11.487926
57.935 11.270654
57.940 10.716312
57.945 10.918546
57.950 11.545774
57.955 11.745142
57.960 11.996056
57.965 11.825919
57.970 11.388067
57.975 11.509624
57.980 11.299833
57.985 11.518967
57.990 11.479619
57.995 11.509907
58.000 11.890722
58.005 12.013641
58.010 12.774048
58.015 12.814651
58.020 12.364287
58.025 12.834373
58.030 12.77033
58.035 12.77349
58.040 12.998028
58.045 12.97055
58.050 13.008893
58.055 12.996493
58.060 13.066974
58.065 12.630927
58.070 12.7772
58.075 12.730317
58.080 12.767146
58.085 12.81263
58.090 12.900949
58.095 12.784482
58.100 12.796271
58.105 12.824142
58.110 12.823379
58.115 12.530623
58.120 12.753429
58.125 12.777613
58.130 13.091388
58.135 12.891798
58.140 12.22488
58.145 12.161242
58.150 11.297476
58.155 10.887319
58.160 11.028231
58.165 10.935413
58.170 11.271924
58.175 11.821428
58.180 12.004914
58.185 12.497547
58.190 12.84488
58.195 12.73419
58.200 13.064586
58.205 13.405489
58.210 13.259402
58.215 13.32842
58.220 13.524778
58.225 12.637246
58.230 11.999448
58.235 11.522073
58.240 11.225422
58.245 11.201944
58.250 11.102939
58.255 11.375801
58.260 11.950141
58.265 12.114205
58.270 12.035166
58.275 12.102847
58.280 12.428467
58.285 12.46565
58.290 12.160245
58.295 12.055546
58.300 12.144634
58.305 12.63905
58.310 13.185612
58.315 13.225451
58.320 13.218506
58.325 13.405766
58.330 13.262342
58.335 13.4236
58.340 13.525549
58.345 12.832405
58.350 12.672635
58.355 13.009435
58.360 13.533749
58.365 13.867981
58.370 14.182223
58.375 14.159456
58.380 14.432758
58.385 14.437272
58.390 14.459211
58.395 14.166885
58.400 14.296403
58.405 13.650138
58.410 13.696769
58.415 13.805135
58.420 13.50716
58.425 13.548622
58.430 13.351286
58.435 12.955079
58.440 12.696866
58.445 12.323864
58.450 12.219788
58.455 12.432881
58.460 11.913693
58.465 11.424043
58.470 11.78447
58.475 12.502024
58.480 12.929385
58.485 13.212931
58.490 13.987078
58.495 14.850103
58.500 15.5208
58.505 15.665108
58.510 15.245128
58.515 15.118359
58.520 14.980386
58.525 14.09412
58.530 13.434303
58.535 12.983838
58.540 13.009634
58.545 13.366014
58.550 13.23455
58.555 13.166274
58.560 13.673584
58.565 14.100469
58.570 14.507234
58.575 14.255115
58.580 14.311605
58.585 13.977055
58.590 13.943163
58.595 13.796445
58.600 14.074082
58.605 14.059415
58.610 14.154256
58.615 14.39069
58.620 14.69918
58.625 14.773151
58.630 14.914556
58.635 14.884262
58.640 15.16368
58.645 15.049955
58.650 14.391531
58.655 14.124164
58.660 14.283789
58.665 14.040692
58.670 13.973503
58.675 13.958729
58.680 14.275867
58.685 14.700851
58.690 14.699965
58.695 14.57137
58.700 14.649679
58.705 14.263367
58.710 13.927588
58.715 13.945408
58.720 13.598405
58.725 13.615512
58.730 13.292109
58.735 12.993087
58.740 12.930227
58.745 12.76957
58.750 12.644168
58.755 12.884507
58.760 12.784959
58.765 12.468752
58.770 12.826262
58.775 13.226139
58.780 13.559878
58.785 13.255191
58.790 13.073054
58.795 13.52449
58.800 14.346351
58.805 14.435614
58.810 14.506973
58.815 14.184295
58.820 14.226231
58.825 14.768176
58.830 14.50585
58.835 14.138836
58.840 13.222579
58.845 13.239448
58.850 13.853372
58.855 14.09961
58.860 13.873017
58.865 14.000147
58.870 13.800571
58.875 14.299985
58.880 14.276139
58.885 14.290217
58.890 14.163601
58.895 13.871973
58.900 14.08624
58.905 14.360327
58.910 14.482661
58.915 14.201513
58.920 14.127785
58.925 14.10505
58.930 13.932519
58.935 13.480132
58.940 13.263843
58.945 13.418928
58.950 13.440123
58.955 13.311563
58.960 13.257546
58.965 13.507481
58.970 13.371052
58.975 13.510752
58.980 13.802396
58.985 13.767973
58.990 13.745376
58.995 13.984686
59.000 14.203365
59.005 14.280472
59.010 14.438396
59.015 13.71955
59.020 13.570154
59.025 13.774189
59.030 13.587995
59.035 14.085013
59.040 14.394801
59.045 14.076095
59.050 14.303624
59.055 14.073607
59.060 13.601207
59.065 13.372795
59.070 12.597084
59.075 12.41508
59.080 12.709324
59.085 12.375443
59.090 12.278767
59.095 12.3206
59.100 12.422963
59.105 12.573586
59.110 12.608624
59.115 12.658711
59.120 13.020776
59.125 13.642417
59.130 13.890965
59.135 13.991291
59.140 13.598245
59.145 12.850339
59.150 12.803121
59.155 13.087907
59.160 13.480419
59.165 13.964014
59.170 14.396874
59.175 14.544621
59.180 14.897816
59.185 14.906325
59.190 14.680158
59.195 13.917319
59.200 13.33217
59.205 13.125459
59.210 13.550086
59.215 13.494369
59.220 13.242652
59.225 13.2313
59.230 13.343053
59.235 13.288014
59.240 13.468328
59.245 13.726952
59.250 13.841783
59.255 13.811979
59.260 13.796443
59.265 14.232334
59.270 14.076821
59.275 13.862259
59.280 13.692838
59.285 13.353935
59.290 13.937987
59.295 14.134183
59.300 13.748821
59.305 13.916189
59.310 14.438815
59.315 14.479375
59.320 14.681197
59.325 14.739509
59.330 15.228086
59.335 15.709434
59.340 15.489081
59.345 15.179123
59.350 15.177605
59.355 14.873948
59.360 14.567699
59.365 13.513969
59.370 13.220234
59.375 13.215491
59.380 12.794866
59.385 12.995317
59.390 13.391003
59.395 13.886382
59.400 14.371615
59.405 14.46881
59.410 14.329275
59.415 14.732216
59.420 14.73825
59.425 14.735554
59.430 14.041776
59.435 13.678546
59.440 14.403616
59.445 14.965543
59.450 14.612157
59.455 14.525813
59.460 15.118739
59.465 15.324987
59.470 15.638455
59.475 14.920052
59.480 14.657228
59.485 14.775696
59.490 14.358498
59.495 13.729928
59.500 13.961966
59.505 13.87396
59.510 13.842717
59.515 13.81766
59.520 13.759942
59.525 14.233995
59.530 13.820274
59.535 13.39559
59.540 13.383059
59.545 13.381399
59.550 13.25003
59.555 13.273871
59.560 13.261304
59.565 13.870728
59.570 14.104329
59.575 13.647135
59.580 13.587242
59.585 13.74828
59.590 13.794529
59.595 13.771078
59.600 13.680181
59.605 13.968303
59.610 14.445195
59.615 14.630034
59.620 14.248252
59.625 14.257151
59.630 14.813603
59.635 15.375895
59.640 15.25588
59.645 15.174203
59.650 15.31131
59.655 15.43517
59.660 15.14029
59.665 14.504582
59.670 13.641087
59.675 13.766755
59.680 14.042216
59.685 13.800882
59.690 13.975415
59.695 14.025751
59.700 14.773042
59.705 15.356715
59.710 15.352038
59.715 15.411329
59.720 15.797031
59.725 15.931088
59.730 16.065052
59.735 15.612604
59.740 15.681478
59.745 15.591509
59.750 16.006577
59.755 16.452433
59.760 16.943237
59.765 17.258163
59.770 17.013578
59.775 16.715706
59.780 16.695152
59.785 16.285549
59.790 15.805738
59.795 15.297176
59.800 15.232319
59.805 15.34555
59.810 15.463908
59.815 15.693916
59.820 15.227525
59.825 15.495315
59.830 15.883974
59.835 15.518259
59.840 15.262146
59.845 15.579485
59.850 15.688354
59.855 15.631686
59.860 15.406168
59.865 15.227806
59.870 15.64728
59.875 16.159954
59.880 15.814847
59.885 15.767143
59.890 15.79611
59.895 15.567484
59.900 15.750761
59.905 15.84135
59.910 15.592293
59.915 15.886024
59.920 15.954106
59.925 16.347717
59.930 16.831743
59.935 16.467449
59.940 15.698562
59.945 16.061043
59.950 16.520136
59.955 16.742895
59.960 16.64641
59.965 16.172354
59.970 16.26086
59.975 16.462648
59.980 15.770067
59.985 15.176218
59.990 14.796957
59.995 14.92767
60.000 15.121164
60.005 15.463667
60.010 15.945109
60.015 16.83972
60.020 16.600403
60.025 16.843143
60.030 16.94581
60.035 17.13048
60.040 17.540047
60.045 17.560911
60.050 16.826786
60.055 17.065554
60.060 16.734497
60.065 16.709393
60.070 16.732304
60.075 16.635122
60.080 16.486513
60.085 16.395334
60.090 16.486012
60.095 16.761595
60.100 16.423553
60.105 16.131895
60.110 15.421267
60.115 14.755275
60.120 14.660059
60.125 14.537251
60.130 14.242793
60.135 13.950253
60.140 13.573961
60.145 13.726221
60.150 14.178337
60.155 14.364462
60.160 14.328604
60.165 14.438302
60.170 15.04606
60.175 15.056579
60.180 14.796782
60.185 14.705305
60.190 14.711682
60.195 14.853344
60.200 14.860134
60.205 14.51072
60.210 14.59444
60.215 15.292877
60.220 14.79493
60.225 14.622329
60.230 14.749712
60.235 14.947091
60.240 14.950316
60.245 15.158618
60.250 14.863971
60.255 15.837965
60.260 15.981279
60.265 15.747667
60.270 16.280071
60.275 17.004251
60.280 17.563423
60.285 17.966734
60.290 17.76606
60.295 17.147251
60.300 17.031038
60.305 16.38892
60.310 15.639093
60.315 14.731039
60.320 14.464623
60.325 14.895336
60.330 15.574387
60.335 15.427631
60.340 15.053849
60.345 15.325989
60.350 15.609586
60.355 15.468738
60.360 15.145118
60.365 14.883341
60.370 15.035843
60.375 14.969949
60.380 14.726514
60.385 14.783806
60.390 15.401157
60.395 16.173502
60.400 16.368282
60.405 16.380274
60.410 16.474972
60.415 15.900556
60.420 15.196763
60.425 14.212793
60.430 13.524823
60.435 14.024167
60.440 13.905826
60.445 14.342522
60.450 14.681038
60.455 15.066226
60.460 15.318342
60.465 15.286189
60.470 14.52922
60.475 14.472014
60.480 14.230549
60.485 14.775752
60.490 14.601269
60.495 14.927118
60.500 14.882098
60.505 15.329375
60.510 15.94709
60.515 15.89639
60.520 15.585267
60.525 15.917023
60.530 15.308598
60.535 15.04015
60.540 14.57805
60.545 14.373783
60.550 14.876872
60.555 14.988503
60.560 14.955359
60.565 15.334378
60.570 15.635979
60.575 15.916139
60.580 15.334184
60.585 14.956244
60.590 14.724678
60.595 14.648462
60.600 14.214649
60.605 13.894587
60.610 13.549736
60.615 13.435831
60.620 13.689388
60.625 13.879909
60.630 13.817642
60.635 13.967693
60.640 14.121505
60.645 14.236171
60.650 14.534822
60.655 14.150376
60.660 13.896899
60.665 13.922201
60.670 14.133234
60.675 14.270968
60.680 15.151868
60.685 15.066785
60.690 15.341459
60.695 15.7483
60.700 15.562091
60.705 15.599414
60.710 15.929441
60.715 15.326758
60.720 15.343461
60.725 14.799838
60.730 14.65816
60.735 14.958891
60.740 14.965927
60.745 14.278598
60.750 13.985411
60.755 14.561289
60.760 14.825192
60.765 14.661215
60.770 14.482667
60.775 14.011651
60.780 14.350101
60.785 14.26813
60.790 13.55732
60.795 13.451093
60.800 13.545331
60.805 13.532068
60.810 13.661602
60.815 13.683013
60.820 13.683021
60.825 14.033232
60.830 14.182405
60.835 14.287495
60.840 14.447422
60.845 14.423342
60.850 14.602181
60.855 15.07967
60.860 15.349352
60.865 14.899441
60.870 14.705384
60.875 14.607065
60.880 13.976887
60.885 13.156172
60.890 12.755551
60.895 12.481446
60.900 12.659593
60.905 12.470016
60.910 12.413492
60.915 12.771476
60.920 12.783846
60.925 12.654168
60.930 12.578973
60.935 12.844272
60.940 13.247948
60.945 13.056686
60.950 13.262817
60.955 13.611238
60.960 13.956387
60.965 14.124312
60.970 14.213437
60.975 13.872511
60.980 14.149475
60.985 14.273654
60.990 14.482853
60.995 14.272226
61.000 14.243534
61.005 14.119634
61.010 14.499413
61.015 14.230968
61.020 13.967119
61.025 13.932709
61.030 14.145112
61.035 14.633261
61.040 14.630538
61.045 14.115107
61.050 14.271883
61.055 14.255581
61.060 14.446653
61.065 14.460597
61.070 13.968032
61.075 14.132038
61.080 14.630529
61.085 14.946449
61.090 14.85147
61.095 14.452535
61.100 14.1164
61.105 13.931995
61.110 14.268035
61.115 14.001931
61.120 14.10732
61.125 13.669916
61.130 13.145848
61.135 13.013274
61.140 13.186951
61.145 12.837464
61.150 12.413197
61.155 12.279844
61.160 12.981619
61.165 13.641102
61.170 14.058038
61.175 14.004443
61.180 13.8631
61.185 14.07461
61.190 14.23328
61.195 14.430863
61.200 14.867729
61.205 14.700715
61.210 14.47638
61.215 14.39781
61.220 14.547156
61.225 14.412255
61.230 14.092896
61.235 13.142332
61.240 12.834287
61.245 12.892444
61.250 13.316836
61.255 13.729888
61.260 14.344987
61.265 14.787781
61.270 15.220718
61.275 15.520611
61.280 15.850909
61.285 15.647032
61.290 15.139133
61.295 14.64624
61.300 13.862016
61.305 13.177917
61.310 13.456136
61.315 13.330525
61.320 13.348411
61.325 13.554768
61.330 13.507199
61.335 13.158426
61.340 13.261156
61.345 12.709171
61.350 12.264307
61.355 11.9389
61.360 11.769402
61.365 11.977963
61.370 12.467464
61.375 13.034012
61.380 13.15695
61.385 13.635877
61.390 14.011623
61.395 13.96362
61.400 13.51644
61.405 13.67984
61.410 13.052024
61.415 12.713367
61.420 12.527532
61.425 12.949403
61.430 13.380462
61.435 13.553387
61.440 13.68676
61.445 14.416809
61.450 14.939965
61.455 15.078378
61.460 14.301305
61.465 13.86605
61.470 14.401203
61.475 14.408784
61.480 14.249352
61.485 14.002943
61.490 13.769086
61.495 13.954226
61.500 14.025011
61.505 13.570026
61.510 13.726557
61.515 13.767401
61.520 13.756064
61.525 14.046079
61.530 14.489057
61.535 14.976139
61.540 15.097887
61.545 14.582137
61.550 14.562459
61.555 15.174754
61.560 14.979499
61.565 14.754116
61.570 14.31671
61.575 14.224568
61.580 14.810883
61.585 15.016083
61.590 14.20924
61.595 13.783669
61.600 13.317376
61.605 13.209534
61.610 13.048369
61.615 12.787472
61.620 12.330659
61.625 12.863157
61.630 13.460861
61.635 13.412854
61.640 13.560226
61.645 13.678336
61.650 13.288244
61.655 13.194093
61.660 12.988097
61.665 12.579534
61.670 12.833659
61.675 12.893
61.680 12.612338
61.685 12.422318
61.690 12.640512
61.695 12.616769
61.700 12.632852
61.705 12.829386
61.710 12.66487
61.715 12.742237
61.720 13.100706
61.725 13.033686
61.730 12.93302
61.735 13.245104
61.740 13.2185
61.745 13.70154
61.750 13.973651
61.755 14.740797
61.760 15.050436
61.765 15.5426
61.770 15.140264
61.775 15.118155
61.780 14.913192
61.785 14.881083
61.790 14.480335
61.795 14.125544
61.800 13.984184
61.805 14.578086
61.810 14.698294
61.815 14.960272
61.820 15.210456
61.825 15.584777
61.830 15.876769
61.835 15.844516
61.840 15.991954
61.845 15.850643
61.850 15.557737
61.855 14.993156
61.860 14.976416
61.865 14.997927
61.870 14.52344
61.875 14.42837
61.880 14.492336
61.885 14.404922
61.890 14.95331
61.895 14.728365
61.900 15.209379
61.905 15.435275
61.910 15.372312
61.915 15.450044
61.920 15.354591
61.925 15.1035
61.930 15.067554
61.935 14.376277
61.940 14.497324
61.945 14.24103
61.950 13.944652
61.955 14.200675
61.960 13.994008
61.965 13.807525
61.970 14.201419
61.975 14.148567
61.980 13.87482
61.985 13.918992
61.990 13.448328
61.995 12.940673
62.000 12.658296
62.005 12.65101
62.010 12.712359
62.015 13.13965
62.020 13.042725
62.025 13.565765
62.030 13.914987
62.035 14.374979
62.040 14.499756
62.045 14.403589
62.050 14.306593
62.055 14.323159
62.060 14.199821
62.065 14.527653
62.070 14.206185
62.075 14.226701
62.080 14.326174
62.085 14.432709
62.090 14.582865
62.095 14.291557
62.100 13.585937
62.105 13.600297
62.110 13.23177
62.115 13.425776
62.120 13.690974
62.125 14.039106
62.130 14.763062
62.135 15.349255
62.140 15.859814
62.145 16.141863
62.150 16.747755
62.155 16.798386
62.160 16.869041
62.165 16.645622
62.170 16.509405
62.175 16.093349
62.180 15.899326
62.185 15.366352
62.190 14.810328
62.195 14.450676
62.200 14.195873
62.205 13.730302
62.210 13.572911
62.215 13.184649
62.220 12.865127
62.225 13.117636
62.230 12.957928
62.235 12.594114
62.240 12.523015
62.245 12.736595
62.250 12.84561
62.255 13.495795
62.260 13.52146
62.265 13.856821
62.270 14.491345
62.275 14.824296
62.280 14.155682
62.285 14.25727
62.290 13.832871
62.295 13.436337
62.300 13.344751
62.305 13.213893
62.310 13.233255
62.315 13.830629
62.320 13.844046
62.325 13.951507
62.330 14.494482
62.335 14.003046
62.340 14.080284
62.345 14.420101
62.350 14.104802
62.355 13.998676
62.360 14.137912
62.365 14.161724
62.370 14.671084
62.375 14.668036
62.380 14.695536
62.385 14.500711
62.390 14.310946
62.395 14.115098
62.400 13.980049
62.405 14.020196
62.410 13.976769
62.415 13.89671
62.420 14.434102
62.425 14.623432
62.430 15.053584
62.435 15.254345
62.440 15.504856
62.445 15.708734
62.450 15.894726
62.455 16.12517
62.460 16.183134
62.465 15.856992
62.470 15.900551
62.475 15.538282
62.480 15.814913
62.485 15.100023
62.490 14.763817
62.495 14.315168
62.500 14.199413
62.505 14.139324
62.510 14.163652
62.515 13.75423
62.520 13.884878
62.525 13.997489
62.530 14.560004
62.535 14.474307
62.540 14.494564
62.545 14.755515
62.550 14.39
62.555 14.496482
62.560 14.393292
62.565 14.356308
62.570 14.786014
62.575 14.245467
62.580 13.789327
62.585 14.114635
62.590 13.908003
62.595 13.878927
62.600 13.629889
62.605 13.023045
62.610 13.187612
62.615 13.234275
62.620 12.994632
62.625 13.260467
62.630 13.314956
62.635 13.766046
62.640 14.294473
62.645 14.346633
62.650 14.784676
62.655 15.333572
62.660 15.736704
62.665 15.509477
62.670 15.539294
62.675 15.789118
62.680 15.831619
62.685 15.549666
62.690 15.433899
62.695 15.320934
62.700 15.593289
62.705 15.045992
62.710 14.571169
62.715 14.707798
62.720 14.697867
62.725 15.06628
62.730 15.308108
62.735 15.13986
62.740 14.976463
62.745 14.723722
62.750 14.523559
62.755 14.50052
62.760 14.117332
62.765 13.272654
62.770 12.898846
62.775 13.170315
62.780 13.398507
62.785 13.5074
62.790 13.480613
62.795 13.872024
62.800 14.919217
62.805 15.067575
62.810 14.542147
62.815 14.72958
62.820 15.101403
62.825 15.004195
62.830 14.759828
62.835 14.610324
62.840 14.797673
62.845 15.127558
62.850 14.822624
62.855 14.590649
62.860 14.845306
62.865 14.625645
62.870 14.060266
62.875 14.245242
62.880 14.447524
62.885 14.173323
62.890 13.93245
62.895 13.47268
62.900 13.872921
62.905 14.651774
62.910 14.541232
62.915 14.763815
62.920 15.125991
62.925 14.984638
62.930 15.065215
62.935 14.536312
62.940 14.479082
62.945 14.443
62.950 14.087514
62.955 13.965039
62.960 14.004725
62.965 14.111878
62.970 14.564457
62.975 14.480358
62.980 14.704568
62.985 14.895151
62.990 15.668914
62.995 16.168139
63.000 16.133944
63.005 15.63171
63.010 15.460008
63.015 15.530287
63.020 15.271318
63.025 14.577839
63.030 14.138041
63.035 14.195273
63.040 14.101238
63.045 13.859188
63.050 13.697878
63.055 14.082076
63.060 14.09612
63.065 14.106628
63.070 13.434718
63.075 13.770032
63.080 14.231912
63.085 14.236857
63.090 14.087809
63.095 14.003899
63.100 14.230975
63.105 14.71524
63.110 13.677521
63.115 13.259892
63.120 13.497253
63.125 13.544414
63.130 13.662023
63.135 13.503295
63.140 13.614079
63.145 14.437099
63.150 13.994455
63.155 13.320042
63.160 13.371732
63.165 13.157025
63.170 13.080317
63.175 13.364361
63.180 13.610025
63.185 14.126731
63.190 14.723183
63.195 15.19242
63.200 15.863671
63.205 16.290829
63.210 16.398708
63.215 16.258667
63.220 16.232332
63.225 15.997994
63.230 15.512603
63.235 15.281999
63.240 14.721292
63.245 14.122554
63.250 14.481544
63.255 14.92607
63.260 15.317573
63.265 15.240004
63.270 15.116621
63.275 15.341386
63.280 15.509511
63.285 15.322213
63.290 14.874311
63.295 14.577857
63.300 14.975636
63.305 15.206055
63.310 15.114515
63.315 16.224892
63.320 16.314814
63.325 16.053484
63.330 15.980535
63.335 15.784867
63.340 15.852386
63.345 15.774013
63.350 14.630193
63.355 14.927855
63.360 15.06785
63.365 14.378195
63.370 13.99127
63.375 13.512087
63.380 13.18396
63.385 13.389728
63.390 13.397613
63.395 12.974438
63.400 12.855158
63.405 12.797881
63.410 12.969507
63.415 13.39785
63.420 13.102422
63.425 12.862648
63.430 13.722414
63.435 14.089304
63.440 14.062515
63.445 14.478444
63.450 14.937836
63.455 14.879648
63.460 14.418991
63.465 14.583358
63.470 15.030386
63.475 15.425976
63.480 15.043335
63.485 14.393312
63.490 14.611125
63.495 14.89684
63.500 14.655681
63.505 14.787239
63.510 15.127137
63.515 15.026973
63.520 15.068203
63.525 15.314517
63.530 15.410537
63.535 14.823502
63.540 14.755177
63.545 14.373834
63.550 14.143498
63.555 14.366555
63.560 14.005489
63.565 14.197938
63.570 14.410859
63.575 14.551032
63.580 15.140367
63.585 15.64804
63.590 15.886127
63.595 16.102936
63.600 16.601337
63.605 17.157364
63.610 17.22056
63.615 16.590134
63.620 16.345495
63.625 16.149708
63.630 15.9033
63.635 15.135566
63.640 14.742055
63.645 14.756647
63.650 15.136799
63.655 15.060052
63.660 14.787493
63.665 14.593541
63.670 14.769073
63.675 14.384641
63.680 13.849453
63.685 13.455755
63.690 13.381491
63.695 13.491385
63.700 13.028827
63.705 12.908043
63.710 13.30614
63.715 13.710524
63.720 13.478706
63.725 13.361516
63.730 13.526196
63.735 14.1703
63.740 14.251159
63.745 14.445647
63.750 14.030718
63.755 14.401225
63.760 14.357929
63.765 14.322616
63.770 14.876873
63.775 14.986032
63.780 15.279318
63.785 15.378008
63.790 15.251076
63.795 15.521404
63.800 15.635423
63.805 15.463752
63.810 15.244065
63.815 14.90215
63.820 15.154238
63.825 15.087384
63.830 14.901506
63.835 14.575363
63.840 14.187661
63.845 14.166451
63.850 13.76959
63.855 13.71152
63.860 13.819736
63.865 14.016915
63.870 14.432834
63.875 14.683088
63.880 14.504133
63.885 14.807728
63.890 15.216061
63.895 15.478101
63.900 15.486919
63.905 15.582271
63.910 15.703385
63.915 16.089411
63.920 15.960591
63.925 15.343173
63.930 15.12427
63.935 14.660499
63.940 14.456422
63.945 14.105091
63.950 14.126301
63.955 14.508357
63.960 14.84254
63.965 15.383821
63.970 16.25449
63.975 16.470943
63.980 16.319948
63.985 15.783181
63.990 15.133515
63.995 15.695767
64.000 15.886626
64.005 15.52286
64.010 15.423443
64.015 15.740696
64.020 16.461
64.025 17.016338
64.030 16.73786
64.035 16.573433
64.040 16.378119
64.045 16.393713
64.050 16.541775
64.055 16.33898
64.060 16.24128
64.065 15.80709
64.070 15.564528
64.075 15.992111
64.080 16.399553
64.085 16.639425
64.090 16.75135
64.095 16.663166
64.100 16.613913
64.105 16.473705
64.110 16.004978
64.115 15.439172
64.120 14.944686
64.125 14.426115
64.130 14.439099
64.135 14.740942
64.140 14.979354
64.145 15.189584
64.150 15.292793
64.155 15.797598
64.160 16.49551
64.165 16.413805
64.170 16.305267
64.175 15.927461
64.180 15.901232
64.185 16.090246
64.190 15.121518
64.195 14.073953
64.200 14.178598
64.205 14.102799
64.210 13.999042
64.215 13.983041
64.220 14.121572
64.225 14.926562
64.230 15.073864
64.235 15.258304
64.240 15.398413
64.245 15.782191
64.250 15.279421
64.255 15.217147
64.260 15.458391
64.265 15.827522
64.270 15.462503
64.275 14.92164
64.280 14.940794
64.285 15.106704
64.290 15.006602
64.295 14.561399
64.300 14.610662
64.305 15.621011
64.310 16.633659
64.315 16.588949
64.320 16.684509
64.325 16.488092
64.330 16.734335
64.335 16.19442
64.340 15.395381
64.345 14.845648
64.350 14.673396
64.355 14.789501
64.360 14.836703
64.365 14.674398
64.370 15.236025
64.375 15.394832
64.380 15.590309
64.385 15.797808
64.390 15.893429
64.395 16.186705
64.400 16.460953
64.405 16.259459
64.410 16.223831
64.415 16.132792
64.420 15.936339
64.425 15.727945
64.430 16.35899
64.435 17.129917
64.440 17.810148
64.445 17.644737
64.450 18.004534
64.455 18.404169
64.460 18.239841
64.465 17.968721
64.470 17.455498
64.475 16.965437
64.480 17.156004
64.485 17.325645
64.490 17.865171
64.495 18.118292
64.500 18.407501
64.505 18.682127
64.510 19.028355
64.515 18.995682
64.520 18.588285
64.525 18.131477
64.530 18.135561
64.535 17.70433
64.540 17.560295
64.545 17.297235
64.550 17.07369
64.555 17.000895
64.560 16.402512
64.565 16.559416
64.570 16.002052
64.575 15.667503
64.580 15.750682
64.585 16.157011
64.590 16.023844
64.595 16.277996
64.600 15.464691
64.605 15.517622
64.610 15.36864
64.615 14.850378
64.620 14.932217
64.625 15.538007
64.630 15.966919
64.635 16.346264
64.640 16.733469
64.645 17.176073
64.650 17.412241
64.655 17.576281
64.660 17.306789
64.665 17.042032
64.670 17.117464
64.675 16.457291
64.680 15.911771
64.685 15.839346
64.690 14.952447
64.695 14.567479
64.700 14.770249
64.705 14.471978
64.710 14.830853
64.715 15.164176
64.720 15.279815
64.725 15.921383
64.730 16.478664
64.735 16.599403
64.740 17.152037
64.745 17.164648
64.750 17.384409
64.755 17.568531
64.760 18.176086
64.765 18.107613
64.770 18.087111
64.775 18.028503
64.780 17.610144
64.785 17.261599
64.790 16.861069
64.795 16.524967
64.800 16.237921
64.805 16.863457
64.810 17.478683
64.815 17.54405
64.820 17.596609
64.825 17.418781
64.830 17.515614
64.835 17.575233
64.840 17.090998
64.845 16.882601
64.850 17.127411
64.855 17.586374
64.860 18.037769
64.865 17.675491
64.870 18.302692
64.875 18.540682
64.880 18.727623
64.885 19.143003
64.890 18.961462
64.895 18.613739
64.900 18.470057
64.905 17.980568
64.910 17.763288
64.915 18.322737
64.920 18.726948
64.925 18.660606
64.930 18.886648
64.935 18.925737
64.940 19.078465
64.945 19.325628
64.950 18.557455
64.955 18.561029
64.960 19.324854
64.965 19.787676
64.970 20.294125
64.975 20.819527
64.980 21.481184
64.985 21.76095
64.990 21.82613
64.995 20.951834
65.000 21.043251
65.005 21.096748
65.010 20.601755
65.015 20.322617
65.020 21.097189
65.025 21.213549
65.030 21.681667
65.035 22.101589
65.040 22.33036
65.045 22.510208
65.050 22.743391
65.055 21.916843
65.060 21.759766
65.065 22.479086
65.070 22.444443
65.075 22.044338
65.080 22.362522
65.085 22.050722
65.090 22.450384
65.095 22.635757
65.100 21.995184
65.105 21.916933
65.110 22.645906
65.115 21.936138
65.120 21.831453
65.125 22.190628
65.130 23.12686
65.135 23.361496
65.140 23.334322
65.145 23.079157
65.150 23.484718
65.155 23.491077
65.160 22.245394
65.165 21.38994
65.170 21.11392
65.175 20.746737
65.180 20.556244
65.185 20.315475
65.190 20.204149
65.195 20.533369
65.200 20.360575
65.205 20.731085
65.210 21.114765
65.215 21.110609
65.220 21.035688
65.225 20.668077
65.230 20.922541
65.235 21.124996
65.240 20.549728
65.245 20.369579
65.250 20.541731
65.255 21.067421
65.260 22.154367
65.265 22.38765
65.270 22.107445
65.275 22.343201
65.280 22.179388
65.285 22.069044
65.290 21.579054
65.295 20.693707
65.300 20.254269
65.305 20.518988
65.310 20.382502
65.315 20.483816
65.320 20.862637
65.325 20.554432
65.330 20.864115
65.335 21.502451
65.340 21.378731
65.345 21.744205
65.350 21.64053
65.355 21.321339
65.360 21.433472
65.365 21.275427
65.370 20.724581
65.375 20.67362
65.380 20.766752
65.385 20.448101
65.390 20.4153
65.395 20.518347
65.400 20.467472
65.405 20.621773
65.410 20.688313
65.415 20.114233
65.420 20.060829
65.425 19.802546
65.430 19.357698
65.435 19.516432
65.440 19.624821
65.445 19.478609
65.450 19.410473
65.455 19.329693
65.460 20.016222
65.465 20.704756
65.470 20.724209
65.475 20.992897
65.480 21.547329
65.485 21.887611
65.490 22.544964
65.495 21.984882
65.500 21.863708
65.505 22.13114
65.510 21.907251
65.515 20.951857
65.520 20.937338
65.525 20.767727
65.530 21.210451
65.535 21.240498
65.540 21.182343
65.545 21.518412
65.550 21.875431
65.555 22.208654
65.560 22.316166
65.565 21.917559
65.570 21.453465
65.575 21.733675
65.580 22.553076
65.585 23.174696
65.590 22.600039
65.595 22.254072
65.600 22.596796
65.605 23.51346
65.610 22.518772
65.615 21.699333
65.620 22.144382
65.625 22.944305
65.630 23.824392
65.635 23.287489
65.640 22.684309
65.645 23.583965
65.650 23.951681
65.655 23.755808
65.660 23.041193
65.665 22.735533
65.670 23.70153
65.675 24.513535
65.680 24.437025
65.685 24.016495
65.690 24.414875
65.695 24.857481
65.700 24.777283
65.705 24.09234
65.710 23.868572
65.715 23.648081
65.720 23.778868
65.725 23.780863
65.730 24.555538
65.735 24.901751
65.740 25.609501
65.745 25.735994
65.750 25.862375
65.755 25.969778
65.760 25.905018
65.765 25.484039
65.770 25.522728
65.775 25.112749
65.780 24.741547
65.785 25.166746
65.790 25.266705
65.795 25.177868
65.800 25.326349
65.805 25.325354
65.810 25.728382
65.815 25.673676
65.820 25.425632
65.825 24.789408
65.830 24.774084
65.835 25.243166
65.840 25.663076
65.845 25.504366
65.850 26.36898
65.855 26.701332
65.860 27.453754
65.865 27.77964
65.870 27.528524
65.875 26.983509
65.880 27.327366
65.885 27.503555
65.890 27.518217
65.895 27.763012
65.900 28.058956
65.905 29.029625
65.910 29.680429
65.915 29.558901
65.920 29.303198
65.925 29.150663
65.930 29.430241
65.935 29.27099
65.940 28.47644
65.945 27.749348
65.950 27.069307
65.955 27.656317
65.960 28.519878
65.965 28.373199
65.970 28.921761
65.975 29.560442
65.980 30.256338
65.985 30.762138
65.990 30.445305
65.995 29.979204
66.000 29.391571
66.005 28.291162
66.010 27.999788
66.015 28.219603
66.020 28.17087
66.025 28.888735
66.030 28.510897
66.035 29.047737
66.040 29.22361
66.045 28.823963
66.050 28.364632
66.055 28.405432
66.060 27.640699
66.065 27.592537
66.070 27.319887
66.075 27.996408
66.080 28.849274
66.085 29.277636
66.090 29.297771
66.095 29.168844
66.100 28.94356
66.105 28.549891
66.110 27.970449
66.115 27.312103
66.120 26.672127
66.125 26.497066
66.130 27.036329
66.135 27.872185
66.140 27.97707
66.145 28.376335
66.150 28.975229
66.155 29.350637
66.160 29.113014
66.165 29.002459
66.170 28.426559
66.175 28.497101
66.180 27.798529
66.185 26.945473
66.190 26.37281
66.195 26.093699
66.200 26.191107
66.205 26.955158
66.210 27.216024
66.215 27.628378
66.220 28.429733
66.225 28.720284
66.230 29.503553
66.235 28.544127
66.240 27.499218
66.245 27.579809
66.250 27.754745
66.255 27.930107
66.260 28.517963
66.265 28.510244
66.270 28.932211
66.275 29.130711
66.280 29.169001
66.285 28.786173
66.290 28.434626
66.295 27.895853
66.300 27.341167
66.305 27.83152
66.310 28.331388
66.315 28.28318
66.320 28.21139
66.325 27.972836
66.330 27.860138
66.335 27.854717
66.340 26.763334
66.345 26.400797
66.350 25.691938
66.355 25.927086
66.360 25.932543
66.365 26.268278
66.370 26.386988
66.375 26.658009
66.380 26.404345
66.385 26.419817
66.390 25.320501
66.395 25.009293
66.400 24.658697
66.405 24.386837
66.410 24.512426
66.415 24.298746
66.420 23.722242
66.425 24.653198
66.430 24.534193
66.435 24.366253
66.440 24.598278
66.445 24.510067
66.450 24.355654
66.455 24.686903
66.460 23.774006
66.465 24.062237
66.470 24.120989
66.475 23.206375
66.480 22.659229
66.485 22.825676
66.490 22.446003
66.495 22.31469
66.500 21.370838
66.505 21.020191
66.510 20.932016
66.515 20.466599
66.520 20.520893
66.525 20.751137
66.530 21.237429
66.535 21.27195
66.540 21.066256
66.545 21.319427
66.550 21.580578
66.555 20.732811
66.560 20.191444
66.565 20.416744
66.570 20.48387
66.575 20.933502
66.580 20.438625
66.585 20.582722
66.590 20.804853
66.595 20.762489
66.600 19.815153
66.605 19.855768
66.610 20.088766
66.615 20.270098
66.620 20.005493
66.625 20.08427
66.630 20.130568
66.635 20.3085
66.640 20.297741
66.645 20.009094
66.650 20.063068
66.655 20.358168
66.660 20.532841
66.665 20.585304
66.670 20.952335
66.675 20.765211
66.680 20.629322
66.685 20.144508
66.690 19.711134
66.695 18.670147
66.700 18.381344
66.705 18.002337
66.710 17.414673
66.715 17.390387
66.720 17.574638
66.725 17.754513
66.730 18.423687
66.735 18.250021
66.740 17.980648
66.745 18.866199
66.750 19.039232
66.755 18.402
66.760 18.124157
66.765 18.081024
66.770 18.79384
66.775 18.878496
66.780 18.188459
66.785 18.071234
66.790 17.871599
66.795 17.621389
66.800 17.29336
66.805 17.048897
66.810 17.198454
66.815 16.865347
66.820 16.648102
66.825 17.354216
66.830 17.681778
66.835 17.619545
66.840 17.938917
66.845 18.49276
66.850 19.295816
66.855 19.773117
66.860 20.043142
66.865 20.162737
66.870 20.054873
66.875 19.656397
66.880 19.085621
66.885 18.541573
66.890 18.165571
66.895 18.153187
66.900 18.46843
66.905 18.670958
66.910 19.27009
66.915 19.410807
66.920 19.773211
66.925 19.907988
66.930 19.634216
66.935 19.378389
66.940 19.915493
66.945 19.254349
66.950 19.556381
66.955 19.218021
66.960 19.112068
66.965 19.647474
66.970 20.153852
66.975 19.613474
66.980 19.304546
66.985 19.24404
66.990 19.112085
66.995 18.445923
67.000 17.428308
67.005 16.820389
67.010 16.329329
67.015 16.51293
67.020 16.273302
67.025 16.622868
67.030 16.783571
67.035 17.114851
67.040 17.235092
67.045 17.588245
67.050 17.69479
67.055 17.74152
67.060 17.411716
67.065 17.409262
67.070 17.084887
67.075 17.013338
67.080 17.016581
67.085 16.591047
67.090 16.711189
67.095 17.300005
67.100 17.637854
67.105 17.989317
67.110 18.820925
67.115 18.690609
67.120 18.840256
67.125 18.678926
67.130 18.283113
67.135 17.907475
67.140 17.417894
67.145 16.954912
67.150 17.146877
67.155 17.235203
67.160 17.266951
67.165 17.346516
67.170 17.24362
67.175 17.595968
67.180 16.909397
67.185 16.649994
67.190 16.050037
67.195 15.943224
67.200 16.418106
67.205 17.114597
67.210 17.218573
67.215 17.576038
67.220 17.349026
67.225 17.737877
67.230 17.56267
67.235 17.162884
67.240 16.856876
67.245 16.33168
67.250 16.503849
67.255 17.331692
67.260 17.609934
67.265 17.62118
67.270 17.736385
67.275 18.196728
67.280 18.270771
67.285 17.867687
67.290 17.126959
67.295 16.455072
67.300 16.645327
67.305 16.984537
67.310 16.777849
67.315 17.198925
67.320 17.740744
67.325 18.17515
67.330 18.426701
67.335 18.34963
67.340 17.895821
67.345 17.53141
67.350 17.477823
67.355 17.4589
67.360 17.427153
67.365 17.917286
67.370 17.585781
67.375 17.736864
67.380 18.339315
67.385 18.196615
67.390 18.104464
67.395 17.837955
67.400 17.72821
67.405 18.438324
67.410 18.594042
67.415 17.983044
67.420 17.443321
67.425 17.444569
67.430 17.470434
67.435 17.095869
67.440 16.426844
67.445 16.740072
67.450 17.006481
67.455 17.240038
67.460 17.192173
67.465 16.82902
67.470 16.837973
67.475 17.073715
67.480 16.500162
67.485 16.685104
67.490 16.614223
67.495 16.28105
67.500 16.082794
67.505 16.382017
67.510 16.279249
67.515 16.206367
67.520 15.699636
67.525 15.037206
67.530 15.244732
67.535 15.590695
67.540 15.630148
67.545 15.432523
67.550 15.732586
67.555 16.202623
67.560 17.200092
67.565 17.45602
67.570 17.252594
67.575 17.037333
67.580 17.253498
67.585 16.979277
67.590 16.467627
67.595 16.282652
67.600 16.262007
67.605 16.963444
67.610 17.617357
67.615 17.581078
67.620 17.809025
67.625 18.134087
67.630 18.207344
67.635 18.207325
67.640 17.76259
67.645 17.424099
67.650 17.265306
67.655 16.894642
67.660 17.195925
67.665 17.759787
67.670 17.490103
67.675 17.220037
67.680 16.976126
67.685 17.197998
67.690 17.719852
67.695 17.517059
67.700 17.24291
67.705 17.773809
67.710 17.865332
67.715 18.06702
67.720 17.683029
67.725 17.486673
67.730 17.553005
67.735 17.043846
67.740 16.742661
67.745 16.701126
67.750 16.578012
67.755 16.711332
67.760 16.66181
67.765 16.224796
67.770 16.408962
67.775 16.144888
67.780 16.280624
67.785 16.618317
67.790 16.370106
67.795 16.757627
67.800 17.124849
67.805 17.307703
67.810 18.13781
67.815 18.428617
67.820 18.159929
67.825 17.815002
67.830 17.634722
67.835 17.214113
67.840 17.091022
67.845 16.46772
67.850 16.199003
67.855 16.620117
67.860 17.061699
67.865 16.98218
67.870 17.541203
67.875 17.711782
67.880 17.622522
67.885 17.988321
67.890 18.421883
67.895 18.363544
67.900 18.437132
67.905 18.067739
67.910 17.918377
67.915 17.818068
67.920 17.643915
67.925 17.414433
67.930 17.293638
67.935 17.376637
67.940 17.431187
67.945 17.411489
67.950 17.274332
67.955 16.803598
67.960 16.542923
67.965 16.747181
67.970 16.860514
67.975 16.44655
67.980 16.211462
67.985 16.353882
67.990 16.456875
67.995 16.474539
68.000 16.476166
68.005 16.587696
68.010 16.862143
68.015 17.035213
68.020 17.124615
68.025 17.132645
68.030 16.930927
68.035 16.877464
68.040 16.505432
68.045 16.228184
68.050 16.197449
68.055 16.468245
68.060 16.400009
68.065 16.412184
68.070 15.7827
68.075 16.286064
68.080 16.707977
68.085 17.114243
68.090 17.074823
68.095 16.934473
68.100 17.286898
68.105 17.662338
68.110 17.486767
68.115 17.665104
68.120 17.367708
68.125 17.102156
68.130 17.148987
68.135 17.323805
68.140 17.620977
68.145 17.795847
68.150 17.52519
68.155 18.02033
68.160 18.575449
68.165 18.789572
68.170 18.721071
68.175 18.623878
68.180 18.119274
68.185 17.418739
68.190 17.374561
68.195 17.293634
68.200 17.17359
68.205 16.629126
68.210 16.77356
68.215 17.342567
68.220 17.527531
68.225 16.629755
68.230 16.359474
68.235 16.29344
68.240 16.690792
68.245 16.50473
68.250 16.293447
68.255 16.518152
68.260 16.941908
68.265 17.048018
68.270 17.60663
68.275 17.700056
68.280 17.557779
68.285 17.530239
68.290 17.552788
68.295 17.259914
68.300 17.229422
68.305 16.797022
68.310 16.026634
68.315 15.843454
68.320 16.323753
68.325 16.621241
68.330 16.553703
68.335 16.309822
68.340 15.831079
68.345 16.395424
68.350 16.596045
68.355 16.234673
68.360 16.03089
68.365 16.081573
68.370 15.968055
68.375 16.654659
68.380 16.513618
68.385 16.14591
68.390 16.06443
68.395 16.04117
68.400 16.369244
68.405 16.79006
68.410 16.514286
68.415 17.127098
68.420 17.60696
68.425 17.816626
68.430 17.906092
68.435 17.575529
68.440 17.540611
68.445 17.693161
68.450 17.460682
68.455 17.189381
68.460 16.873158
68.465 16.51021
68.470 16.35375
68.475 16.507858
68.480 16.789204
68.485 16.787779
68.490 16.760118
68.495 16.820284
68.500 17.327866
68.505 17.242727
68.510 16.99633
68.515 16.40027
68.520 16.976658
68.525 17.809307
68.530 18.182976
68.535 18.270115
68.540 18.086029
68.545 18.145901
68.550 18.808369
68.555 18.725504
68.560 19.140036
68.565 19.14677
68.570 18.956369
68.575 19.552729
68.580 19.688299
68.585 19.089622
68.590 18.81867
68.595 18.130594
68.600 17.883989
68.605 18.066246
68.610 17.858118
68.615 18.007053
68.620 17.728098
68.625 16.823038
68.630 16.992748
68.635 17.038662
68.640 17.578362
68.645 17.053169
68.650 16.725964
68.655 17.204435
68.660 17.248003
68.665 16.72703
68.670 16.590525
68.675 16.49749
68.680 17.120829
68.685 17.314962
68.690 17.304819
68.695 17.860153
68.700 18.236517
68.705 18.453367
68.710 18.510159
68.715 17.927073
68.720 18.316946
68.725 18.165955
68.730 18.179211
68.735 18.444445
68.740 18.280603
68.745 17.677984
68.750 17.793539
68.755 17.084412
68.760 17.270681
68.765 17.289223
68.770 16.627104
68.775 16.246084
68.780 16.747869
68.785 16.862305
68.790 16.790312
68.795 16.926661
68.800 17.124311
68.805 17.423828
68.810 17.580469
68.815 17.65214
68.820 18.003975
68.825 18.537027
68.830 18.54163
68.835 18.558844
68.840 18.888056
68.845 19.285786
68.850 19.350895
68.855 19.020784
68.860 18.506927
68.865 18.003735
68.870 17.659031
68.875 17.92227
68.880 17.784163
68.885 17.51041
68.890 17.732147
68.895 18.120819
68.900 19.16711
68.905 19.563606
68.910 19.43824
68.915 19.556816
68.920 19.467709
68.925 19.38813
68.930 18.820311
68.935 17.902781
68.940 17.637518
68.945 17.273003
68.950 17.12557
68.955 17.013948
68.960 16.932453
68.965 17.859638
68.970 18.53167
68.975 18.681152
68.980 19.404293
68.985 19.740505
68.990 20.900051
68.995 21.384758
69.000 21.127535
69.005 20.652889
69.010 20.221834
69.015 19.985947
69.020 19.801313
69.025 18.906868
69.030 18.509348
69.035 18.583542
69.040 18.554132
69.045 18.944218
69.050 19.655134
69.055 20.180708
69.060 20.432816
69.065 20.619116
69.070 20.900188
69.075 21.174803
69.080 21.304207
69.085 20.794754
69.090 20.776928
69.095 20.861387
69.100 21.028011
69.105 21.090164
69.110 21.051493
69.115 20.722357
69.120 21.08691
69.125 20.903416
69.130 20.659626
69.135 20.328218
69.140 20.244551
69.145 20.435556
69.150 20.463449
69.155 20.032942
69.160 19.867226
69.165 20.213797
69.170 20.639662
69.175 20.59288
69.180 20.503197
69.185 20.986643
69.190 21.274309
69.195 21.791092
69.200 21.17065
69.205 21.30374
69.210 21.447502
69.215 21.191462
69.220 20.686584
69.225 20.108902
69.230 19.971025
69.235 20.148815
69.240 20.233379
69.245 21.312374
69.250 21.665976
69.255 22.392117
69.260 22.904531
69.265 22.954445
69.270 23.350811
69.275 23.370625
69.280 23.165394
69.285 22.812904
69.290 22.435926
69.295 22.417551
69.300 22.764975
69.305 22.179211
69.310 22.033659
69.315 21.77346
69.320 22.272659
69.325 21.967562
69.330 22.143799
69.335 22.131975
69.340 22.115225
69.345 22.691204
69.350 23.064985
69.355 22.975311
69.360 23.595776
69.365 23.251949
69.370 23.081911
69.375 22.9813
69.380 22.344694
69.385 22.329819
69.390 22.835903
69.395 23.303802
69.400 23.417389
69.405 23.45281
69.410 24.163433
69.415 25.023453
69.420 25.159615
69.425 24.515282
69.430 24.120127
69.435 24.410585
69.440 24.985966
69.445 24.911886
69.450 24.644781
69.455 24.568243
69.460 25.018379
69.465 24.862259
69.470 25.03005
69.475 24.555452
69.480 24.509211
69.485 24.595306
69.490 24.38036
69.495 24.243587
69.500 25.372759
69.505 25.291168
69.510 25.365383
69.515 24.639294
69.520 24.742237
69.525 24.528265
69.530 24.270233
69.535 23.961491
69.540 23.983047
69.545 24.315742
69.550 24.795668
69.555 24.640331
69.560 25.520651
69.565 26.347332
69.570 25.941303
69.575 26.474466
69.580 26.748041
69.585 27.100935
69.590 27.206669
69.595 26.389473
69.600 25.347019
69.605 24.693995
69.610 24.171543
69.615 24.158878
69.620 23.878206
69.625 24.181023
69.630 24.65662
69.635 25.365686
69.640 25.558414
69.645 25.262417
69.650 24.794361
69.655 24.206184
69.660 23.234148
69.665 22.621176
69.670 22.632057
69.675 23.429066
69.680 23.869312
69.685 24.36381
69.690 25.361059
69.695 26.155352
69.700 26.324289
69.705 26.164352
69.710 25.053007
69.715 24.343145
69.720 24.420828
69.725 23.424929
69.730 22.748737
69.735 22.15
69.740 22.449179
69.745 22.469028
69.750 22.363716
69.755 22.123102
69.760 22.432976
69.765 23.147539
69.770 23.369898
69.775 22.852657
69.780 23.041172
69.785 23.427454
69.790 22.802999
69.795 22.215017
69.800 21.66408
69.805 20.846395
69.810 20.80463
69.815 21.118673
69.820 20.880249
69.825 20.912306
69.830 20.777401
69.835 20.961098
69.840 21.147629
69.845 21.014338
69.850 20.080156
69.855 19.598919
69.860 19.163059
69.865 19.335926
69.870 19.726557
69.875 20.474943
69.880 20.481115
69.885 21.228323
69.890 22.08144
69.895 22.096119
69.900 22.137531
69.905 21.169626
69.910 20.292276
69.915 19.687584
69.920 19.093555
69.925 18.770765
69.930 18.749855
69.935 18.26709
69.940 18.577902
69.945 18.572855
69.950 18.550726
69.955 18.230047
69.960 17.875568
69.965 17.751207
69.970 17.391209
69.975 17.194242
69.980 17.266289
69.985 17.108715
69.990 17.519657
69.995 18.19488
70.000 18.736343
70.005 18.975227
70.010 19.165592
70.015 18.914848
70.020 19.008778
70.025 18.610653
70.030 18.363373
70.035 18.233915
70.040 17.771938
70.045 17.439846
70.050 17.515507
70.055 17.294159
70.060 17.327131
70.065 17.167196
70.070 17.499046
70.075 17.66942
70.080 18.073431
70.085 17.907948
70.090 17.355755
70.095 16.578537
70.100 16.007593
70.105 15.37367
70.110 15.176532
70.115 14.624059
70.120 14.832771
70.125 15.740053
70.130 16.618874
70.135 16.831182
70.140 17.224789
70.145 17.478374
70.150 17.387337
70.155 17.300371
70.160 16.754601
70.165 16.031504
70.170 16.171898
70.175 15.807424
70.180 15.828752
70.185 16.353992
70.190 16.414167
70.195 16.373444
70.200 16.437822
70.205 15.949968
70.210 16.345238
70.215 16.210224
70.220 16.000864
70.225 16.401915
70.230 16.726797
70.235 16.912767
70.240 16.946497
70.245 16.406273
70.250 16.813999
70.255 16.67346
70.260 16.356096
70.265 16.401121
70.270 16.673223
70.275 17.193218
70.280 17.387173
70.285 17.356974
70.290 17.0299
70.295 17.192463
70.300 17.343111
70.305 16.495211
70.310 16.252487
70.315 16.378433
70.320 16.564386
70.325 16.097963
70.330 16.203779
70.335 16.348673
70.340 17.105288
70.345 17.351067
70.350 16.744555
70.355 16.769159
70.360 17.247837
70.365 17.564482
70.370 17.053795
70.375 16.704653
70.380 16.799421
70.385 17.389772
70.390 17.403851
70.395 16.965794
70.400 16.449198
70.405 16.899443
70.410 17.350298
70.415 16.975296
70.420 17.192848
70.425 17.234993
70.430 17.573942
70.435 17.469275
70.440 16.972626
70.445 16.044222
70.450 15.884808
70.455 15.229398
70.460 15.509787
70.465 15.475751
70.470 15.869135
70.475 16.738529
70.480 17.723089
70.485 18.040022
70.490 18.774237
70.495 18.905258
70.500 18.653019
70.505 18.410847
70.510 18.266596
70.515 17.187309
70.520 16.950735
70.525 16.199316
70.530 15.83498
70.535 15.934987
70.540 15.595832
70.545 15.469544
70.550 15.963028
70.555 16.134405
70.560 16.191799
70.565 16.293444
70.570 16.306091
70.575 15.942204
70.580 16.162466
70.585 16.446671
70.590 16.721605
70.595 16.440237
70.600 16.284266
70.605 16.28681
70.610 16.832685
70.615 16.763351
70.620 16.402771
70.625 16.268105
70.630 16.434546
70.635 16.214424
70.640 15.98266
70.645 15.729403
70.650 15.861285
70.655 16.554379
70.660 16.995003
70.665 17.690493
70.670 17.939585
70.675 17.83593
70.680 17.865257
70.685 17.910952
70.690 18.049828
70.695 17.988697
70.700 17.651503
70.705 18.001938
70.710 17.902561
70.715 17.760239
70.720 16.707411
70.725 15.746464
70.730 15.299677
70.735 15.229573
70.740 14.837832
70.745 14.857071
70.750 14.666286
70.755 15.088107
70.760 15.432913
70.765 15.952437
70.770 15.998004
70.775 15.88104
70.780 15.63966
70.785 15.975265
70.790 16.658382
70.795 16.680885
70.800 16.055157
70.805 16.140831
70.810 16.203091
70.815 16.984533
70.820 17.23579
70.825 16.644676
70.830 16.880058
70.835 17.432102
70.840 17.827576
70.845 17.835976
70.850 17.727476
70.855 17.654259
70.860 17.523563
70.865 17.166727
70.870 17.064724
70.875 17.224342
70.880 17.13549
70.885 16.568375
70.890 16.293665
70.895 16.146313
70.900 16.273376
70.905 15.646002
70.910 15.394312
70.915 15.628221
70.920 15.931803
70.925 16.08551
70.930 16.399591
70.935 16.605988
70.940 17.077303
70.945 16.623455
70.950 16.495586
70.955 16.189054
70.960 16.39057
70.965 16.225771
70.970 16.288795
70.975 16.471544
70.980 16.826857
70.985 16.923779
70.990 17.266941
70.995 17.076269
71.000 16.984013
71.005 16.589384
71.010 16.518637
71.015 16.66477
71.020 16.468288
71.025 16.176313
71.030 16.43181
71.035 17.213579
71.040 17.25419
71.045 16.862135
71.050 17.096758
71.055 17.639938
71.060 18.046604
71.065 17.384443
71.070 17.149115
71.075 17.108137
71.080 16.79561
71.085 16.455597
71.090 16.140081
71.095 15.620465
71.100 15.951857
71.105 15.535255
71.110 16.182041
71.115 16.466719
71.120 16.693136
71.125 17.255419
71.130 17.779406
71.135 18.149706
71.140 18.036699
71.145 17.463341
71.150 17.119776
71.155 16.446865
71.160 15.60174
71.165 15.114784
71.170 14.919711
71.175 14.742809
71.180 14.933558
71.185 14.927421
71.190 15.036896
71.195 15.494327
71.200 15.504669
71.205 15.843541
71.210 16.212008
71.215 16.734383
71.220 16.930471
71.225 16.820662
71.230 16.768517
71.235 17.312878
71.240 17.218882
71.245 16.883392
71.250 16.681019
71.255 16.484711
71.260 16.573744
71.265 16.473108
71.270 16.044708
71.275 16.62994
71.280 16.654348
71.285 17.098513
71.290 17.681465
71.295 17.732971
71.300 17.13945
71.305 16.831566
71.310 16.187449
71.315 15.77491
71.320 15.420603
71.325 15.478652
71.330 15.556722
71.335 15.778598
71.340 16.107832
71.345 16.60338
71.350 16.721395
71.355 16.499525
71.360 16.360229
71.365 16.552591
71.370 16.748035
71.375 16.937744
71.380 16.980711
71.385 17.147795
71.390 16.663437
71.395 16.699287
71.400 16.51156
71.405 16.150166
71.410 16.363361
71.415 16.058229
71.420 15.8998
71.425 16.157656
71.430 16.057981
71.435 16.045628
71.440 15.667102
71.445 14.954101
71.450 15.251248
71.455 15.242025
71.460 15.201501
71.465 15.010345
71.470 14.574492
71.475 14.379331
71.480 14.717157
71.485 15.10551
71.490 15.541931
71.495 15.824015
71.500 16.173584
71.505 16.58213
71.510 16.970873
71.515 16.726677
71.520 16.745966
71.525 16.141666
71.530 16.317707
71.535 16.432674
71.540 16.989201
71.545 17.231503
71.550 17.197796
71.555 17.229713
71.560 17.665953
71.565 17.462797
71.570 16.970539
71.575 16.689125
71.580 16.56382
71.585 16.458969
71.590 16.215075
71.595 16.096329
71.600 16.365816
71.605 16.103416
71.610 15.950049
71.615 15.759221
71.620 16.002129
71.625 16.433552
71.630 16.144197
71.635 16.243849
71.640 17.327074
71.645 17.26885
71.650 17.388842
71.655 16.497622
71.660 16.141026
71.665 16.294855
71.670 16.271334
71.675 15.915388
71.680 16.036814
71.685 16.075962
71.690 16.356287
71.695 16.595705
71.700 16.38133
71.705 15.778344
71.710 15.564003
71.715 15.722762
71.720 15.685834
71.725 15.318879
71.730 15.480015
71.735 15.746697
71.740 15.889045
71.745 15.386824
71.750 15.337438
71.755 15.70953
71.760 15.908771
71.765 15.459323
71.770 15.145576
71.775 15.724886
71.780 16.072937
71.785 15.980906
71.790 15.769906
71.795 15.532093
71.800 16.055267
71.805 16.622583
71.810 16.457716
71.815 16.900145
71.820 17.316074
71.825 17.754807
71.830 17.669153
71.835 17.156284
71.840 17.479395
71.845 18.009726
71.850 17.962307
71.855 17.27243
71.860 17.234501
71.865 17.380594
71.870 17.517138
71.875 17.203623
71.880 17.393642
71.885 17.189137
71.890 17.612226
71.895 17.886984
71.900 17.80995
71.905 17.61574
71.910 16.771109
71.915 16.098169
71.920 16.094269
71.925 15.808953
71.930 15.649656
71.935 15.158953
71.940 14.994518
71.945 15.038258
71.950 15.642899
71.955 15.688827
71.960 15.957555
71.965 16.22089
71.970 16.482201
71.975 16.690586
71.980 16.736996
71.985 16.375692
71.990 15.967782
71.995 15.508815
72.000 15.300708
72.005 15.323604
72.010 15.547429
72.015 15.699097
72.020 16.004866
72.025 16.46137
72.030 16.850689
72.035 16.787624
72.040 16.816309
72.045 16.701511
72.050 16.522243
72.055 16.650784
72.060 16.315182
72.065 15.83379
72.070 16.134665
72.075 15.88179
72.080 15.166064
72.085 14.765609
72.090 13.986832
72.095 13.925096
72.100 14.369026
72.105 14.27441
72.110 14.599489
72.115 14.788385
72.120 15.545107
72.125 16.295996
72.130 16.434937
72.135 16.077663
72.140 15.833341
72.145 15.786228
72.150 15.880937
72.155 15.156899
72.160 14.906322
72.165 15.160424
72.170 15.293653
72.175 15.77993
72.180 15.807806
72.185 16.130995
72.190 16.22176
72.195 16.162685
72.200 16.30669
72.205 16.350428
72.210 16.147306
72.215 15.930644
72.220 15.218039
72.225 15.396116
72.230 15.468994
72.235 16.088121
72.240 16.070612
72.245 16.110584
72.250 16.683105
72.255 17.597216
72.260 17.170938
72.265 16.988964
72.270 15.872296
72.275 15.580687
72.280 15.939197
72.285 15.622445
72.290 15.385798
72.295 15.499705
72.300 15.513165
72.305 16.198622
72.310 16.654654
72.315 16.852737
72.320 16.471237
72.325 16.396587
72.330 16.71203
72.335 16.626562
72.340 16.550068
72.345 16.099796
72.350 15.935774
72.355 16.442301
72.360 16.549152
72.365 16.645586
72.370 16.642458
72.375 16.765038
72.380 16.732544
72.385 16.285603
72.390 15.912988
72.395 15.470092
72.400 15.32447
72.405 14.975358
72.410 14.907154
72.415 14.969811
72.420 15.502829
72.425 15.362509
72.430 15.318698
72.435 15.165014
72.440 15.518028
72.445 15.746688
72.450 15.680262
72.455 15.438382
72.460 15.456871
72.465 15.896814
72.470 15.723426
72.475 15.722404
72.480 15.779674
72.485 15.540341
72.490 15.766757
72.495 15.869523
72.500 15.8891
72.505 16.039143
72.510 15.192325
72.515 15.242227
72.520 15.820045
72.525 15.910237
72.530 15.782228
72.535 15.682838
72.540 15.855511
72.545 16.069025
72.550 15.773437
72.555 15.823396
72.560 15.380375
72.565 15.014257
72.570 14.974603
72.575 15.525406
72.580 16.105976
72.585 16.062176
72.590 15.676432
72.595 15.923965
72.600 16.010828
72.605 15.971012
72.610 15.196806
72.615 14.698138
72.620 14.656123
72.625 15.091855
72.630 15.085428
72.635 14.431447
72.640 14.258201
72.645 14.585982
72.650 14.274905
72.655 13.893802
72.660 13.779299
72.665 14.479809
72.670 15.378999
72.675 15.603016
72.680 15.457525
72.685 15.913022
72.690 16.314859
72.695 16.192898
72.700 15.832039
72.705 15.746693
72.710 15.893679
72.715 16.111153
72.720 15.910863
72.725 15.689167
72.730 15.523582
72.735 15.761461
72.740 15.560372
72.745 14.963342
72.750 14.568467
72.755 14.416976
72.760 13.962708
72.765 14.197712
72.770 13.798397
72.775 13.740021
72.780 13.763162
72.785 13.680394
72.790 14.864577
72.795 15.459216
72.800 15.828335
72.805 16.135195
72.810 16.258509
72.815 16.238316
72.820 15.902492
72.825 15.334468
72.830 14.843521
72.835 14.30547
72.840 14.046088
72.845 13.924009
72.850 14.179188
72.855 13.505321
72.860 13.502022
72.865 13.580697
72.870 13.706258
72.875 13.691428
72.880 13.749654
72.885 14.187549
72.890 14.273607
72.895 14.350262
72.900 14.457351
72.905 14.509121
72.910 14.800334
72.915 15.105718
72.920 15.357543
72.925 15.849711
72.930 15.906182
72.935 15.886917
72.940 16.044174
72.945 15.92973
72.950 15.755898
72.955 16.024485
72.960 15.716822
72.965 15.437837
72.970 15.414619
72.975 14.630352
72.980 14.589182
72.985 14.581768
72.990 14.200863
72.995 13.78221
73.000 14.244274
