!@!!GADDS PLOTSO FILE: Chi integration type
!@!!Title/SampleName: map-130
!@!!Comment: ?
!@!!User: Bruker Instrument Administrator
!@!!Site: University of Illinois Chicago
!@!!Frame: map-130_01_000.gfrm
!@!!Wavelengths    1.54184   1.54056   1.54439
!@!!Frame angles: 2Theta: 63.000 Omega: 50.000 Phi: 0.000 Chi: 90.000
!@!!Integration range: 2Theta: 53.000 to 73.000  Gamma: -105.000 to -75.000
!@!!Integration method: bin normalized
!@!N
!@!SS
!@!M
!@!L 0.0 0.0 0.0 0.0
!@!XDegrees
!@!YCounts
53.000 4.358088
53.005 4.236742
53.010 4.59827
53.015 4.811852
53.020 4.721538
53.025 4.95366
53.030 5.096629
53.035 5.221196
53.040 5.049995
53.045 4.637601
53.050 4.256951
53.055 4.015581
53.060 3.752026
53.065 3.820405
53.070 3.740528
53.075 3.652202
53.080 3.56615
53.085 3.771809
53.090 3.755901
53.095 3.849108
53.100 3.743059
53.105 3.636121
53.110 4.022324
53.115 4.037345
53.120 4.198446
53.125 4.249718
53.130 4.116978
53.135 4.070851
53.140 4.34445
53.145 4.38004
53.150 4.532282
53.155 4.241965
53.160 4.266636
53.165 4.247077
53.170 4.12346
53.175 3.972878
53.180 3.801601
53.185 3.494221
53.190 3.536829
53.195 3.619239
53.200 3.746409
53.205 3.716643
53.210 3.653094
53.215 3.917013
53.220 4.108124
53.225 4.231076
53.230 4.416126
53.235 4.396303
53.240 4.339798
53.245 4.617008
53.250 4.722574
53.255 4.954594
53.260 5.071987
53.265 5.40758
53.270 5.309984
53.275 5.470129
53.280 5.25447
53.285 5.118948
53.290 4.97481
53.295 4.780548
53.300 4.444908
53.305 4.34265
53.310 4.052202
53.315 3.933151
53.320 4.043479
53.325 4.224973
53.330 3.982939
53.335 4.052155
53.340 4.161854
53.345 4.309229
53.350 4.436174
53.355 4.198657
53.360 4.024663
53.365 4.287828
53.370 4.204491
53.375 4.19535
53.380 4.006919
53.385 4.008153
53.390 4.184458
53.395 4.231751
53.400 4.211228
53.405 4.438317
53.410 4.355256
53.415 4.142015
53.420 3.692275
53.425 3.682753
53.430 3.82284
53.435 3.54986
53.440 3.507903
53.445 3.656373
53.450 3.945307
53.455 4.314147
53.460 4.274715
53.465 3.960455
53.470 4.054499
53.475 4.045286
53.480 3.833756
53.485 3.940321
53.490 3.975754
53.495 4.229564
53.500 4.427697
53.505 4.351135
53.510 4.598925
53.515 4.83366
53.520 4.563655
53.525 4.173793
53.530 4.158494
53.535 4.269369
53.540 4.087379
53.545 3.919894
53.550 4.206697
53.555 4.410542
53.560 4.523888
53.565 4.443661
53.570 4.318629
53.575 4.652972
53.580 4.472283
53.585 4.094098
53.590 4.396143
53.595 4.361495
53.600 4.500152
53.605 4.473108
53.610 4.270304
53.615 4.359835
53.620 4.432145
53.625 4.148931
53.630 4.175737
53.635 4.132792
53.640 4.104448
53.645 3.8748
53.650 3.905844
53.655 3.857491
53.660 3.74221
53.665 3.899937
53.670 3.871474
53.675 4.131901
53.680 4.466107
53.685 4.427037
53.690 5.118708
53.695 5.150424
53.700 5.03915
53.705 5.288881
53.710 5.101647
53.715 5.126666
53.720 5.284781
53.725 4.731603
53.730 4.866273
53.735 4.870111
53.740 4.717744
53.745 4.790565
53.750 4.68502
53.755 4.871406
53.760 4.901035
53.765 4.843479
53.770 5.068754
53.775 5.249389
53.780 5.480853
53.785 5.395498
53.790 5.099528
53.795 5.296832
53.800 5.383383
53.805 5.188151
53.810 5.177339
53.815 5.337742
53.820 5.489489
53.825 5.370214
53.830 4.88915
53.835 4.867154
53.840 4.809651
53.845 4.564945
53.850 4.389225
53.855 4.52295
53.860 4.955524
53.865 5.215961
53.870 5.21416
53.875 5.384171
53.880 5.2567
53.885 4.90679
53.890 4.429629
53.895 3.822803
53.900 3.72429
53.905 3.618583
53.910 3.714825
53.915 3.957418
53.920 4.129041
53.925 4.469469
53.930 4.902981
53.935 5.012615
53.940 4.923758
53.945 4.75579
53.950 4.938922
53.955 5.091221
53.960 4.929935
53.965 4.931938
53.970 4.918582
53.975 4.882236
53.980 4.975425
53.985 4.862431
53.990 4.868206
53.995 4.935589
54.000 5.053705
54.005 5.150929
54.010 5.325414
54.015 4.92093
54.020 4.957903
54.025 5.033991
54.030 4.955632
54.035 4.736707
54.040 4.67611
54.045 4.417495
54.050 4.80493
54.055 4.728928
54.060 4.698384
54.065 4.880134
54.070 4.754669
54.075 4.685328
54.080 5.084609
54.085 5.007963
54.090 5.258395
54.095 5.100829
54.100 4.978577
54.105 5.071997
54.110 4.901791
54.115 4.907734
54.120 4.804241
54.125 4.879124
54.130 4.900651
54.135 4.883079
54.140 5.060869
54.145 5.432203
54.150 5.404582
54.155 5.27194
54.160 5.238714
54.165 5.358467
54.170 5.454619
54.175 5.412861
54.180 4.89551
54.185 5.029633
54.190 5.378404
54.195 5.451606
54.200 5.549645
54.205 5.76672
54.210 6.017351
54.215 5.835253
54.220 5.211959
54.225 5.12104
54.230 5.170392
54.235 5.393716
54.240 5.173188
54.245 4.919718
54.250 5.631154
54.255 5.832204
54.260 5.685567
54.265 5.647104
54.270 5.479281
54.275 5.663849
54.280 5.852487
54.285 5.671712
54.290 5.875878
54.295 5.894936
54.300 5.744041
54.305 5.649459
54.310 5.459662
54.315 5.343681
54.320 5.180143
54.325 5.020316
54.330 5.021918
54.335 4.849616
54.340 4.980381
54.345 5.328742
54.350 5.306994
54.355 5.306173
54.360 5.428515
54.365 5.318854
54.370 5.395805
54.375 4.95627
54.380 4.591788
54.385 4.920125
54.390 4.772018
54.395 4.884828
54.400 5.282824
54.405 5.571628
54.410 6.104069
54.415 6.02444
54.420 5.666107
54.425 5.579831
54.430 5.482457
54.435 5.073262
54.440 4.704783
54.445 4.450264
54.450 4.524021
54.455 4.588944
54.460 4.940398
54.465 5.20997
54.470 5.361572
54.475 5.55396
54.480 5.97385
54.485 6.564499
54.490 6.697659
54.495 6.216306
54.500 6.177854
54.505 6.228117
54.510 5.965215
54.515 5.699085
54.520 5.131397
54.525 5.148875
54.530 5.282118
54.535 5.24365
54.540 5.258297
54.545 5.006422
54.550 4.852524
54.555 5.180314
54.560 5.256999
54.565 5.276722
54.570 5.209809
54.575 5.176396
54.580 5.367393
54.585 5.517238
54.590 5.214341
54.595 5.102002
54.600 5.289666
54.605 5.395505
54.610 5.577277
54.615 5.539925
54.620 5.796872
54.625 6.254763
54.630 6.342277
54.635 6.069632
54.640 6.212699
54.645 6.264876
54.650 6.21751
54.655 5.745976
54.660 5.489248
54.665 5.614706
54.670 5.811231
54.675 5.696292
54.680 5.661548
54.685 5.613567
54.690 5.562521
54.695 5.357864
54.700 5.320175
54.705 5.232834
54.710 5.229607
54.715 5.256501
54.720 5.227663
54.725 5.200925
54.730 5.031862
54.735 4.823978
54.740 4.766806
54.745 4.68314
54.750 4.416934
54.755 4.650099
54.760 4.807702
54.765 5.044286
54.770 5.234454
54.775 5.374017
54.780 5.385052
54.785 5.695842
54.790 5.830066
54.795 5.70727
54.800 5.798295
54.805 5.429451
54.810 5.3742
54.815 5.297517
54.820 5.373476
54.825 5.321804
54.830 5.275774
54.835 5.363392
54.840 5.315343
54.845 5.493039
54.850 5.449743
54.855 5.491539
54.860 5.803488
54.865 5.966372
54.870 5.968135
54.875 6.189878
54.880 6.44799
54.885 6.519181
54.890 6.144751
54.895 6.196523
54.900 6.37345
54.905 6.215782
54.910 5.957327
54.915 6.144646
54.920 6.142642
54.925 6.263865
54.930 6.082262
54.935 6.313203
54.940 6.509336
54.945 6.590993
54.950 6.724519
54.955 6.880799
54.960 6.681397
54.965 6.6423
54.970 6.507342
54.975 6.304512
54.980 5.891122
54.985 5.409896
54.990 5.166955
54.995 5.05681
55.000 4.563024
55.005 4.29909
55.010 4.21861
55.015 4.221992
55.020 4.55238
55.025 4.817793
55.030 5.197401
55.035 5.351161
55.040 5.833984
55.045 6.119346
55.050 6.193033
55.055 5.9187
55.060 5.522624
55.065 5.268659
55.070 5.366949
55.075 5.438598
55.080 5.840679
55.085 5.811321
55.090 5.721113
55.095 6.087685
55.100 6.425872
55.105 6.497478
55.110 6.248339
55.115 5.865123
55.120 5.995527
55.125 6.158642
55.130 5.853796
55.135 5.775968
55.140 5.724195
55.145 5.60675
55.150 5.472264
55.155 5.526916
55.160 5.458131
55.165 5.302954
55.170 5.368635
55.175 5.459064
55.180 5.499645
55.185 5.666184
55.190 5.775929
55.195 6.095398
55.200 6.501398
55.205 6.113554
55.210 6.014178
55.215 6.451735
55.220 6.285093
55.225 6.03192
55.230 5.97911
55.235 5.874201
55.240 6.074152
55.245 6.008746
55.250 5.966968
55.255 6.069452
55.260 6.284152
55.265 6.22806
55.270 6.015121
55.275 5.988934
55.280 5.88813
55.285 5.620805
55.290 5.297047
55.295 5.63173
55.300 5.686581
55.305 5.724045
55.310 5.933055
55.315 6.034083
55.320 6.323349
55.325 6.342838
55.330 5.787628
55.335 5.95046
55.340 5.786662
55.345 5.537401
55.350 5.720075
55.355 6.206985
55.360 6.447277
55.365 6.577473
55.370 6.326611
55.375 6.620196
55.380 6.663333
55.385 6.621845
55.390 6.327934
55.395 6.594431
55.400 6.61788
55.405 6.405808
55.410 6.231225
55.415 6.069531
55.420 5.786555
55.425 5.98968
55.430 5.913712
55.435 5.977664
55.440 6.098617
55.445 6.13758
55.450 5.908237
55.455 5.673895
55.460 5.439932
55.465 4.799271
55.470 4.74811
55.475 5.036695
55.480 4.713216
55.485 5.007246
55.490 5.401175
55.495 5.214031
55.500 5.453063
55.505 5.477249
55.510 5.528298
55.515 5.90568
55.520 5.684356
55.525 5.367428
55.530 5.420007
55.535 5.61614
55.540 5.520336
55.545 5.609224
55.550 5.567918
55.555 5.588923
55.560 5.763728
55.565 6.070617
55.570 6.041886
55.575 6.198157
55.580 6.193616
55.585 6.143516
55.590 6.224603
55.595 6.072187
55.600 5.621529
55.605 5.497419
55.610 5.601474
55.615 5.518322
55.620 5.426286
55.625 5.169514
55.630 5.320887
55.635 5.581804
55.640 5.762224
55.645 5.376095
55.650 5.562906
55.655 5.817645
55.660 6.486672
55.665 6.644978
55.670 6.531786
55.675 6.818297
55.680 6.824677
55.685 6.55646
55.690 6.440436
55.695 6.127374
55.700 6.423812
55.705 6.41572
55.710 6.167027
55.715 6.416923
55.720 6.532452
55.725 6.612227
55.730 6.51538
55.735 6.50026
55.740 6.492372
55.745 6.143207
55.750 5.899211
55.755 6.080697
55.760 6.178741
55.765 6.288379
55.770 6.003355
55.775 6.172456
55.780 6.356623
55.785 6.35113
55.790 6.000227
55.795 5.815054
55.800 5.621426
55.805 5.604509
55.810 5.727841
55.815 5.978648
55.820 6.182905
55.825 6.544601
55.830 6.887094
55.835 7.180907
55.840 7.202781
55.845 7.300078
55.850 6.971147
55.855 6.480268
55.860 6.133379
55.865 6.085439
55.870 6.097064
55.875 5.900758
55.880 5.793638
55.885 6.234264
55.890 6.42814
55.895 6.332529
55.900 6.251798
55.905 6.134695
55.910 6.123022
55.915 6.124539
55.920 6.074222
55.925 6.179718
55.930 6.344293
55.935 6.378915
55.940 6.734004
55.945 7.260904
55.950 7.351452
55.955 7.515759
55.960 7.817893
55.965 7.713583
55.970 7.471798
55.975 7.22716
55.980 6.865937
55.985 6.489989
55.990 6.299565
55.995 6.032368
56.000 6.20667
56.005 6.313108
56.010 6.349808
56.015 6.121191
56.020 6.110332
56.025 6.157362
56.030 6.641544
56.035 6.600499
56.040 6.571336
56.045 6.324288
56.050 6.317104
56.055 6.784995
56.060 6.607459
56.065 6.109606
56.070 5.924466
56.075 5.888831
56.080 6.326222
56.085 6.395635
56.090 6.083408
56.095 5.977057
56.100 5.998434
56.105 6.088525
56.110 6.316817
56.115 6.617154
56.120 6.685561
56.125 7.188941
56.130 7.254922
56.135 7.50507
56.140 7.575102
56.145 7.208289
56.150 6.52838
56.155 6.245057
56.160 5.80481
56.165 5.81782
56.170 5.517722
56.175 5.231348
56.180 5.276868
56.185 5.594015
56.190 5.83599
56.195 6.144325
56.200 6.097538
56.205 6.215352
56.210 6.454385
56.215 6.914023
56.220 7.218974
56.225 7.065612
56.230 6.988194
56.235 6.946031
56.240 6.948684
56.245 6.969528
56.250 6.897672
56.255 6.631245
56.260 6.543242
56.265 6.755908
56.270 6.740297
56.275 6.694498
56.280 6.30543
56.285 5.94015
56.290 5.852093
56.295 5.81665
56.300 5.750341
56.305 5.910323
56.310 6.271172
56.315 6.460564
56.320 6.565665
56.325 6.618008
56.330 6.352329
56.335 6.209193
56.340 6.080691
56.345 5.757032
56.350 5.739998
56.355 5.416209
56.360 5.42926
56.365 5.662271
56.370 5.732178
56.375 5.728935
56.380 5.95294
56.385 6.278836
56.390 6.612198
56.395 6.859681
56.400 6.800105
56.405 6.948441
56.410 6.793012
56.415 6.785856
56.420 7.068776
56.425 6.866085
56.430 6.942412
56.435 6.660347
56.440 6.759591
56.445 6.521317
56.450 6.196935
56.455 5.835592
56.460 5.986763
56.465 5.778221
56.470 6.16737
56.475 5.971631
56.480 6.49749
56.485 6.525114
56.490 6.625328
56.495 6.902068
56.500 7.031879
56.505 6.718517
56.510 7.055979
56.515 6.969802
56.520 7.37724
56.525 7.488293
56.530 6.827929
56.535 6.787725
56.540 6.635247
56.545 6.478331
56.550 6.443913
56.555 6.044308
56.560 5.965092
56.565 6.199434
56.570 5.989889
56.575 5.959875
56.580 5.907881
56.585 6.248617
56.590 6.494874
56.595 6.747312
56.600 7.015037
56.605 7.286783
56.610 7.655606
56.615 7.659808
56.620 7.15755
56.625 6.660385
56.630 6.376734
56.635 6.139979
56.640 6.408541
56.645 6.454496
56.650 6.730123
56.655 6.97868
56.660 7.276336
56.665 7.422639
56.670 7.358811
56.675 6.779234
56.680 6.566807
56.685 6.237964
56.690 6.31563
56.695 6.221686
56.700 5.994497
56.705 6.183226
56.710 6.432265
56.715 6.467403
56.720 6.520049
56.725 6.264242
56.730 6.489218
56.735 6.854015
56.740 7.225771
56.745 7.391683
56.750 7.645156
56.755 8.062817
56.760 8.091787
56.765 7.86072
56.770 8.030697
56.775 7.63027
56.780 7.79375
56.785 7.570762
56.790 7.403669
56.795 7.543323
56.800 8.1052
56.805 8.257599
56.810 8.474242
56.815 8.225411
56.820 8.078172
56.825 8.26614
56.830 8.690774
56.835 8.531899
56.840 8.134163
56.845 8.019876
56.850 8.218433
56.855 8.560081
56.860 8.07301
56.865 7.306127
56.870 6.758821
56.875 6.538104
56.880 6.399859
56.885 6.157952
56.890 6.156638
56.895 6.489353
56.900 6.732802
56.905 6.981336
56.910 7.493963
56.915 7.680308
56.920 7.539288
56.925 7.269925
56.930 7.233591
56.935 7.073289
56.940 6.780847
56.945 6.562326
56.950 6.490478
56.955 6.676428
56.960 6.701619
56.965 6.727775
56.970 7.10351
56.975 7.289205
56.980 7.212461
56.985 7.232684
56.990 7.191192
56.995 7.339347
57.000 7.422658
57.005 7.793432
57.010 7.621956
57.015 7.521898
57.020 7.875957
57.025 8.060282
57.030 7.819975
57.035 7.63289
57.040 7.429576
57.045 7.664296
57.050 7.423371
57.055 7.013738
57.060 6.936192
57.065 6.996391
57.070 7.007813
57.075 6.819045
57.080 7.253751
57.085 7.279236
57.090 7.29425
57.095 7.35963
57.100 7.326296
57.105 7.237843
57.110 7.218598
57.115 6.947369
57.120 7.198617
57.125 7.596094
57.130 7.71232
57.135 7.891066
57.140 7.792931
57.145 7.650684
57.150 7.842274
57.155 7.981514
57.160 7.685867
57.165 7.572393
57.170 7.796986
57.175 8.12466
57.180 8.006592
57.185 7.497625
57.190 7.413174
57.195 7.161343
57.200 7.061498
57.205 6.864221
57.210 6.436338
57.215 6.059807
57.220 6.060651
57.225 5.765733
57.230 5.764023
57.235 5.522191
57.240 5.516757
57.245 5.959168
57.250 6.29722
57.255 6.440607
57.260 7.111516
57.265 7.714817
57.270 7.953689
57.275 7.878119
57.280 7.477985
57.285 7.552727
57.290 7.571048
57.295 7.272206
57.300 6.943365
57.305 6.828562
57.310 6.579594
57.315 7.333019
57.320 7.844131
57.325 7.609703
57.330 7.451012
57.335 7.414566
57.340 7.593496
57.345 7.863244
57.350 7.329022
57.355 7.22248
57.360 7.382222
57.365 7.738829
57.370 7.918149
57.375 7.782544
57.380 8.041648
57.385 7.910128
57.390 7.681962
57.395 8.053918
57.400 7.927475
57.405 7.578141
57.410 7.472663
57.415 7.284159
57.420 7.739834
57.425 8.011407
57.430 7.496799
57.435 7.486211
57.440 7.993267
57.445 8.400809
57.450 8.648088
57.455 8.304713
57.460 7.995986
57.465 8.028885
57.470 8.04137
57.475 7.591795
57.480 7.465331
57.485 7.397633
57.490 7.520784
57.495 7.706119
57.500 7.655366
57.505 7.591473
57.510 7.757051
57.515 7.616203
57.520 6.921542
57.525 6.634813
57.530 6.633181
57.535 6.929301
57.540 7.394782
57.545 7.567438
57.550 7.679226
57.555 8.218509
57.560 8.317268
57.565 8.368536
57.570 8.00542
57.575 7.425291
57.580 7.52978
57.585 7.420987
57.590 7.367451
57.595 7.221265
57.600 7.137452
57.605 7.226243
57.610 7.268251
57.615 7.170342
57.620 7.654471
57.625 7.933153
57.630 8.336095
57.635 8.5747
57.640 8.682866
57.645 8.956615
57.650 8.867229
57.655 8.770994
57.660 8.864262
57.665 8.836564
57.670 8.538715
57.675 8.222128
57.680 8.260004
57.685 8.429894
57.690 8.222829
57.695 7.706443
57.700 7.598825
57.705 7.814567
57.710 8.097329
57.715 7.857236
57.720 8.187063
57.725 8.142904
57.730 8.479944
57.735 8.561483
57.740 8.157045
57.745 7.823928
57.750 7.526298
57.755 7.429513
57.760 7.799978
57.765 7.590446
57.770 7.468011
57.775 7.752529
57.780 7.983472
57.785 8.004713
57.790 7.627511
57.795 7.454089
57.800 7.730076
57.805 7.538338
57.810 7.467355
57.815 7.67214
57.820 7.503975
57.825 7.382677
57.830 7.589417
57.835 7.360163
57.840 7.800567
57.845 7.740239
57.850 7.393319
57.855 7.604889
57.860 7.582527
57.865 7.474434
57.870 7.827454
57.875 7.686561
57.880 8.155038
57.885 8.386118
57.890 8.571528
57.895 8.660164
57.900 8.747948
57.905 8.614364
57.910 8.358697
57.915 8.111594
57.920 8.362908
57.925 8.599899
57.930 8.515646
57.935 8.15386
57.940 8.282906
57.945 8.465496
57.950 8.600262
57.955 8.511502
57.960 8.465075
57.965 8.844882
57.970 9.186273
57.975 9.159429
57.980 9.407489
57.985 9.323301
57.990 9.153261
57.995 9.12538
58.000 8.907077
58.005 8.368656
58.010 8.232846
58.015 7.85464
58.020 7.678952
58.025 7.620317
58.030 7.562182
58.035 7.833303
58.040 8.233262
58.045 8.43253
58.050 9.112019
58.055 9.280659
58.060 9.512061
58.065 9.846796
58.070 9.904108
58.075 9.636704
58.080 9.233839
58.085 8.687457
58.090 8.756114
58.095 8.485753
58.100 8.311902
58.105 8.538454
58.110 8.906381
58.115 9.359601
58.120 9.850574
58.125 9.777514
58.130 10.157825
58.135 9.887917
58.140 9.701186
58.145 9.850364
58.150 9.630742
58.155 9.473
58.160 9.519037
58.165 9.231962
58.170 9.463341
58.175 9.144018
58.180 8.736876
58.185 9.15029
58.190 8.83549
58.195 8.728893
58.200 8.809156
58.205 9.12739
58.210 9.523696
58.215 9.531992
58.220 9.432055
58.225 10.09755
58.230 10.278292
58.235 10.120254
58.240 9.738508
58.245 9.64518
58.250 9.901501
58.255 9.967634
58.260 9.843816
58.265 9.455014
58.270 9.387738
58.275 9.65783
58.280 9.797801
58.285 9.946948
58.290 9.731035
58.295 9.709721
58.300 9.782871
58.305 9.795576
58.310 9.318023
58.315 9.179741
58.320 8.818057
58.325 8.583633
58.330 8.712964
58.335 9.06151
58.340 8.980543
58.345 9.322195
58.350 9.80365
58.355 10.493254
58.360 10.811807
58.365 10.730502
58.370 10.942367
58.375 11.137059
58.380 10.887116
58.385 10.797751
58.390 10.248715
58.395 10.346195
58.400 10.82605
58.405 10.815147
58.410 10.910045
58.415 11.251155
58.420 11.43577
58.425 11.960909
58.430 12.149049
58.435 11.962206
58.440 12.136474
58.445 12.452576
58.450 13.039549
58.455 13.699022
58.460 13.99933
58.465 13.670198
58.470 13.540917
58.475 13.696142
58.480 12.952416
58.485 12.393486
58.490 11.822775
58.495 11.772003
58.500 12.316748
58.505 12.266645
58.510 12.477502
58.515 13.265561
58.520 13.796759
58.525 14.200755
58.530 14.025267
58.535 13.798202
58.540 14.228396
58.545 14.247912
58.550 14.420187
58.555 14.432502
58.560 15.261883
58.565 16.001394
58.570 16.881079
58.575 17.610506
58.580 18.113373
58.585 18.171537
58.590 18.272614
58.595 17.242918
58.600 16.908155
58.605 16.752893
58.610 16.212315
58.615 16.205744
58.620 16.314939
58.625 16.789543
58.630 17.993189
58.635 18.30917
58.640 18.458622
58.645 18.529217
58.650 18.190443
58.655 17.997665
58.660 17.823376
58.665 17.415562
58.670 17.57518
58.675 17.478754
58.680 17.580791
58.685 17.906073
58.690 18.171728
58.695 18.439951
58.700 18.640259
58.705 18.528286
58.710 18.464993
58.715 18.241419
58.720 18.273441
58.725 18.496773
58.730 18.176826
58.735 17.653738
58.740 17.49086
58.745 17.440029
58.750 17.585472
58.755 17.859819
58.760 17.675709
58.765 17.636921
58.770 17.801912
58.775 18.410053
58.780 18.841858
58.785 18.604311
58.790 17.45718
58.795 17.019987
58.800 17.453714
58.805 17.425879
58.810 16.472023
58.815 15.621943
58.820 15.677987
58.825 16.396229
58.830 16.209969
58.835 15.187238
58.840 14.575181
58.845 14.524747
58.850 15.50346
58.855 15.752274
58.860 15.327849
58.865 14.873056
58.870 14.977212
58.875 15.92378
58.880 16.25222
58.885 15.474888
58.890 15.455692
58.895 15.416611
58.900 15.761251
58.905 15.687078
58.910 14.534141
58.915 13.927966
58.920 13.344813
58.925 13.107105
58.930 12.973382
58.935 12.472025
58.940 11.890729
58.945 12.242034
58.950 12.192006
58.955 11.81422
58.960 11.291441
58.965 11.350684
58.970 11.478761
58.975 11.800838
58.980 11.641547
58.985 11.550752
58.990 11.365357
58.995 11.342373
59.000 11.42052
59.005 11.384775
59.010 11.204978
59.015 11.237042
59.020 11.7076
59.025 11.938084
59.030 11.950021
59.035 11.734559
59.040 11.817033
59.045 11.356661
59.050 10.840047
59.055 10.931913
59.060 11.251435
59.065 11.71238
59.070 11.594137
59.075 11.172782
59.080 11.221801
59.085 11.038857
59.090 10.429274
59.095 9.85724
59.100 9.249108
59.105 8.954837
59.110 8.853751
59.115 9.054569
59.120 9.538614
59.125 9.608296
59.130 9.752557
59.135 9.835523
59.140 9.908173
59.145 10.052112
59.150 9.86139
59.155 9.655847
59.160 9.69618
59.165 9.386049
59.170 9.31636
59.175 9.563754
59.180 9.937579
59.185 9.953012
59.190 9.861649
59.195 9.799788
59.200 10.002032
59.205 9.898244
59.210 9.625946
59.215 9.018773
59.220 9.204034
59.225 9.236659
59.230 9.032949
59.235 8.903891
59.240 8.916109
59.245 9.281661
59.250 9.15564
59.255 8.62198
59.260 8.458695
59.265 8.645367
59.270 8.760467
59.275 8.630219
59.280 8.15135
59.285 8.040832
59.290 8.02903
59.295 8.179379
59.300 7.998277
59.305 8.301166
59.310 8.250564
59.315 8.197177
59.320 8.590176
59.325 9.05088
59.330 9.127786
59.335 9.215821
59.340 8.797481
59.345 8.934729
59.350 9.049052
59.355 9.165549
59.360 9.161668
59.365 9.22857
59.370 9.229194
59.375 9.234522
59.380 9.295921
59.385 9.845913
59.390 9.863544
59.395 9.539256
59.400 9.251994
59.405 9.040725
59.410 8.937435
59.415 8.741681
59.420 8.256957
59.425 8.266652
59.430 8.416082
59.435 8.534372
59.440 8.590041
59.445 8.932853
59.450 8.888166
59.455 8.905103
59.460 8.481402
59.465 8.301585
59.470 8.285398
59.475 8.715763
59.480 8.662125
59.485 8.693886
59.490 8.864051
59.495 9.34038
59.500 9.976097
59.505 10.03216
59.510 9.550058
59.515 8.939531
59.520 8.907595
59.525 8.318645
59.530 7.673626
59.535 6.968268
59.540 6.779555
59.545 7.26958
59.550 7.983125
59.555 8.462687
59.560 9.074668
59.565 9.396215
59.570 9.731812
59.575 10.006874
59.580 10.015234
59.585 9.69035
59.590 9.486599
59.595 9.774768
59.600 9.796751
59.605 9.84996
59.610 9.807405
59.615 9.792947
59.620 10.143267
59.625 10.119817
59.630 9.326184
59.635 9.300815
59.640 9.247625
59.645 8.990363
59.650 8.725743
59.655 8.300195
59.660 8.081507
59.665 8.41571
59.670 7.988461
59.675 7.941692
59.680 7.876598
59.685 8.112391
59.690 8.495353
59.695 8.463693
59.700 8.80728
59.705 8.938901
59.710 9.026748
59.715 9.268577
59.720 9.375288
59.725 9.473327
59.730 9.931017
59.735 9.636204
59.740 9.725379
59.745 9.853049
59.750 9.529492
59.755 9.261916
59.760 9.227388
59.765 9.035667
59.770 8.940331
59.775 9.191615
59.780 9.07648
59.785 9.130169
59.790 8.985642
59.795 8.769422
59.800 8.951123
59.805 8.917005
59.810 8.725655
59.815 9.260288
59.820 9.456771
59.825 9.541327
59.830 9.341715
59.835 8.826117
59.840 8.947179
59.845 8.948269
59.850 8.458261
59.855 8.535878
59.860 8.565938
59.865 8.785355
59.870 9.154378
59.875 8.992586
59.880 8.889458
59.885 9.012388
59.890 8.932446
59.895 8.879465
59.900 8.849207
59.905 8.876519
59.910 9.099879
59.915 9.219132
59.920 8.864942
59.925 9.00351
59.930 9.084446
59.935 9.295273
59.940 8.974192
59.945 9.001085
59.950 9.103717
59.955 9.448412
59.960 9.469895
59.965 9.129125
59.970 8.663937
59.975 8.642907
59.980 8.87799
59.985 8.866143
59.990 8.762983
59.995 8.650366
60.000 8.652964
60.005 8.848033
60.010 9.245576
60.015 9.738334
60.020 10.034204
60.025 10.098496
60.030 10.181927
60.035 10.131145
60.040 10.050198
60.045 10.218189
60.050 9.618541
60.055 9.492927
60.060 9.566877
60.065 9.609179
60.070 9.992414
60.075 10.311415
60.080 9.751334
60.085 9.747602
60.090 9.236719
60.095 8.838593
60.100 8.946974
60.105 8.946683
60.110 8.642502
60.115 8.804258
60.120 8.504885
60.125 8.670962
60.130 9.089849
60.135 8.69908
60.140 8.569136
60.145 8.192651
60.150 8.076246
60.155 8.403543
60.160 8.746741
60.165 8.909126
60.170 9.273774
60.175 9.501764
60.180 9.735449
60.185 9.855829
60.190 9.963675
60.195 9.515236
60.200 9.128775
60.205 9.139434
60.210 9.416728
60.215 9.551417
60.220 9.259428
60.225 9.021338
60.230 9.434493
60.235 9.54356
60.240 9.21023
60.245 8.966733
60.250 8.563062
60.255 8.365289
60.260 8.245672
60.265 7.545881
60.270 7.583509
60.275 7.627407
60.280 7.823259
60.285 8.407991
60.290 9.032211
60.295 9.611197
60.300 9.838074
60.305 9.853049
60.310 9.666231
60.315 9.420465
60.320 9.464776
60.325 9.02468
60.330 8.712337
60.335 8.886531
60.340 8.691146
60.345 8.985601
60.350 8.943611
60.355 8.732857
60.360 8.907086
60.365 9.257321
60.370 9.266402
60.375 9.655271
60.380 9.610244
60.385 9.81581
60.390 10.121056
60.395 10.258829
60.400 9.734791
60.405 9.572204
60.410 9.355112
60.415 9.015147
60.420 8.827817
60.425 8.896215
60.430 8.670911
60.435 8.778807
60.440 8.604022
60.445 8.604987
60.450 9.23113
60.455 9.304056
60.460 9.283504
60.465 9.305697
60.470 10.056725
60.475 10.521397
60.480 10.697111
60.485 10.628503
60.490 10.391429
60.495 9.990325
60.500 9.794511
60.505 9.640255
60.510 9.800181
60.515 9.696349
60.520 9.255816
60.525 9.436535
60.530 9.871895
60.535 10.056776
60.540 10.119223
60.545 9.979317
60.550 9.896529
60.555 10.049235
60.560 10.333019
60.565 10.56232
60.570 10.653176
60.575 10.159684
60.580 10.260727
60.585 10.142933
60.590 10.244185
60.595 9.848125
60.600 9.600005
60.605 9.827166
60.610 9.880061
60.615 9.660277
60.620 9.762739
60.625 9.743025
60.630 9.813418
60.635 9.392281
60.640 8.528416
60.645 8.229877
60.650 8.341549
60.655 7.874114
60.660 7.896724
60.665 7.99949
60.670 8.248306
60.675 8.791659
60.680 8.862792
60.685 8.963752
60.690 9.561811
60.695 9.711913
60.700 9.876143
60.705 9.868215
60.710 9.833028
60.715 9.942471
60.720 9.907557
60.725 9.591157
60.730 9.607702
60.735 9.688906
60.740 9.774152
60.745 9.969193
60.750 10.039827
60.755 9.945058
60.760 10.27691
60.765 9.815947
60.770 9.80893
60.775 10.099991
60.780 10.238725
60.785 10.336486
60.790 10.273847
60.795 10.044229
60.800 9.969916
60.805 9.597047
60.810 9.448829
60.815 9.05704
60.820 8.878105
60.825 8.702462
60.830 9.204788
60.835 9.825626
60.840 10.139854
60.845 10.033811
60.850 10.115675
60.855 11.099567
60.860 11.966118
60.865 11.787584
60.870 11.651311
60.875 11.434607
60.880 11.567915
60.885 10.952416
60.890 9.786659
60.895 9.439816
60.900 9.376767
60.905 9.629247
60.910 9.758719
60.915 9.822699
60.920 10.64728
60.925 11.304733
60.930 11.112003
60.935 10.727167
60.940 10.214108
60.945 9.5968
60.950 9.42802
60.955 9.140583
60.960 8.95961
60.965 8.822687
60.970 8.790725
60.975 9.077643
60.980 9.710887
60.985 9.942824
60.990 10.032199
60.995 9.720304
61.000 9.845778
61.005 9.969401
61.010 10.126556
61.015 10.414797
61.020 10.957006
61.025 11.172953
61.030 11.336962
61.035 11.378912
61.040 11.418267
61.045 11.111629
61.050 10.797962
61.055 10.116031
61.060 10.453658
61.065 10.824243
61.070 10.732919
61.075 10.884435
61.080 11.204205
61.085 11.175305
61.090 11.044981
61.095 10.795687
61.100 10.965895
61.105 11.287017
61.110 10.812738
61.115 10.165992
61.120 9.882415
61.125 9.946197
61.130 9.549929
61.135 9.186752
61.140 9.355501
61.145 10.082211
61.150 10.549688
61.155 10.695435
61.160 10.918985
61.165 10.8071
61.170 10.674435
61.175 10.559896
61.180 10.150322
61.185 9.97748
61.190 9.757868
61.195 9.867265
61.200 10.665614
61.205 10.906644
61.210 10.57414
61.215 10.336852
61.220 10.595676
61.225 10.777198
61.230 10.466628
61.235 10.0024
61.240 9.645087
61.245 9.971774
61.250 9.961978
61.255 10.032251
61.260 10.001285
61.265 10.302035
61.270 10.203485
61.275 10.204116
61.280 9.871729
61.285 10.353556
61.290 9.925043
61.295 9.648811
61.300 9.323279
61.305 9.193135
61.310 9.110682
61.315 9.388686
61.320 9.349885
61.325 9.57896
61.330 9.815423
61.335 9.709309
61.340 9.885272
61.345 9.941727
61.350 10.022797
61.355 10.119576
61.360 10.29134
61.365 10.438882
61.370 10.817714
61.375 10.642974
61.380 10.958611
61.385 10.65474
61.390 10.361708
61.395 10.211993
61.400 9.699562
61.405 9.365319
61.410 9.443835
61.415 9.222179
61.420 9.218422
61.425 9.107656
61.430 8.969513
61.435 9.292822
61.440 9.52977
61.445 9.718813
61.450 9.89458
61.455 9.791143
61.460 9.677295
61.465 9.696634
61.470 10.035257
61.475 10.389163
61.480 10.400594
61.485 10.265041
61.490 10.029786
61.495 10.096922
61.500 10.541458
61.505 10.234494
61.510 9.736402
61.515 9.777437
61.520 10.072748
61.525 10.626963
61.530 10.880591
61.535 10.319922
61.540 10.889741
61.545 11.217084
61.550 11.516618
61.555 11.45235
61.560 11.604013
61.565 11.813704
61.570 12.166839
61.575 11.748672
61.580 11.317663
61.585 10.939096
61.590 10.593646
61.595 10.283813
61.600 10.027977
61.605 10.137841
61.610 10.214497
61.615 10.175306
61.620 10.196464
61.625 10.442428
61.630 10.432096
61.635 10.220874
61.640 10.017758
61.645 10.186618
61.650 10.312716
61.655 10.563644
61.660 10.329168
61.665 10.072418
61.670 9.870702
61.675 9.445344
61.680 9.496165
61.685 9.350962
61.690 8.99033
61.695 9.335651
61.700 9.825706
61.705 10.316488
61.710 10.684413
61.715 10.303247
61.720 10.975544
61.725 11.304866
61.730 11.370157
61.735 11.322315
61.740 11.554251
61.745 11.511134
61.750 11.15319
61.755 10.539012
61.760 10.375112
61.765 9.908289
61.770 9.220454
61.775 8.532578
61.780 8.282477
61.785 8.364703
61.790 8.372936
61.795 8.088888
61.800 8.633624
61.805 8.669622
61.810 8.72204
61.815 8.989367
61.820 9.315147
61.825 9.495761
61.830 9.823437
61.835 9.530562
61.840 10.070904
61.845 10.23741
61.850 10.293042
61.855 10.428875
61.860 10.892799
61.865 11.219589
61.870 11.315933
61.875 11.198576
61.880 11.300857
61.885 11.389975
61.890 11.366543
61.895 11.012991
61.900 10.858874
61.905 10.81333
61.910 10.605531
61.915 10.487184
61.920 10.146595
61.925 9.840012
61.930 9.50671
61.935 9.373513
61.940 9.701127
61.945 10.240529
61.950 10.771245
61.955 11.249427
61.960 11.43598
61.965 11.330926
61.970 11.447311
61.975 11.215328
61.980 10.632075
61.985 9.868763
61.990 9.412336
61.995 9.553722
62.000 9.767733
62.005 9.772389
62.010 9.953133
62.015 10.252634
62.020 10.521144
62.025 10.443779
62.030 10.090587
62.035 9.809595
62.040 9.395324
62.045 9.412582
62.050 9.620234
62.055 9.813659
62.060 10.146186
62.065 10.355769
62.070 10.339639
62.075 10.283687
62.080 10.198895
62.085 10.085991
62.090 10.20554
62.095 10.177671
62.100 10.438938
62.105 10.977363
62.110 11.474354
62.115 11.846566
62.120 11.733603
62.125 11.686634
62.130 11.540389
62.135 11.331998
62.140 11.297762
62.145 11.036768
62.150 10.827707
62.155 11.104891
62.160 11.166917
62.165 11.706312
62.170 12.155908
62.175 12.296803
62.180 12.344515
62.185 12.230674
62.190 11.939714
62.195 11.635922
62.200 10.931277
62.205 10.669277
62.210 11.242928
62.215 11.3513
62.220 10.931381
62.225 10.97613
62.230 11.134114
62.235 11.473175
62.240 11.931983
62.245 11.43019
62.250 11.223312
62.255 11.847001
62.260 12.021666
62.265 11.821162
62.270 11.519525
62.275 10.800541
62.280 10.515018
62.285 10.533771
62.290 9.995948
62.295 9.830334
62.300 9.828789
62.305 9.595789
62.310 9.750598
62.315 9.773328
62.320 9.837236
62.325 9.811257
62.330 9.623952
62.335 9.642003
62.340 10.042968
62.345 10.024055
62.350 10.10996
62.355 10.417026
62.360 10.786841
62.365 11.371302
62.370 11.504757
62.375 11.056641
62.380 10.655138
62.385 10.622013
62.390 10.274813
62.395 10.192228
62.400 9.745584
62.405 9.637258
62.410 10.283791
62.415 10.920201
62.420 11.039857
62.425 11.176389
62.430 11.372008
62.435 11.531208
62.440 11.423091
62.445 11.202927
62.450 10.86556
62.455 10.59663
62.460 10.720586
62.465 10.840891
62.470 11.197182
62.475 11.405194
62.480 11.396343
62.485 11.53682
62.490 11.892148
62.495 11.762634
62.500 11.245056
62.505 10.898379
62.510 10.903139
62.515 10.705841
62.520 10.281245
62.525 9.795946
62.530 9.979033
62.535 10.532303
62.540 10.871577
62.545 11.084951
62.550 11.594826
62.555 11.909909
62.560 12.149313
62.565 11.752174
62.570 11.22
62.575 10.72562
62.580 10.406087
62.585 10.416053
62.590 10.271956
62.595 10.301624
62.600 10.595617
62.605 10.883165
62.610 11.241466
62.615 10.891114
62.620 10.418505
62.625 10.449881
62.630 10.459504
62.635 10.514391
62.640 10.930412
62.645 10.869433
62.650 10.904878
62.655 11.211559
62.660 11.058372
62.665 10.629703
62.670 10.529457
62.675 10.181809
62.680 10.308874
62.685 10.89255
62.690 10.758247
62.695 10.91413
62.700 11.084822
62.705 11.287232
62.710 11.494555
62.715 11.653184
62.720 11.256758
62.725 11.448022
62.730 11.508383
62.735 11.962745
62.740 11.626276
62.745 11.251016
62.750 11.099975
62.755 11.199852
62.760 10.775427
62.765 10.491918
62.770 10.117541
62.775 10.184208
62.780 10.345015
62.785 10.298331
62.790 10.160397
62.795 10.446929
62.800 10.417491
62.805 10.776027
62.810 11.159118
62.815 11.305544
62.820 11.74676
62.825 12.025033
62.830 12.442659
62.835 12.497705
62.840 12.264386
62.845 11.88077
62.850 11.691047
62.855 11.255662
62.860 11.261365
62.865 10.537809
62.870 10.585699
62.875 10.231666
62.880 10.070643
62.885 9.505798
62.890 9.075623
62.895 9.046575
62.900 9.274279
62.905 9.621351
62.910 10.045688
62.915 10.399706
62.920 10.95216
62.925 11.655521
62.930 11.457995
62.935 11.37025
62.940 11.099328
62.945 10.854277
62.950 10.395748
62.955 10.277608
62.960 10.284379
62.965 10.48828
62.970 11.203034
62.975 11.62843
62.980 12.173345
62.985 12.304267
62.990 12.186447
62.995 11.998028
63.000 12.326084
63.005 12.380989
63.010 11.748594
63.015 11.576907
63.020 11.955642
63.025 12.141987
63.030 12.314227
63.035 12.172937
63.040 12.377479
63.045 13.185168
63.050 12.969038
63.055 12.748299
63.060 12.83948
63.065 12.80904
63.070 13.087594
63.075 12.68869
63.080 12.294832
63.085 12.155615
63.090 12.005211
63.095 12.061982
63.100 12.053464
63.105 11.660758
63.110 11.473901
63.115 11.454946
63.120 11.778702
63.125 12.176567
63.130 11.95562
63.135 11.729004
63.140 11.659911
63.145 11.327775
63.150 11.29153
63.155 11.133993
63.160 11.285418
63.165 11.342246
63.170 11.351978
63.175 11.741537
63.180 11.921727
63.185 11.84031
63.190 11.878075
63.195 11.417382
63.200 11.610481
63.205 11.671959
63.210 11.203888
63.215 11.273411
63.220 10.901016
63.225 10.816144
63.230 10.672572
63.235 10.396502
63.240 10.26581
63.245 10.395563
63.250 10.496243
63.255 10.751071
63.260 11.186172
63.265 11.335863
63.270 11.795505
63.275 11.845247
63.280 11.64998
63.285 11.696496
63.290 12.080882
63.295 11.761787
63.300 11.953384
63.305 11.924456
63.310 12.353335
63.315 12.44171
63.320 12.077633
63.325 11.708289
63.330 11.873182
63.335 11.732937
63.340 11.222087
63.345 10.738916
63.350 11.22027
63.355 11.665637
63.360 11.47073
63.365 10.95317
63.370 11.024621
63.375 11.294093
63.380 11.646971
63.385 11.410081
63.390 11.539536
63.395 11.821126
63.400 12.370453
63.405 12.613917
63.410 12.591162
63.415 12.822037
63.420 12.983852
63.425 12.911869
63.430 13.319937
63.435 13.438108
63.440 13.161225
63.445 13.220434
63.450 12.82507
63.455 12.85538
63.460 12.983392
63.465 12.584486
63.470 12.659555
63.475 12.841283
63.480 12.382769
63.485 12.35974
63.490 11.829177
63.495 11.730535
63.500 11.721475
63.505 11.319249
63.510 10.929518
63.515 10.822667
63.520 10.973793
63.525 11.194796
63.530 10.708435
63.535 10.911075
63.540 10.870179
63.545 10.882398
63.550 11.201926
63.555 11.253638
63.560 11.507384
63.565 11.704812
63.570 11.446335
63.575 11.617854
63.580 11.551253
63.585 11.605718
63.590 12.005503
63.595 12.168333
63.600 12.024785
63.605 12.029648
63.610 12.262689
63.615 12.558616
63.620 12.429244
63.625 11.409705
63.630 10.885882
63.635 10.911452
63.640 10.983839
63.645 10.795483
63.650 10.628473
63.655 10.569674
63.660 11.149134
63.665 10.905613
63.670 11.210807
63.675 11.456646
63.680 11.562307
63.685 11.688632
63.690 11.91459
63.695 12.009912
63.700 12.28838
63.705 12.05634
63.710 12.031198
63.715 12.29957
63.720 12.115388
63.725 12.152039
63.730 12.593457
63.735 13.012471
63.740 12.883133
63.745 12.591016
63.750 11.964979
63.755 11.706206
63.760 11.558517
63.765 11.152489
63.770 11.109415
63.775 11.593344
63.780 11.935322
63.785 12.27581
63.790 12.692328
63.795 12.482748
63.800 12.353064
63.805 12.671455
63.810 12.001827
63.815 12.167147
63.820 12.413522
63.825 12.275148
63.830 12.768131
63.835 13.089201
63.840 12.810504
63.845 12.787571
63.850 12.561993
63.855 12.827494
63.860 13.034178
63.865 12.993024
63.870 12.666906
63.875 12.90743
63.880 13.130688
63.885 12.97832
63.890 12.403258
63.895 12.132299
63.900 12.068094
63.905 11.959864
63.910 11.653275
63.915 11.773537
63.920 12.222804
63.925 12.290404
63.930 12.259738
63.935 12.505364
63.940 12.822541
63.945 12.899208
63.950 12.933653
63.955 13.034894
63.960 13.32697
63.965 13.653275
63.970 13.792692
63.975 13.942485
63.980 13.934302
63.985 13.545615
63.990 13.803045
63.995 14.311018
64.000 14.377486
64.005 14.623833
64.010 15.034117
64.015 15.436357
64.020 15.148839
64.025 14.452672
64.030 14.209912
64.035 14.529423
64.040 14.262008
64.045 13.598595
64.050 13.972505
64.055 14.428494
64.060 15.014625
64.065 15.158867
64.070 14.7472
64.075 14.950785
64.080 15.155983
64.085 15.290271
64.090 15.632727
64.095 15.876225
64.100 15.688876
64.105 16.078264
64.110 15.937467
64.115 16.44248
64.120 16.449516
64.125 16.099367
64.130 15.959276
64.135 16.465649
64.140 16.688765
64.145 17.005882
64.150 16.692966
64.155 16.713459
64.160 17.412848
64.165 17.836376
64.170 18.005489
64.175 17.893484
64.180 17.903708
64.185 18.476095
64.190 18.940891
64.195 19.029118
64.200 19.140617
64.205 19.056566
64.210 18.961658
64.215 19.332359
64.220 19.374092
64.225 19.768286
64.230 19.765499
64.235 19.427288
64.240 19.769852
64.245 20.198666
64.250 20.615887
64.255 20.703268
64.260 20.561543
64.265 20.588446
64.270 21.474058
64.275 21.704685
64.280 22.432304
64.285 22.544691
64.290 23.31842
64.295 23.896576
64.300 24.35681
64.305 24.512503
64.310 24.588505
64.315 24.683422
64.320 25.08905
64.325 25.831999
64.330 26.516489
64.335 26.748882
64.340 26.982042
64.345 28.040709
64.350 28.897081
64.355 29.413982
64.360 29.831333
64.365 29.882168
64.370 30.004284
64.375 30.186279
64.380 29.983955
64.385 29.68804
64.390 29.881227
64.395 30.46921
64.400 30.112797
64.405 30.247219
64.410 30.751865
64.415 30.326426
64.420 29.976252
64.425 29.230698
64.430 29.094574
64.435 29.98735
64.440 30.09374
64.445 30.476068
64.450 31.478937
64.455 32.417877
64.460 33.482578
64.465 33.77972
64.470 34.129726
64.475 34.450947
64.480 34.286896
64.485 34.400749
64.490 34.56036
64.495 34.0457
64.500 33.535
64.505 33.351971
64.510 32.811775
64.515 32.153793
64.520 30.951561
64.525 30.206594
64.530 30.147766
64.535 29.983505
64.540 29.569666
64.545 30.042353
64.550 30.11187
64.555 30.787266
64.560 30.418419
64.565 29.992779
64.570 28.909229
64.575 28.62982
64.580 27.58444
64.585 26.892584
64.590 25.569897
64.595 24.88522
64.600 24.306946
64.605 24.300522
64.610 23.676657
64.615 22.924536
64.620 23.093515
64.625 22.925573
64.630 22.996758
64.635 23.393669
64.640 23.236795
64.645 23.340382
64.650 23.292114
64.655 22.324368
64.660 22.421474
64.665 22.198427
64.670 21.808073
64.675 21.58287
64.680 20.99708
64.685 21.033905
64.690 20.892191
64.695 20.243837
64.700 20.253832
64.705 19.730667
64.710 19.438871
64.715 19.95294
64.720 19.616762
64.725 19.903898
64.730 19.960485
64.735 19.874277
64.740 19.93228
64.745 19.445368
64.750 18.925608
64.755 18.880087
64.760 18.914354
64.765 18.964561
64.770 18.276333
64.775 17.893322
64.780 17.862597
64.785 17.708567
64.790 17.893831
64.795 17.641304
64.800 17.431833
64.805 17.66114
64.810 17.281576
64.815 16.870684
64.820 15.929253
64.825 15.172085
64.830 15.23668
64.835 14.883312
64.840 14.783843
64.845 14.810048
64.850 14.772233
64.855 15.399974
64.860 15.611933
64.865 15.357133
64.870 15.451572
64.875 15.584493
64.880 16.19043
64.885 16.467154
64.890 16.257246
64.895 16.60075
64.900 16.143534
64.905 15.986237
64.910 15.915198
64.915 15.649303
64.920 15.152237
64.925 15.730721
64.930 15.556133
64.935 15.983529
64.940 15.994526
64.945 15.606869
64.950 15.690887
64.955 15.932373
64.960 16.140482
64.965 16.047377
64.970 16.546705
64.975 16.994967
64.980 17.116308
64.985 16.453371
64.990 16.654701
64.995 16.35882
65.000 16.108469
65.005 15.968699
65.010 16.331062
65.015 16.732609
65.020 18.106049
65.025 18.360443
65.030 19.049801
65.035 19.700098
65.040 19.759737
65.045 19.045918
65.050 19.176308
65.055 19.136797
65.060 19.066837
65.065 18.806572
65.070 19.384937
65.075 19.946949
65.080 20.885307
65.085 21.798359
65.090 22.137554
65.095 22.274813
65.100 22.672264
65.105 22.676893
65.110 22.675638
65.115 22.526718
65.120 22.304916
65.125 22.20454
65.130 22.063099
65.135 22.308022
65.140 22.76317
65.145 22.883608
65.150 23.040998
65.155 22.566229
65.160 22.356436
65.165 22.720079
65.170 22.036776
65.175 21.714605
65.180 21.909904
65.185 21.744043
65.190 22.094112
65.195 22.44311
65.200 23.047062
65.205 23.443127
65.210 23.05241
65.215 22.930994
65.220 23.613453
65.225 23.555365
65.230 23.181206
65.235 22.415489
65.240 22.472576
65.245 22.961864
65.250 23.527872
65.255 23.187084
65.260 23.760384
65.265 24.421879
65.270 24.933567
65.275 25.133301
65.280 25.029945
65.285 24.650255
65.290 24.394585
65.295 23.842045
65.300 23.539715
65.305 23.307508
65.310 23.293758
65.315 23.360645
65.320 23.541321
65.325 24.066771
65.330 24.312
65.335 24.38587
65.340 24.337191
65.345 24.441811
65.350 24.230307
65.355 24.444241
65.360 24.316336
65.365 24.005438
65.370 24.221455
65.375 24.381084
65.380 24.604992
65.385 24.476133
65.390 24.247065
65.395 24.729252
65.400 25.08499
65.405 25.928425
65.410 26.588827
65.415 26.331894
65.420 25.68434
65.425 26.002037
65.430 25.885426
65.435 25.444542
65.440 24.89678
65.445 24.682629
65.450 25.163479
65.455 26.065552
65.460 24.922562
65.465 24.73744
65.470 25.247089
65.475 25.0797
65.480 24.987518
65.485 24.560667
65.490 24.209501
65.495 24.789501
65.500 24.837286
65.505 24.444452
65.510 24.034132
65.515 23.506115
65.520 24.208624
65.525 24.180412
65.530 23.570738
65.535 23.800261
65.540 24.292313
65.545 24.116468
65.550 24.802797
65.555 24.369526
65.560 24.51573
65.565 25.469568
65.570 25.206009
65.575 24.985378
65.580 25.900335
65.585 25.161448
65.590 25.513201
65.595 26.423269
65.600 25.759989
65.605 25.649525
65.610 25.809366
65.615 25.32806
65.620 25.444265
65.625 24.69454
65.630 24.171341
65.635 24.608425
65.640 24.589069
65.645 24.792376
65.650 25.111202
65.655 24.828358
65.660 24.618507
65.665 24.082239
65.670 23.614799
65.675 23.717953
65.680 22.607595
65.685 22.062366
65.690 22.242376
65.695 22.421282
65.700 22.677517
65.705 22.230707
65.710 21.779411
65.715 22.137226
65.720 21.752241
65.725 21.877674
65.730 21.963985
65.735 22.917152
65.740 23.298286
65.745 23.259573
65.750 23.256516
65.755 23.573423
65.760 22.929548
65.765 22.330982
65.770 21.762745
65.775 21.714365
65.780 21.266691
65.785 21.315231
65.790 21.177574
65.795 21.099789
65.800 20.943306
65.805 20.180363
65.810 20.12314
65.815 20.357708
65.820 19.695982
65.825 19.471457
65.830 19.903687
65.835 19.946753
65.840 19.729534
65.845 19.628788
65.850 19.366663
65.855 19.54455
65.860 18.836138
65.865 18.537893
65.870 18.312643
65.875 18.499319
65.880 18.19816
65.885 18.148149
65.890 17.802101
65.895 18.156914
65.900 17.601521
65.905 17.950094
65.910 18.047371
65.915 17.936817
65.920 17.674925
65.925 17.854824
65.930 17.626884
65.935 17.566437
65.940 16.848322
65.945 16.467323
65.950 16.304792
65.955 16.784348
65.960 17.046957
65.965 17.176966
65.970 17.251944
65.975 16.892975
65.980 16.672892
65.985 16.766747
65.990 16.194576
65.995 15.465759
66.000 15.108101
66.005 14.970673
66.010 15.158885
66.015 15.441825
66.020 15.313276
66.025 14.73622
66.030 14.995946
66.035 14.95832
66.040 14.954456
66.045 14.78369
66.050 13.952989
66.055 13.974839
66.060 14.119549
66.065 13.340294
66.070 13.075407
66.075 12.993262
66.080 12.96083
66.085 13.28102
66.090 13.288486
66.095 13.419749
66.100 13.625263
66.105 13.505679
66.110 13.10199
66.115 12.957145
66.120 13.166701
66.125 12.917317
66.130 13.035994
66.135 13.511765
66.140 14.092804
66.145 14.708842
66.150 15.178022
66.155 15.205705
66.160 15.229631
66.165 15.123274
66.170 14.572487
66.175 14.407383
66.180 14.550749
66.185 14.184649
66.190 14.081445
66.195 14.087991
66.200 14.474332
66.205 14.317417
66.210 14.145568
66.215 14.033223
66.220 14.435756
66.225 14.487811
66.230 14.666892
66.235 14.580887
66.240 15.189406
66.245 15.02581
66.250 15.281055
66.255 15.01347
66.260 15.017981
66.265 14.405618
66.270 14.310128
66.275 13.603131
66.280 13.173948
66.285 12.911863
66.290 13.163098
66.295 13.763573
66.300 14.57152
66.305 14.189346
66.310 14.14533
66.315 14.545225
66.320 14.150401
66.325 13.420792
66.330 12.5988
66.335 12.060668
66.340 12.170528
66.345 12.64734
66.350 12.758778
66.355 12.883326
66.360 13.055551
66.365 12.990849
66.370 12.753282
66.375 12.484585
66.380 12.037078
66.385 11.863687
66.390 11.781931
66.395 12.13594
66.400 12.763509
66.405 13.724417
66.410 14.197104
66.415 14.676521
66.420 14.958198
66.425 14.662227
66.430 14.061968
66.435 13.588263
66.440 13.471542
66.445 13.011044
66.450 12.740757
66.455 12.073891
66.460 12.219604
66.465 12.642272
66.470 13.098854
66.475 13.218403
66.480 13.310404
66.485 13.223028
66.490 13.966494
66.495 13.894787
66.500 13.257867
66.505 12.902107
66.510 12.579056
66.515 12.617293
66.520 12.653538
66.525 12.698611
66.530 12.851723
66.535 13.264957
66.540 13.195432
66.545 12.917337
66.550 12.956508
66.555 12.747332
66.560 12.554801
66.565 12.839325
66.570 13.207172
66.575 13.233585
66.580 13.285081
66.585 12.931149
66.590 12.84649
66.595 12.745947
66.600 12.630664
66.605 12.131186
66.610 11.842555
66.615 11.608876
66.620 11.93533
66.625 12.332887
66.630 12.231294
66.635 11.794488
66.640 11.507075
66.645 11.69828
66.650 11.766984
66.655 12.475867
66.660 11.925433
66.665 11.883157
66.670 12.174862
66.675 12.745237
66.680 12.881521
66.685 12.883215
66.690 12.544011
66.695 12.990992
66.700 13.372465
66.705 13.383573
66.710 13.051248
66.715 12.894894
66.720 12.913073
66.725 12.771241
66.730 12.649056
66.735 12.592034
66.740 12.43648
66.745 12.808205
66.750 13.321181
66.755 13.889897
66.760 14.127067
66.765 14.11624
66.770 13.698162
66.775 13.63882
66.780 13.326646
66.785 12.894237
66.790 12.211957
66.795 11.773721
66.800 11.875095
66.805 12.405873
66.810 12.56507
66.815 13.134089
66.820 13.172254
66.825 13.538822
66.830 13.340026
66.835 13.01312
66.840 13.220047
66.845 13.302135
66.850 12.569098
66.855 12.748455
66.860 12.696052
66.865 13.041698
66.870 13.068501
66.875 12.948185
66.880 12.703581
66.885 13.070542
66.890 13.038085
66.895 13.081533
66.900 12.78581
66.905 12.658818
66.910 12.360053
66.915 12.953646
66.920 13.018427
66.925 12.749778
66.930 12.597989
66.935 13.274104
66.940 13.322277
66.945 13.18158
66.950 12.850514
66.955 12.647433
66.960 13.076744
66.965 13.860227
66.970 13.877748
66.975 14.497136
66.980 14.830175
66.985 15.0517
66.990 14.825662
66.995 14.651583
67.000 14.100832
67.005 13.762695
67.010 13.358688
67.015 13.45117
67.020 13.490213
67.025 13.410996
67.030 13.102251
67.035 12.617797
67.040 12.780641
67.045 12.877237
67.050 11.889718
67.055 11.621292
67.060 11.702302
67.065 11.531247
67.070 12.081129
67.075 11.937146
67.080 11.885883
67.085 12.44308
67.090 12.496367
67.095 12.896019
67.100 13.146172
67.105 13.214086
67.110 13.629826
67.115 13.887661
67.120 14.141405
67.125 13.925595
67.130 13.971354
67.135 14.073318
67.140 13.7363
67.145 13.39364
67.150 13.34995
67.155 13.121417
67.160 13.349628
67.165 13.126134
67.170 13.441384
67.175 12.919816
67.180 12.94157
67.185 13.110832
67.190 13.388252
67.195 13.398245
67.200 12.947005
67.205 12.907531
67.210 13.418324
67.215 13.710181
67.220 13.470259
67.225 13.248569
67.230 13.647302
67.235 14.094656
67.240 14.335526
67.245 14.3946
67.250 14.05549
67.255 14.258952
67.260 14.147108
67.265 13.858147
67.270 13.630776
67.275 13.008403
67.280 12.769523
67.285 12.814264
67.290 12.70249
67.295 12.618029
67.300 12.911215
67.305 13.079754
67.310 13.408158
67.315 13.76203
67.320 13.429265
67.325 13.605142
67.330 13.566395
67.335 13.53739
67.340 13.780834
67.345 13.743246
67.350 13.383067
67.355 13.000236
67.360 12.810577
67.365 12.489672
67.370 12.150599
67.375 12.150745
67.380 11.970186
67.385 12.184888
67.390 12.900099
67.395 13.212287
67.400 13.899604
67.405 13.677855
67.410 13.612135
67.415 13.762072
67.420 13.349844
67.425 13.512194
67.430 13.373943
67.435 12.87962
67.440 13.491466
67.445 13.528551
67.450 13.532028
67.455 13.715964
67.460 13.461791
67.465 14.116826
67.470 14.359443
67.475 13.837019
67.480 14.34584
67.485 15.097686
67.490 15.325937
67.495 15.063313
67.500 14.714783
67.505 14.462925
67.510 14.423306
67.515 14.002013
67.520 13.740148
67.525 13.750957
67.530 14.021194
67.535 14.19755
67.540 14.711467
67.545 14.913591
67.550 14.418132
67.555 13.984023
67.560 14.332948
67.565 14.304735
67.570 14.044193
67.575 13.661944
67.580 13.927914
67.585 14.414341
67.590 14.334419
67.595 14.032726
67.600 13.925758
67.605 13.701493
67.610 13.237525
67.615 12.669683
67.620 12.584012
67.625 12.823019
67.630 12.491961
67.635 12.44501
67.640 13.283962
67.645 13.805658
67.650 14.608057
67.655 14.720001
67.660 14.408558
67.665 14.469262
67.670 14.222386
67.675 14.053885
67.680 14.19858
67.685 13.520881
67.690 13.256896
67.695 13.335099
67.700 13.330357
67.705 13.577248
67.710 13.397079
67.715 12.938964
67.720 12.78386
67.725 12.680006
67.730 13.211994
67.735 13.35925
67.740 12.987982
67.745 12.814763
67.750 12.786645
67.755 13.198849
67.760 12.910354
67.765 12.146724
67.770 12.110401
67.775 12.370094
67.780 12.164996
67.785 11.954312
67.790 11.289369
67.795 11.230775
67.800 11.779726
67.805 12.090725
67.810 12.002683
67.815 11.857865
67.820 12.555929
67.825 12.941561
67.830 13.722095
67.835 13.692472
67.840 13.054453
67.845 12.740748
67.850 12.813518
67.855 12.155966
67.860 12.215971
67.865 11.938933
67.870 11.822427
67.875 11.97191
67.880 12.519382
67.885 13.032052
67.890 13.349208
67.895 13.125413
67.900 12.959871
67.905 13.130498
67.910 13.135187
67.915 12.796317
67.920 12.509306
67.925 12.617765
67.930 12.836875
67.935 13.156842
67.940 13.34465
67.945 13.728931
67.950 14.089449
67.955 14.169906
67.960 14.039511
67.965 14.334185
67.970 14.293398
67.975 13.976659
67.980 13.792439
67.985 13.972798
67.990 14.249303
67.995 14.009337
68.000 13.860701
68.005 13.960187
68.010 14.058193
68.015 14.186702
68.020 13.871294
68.025 13.854545
68.030 13.783487
68.035 13.283781
68.040 13.05428
68.045 13.393331
68.050 13.654984
68.055 14.013479
68.060 14.476348
68.065 15.200558
68.070 15.490913
68.075 14.941227
68.080 15.014317
68.085 14.886748
68.090 14.592951
68.095 14.889275
68.100 15.248116
68.105 15.224043
68.110 15.945997
68.115 15.800672
68.120 15.395281
68.125 15.153718
68.130 14.759122
68.135 14.545385
68.140 15.471848
68.145 15.267382
68.150 15.467135
68.155 15.709264
68.160 16.54566
68.165 16.531939
68.170 16.166304
68.175 15.492249
68.180 14.961066
68.185 14.966955
68.190 15.297066
68.195 15.07061
68.200 14.885456
68.205 14.884374
68.210 15.529463
68.215 15.92465
68.220 16.429451
68.225 16.129225
68.230 15.990492
68.235 16.612356
68.240 16.992689
68.245 16.960926
68.250 16.621872
68.255 16.269342
68.260 16.365828
68.265 16.265858
68.270 15.696882
68.275 15.291622
68.280 15.521443
68.285 16.089401
68.290 15.602356
68.295 15.52662
68.300 15.317564
68.305 15.265025
68.310 15.867311
68.315 16.188532
68.320 16.428152
68.325 17.317757
68.330 17.515041
68.335 17.726641
68.340 18.170633
68.345 18.053356
68.350 18.081848
68.355 18.464054
68.360 18.536226
68.365 19.142076
68.370 19.399309
68.375 19.461823
68.380 19.470551
68.385 19.269056
68.390 18.999903
68.395 19.116165
68.400 18.882278
68.405 18.842056
68.410 19.204086
68.415 19.811127
68.420 20.453838
68.425 20.952999
68.430 21.127676
68.435 21.187363
68.440 21.498436
68.445 21.452597
68.450 22.014923
68.455 22.020519
68.460 21.946642
68.465 21.826729
68.470 22.450687
68.475 23.157877
68.480 23.631166
68.485 23.146019
68.490 23.914602
68.495 24.293337
68.500 24.635735
68.505 24.457937
68.510 23.703384
68.515 23.392347
68.520 22.9412
68.525 22.012812
68.530 22.076969
68.535 22.307364
68.540 22.600538
68.545 22.967171
68.550 22.999094
68.555 22.87529
68.560 23.361216
68.565 23.086981
68.570 22.764803
68.575 22.926342
68.580 23.232714
68.585 23.698133
68.590 24.335623
68.595 23.845245
68.600 23.576675
68.605 23.200167
68.610 22.563906
68.615 22.476231
68.620 22.284355
68.625 22.747885
68.630 23.363649
68.635 24.043427
68.640 24.674381
68.645 25.220224
68.650 25.655796
68.655 25.760324
68.660 25.006685
68.665 24.961342
68.670 25.032475
68.675 25.094528
68.680 25.224796
68.685 25.315821
68.690 25.799747
68.695 26.111673
68.700 25.404982
68.705 24.638153
68.710 24.260714
68.715 24.150373
68.720 23.961111
68.725 23.472067
68.730 23.170034
68.735 23.991854
68.740 24.313541
68.745 24.696043
68.750 23.961617
68.755 23.444679
68.760 23.046505
68.765 22.913565
68.770 22.668789
68.775 22.77537
68.780 22.507051
68.785 22.824469
68.790 23.364059
68.795 24.809927
68.800 25.350359
68.805 25.160213
68.810 24.760664
68.815 25.149618
68.820 25.480871
68.825 24.755266
68.830 24.039131
68.835 23.374058
68.840 23.213173
68.845 23.017382
68.850 22.578377
68.855 23.082199
68.860 22.995781
68.865 22.733084
68.870 23.177588
68.875 23.351038
68.880 23.553259
68.885 22.951777
68.890 22.098217
68.895 22.362595
68.900 22.537939
68.905 22.787651
68.910 22.702381
68.915 22.576677
68.920 23.052549
68.925 23.524431
68.930 23.233639
68.935 22.823093
68.940 22.985773
68.945 23.133778
68.950 22.360054
68.955 22.386431
68.960 22.28554
68.965 22.237324
68.970 22.273163
68.975 21.519175
68.980 21.0453
68.985 21.697025
68.990 21.46184
68.995 21.23649
69.000 21.585838
69.005 20.854259
69.010 20.73867
69.015 21.196295
69.020 21.017933
69.025 20.743929
69.030 20.973885
69.035 21.48921
69.040 22.479055
69.045 22.216316
69.050 20.9881
69.055 20.376699
69.060 19.632633
69.065 19.195421
69.070 18.450562
69.075 17.931162
69.080 19.23027
69.085 19.744537
69.090 20.493538
69.095 20.663992
69.100 20.462263
69.105 20.379202
69.110 20.380157
69.115 19.542931
69.120 19.125238
69.125 19.006796
69.130 19.396345
69.135 19.475306
69.140 19.718987
69.145 18.965769
69.150 18.749634
69.155 18.306847
69.160 17.80024
69.165 16.965944
69.170 16.610739
69.175 16.073494
69.180 16.374376
69.185 16.894037
69.190 16.871601
69.195 17.149469
69.200 17.277166
69.205 17.930902
69.210 17.383617
69.215 17.099699
69.220 17.017323
69.225 17.297653
69.230 17.455141
69.235 17.026548
69.240 15.926683
69.245 15.848604
69.250 15.951933
69.255 16.162655
69.260 16.140263
69.265 15.599473
69.270 15.667467
69.275 16.23904
69.280 16.114166
69.285 16.369753
69.290 15.799143
69.295 15.762078
69.300 16.121298
69.305 16.217337
69.310 16.010542
69.315 16.290567
69.320 15.639954
69.325 15.313769
69.330 15.057149
69.335 15.050117
69.340 14.787256
69.345 15.405259
69.350 15.592048
69.355 15.644064
69.360 15.61766
69.365 15.52197
69.370 15.529844
69.375 15.45079
69.380 14.765443
69.385 14.149498
69.390 13.921429
69.395 13.869689
69.400 13.829274
69.405 13.798198
69.410 13.703346
69.415 13.800319
69.420 13.968824
69.425 14.377837
69.430 14.572152
69.435 14.74556
69.440 14.548633
69.445 14.29395
69.450 13.752966
69.455 13.710614
69.460 12.927238
69.465 12.841791
69.470 12.467178
69.475 12.501769
69.480 13.120306
69.485 13.601872
69.490 13.669895
69.495 13.718982
69.500 13.234191
69.505 13.217218
69.510 13.067794
69.515 13.011526
69.520 12.992768
69.525 13.321608
69.530 13.777646
69.535 13.884234
69.540 14.363605
69.545 14.23997
69.550 13.938624
69.555 14.164238
69.560 14.293285
69.565 14.176184
69.570 14.350066
69.575 14.383945
69.580 14.62045
69.585 14.5358
69.590 13.912213
69.595 13.476025
69.600 13.582154
69.605 13.055936
69.610 12.695763
69.615 12.81081
69.620 13.154926
69.625 13.200293
69.630 13.029452
69.635 13.090961
69.640 13.914344
69.645 14.219242
69.650 13.908573
69.655 13.773406
69.660 14.430558
69.665 14.601873
69.670 14.450872
69.675 14.210874
69.680 13.995767
69.685 14.110036
69.690 13.855133
69.695 13.845923
69.700 14.12753
69.705 14.193036
69.710 14.16431
69.715 13.990747
69.720 13.743251
69.725 13.922729
69.730 13.447529
69.735 13.382829
69.740 13.164981
69.745 13.444088
69.750 13.872499
69.755 13.849807
69.760 13.928926
69.765 14.244836
69.770 14.481891
69.775 14.344025
69.780 13.595261
69.785 13.865869
69.790 14.369601
69.795 14.42565
69.800 14.175327
69.805 13.801661
69.810 14.079931
69.815 14.660948
69.820 14.197708
69.825 13.822842
69.830 14.160749
69.835 14.492477
69.840 14.69304
69.845 14.462696
69.850 13.873274
69.855 13.658849
69.860 13.368494
69.865 12.627832
69.870 12.391421
69.875 12.100632
69.880 12.056735
69.885 12.246933
69.890 12.639319
69.895 12.946288
69.900 12.741751
69.905 12.9296
69.910 13.329149
69.915 13.528483
69.920 13.627757
69.925 13.794008
69.930 14.147416
69.935 14.528209
69.940 14.410089
69.945 14.248758
69.950 14.220676
69.955 14.37191
69.960 13.952904
69.965 14.207435
69.970 13.862172
69.975 13.410367
69.980 13.841689
69.985 14.47098
69.990 14.562739
69.995 14.015964
70.000 13.700377
70.005 13.841946
70.010 14.309103
70.015 14.045368
70.020 13.479974
70.025 13.611434
70.030 13.963988
70.035 14.369919
70.040 14.327428
70.045 13.829452
70.050 13.948896
70.055 13.82444
70.060 13.39458
70.065 13.316259
70.070 13.356715
70.075 14.084842
70.080 14.296116
70.085 14.140848
70.090 14.001976
70.095 14.350772
70.100 14.277021
70.105 14.288579
70.110 14.306239
70.115 14.214437
70.120 14.324903
70.125 14.587152
70.130 14.186106
70.135 14.278474
70.140 14.047977
70.145 13.933464
70.150 14.054047
70.155 13.781507
70.160 13.906051
70.165 13.982986
70.170 13.610401
70.175 13.594044
70.180 13.294539
70.185 13.523886
70.190 13.983287
70.195 13.886518
70.200 14.377291
70.205 14.96398
70.210 15.130378
70.215 15.536007
70.220 15.019152
70.225 15.114297
70.230 14.94556
70.235 14.746836
70.240 14.499707
70.245 13.978797
70.250 13.739151
70.255 13.861293
70.260 13.698534
70.265 13.533998
70.270 13.10607
70.275 12.678337
70.280 12.325004
70.285 12.604622
70.290 11.93422
70.295 11.801207
70.300 12.498902
70.305 12.449062
70.310 12.858797
70.315 13.245123
70.320 13.729531
70.325 14.071732
70.330 14.289773
70.335 14.057064
70.340 14.323833
70.345 14.969211
70.350 14.678809
70.355 14.50867
70.360 14.478348
70.365 14.142855
70.370 14.007385
70.375 14.030255
70.380 13.922937
70.385 13.860434
70.390 13.549912
70.395 13.564253
70.400 13.608093
70.405 13.806352
70.410 13.893805
70.415 13.594502
70.420 13.71446
70.425 13.713824
70.430 13.650368
70.435 13.294492
70.440 12.936196
70.445 13.113475
70.450 13.063798
70.455 12.673211
70.460 12.19305
70.465 12.160002
70.470 12.141332
70.475 11.976078
70.480 11.506573
70.485 11.313391
70.490 11.856108
70.495 12.544094
70.500 12.196193
70.505 12.598163
70.510 12.747949
70.515 13.10078
70.520 13.26114
70.525 13.357065
70.530 13.399158
70.535 13.614183
70.540 13.485848
70.545 13.874013
70.550 13.932452
70.555 14.316723
70.560 14.270179
70.565 14.485347
70.570 14.785657
70.575 15.07435
70.580 14.811453
70.585 14.913674
70.590 14.853554
70.595 14.618144
70.600 14.307403
70.605 14.151869
70.610 13.957976
70.615 13.962237
70.620 13.769296
70.625 13.951258
70.630 14.319205
70.635 14.334142
70.640 14.045499
70.645 14.094656
70.650 14.017896
70.655 14.300655
70.660 14.265979
70.665 14.097392
70.670 14.442546
70.675 14.16883
70.680 13.750084
70.685 13.608957
70.690 13.324066
70.695 13.05492
70.700 12.912011
70.705 13.238714
70.710 13.684651
70.715 13.763294
70.720 13.642322
70.725 13.496598
70.730 13.583552
70.735 13.349228
70.740 13.165041
70.745 13.421536
70.750 13.638323
70.755 13.427468
70.760 13.560228
70.765 13.822058
70.770 13.977675
70.775 13.896304
70.780 13.227825
70.785 12.910692
70.790 13.304214
70.795 13.044379
70.800 13.221761
70.805 12.919451
70.810 13.146553
70.815 14.082325
70.820 14.292774
70.825 14.364042
70.830 14.257423
70.835 14.752638
70.840 15.080414
70.845 15.079175
70.850 14.522876
70.855 14.93679
70.860 14.548611
70.865 14.363277
70.870 13.755177
70.875 13.664543
70.880 13.432179
70.885 13.675406
70.890 13.555205
70.895 13.705815
70.900 13.295535
70.905 13.397682
70.910 13.162318
70.915 13.23051
70.920 13.186234
70.925 12.672997
70.930 12.976108
70.935 13.357528
70.940 13.243155
70.945 13.360311
70.950 13.209912
70.955 13.428038
70.960 13.538441
70.965 13.625632
70.970 13.360316
70.975 13.479335
70.980 13.424534
70.985 13.525035
70.990 13.353125
70.995 13.310268
71.000 13.37805
71.005 13.644781
71.010 14.047608
71.015 13.925274
71.020 13.761157
71.025 13.391989
71.030 13.795286
71.035 13.61874
71.040 13.671252
71.045 13.42228
71.050 13.732013
71.055 13.548116
71.060 13.663314
71.065 13.410586
71.070 13.313888
71.075 13.3588
71.080 13.110787
71.085 13.085908
71.090 13.147522
71.095 12.6816
71.100 12.30046
71.105 12.103139
71.110 12.585146
71.115 12.837483
71.120 13.068887
71.125 13.448764
71.130 14.057456
71.135 14.489211
71.140 14.650517
71.145 14.274784
71.150 14.150287
71.155 14.369712
71.160 14.211005
71.165 14.147101
71.170 14.815682
71.175 14.744581
71.180 14.829345
71.185 14.822991
71.190 14.995794
71.195 15.059054
71.200 15.205587
71.205 14.802161
71.210 14.995471
71.215 14.990737
71.220 14.582674
71.225 14.158695
71.230 13.826164
71.235 13.305428
71.240 12.86832
71.245 12.751439
71.250 12.486182
71.255 12.27748
71.260 12.628768
71.265 13.349832
71.270 13.071981
71.275 13.011197
71.280 12.987631
71.285 12.996905
71.290 13.054508
71.295 13.324996
71.300 13.553473
71.305 14.1726
71.310 14.174194
71.315 13.811069
71.320 14.184776
71.325 14.240349
71.330 13.845866
71.335 13.631587
71.340 13.48456
71.345 14.037416
71.350 14.065647
71.355 14.072735
71.360 14.192337
71.365 14.195775
71.370 14.049171
71.375 13.561793
71.380 12.842798
71.385 12.716703
71.390 12.249642
71.395 11.965302
71.400 11.670757
71.405 11.566048
71.410 12.040699
71.415 12.063979
71.420 12.002976
71.425 12.05155
71.430 11.913545
71.435 11.963515
71.440 12.337147
71.445 12.355
71.450 13.158386
71.455 13.454454
71.460 13.916261
71.465 14.336901
71.470 14.183126
71.475 13.84111
71.480 13.613314
71.485 13.133415
71.490 13.007281
71.495 13.170477
71.500 13.359963
71.505 13.63284
71.510 13.611861
71.515 13.776225
71.520 13.893952
71.525 13.719417
71.530 13.113767
71.535 13.161492
71.540 13.155604
71.545 13.508669
71.550 13.441603
71.555 13.535506
71.560 13.418148
71.565 13.119842
71.570 12.980581
71.575 13.552031
71.580 13.294489
71.585 13.866189
71.590 14.280043
71.595 15.094272
71.600 15.41899
71.605 15.310686
71.610 15.293183
71.615 15.134898
71.620 14.394861
71.625 13.978816
71.630 13.532372
71.635 13.081686
71.640 12.94452
71.645 12.57401
71.650 12.916599
71.655 14.012916
71.660 13.967459
71.665 13.913469
71.670 13.98973
71.675 14.09669
71.680 14.111821
71.685 13.695034
71.690 13.417337
71.695 13.159668
71.700 13.191315
71.705 13.154329
71.710 13.344534
71.715 13.660016
71.720 13.24743
71.725 12.66607
71.730 13.072294
71.735 13.329558
71.740 13.762203
71.745 13.464038
71.750 13.47371
71.755 13.884051
71.760 13.978145
71.765 14.051032
71.770 13.877048
71.775 13.803165
71.780 14.261734
71.785 14.171354
71.790 14.188537
71.795 14.098429
71.800 13.928452
71.805 13.98503
71.810 13.536226
71.815 12.95821
71.820 12.792033
71.825 12.922372
71.830 12.904067
71.835 13.191595
71.840 13.037152
71.845 13.049428
71.850 13.581843
71.855 13.805146
71.860 13.969025
71.865 14.470855
71.870 14.532965
71.875 14.777916
71.880 14.905351
71.885 15.065514
71.890 14.689887
71.895 14.552365
71.900 14.282078
71.905 14.535433
71.910 14.214705
71.915 14.279587
71.920 13.99775
71.925 13.899756
71.930 13.772347
71.935 13.200607
71.940 12.583144
71.945 12.655948
71.950 12.521117
71.955 12.677873
71.960 12.56617
71.965 12.577189
71.970 13.085768
71.975 13.584863
71.980 13.747365
71.985 14.020985
71.990 14.383085
71.995 15.263694
72.000 15.427418
72.005 15.072552
72.010 14.90276
72.015 15.029977
72.020 14.761383
72.025 14.331726
72.030 13.740315
72.035 13.587773
72.040 13.701967
72.045 13.838685
72.050 13.940418
72.055 14.103733
72.060 14.215864
72.065 14.358957
72.070 14.368148
72.075 14.122622
72.080 13.246022
72.085 13.223413
72.090 13.25887
72.095 13.509323
72.100 13.848517
72.105 14.172663
72.110 14.608524
72.115 14.561804
72.120 13.807452
72.125 13.246037
72.130 12.945513
72.135 12.886506
72.140 12.990881
72.145 13.286892
72.150 13.760152
72.155 14.509481
72.160 14.364421
72.165 14.368196
72.170 13.970202
72.175 13.583101
72.180 13.512643
72.185 13.004902
72.190 12.321325
72.195 12.963717
72.200 12.904327
72.205 12.861438
72.210 12.969103
72.215 12.182501
72.220 12.526666
72.225 12.528799
72.230 12.09939
72.235 12.64013
72.240 12.90213
72.245 13.039479
72.250 13.85675
72.255 14.216575
72.260 14.407945
72.265 14.749215
72.270 14.338105
72.275 14.334476
72.280 14.062021
72.285 13.80811
72.290 13.452583
72.295 13.184762
72.300 13.14855
72.305 12.974032
72.310 12.567893
72.315 13.039569
72.320 13.683682
72.325 13.831683
72.330 14.145342
72.335 13.857627
72.340 13.999841
72.345 13.894992
72.350 13.115005
72.355 13.15639
72.360 13.008137
72.365 13.103301
72.370 13.248168
72.375 13.59484
72.380 14.042129
72.385 14.00158
72.390 13.758619
72.395 13.714331
72.400 13.728238
72.405 13.435531
72.410 12.847831
72.415 12.974296
72.420 12.535992
72.425 12.152517
72.430 11.668488
72.435 11.462281
72.440 11.996448
72.445 12.340896
72.450 12.788982
72.455 13.4322
72.460 13.996585
72.465 14.268795
72.470 14.281336
72.475 14.291701
72.480 14.136711
72.485 13.841355
72.490 13.577478
72.495 13.692904
72.500 13.559824
72.505 13.754241
72.510 13.848433
72.515 14.197595
72.520 14.385457
72.525 13.984592
72.530 13.713524
72.535 13.325849
72.540 13.321611
72.545 12.943756
72.550 12.177604
72.555 12.423986
72.560 12.773409
72.565 12.999902
72.570 13.054013
72.575 12.33777
72.580 12.422744
72.585 13.03047
72.590 13.090559
72.595 13.295316
72.600 13.212337
72.605 13.194696
72.610 13.211175
72.615 13.040457
72.620 13.029526
72.625 12.548891
72.630 12.4259
72.635 12.706296
72.640 13.022953
72.645 13.615093
72.650 13.295019
72.655 12.478522
72.660 12.265365
72.665 12.672163
72.670 12.788861
72.675 12.819474
72.680 12.18314
72.685 12.211917
72.690 13.162836
72.695 13.280643
72.700 12.913712
72.705 12.830342
72.710 13.183663
72.715 13.649764
72.720 13.785252
72.725 13.2979
72.730 13.331847
72.735 13.407325
72.740 13.354732
72.745 13.343648
72.750 13.280234
72.755 13.113584
72.760 13.510112
72.765 13.631073
72.770 13.606114
72.775 13.292346
72.780 13.640047
72.785 13.522116
72.790 13.575793
72.795 13.246887
72.800 13.070017
72.805 13.014773
72.810 13.198993
72.815 13.104327
72.820 13.320886
72.825 13.590583
72.830 13.328026
72.835 13.334115
72.840 13.43843
72.845 13.132273
72.850 13.190885
72.855 13.185235
72.860 12.87264
72.865 12.71981
72.870 13.12184
72.875 12.982432
72.880 13.097203
72.885 13.256673
72.890 12.491979
72.895 12.530104
72.900 12.627508
72.905 12.224706
72.910 12.053913
72.915 11.596183
72.920 11.319073
72.925 11.388965
72.930 11.48933
72.935 11.604293
72.940 11.792422
72.945 11.476621
72.950 11.613334
72.955 11.948316
72.960 12.462635
72.965 12.184515
72.970 12.796051
72.975 13.197244
72.980 13.762484
72.985 13.658802
72.990 13.773728
72.995 13.987469
73.000 13.792956
