!@!!GADDS PLOTSO FILE: Chi integration type
!@!!Title/SampleName: map-d2
!@!!Comment: ?
!@!!User: Bruker Instrument Administrator
!@!!Site: University of Illinois Chicago
!@!!Frame: map-d2_01_000.gfrm
!@!!Wavelengths    1.54184   1.54056   1.54439
!@!!Frame angles: 2Theta: 63.000 Omega: 50.000 Phi: 0.000 Chi: 90.000
!@!!Integration range: 2Theta: 53.000 to 73.000  Gamma: -105.000 to -75.000
!@!!Integration method: bin normalized
!@!N
!@!SS
!@!M
!@!L 0.0 0.0 0.0 0.0
!@!XDegrees
!@!YCounts
53.000 10.287295
53.005 10.059027
53.010 9.929623
53.015 10.04237
53.020 10.415406
53.025 10.572021
53.030 10.387985
53.035 9.953259
53.040 9.85865
53.045 9.955498
53.050 9.719392
53.055 9.622138
53.060 9.281735
53.065 9.073895
53.070 9.025073
53.075 9.07518
53.080 9.046485
53.085 9.280557
53.090 9.226323
53.095 9.477012
53.100 9.649683
53.105 9.559348
53.110 10.22178
53.115 10.399082
53.120 9.928493
53.125 9.763284
53.130 9.417838
53.135 9.020984
53.140 8.806834
53.145 8.318234
53.150 8.315769
53.155 8.449597
53.160 9.006639
53.165 9.478729
53.170 9.879023
53.175 10.235646
53.180 10.100754
53.185 10.052374
53.190 9.922479
53.195 9.254919
53.200 9.190096
53.205 8.902959
53.210 8.928217
53.215 8.820857
53.220 8.995931
53.225 9.465027
53.230 9.665318
53.235 9.713475
53.240 9.398093
53.245 9.095501
53.250 8.954387
53.255 8.465399
53.260 7.955242
53.265 7.853009
53.270 8.078094
53.275 8.343178
53.280 8.457457
53.285 8.684384
53.290 8.838481
53.295 8.87192
53.300 9.231904
53.305 9.062464
53.310 8.80722
53.315 8.420297
53.320 9.109717
53.325 9.495423
53.330 9.806259
53.335 9.736409
53.340 9.970864
53.345 10.31977
53.350 10.224748
53.355 9.525844
53.360 9.102381
53.365 8.754931
53.370 8.406069
53.375 8.226762
53.380 8.174047
53.385 8.12947
53.390 8.162985
53.395 8.536896
53.400 8.697514
53.405 8.912138
53.410 9.013043
53.415 9.650356
53.420 10.034286
53.425 10.028998
53.430 10.076851
53.435 10.436951
53.440 10.614534
53.445 10.609838
53.450 10.661085
53.455 11.119569
53.460 11.308603
53.465 11.381394
53.470 11.116243
53.475 11.378563
53.480 11.18111
53.485 10.761417
53.490 10.207142
53.495 9.882543
53.500 9.69322
53.505 9.716872
53.510 9.049022
53.515 8.645843
53.520 8.187037
53.525 8.510427
53.530 8.23831
53.535 8.130497
53.540 8.246307
53.545 8.535038
53.550 8.562963
53.555 8.909155
53.560 9.068112
53.565 9.16432
53.570 9.24917
53.575 8.972919
53.580 9.2372
53.585 9.881676
53.590 9.84438
53.595 9.763281
53.600 10.68049
53.605 10.788722
53.610 10.737376
53.615 10.755051
53.620 10.398588
53.625 10.217708
53.630 10.109065
53.635 9.740415
53.640 9.815453
53.645 9.927893
53.650 9.959605
53.655 10.149842
53.660 10.108671
53.665 9.483565
53.670 9.601443
53.675 9.714354
53.680 9.745649
53.685 9.701354
53.690 9.704107
53.695 10.162075
53.700 10.295974
53.705 10.007412
53.710 9.826727
53.715 9.806363
53.720 9.851563
53.725 9.753484
53.730 9.755374
53.735 9.63513
53.740 9.630783
53.745 9.708467
53.750 9.167277
53.755 9.075377
53.760 9.305781
53.765 9.482445
53.770 9.628304
53.775 9.416631
53.780 9.417013
53.785 9.813771
53.790 9.815177
53.795 9.420176
53.800 9.616722
53.805 9.584804
53.810 10.106311
53.815 10.03762
53.820 9.806964
53.825 9.565782
53.830 9.446695
53.835 9.346052
53.840 9.968107
53.845 9.97556
53.850 10.085918
53.855 10.160902
53.860 9.710462
53.865 10.120988
53.870 9.496794
53.875 8.737765
53.880 8.567576
53.885 8.664639
53.890 8.80107
53.895 9.134586
53.900 9.576419
53.905 10.229323
53.910 10.223896
53.915 10.167542
53.920 9.957081
53.925 10.424509
53.930 10.469007
53.935 10.12624
53.940 10.050426
53.945 10.293839
53.950 10.499982
53.955 10.621969
53.960 11.074185
53.965 11.180552
53.970 11.619117
53.975 11.597447
53.980 11.600059
53.985 11.641745
53.990 11.579841
53.995 11.005315
54.000 10.797779
54.005 10.718589
54.010 11.034872
54.015 10.987424
54.020 11.029345
54.025 11.125866
54.030 10.624951
54.035 10.134461
54.040 9.582627
54.045 9.322635
54.050 9.475772
54.055 9.390984
54.060 9.348013
54.065 9.545573
54.070 9.567826
54.075 9.614249
54.080 9.949007
54.085 9.782531
54.090 9.915641
54.095 10.343156
54.100 10.602245
54.105 10.945582
54.110 11.097533
54.115 10.61205
54.120 10.771716
54.125 10.488375
54.130 10.104021
54.135 9.76932
54.140 9.774249
54.145 10.118806
54.150 10.168572
54.155 10.391859
54.160 10.48712
54.165 10.994675
54.170 11.52071
54.175 11.2632
54.180 11.367198
54.185 11.503776
54.190 11.05402
54.195 11.105823
54.200 11.626348
54.205 11.574087
54.210 11.633899
54.215 11.25258
54.220 11.129557
54.225 11.369193
54.230 11.163757
54.235 10.686546
54.240 10.292082
54.245 10.424245
54.250 10.477938
54.255 10.643503
54.260 10.570557
54.265 10.310354
54.270 10.348614
54.275 10.471005
54.280 10.142118
54.285 10.174694
54.290 10.020282
54.295 9.916883
54.300 9.997209
54.305 10.244077
54.310 10.233425
54.315 10.265398
54.320 10.351177
54.325 10.424906
54.330 10.573195
54.335 10.785585
54.340 10.748356
54.345 11.023822
54.350 10.982456
54.355 11.115713
54.360 11.156314
54.365 11.039173
54.370 11.273078
54.375 11.416035
54.380 11.191878
54.385 11.011716
54.390 10.625075
54.395 10.557543
54.400 10.159827
54.405 9.390846
54.410 8.737659
54.415 8.695578
54.420 9.022564
54.425 9.419967
54.430 9.481466
54.435 9.9809
54.440 10.642824
54.445 11.15475
54.450 11.694695
54.455 11.78119
54.460 11.824068
54.465 11.826187
54.470 11.376631
54.475 11.437622
54.480 11.463773
54.485 11.183364
54.490 10.997587
54.495 10.68821
54.500 10.656419
54.505 10.872914
54.510 10.462396
54.515 10.814496
54.520 10.673333
54.525 10.704712
54.530 11.132676
54.535 11.159904
54.540 11.027669
54.545 10.3866
54.550 10.08484
54.555 9.938674
54.560 9.846919
54.565 9.608539
54.570 9.723829
54.575 9.896317
54.580 10.752355
54.585 11.141595
54.590 11.217008
54.595 11.224751
54.600 11.097795
54.605 10.841053
54.610 11.07129
54.615 10.694847
54.620 10.390432
54.625 10.468484
54.630 10.518101
54.635 10.512517
54.640 10.968272
54.645 10.991708
54.650 11.383127
54.655 11.507125
54.660 11.345092
54.665 10.921815
54.670 11.070839
54.675 10.854168
54.680 10.487037
54.685 10.019687
54.690 10.137642
54.695 10.577699
54.700 10.886255
54.705 11.160485
54.710 10.997684
54.715 11.134751
54.720 11.034792
54.725 10.855555
54.730 10.900769
54.735 10.683326
54.740 10.438102
54.745 10.589781
54.750 11.283573
54.755 11.685958
54.760 11.836209
54.765 11.863889
54.770 12.359421
54.775 12.267829
54.780 11.919773
54.785 11.314992
54.790 10.809637
54.795 10.768893
54.800 10.539334
54.805 10.085061
54.810 9.673786
54.815 10.093982
54.820 10.492462
54.825 11.063648
54.830 11.159274
54.835 11.339334
54.840 11.764068
54.845 12.319611
54.850 12.603629
54.855 12.043734
54.860 11.36377
54.865 11.248061
54.870 11.15238
54.875 10.962572
54.880 10.989506
54.885 10.302107
54.890 10.356169
54.895 10.749587
54.900 10.357734
54.905 10.149228
54.910 10.044519
54.915 10.023038
54.920 10.726763
54.925 10.620178
54.930 10.562401
54.935 10.703944
54.940 11.128574
54.945 10.914864
54.950 10.272759
54.955 10.079572
54.960 10.318148
54.965 10.165018
54.970 10.574523
54.975 10.342673
54.980 10.359096
54.985 10.706861
54.990 10.810518
54.995 10.632898
55.000 10.870441
55.005 10.783834
55.010 10.857523
55.015 11.133866
55.020 11.250978
55.025 11.64132
55.030 11.922428
55.035 11.958868
55.040 11.986243
55.045 12.307862
55.050 12.434022
55.055 12.250183
55.060 11.68821
55.065 11.507257
55.070 11.33393
55.075 11.138537
55.080 11.132719
55.085 10.934865
55.090 10.878296
55.095 10.80652
55.100 10.81765
55.105 10.703886
55.110 11.014576
55.115 11.097788
55.120 11.230454
55.125 11.666946
55.130 11.962754
55.135 12.11618
55.140 12.378402
55.145 11.637585
55.150 11.43993
55.155 11.187337
55.160 11.088378
55.165 11.175902
55.170 11.346172
55.175 11.515916
55.180 12.122148
55.185 12.267249
55.190 11.962885
55.195 12.077882
55.200 12.17155
55.205 12.095036
55.210 11.820546
55.215 11.51462
55.220 11.327912
55.225 11.50338
55.230 10.887319
55.235 10.800908
55.240 10.75261
55.245 10.977792
55.250 11.329737
55.255 11.75932
55.260 11.31511
55.265 11.190415
55.270 11.13115
55.275 11.095924
55.280 10.878549
55.285 10.881318
55.290 11.006278
55.295 11.420543
55.300 11.570228
55.305 11.202567
55.310 11.033817
55.315 11.196727
55.320 10.966399
55.325 11.135981
55.330 11.307321
55.335 11.612149
55.340 12.043339
55.345 12.703825
55.350 12.348483
55.355 12.029948
55.360 11.629357
55.365 11.578157
55.370 11.010127
55.375 10.880691
55.380 10.586835
55.385 10.866102
55.390 11.319467
55.395 11.522137
55.400 11.146136
55.405 11.245212
55.410 11.100229
55.415 10.710117
55.420 10.065758
55.425 9.528403
55.430 9.629195
55.435 10.142705
55.440 10.733232
55.445 11.012449
55.450 11.440801
55.455 12.46849
55.460 12.655427
55.465 12.610917
55.470 12.182817
55.475 11.437344
55.480 11.188825
55.485 10.779496
55.490 10.337518
55.495 10.427145
55.500 10.695103
55.505 11.186106
55.510 11.261482
55.515 11.550471
55.520 11.404163
55.525 11.263447
55.530 11.011359
55.535 10.899972
55.540 10.810166
55.545 11.344801
55.550 11.820736
55.555 11.975449
55.560 12.432605
55.565 12.91954
55.570 12.672617
55.575 12.853599
55.580 12.730852
55.585 12.970038
55.590 13.196098
55.595 12.728824
55.600 12.429354
55.605 12.492485
55.610 12.452038
55.615 12.061058
55.620 11.702312
55.625 12.163157
55.630 12.577
55.635 12.320564
55.640 12.389812
55.645 12.268143
55.650 11.972636
55.655 11.924368
55.660 11.723817
55.665 11.660166
55.670 12.023632
55.675 12.142865
55.680 12.375106
55.685 12.759063
55.690 12.835303
55.695 12.706182
55.700 12.716829
55.705 12.91137
55.710 12.171843
55.715 12.079037
55.720 12.117786
55.725 11.788918
55.730 11.506189
55.735 10.804364
55.740 10.438759
55.745 10.863324
55.750 10.911982
55.755 11.063895
55.760 11.587202
55.765 11.766686
55.770 11.928232
55.775 12.062197
55.780 11.930319
55.785 11.858758
55.790 11.7224
55.795 11.4931
55.800 12.028859
55.805 12.515724
55.810 13.008146
55.815 13.57935
55.820 13.853842
55.825 13.977118
55.830 14.144387
55.835 13.661507
55.840 13.297937
55.845 13.28807
55.850 12.966899
55.855 12.478598
55.860 12.356567
55.865 12.450346
55.870 12.812362
55.875 12.797028
55.880 12.837396
55.885 13.073071
55.890 13.133539
55.895 12.849337
55.900 12.640015
55.905 12.358234
55.910 12.185553
55.915 11.870676
55.920 11.912256
55.925 11.913138
55.930 11.751932
55.935 12.019516
55.940 12.455935
55.945 12.666239
55.950 12.711602
55.955 13.067739
55.960 13.742046
55.965 14.358388
55.970 14.211801
55.975 13.756638
55.980 13.515065
55.985 13.118756
55.990 12.372733
55.995 11.895654
56.000 11.730938
56.005 12.129034
56.010 12.345984
56.015 12.273627
56.020 11.779857
56.025 11.616604
56.030 11.514213
56.035 11.482417
56.040 11.352195
56.045 11.395806
56.050 11.864972
56.055 12.363355
56.060 12.701401
56.065 12.983462
56.070 13.004399
56.075 12.874941
56.080 12.767459
56.085 12.967692
56.090 13.79682
56.095 13.656797
56.100 13.239884
56.105 13.189094
56.110 13.813369
56.115 14.016333
56.120 13.438462
56.125 13.003232
56.130 13.002298
56.135 13.07198
56.140 12.620227
56.145 11.950919
56.150 11.504224
56.155 11.380751
56.160 11.12907
56.165 11.427827
56.170 11.830089
56.175 12.203747
56.180 12.377489
56.185 12.371577
56.190 12.219592
56.195 12.06558
56.200 11.994055
56.205 11.798562
56.210 11.997174
56.215 13.126281
56.220 13.739466
56.225 14.684826
56.230 15.633551
56.235 15.709908
56.240 15.664536
56.245 15.888138
56.250 15.334821
56.255 14.686275
56.260 14.217284
56.265 13.979536
56.270 14.130668
56.275 13.884317
56.280 13.700329
56.285 13.493067
56.290 13.4907
56.295 13.340003
56.300 13.471778
56.305 13.384188
56.310 13.62838
56.315 13.67415
56.320 13.409006
56.325 13.607676
56.330 13.298984
56.335 13.240682
56.340 13.363662
56.345 12.747075
56.350 12.593261
56.355 13.03466
56.360 13.295754
56.365 13.618298
56.370 13.268488
56.375 13.692715
56.380 13.945536
56.385 14.226468
56.390 14.481136
56.395 14.321785
56.400 14.287013
56.405 14.27077
56.410 13.919972
56.415 13.503646
56.420 13.357784
56.425 13.081212
56.430 12.96111
56.435 12.49099
56.440 12.179048
56.445 12.047963
56.450 12.186481
56.455 11.879494
56.460 11.767379
56.465 12.073195
56.470 12.484511
56.475 13.445306
56.480 13.658883
56.485 13.894681
56.490 13.889021
56.495 14.233246
56.500 13.896101
56.505 13.627027
56.510 12.956769
56.515 13.197651
56.520 13.207779
56.525 13.224299
56.530 13.20624
56.535 13.071438
56.540 12.621201
56.545 12.650582
56.550 12.488354
56.555 12.618779
56.560 12.880929
56.565 12.572923
56.570 12.903227
56.575 13.004558
56.580 13.000747
56.585 13.248206
56.590 13.382652
56.595 13.412058
56.600 13.649354
56.605 13.467653
56.610 13.472956
56.615 13.393145
56.620 13.164549
56.625 12.841782
56.630 13.215097
56.635 13.14465
56.640 12.970397
56.645 13.026385
56.650 12.726469
56.655 12.650955
56.660 12.44906
56.665 12.255473
56.670 12.382507
56.675 12.283844
56.680 12.375255
56.685 12.39581
56.690 12.480646
56.695 12.411237
56.700 11.868359
56.705 12.053979
56.710 12.847747
56.715 12.747308
56.720 12.90431
56.725 13.314397
56.730 13.520435
56.735 13.812335
56.740 13.541287
56.745 13.4362
56.750 13.778773
56.755 13.578094
56.760 13.206872
56.765 13.527235
56.770 13.60953
56.775 13.600418
56.780 13.526319
56.785 13.56938
56.790 14.022287
56.795 13.9442
56.800 13.833587
56.805 14.123384
56.810 14.436124
56.815 14.496554
56.820 14.357793
56.825 14.079428
56.830 14.183781
56.835 13.910262
56.840 13.441693
56.845 13.412556
56.850 13.319076
56.855 13.530696
56.860 13.414267
56.865 13.176839
56.870 13.366981
56.875 13.318563
56.880 13.202967
56.885 12.906544
56.890 12.521029
56.895 12.951967
56.900 13.628347
56.905 14.057647
56.910 14.276127
56.915 14.358887
56.920 14.508541
56.925 14.26539
56.930 13.832088
56.935 13.661809
56.940 12.911251
56.945 12.640202
56.950 12.510001
56.955 12.906275
56.960 13.366925
56.965 13.425209
56.970 13.779123
56.975 14.416504
56.980 14.684623
56.985 15.037897
56.990 14.928568
56.995 14.82718
57.000 14.776711
57.005 14.934109
57.010 14.975084
57.015 15.213934
57.020 15.516234
57.025 15.664227
57.030 15.733255
57.035 15.927374
57.040 14.600172
57.045 14.142807
57.050 13.878496
57.055 13.415631
57.060 13.086121
57.065 12.664616
57.070 12.04951
57.075 12.574594
57.080 12.823269
57.085 12.450829
57.090 12.430158
57.095 12.691017
57.100 12.814315
57.105 12.847785
57.110 13.147895
57.115 13.251458
57.120 13.173249
57.125 12.718471
57.130 12.862989
57.135 13.318732
57.140 13.84096
57.145 13.834085
57.150 13.740216
57.155 14.429639
57.160 14.936977
57.165 14.445132
57.170 14.188912
57.175 13.837629
57.180 13.734606
57.185 13.263528
57.190 13.054036
57.195 13.283162
57.200 13.740171
57.205 14.034545
57.210 14.036194
57.215 13.900242
57.220 13.687877
57.225 13.399215
57.230 12.857941
57.235 12.494674
57.240 12.545521
57.245 12.972322
57.250 13.1064
57.255 12.90867
57.260 13.050558
57.265 13.112532
57.270 13.437398
57.275 13.17487
57.280 13.129611
57.285 13.818232
57.290 14.666622
57.295 15.103453
57.300 15.323301
57.305 14.840939
57.310 14.593336
57.315 14.315287
57.320 13.692822
57.325 13.755646
57.330 13.369778
57.335 13.322343
57.340 13.58968
57.345 13.646827
57.350 13.462403
57.355 13.382239
57.360 12.660136
57.365 12.559779
57.370 12.333636
57.375 12.778566
57.380 13.272274
57.385 13.431711
57.390 13.271595
57.395 13.558531
57.400 14.014211
57.405 14.203764
57.410 14.058173
57.415 13.879659
57.420 13.846965
57.425 14.144457
57.430 13.981621
57.435 13.828387
57.440 13.798705
57.445 13.704962
57.450 13.697028
57.455 14.039371
57.460 14.245212
57.465 14.69193
57.470 14.938244
57.475 15.381398
57.480 15.550888
57.485 15.791322
57.490 16.297209
57.495 15.595173
57.500 14.815092
57.505 14.964446
57.510 14.463685
57.515 14.275465
57.520 13.861264
57.525 13.26749
57.530 13.750661
57.535 14.129159
57.540 13.838492
57.545 13.83532
57.550 14.000687
57.555 13.655137
57.560 13.977265
57.565 14.501653
57.570 14.739684
57.575 14.771852
57.580 14.9621
57.585 15.455134
57.590 15.767911
57.595 15.902002
57.600 15.977597
57.605 15.79294
57.610 15.855231
57.615 15.784526
57.620 16.117645
57.625 16.474264
57.630 16.94953
57.635 16.888502
57.640 16.714783
57.645 16.331085
57.650 16.333759
57.655 15.678347
57.660 14.915504
57.665 14.445901
57.670 14.127192
57.675 14.121135
57.680 14.516623
57.685 14.944062
57.690 14.955957
57.695 15.263857
57.700 15.223025
57.705 15.29854
57.710 15.447182
57.715 15.247766
57.720 14.641162
57.725 14.423495
57.730 13.96069
57.735 13.914859
57.740 14.239612
57.745 14.250869
57.750 14.246724
57.755 14.602688
57.760 14.95696
57.765 15.139844
57.770 14.718593
57.775 13.928819
57.780 13.81623
57.785 13.534256
57.790 13.033589
57.795 12.786532
57.800 12.648942
57.805 13.033585
57.810 13.603053
57.815 14.036692
57.820 14.554653
57.825 15.075409
57.830 15.347895
57.835 15.767073
57.840 15.602222
57.845 15.10199
57.850 14.435323
57.855 14.276311
57.860 14.054561
57.865 13.900056
57.870 13.94484
57.875 14.356573
57.880 14.704202
57.885 15.165599
57.890 15.329363
57.895 15.479573
57.900 15.870729
57.905 15.983564
57.910 16.30699
57.915 16.28277
57.920 15.903874
57.925 15.398337
57.930 15.209854
57.935 14.620155
57.940 14.083327
57.945 13.806036
57.950 14.258773
57.955 14.4514
57.960 14.970224
57.965 15.449192
57.970 15.884308
57.975 15.321114
57.980 14.78289
57.985 14.475679
57.990 14.40968
57.995 14.074665
58.000 13.464211
58.005 12.922208
58.010 13.516784
58.015 13.391548
58.020 13.55703
58.025 13.336272
58.030 13.502204
58.035 13.954179
58.040 14.8672
58.045 15.123339
58.050 15.385067
58.055 15.361204
58.060 15.828907
58.065 15.638155
58.070 15.460812
58.075 15.053881
58.080 14.703198
58.085 14.744213
58.090 14.815798
58.095 14.850858
58.100 14.976249
58.105 15.193547
58.110 14.854102
58.115 15.195759
58.120 14.622272
58.125 14.245974
58.130 14.325796
58.135 14.32163
58.140 13.862342
58.145 13.996982
58.150 14.281236
58.155 14.569589
58.160 14.239109
58.165 13.519719
58.170 13.845198
58.175 14.346831
58.180 14.76056
58.185 14.803647
58.190 15.566243
58.195 16.466578
58.200 16.973553
58.205 17.157837
58.210 17.011894
58.215 16.372541
58.220 15.977424
58.225 15.252111
58.230 14.691504
58.235 14.246115
58.240 13.649355
58.245 13.879329
58.250 14.230782
58.255 14.651585
58.260 14.773211
58.265 14.608199
58.270 14.625901
58.275 14.639034
58.280 14.546452
58.285 14.533772
58.290 14.090682
58.295 14.396167
58.300 14.980694
58.305 15.313478
58.310 15.737804
58.315 15.534588
58.320 15.809758
58.325 16.346741
58.330 16.117685
58.335 16.129694
58.340 15.840687
58.345 15.595288
58.350 15.081781
58.355 14.756465
58.360 14.623597
58.365 14.319397
58.370 13.831644
58.375 14.171227
58.380 14.102937
58.385 14.268429
58.390 14.17559
58.395 14.16697
58.400 14.49067
58.405 14.95037
58.410 14.586248
58.415 14.495579
58.420 14.615071
58.425 15.056128
58.430 14.90748
58.435 14.732856
58.440 15.26155
58.445 15.499233
58.450 14.925153
58.455 14.283921
58.460 13.898046
58.465 14.110711
58.470 14.80332
58.475 14.127192
58.480 13.987471
58.485 14.710918
58.490 15.511349
58.495 15.769094
58.500 14.994643
58.505 14.101012
58.510 14.10116
58.515 14.257713
58.520 14.520918
58.525 14.635631
58.530 14.628489
58.535 14.707331
58.540 14.764408
58.545 14.994031
58.550 15.260117
58.555 15.213846
58.560 15.272905
58.565 15.700199
58.570 16.501263
58.575 16.922403
58.580 17.04031
58.585 16.617039
58.590 16.668388
58.595 16.569359
58.600 16.584835
58.605 16.097143
58.610 16.031023
58.615 16.226343
58.620 16.329941
58.625 15.871757
58.630 15.553617
58.635 15.48419
58.640 15.668373
58.645 15.530494
58.650 15.309734
58.655 15.001362
58.660 15.219861
58.665 15.960137
58.670 16.167578
58.675 16.37393
58.680 16.333294
58.685 16.333916
58.690 17.058268
58.695 17.062412
58.700 16.045559
58.705 15.98437
58.710 15.415689
58.715 15.290301
58.720 15.350632
58.725 15.138106
58.730 15.235752
58.735 15.688119
58.740 15.522782
58.745 16.135233
58.750 16.658409
58.755 16.731634
58.760 17.018579
58.765 17.22294
58.770 16.903818
58.775 17.025158
58.780 16.744326
58.785 16.75663
58.790 17.013109
58.795 17.053434
58.800 16.7862
58.805 16.912683
58.810 16.764921
58.815 16.494524
58.820 16.076433
58.825 15.618724
58.830 15.3537
58.835 14.864893
58.840 14.939949
58.845 15.145758
58.850 15.624062
58.855 15.935088
58.860 15.984198
58.865 15.694181
58.870 15.787277
58.875 15.362309
58.880 15.10764
58.885 14.647238
58.890 15.001709
58.895 15.178735
58.900 15.360814
58.905 15.408305
58.910 15.935741
58.915 15.60972
58.920 15.420526
58.925 15.23256
58.930 15.365729
58.935 15.516096
58.940 15.82186
58.945 15.347007
58.950 15.692318
58.955 15.793326
58.960 15.822043
58.965 16.088438
58.970 15.869115
58.975 15.875546
58.980 16.618599
58.985 16.358393
58.990 16.091141
58.995 15.764176
59.000 15.631627
59.005 16.023527
59.010 16.372984
59.015 15.69593
59.020 15.9246
59.025 16.219244
59.030 16.431118
59.035 16.409286
59.040 16.848879
59.045 16.573439
59.050 16.751863
59.055 17.275299
59.060 17.823771
59.065 18.00029
59.070 17.691784
59.075 17.443436
59.080 17.7017
59.085 17.9676
59.090 17.320854
59.095 17.138998
59.100 16.914442
59.105 17.049717
59.110 16.812763
59.115 16.769638
59.120 16.778841
59.125 17.163961
59.130 17.029644
59.135 16.809387
59.140 16.443098
59.145 16.82732
59.150 16.47901
59.155 16.61735
59.160 16.299433
59.165 16.275961
59.170 16.82222
59.175 16.894714
59.180 16.611137
59.185 16.676229
59.190 16.379448
59.195 16.578999
59.200 16.686743
59.205 16.496592
59.210 17.121611
59.215 16.167212
59.220 16.214476
59.225 16.584986
59.230 16.616634
59.235 16.586447
59.240 17.015451
59.245 17.447464
59.250 18.771177
59.255 19.461567
59.260 19.291279
59.265 19.031868
59.270 19.253115
59.275 18.737221
59.280 17.796867
59.285 17.006407
59.290 16.370964
59.295 16.841324
59.300 16.960266
59.305 17.058931
59.310 17.853539
59.315 17.878986
59.320 17.786844
59.325 17.739977
59.330 17.505205
59.335 16.939957
59.340 16.124619
59.345 15.700476
59.350 15.704505
59.355 15.698844
59.360 15.731268
59.365 15.914986
59.370 15.897964
59.375 15.692698
59.380 15.823984
59.385 16.124796
59.390 16.196178
59.395 16.179193
59.400 16.85911
59.405 17.339537
59.410 17.678953
59.415 17.90519
59.420 17.980068
59.425 18.689035
59.430 18.242966
59.435 17.476448
59.440 17.562431
59.445 17.574621
59.450 17.036827
59.455 16.454622
59.460 16.019802
59.465 16.244246
59.470 16.294872
59.475 16.740696
59.480 16.964659
59.485 17.273951
59.490 17.784389
59.495 17.961969
59.500 18.177025
59.505 18.093876
59.510 18.038147
59.515 17.95376
59.520 18.307348
59.525 18.225672
59.530 18.159767
59.535 17.976145
59.540 17.806829
59.545 17.505787
59.550 17.401215
59.555 17.329668
59.560 18.036634
59.565 17.63793
59.570 17.773722
59.575 17.720221
59.580 18.017717
59.585 17.804262
59.590 17.132483
59.595 16.577454
59.600 17.175838
59.605 17.267988
59.610 17.435841
59.615 17.046162
59.620 17.391378
59.625 17.792988
59.630 17.837933
59.635 17.091974
59.640 16.8479
59.645 16.892021
59.650 17.268385
59.655 17.37966
59.660 17.70607
59.665 18.668058
59.670 19.34926
59.675 19.61536
59.680 19.755707
59.685 19.535692
59.690 19.916122
59.695 19.861887
59.700 19.700045
59.705 19.706198
59.710 19.441233
59.715 19.188736
59.720 19.232819
59.725 18.774443
59.730 18.782028
59.735 18.608107
59.740 18.687895
59.745 19.13942
59.750 19.347429
59.755 19.441866
59.760 19.555561
59.765 19.455349
59.770 18.973932
59.775 18.788471
59.780 19.270714
59.785 19.183239
59.790 19.12915
59.795 18.615112
59.800 18.691423
59.805 18.716749
59.810 18.824131
59.815 18.499893
59.820 18.340174
59.825 18.498972
59.830 18.324747
59.835 18.107767
59.840 18.305143
59.845 18.529394
59.850 18.552916
59.855 19.031143
59.860 19.504496
59.865 20.081572
59.870 19.840221
59.875 19.581036
59.880 19.563528
59.885 19.696272
59.890 19.720881
59.895 19.90308
59.900 20.706863
59.905 21.109098
59.910 21.485085
59.915 20.774921
59.920 20.079462
59.925 19.679033
59.930 19.142223
59.935 18.844591
59.940 18.92432
59.945 18.794434
59.950 19.038752
59.955 19.819571
59.960 20.300289
59.965 20.130798
59.970 19.725754
59.975 19.84691
59.980 19.988678
59.985 20.779375
59.990 20.990559
59.995 21.276999
60.000 21.475351
60.005 21.445177
60.010 21.777248
60.015 22.297485
60.020 22.380344
60.025 21.991072
60.030 21.534081
60.035 21.692259
60.040 22.190731
60.045 22.604496
60.050 22.525694
60.055 22.32913
60.060 23.024546
60.065 23.792957
60.070 24.025942
60.075 23.961365
60.080 23.286783
60.085 23.65859
60.090 23.0161
60.095 22.012215
60.100 21.774342
60.105 22.137697
60.110 21.840862
60.115 22.174269
60.120 21.823816
60.125 21.778635
60.130 21.667612
60.135 21.475201
60.140 20.7425
60.145 20.816236
60.150 20.692711
60.155 20.414995
60.160 20.533051
60.165 20.480206
60.170 20.831831
60.175 21.318661
60.180 21.285006
60.185 21.527273
60.190 21.482168
60.195 21.774302
60.200 22.024189
60.205 21.846279
60.210 22.074432
60.215 22.477621
60.220 22.536663
60.225 23.326628
60.230 23.689674
60.235 23.704269
60.240 23.590282
60.245 23.275814
60.250 22.930075
60.255 22.631268
60.260 22.282253
60.265 22.057453
60.270 22.206339
60.275 22.439108
60.280 22.468403
60.285 22.304695
60.290 21.478611
60.295 21.193335
60.300 21.086086
60.305 20.91292
60.310 20.75876
60.315 20.850668
60.320 20.515923
60.325 21.201967
60.330 21.247274
60.335 21.522224
60.340 21.414749
60.345 20.798613
60.350 20.926105
60.355 21.533371
60.360 22.078781
60.365 22.362219
60.370 21.952675
60.375 22.296576
60.380 22.78307
60.385 21.93527
60.390 21.164341
60.395 21.036219
60.400 20.862677
60.405 20.894873
60.410 20.629395
60.415 20.615086
60.420 21.227654
60.425 21.267389
60.430 20.418295
60.435 20.586668
60.440 20.402733
60.445 20.225496
60.450 20.029322
60.455 20.260185
60.460 20.397512
60.465 20.931133
60.470 20.73922
60.475 20.691685
60.480 20.814373
60.485 20.950377
60.490 20.653994
60.495 20.703253
60.500 20.361732
60.505 20.77656
60.510 21.357105
60.515 21.488295
60.520 21.285599
60.525 21.761173
60.530 21.944086
60.535 22.374405
60.540 21.68611
60.545 21.21471
60.550 21.341413
60.555 21.310566
60.560 21.00635
60.565 20.1049
60.570 19.293505
60.575 19.517078
60.580 19.796354
60.585 20.029793
60.590 19.919304
60.595 19.387127
60.600 19.456938
60.605 20.074907
60.610 20.159248
60.615 20.288729
60.620 20.080202
60.625 20.352428
60.630 20.727093
60.635 21.276354
60.640 21.265242
60.645 20.925615
60.650 20.073105
60.655 19.993675
60.660 19.696968
60.665 19.829262
60.670 19.653637
60.675 19.569986
60.680 19.500515
60.685 19.595818
60.690 19.409895
60.695 19.783012
60.700 19.635778
60.705 20.24098
60.710 21.067818
60.715 21.299059
60.720 21.54134
60.725 21.62607
60.730 21.775711
60.735 21.966642
60.740 21.465429
60.745 20.582188
60.750 20.017134
60.755 19.405638
60.760 19.633476
60.765 19.770447
60.770 19.69236
60.775 19.033415
60.780 17.820639
60.785 18.274666
60.790 18.688023
60.795 18.258194
60.800 17.828388
60.805 17.622057
60.810 17.743307
60.815 18.212177
60.820 18.552296
60.825 18.822533
60.830 18.489918
60.835 18.591869
60.840 18.752518
60.845 19.286776
60.850 20.130608
60.855 19.591269
60.860 19.23661
60.865 19.349533
60.870 19.323452
60.875 19.241936
60.880 19.537073
60.885 18.927708
60.890 19.104038
60.895 19.161827
60.900 19.323568
60.905 19.413387
60.910 19.20491
60.915 18.260563
60.920 18.398703
60.925 18.132261
60.930 17.559586
60.935 17.645201
60.940 17.563665
60.945 18.24609
60.950 18.581495
60.955 18.776306
60.960 19.66518
60.965 20.733068
60.970 21.192614
60.975 20.814169
60.980 20.154556
60.985 19.819616
60.990 19.509398
60.995 18.745647
61.000 18.264082
61.005 18.060635
61.010 17.952356
61.015 17.736925
61.020 17.449059
61.025 17.254652
61.030 16.782248
61.035 16.362984
61.040 15.454925
61.045 15.674618
61.050 15.943978
61.055 16.585724
61.060 17.318333
61.065 17.388311
61.070 17.262981
61.075 17.132977
61.080 17.05127
61.085 17.22097
61.090 17.284014
61.095 17.089165
61.100 17.87096
61.105 18.299541
61.110 17.904362
61.115 17.707224
61.120 17.210943
61.125 16.25176
61.130 15.763352
61.135 15.439424
61.140 15.866113
61.145 16.926428
61.150 17.003201
61.155 16.971136
61.160 17.001905
61.165 17.161444
61.170 16.902262
61.175 16.37409
61.180 16.339153
61.185 16.555426
61.190 16.887449
61.195 16.651342
61.200 16.572527
61.205 16.954647
61.210 16.601324
61.215 16.130314
61.220 16.234735
61.225 17.013258
61.230 17.676832
61.235 17.443691
61.240 17.164694
61.245 17.710844
61.250 17.715357
61.255 17.357067
61.260 16.868731
61.265 16.883463
61.270 17.682964
61.275 17.909569
61.280 17.965612
61.285 18.300022
61.290 18.466591
61.295 17.938585
61.300 17.646545
61.305 17.109442
61.310 16.485397
61.315 15.960447
61.320 15.858514
61.325 15.956861
61.330 16.000633
61.335 15.687997
61.340 15.450233
61.345 15.503181
61.350 15.524823
61.355 15.784423
61.360 15.823009
61.365 16.207829
61.370 16.048809
61.375 16.26738
61.380 16.390133
61.385 16.273342
61.390 15.741967
61.395 15.705959
61.400 15.167924
61.405 15.40325
61.410 15.533213
61.415 15.427347
61.420 15.550916
61.425 15.655853
61.430 16.277782
61.435 17.061161
61.440 16.653555
61.445 16.505127
61.450 16.577381
61.455 17.080914
61.460 16.889715
61.465 16.097469
61.470 15.806296
61.475 16.70948
61.480 17.006519
61.485 16.854958
61.490 16.219028
61.495 16.431801
61.500 16.260937
61.505 15.964238
61.510 15.728271
61.515 15.56491
61.520 16.140244
61.525 16.844271
61.530 17.411692
61.535 18.303509
61.540 18.451721
61.545 18.766518
61.550 18.689066
61.555 18.783772
61.560 18.916676
61.565 18.790581
61.570 18.658901
61.575 18.772497
61.580 19.282398
61.585 19.791431
61.590 19.265408
61.595 18.748264
61.600 18.102737
61.605 17.963085
61.610 18.31039
61.615 17.513996
61.620 17.2181
61.625 16.795208
61.630 16.831633
61.635 17.026703
61.640 17.010765
61.645 16.799517
61.650 16.384237
61.655 16.019854
61.660 17.043287
61.665 17.833408
61.670 17.752993
61.675 17.697712
61.680 17.828215
61.685 18.181364
61.690 18.787827
61.695 18.399271
61.700 17.950081
61.705 18.122381
61.710 18.111124
61.715 17.929464
61.720 17.822104
61.725 17.523535
61.730 17.278112
61.735 16.990892
61.740 17.165894
61.745 17.06723
61.750 17.193731
61.755 16.963766
61.760 16.761236
61.765 17.156481
61.770 17.063892
61.775 16.653114
61.780 16.111526
61.785 15.777649
61.790 16.193218
61.795 16.504169
61.800 16.629938
61.805 16.848362
61.810 16.84038
61.815 16.897638
61.820 17.529009
61.825 17.742083
61.830 17.526485
61.835 17.20195
61.840 16.95146
61.845 17.201107
61.850 17.65114
61.855 17.357573
61.860 17.379833
61.865 17.738274
61.870 18.10355
61.875 19.022951
61.880 19.309181
61.885 19.428587
61.890 19.37011
61.895 19.657116
61.900 19.307064
61.905 19.210514
61.910 19.225121
61.915 19.171474
61.920 18.466915
61.925 18.19483
61.930 17.18885
61.935 16.948536
61.940 16.102726
61.945 15.292091
61.950 15.400465
61.955 16.139278
61.960 16.464695
61.965 16.929533
61.970 17.432846
61.975 18.235586
61.980 18.139162
61.985 17.485085
61.990 16.761024
61.995 15.990195
62.000 15.733005
62.005 15.384508
62.010 14.969953
62.015 15.64039
62.020 16.277807
62.025 16.45105
62.030 17.255114
62.035 17.115425
62.040 16.611942
62.045 16.807266
62.050 16.844717
62.055 16.897839
62.060 17.500559
62.065 17.167891
62.070 17.741636
62.075 17.846651
62.080 17.368059
62.085 17.275093
62.090 17.214859
62.095 17.107052
62.100 17.800646
62.105 18.397345
62.110 19.225163
62.115 19.716303
62.120 19.415182
62.125 19.126528
62.130 18.71895
62.135 18.282278
62.140 17.614872
62.145 17.059408
62.150 16.645624
62.155 16.918398
62.160 17.368795
62.165 17.941998
62.170 18.178345
62.175 18.328798
62.180 18.241798
62.185 18.100981
62.190 17.753443
62.195 17.262007
62.200 16.886185
62.205 16.973555
62.210 16.966295
62.215 16.963869
62.220 16.970768
62.225 17.077377
62.230 17.433708
62.235 17.301872
62.240 16.854296
62.245 16.606604
62.250 16.956226
62.255 16.994471
62.260 16.835512
62.265 16.538212
62.270 16.497961
62.275 16.69697
62.280 16.644806
62.285 17.001215
62.290 17.053606
62.295 17.306562
62.300 17.642977
62.305 17.863567
62.310 17.999239
62.315 18.241966
62.320 18.251377
62.325 18.097105
62.330 18.133101
62.335 17.973539
62.340 18.023088
62.345 17.906837
62.350 17.453548
62.355 16.729815
62.360 16.9475
62.365 16.768049
62.370 16.876404
62.375 16.871021
62.380 16.932928
62.385 17.472704
62.390 17.882584
62.395 17.858395
62.400 17.950823
62.405 17.779776
62.410 17.612909
62.415 17.120768
62.420 16.896629
62.425 17.024456
62.430 16.727098
62.435 16.252403
62.440 16.103428
62.445 16.577953
62.450 16.917864
62.455 16.585136
62.460 16.485998
62.465 16.788485
62.470 17.358032
62.475 17.952509
62.480 17.98777
62.485 17.907303
62.490 18.377371
62.495 18.530071
62.500 18.200243
62.505 16.946352
62.510 15.920515
62.515 15.680607
62.520 15.563403
62.525 15.501588
62.530 15.861867
62.535 16.831657
62.540 17.91234
62.545 18.252895
62.550 18.587664
62.555 19.053091
62.560 19.273397
62.565 19.292747
62.570 18.373783
62.575 18.009275
62.580 18.024868
62.585 18.133129
62.590 17.742212
62.595 17.201195
62.600 16.909018
62.605 17.548962
62.610 17.477346
62.615 17.237955
62.620 16.836628
62.625 16.656435
62.630 16.534363
62.635 16.092445
62.640 15.619213
62.645 15.63316
62.650 15.638779
62.655 15.623664
62.660 15.870631
62.665 15.774238
62.670 15.868888
62.675 16.448435
62.680 16.864658
62.685 17.148409
62.690 18.638346
62.695 18.672384
62.700 18.294102
62.705 18.314781
62.710 18.187035
62.715 18.402607
62.720 18.054205
62.725 16.823017
62.730 17.021576
62.735 17.525991
62.740 17.769381
62.745 18.193882
62.750 17.797783
62.755 17.987272
62.760 17.861103
62.765 18.148043
62.770 18.199358
62.775 17.747833
62.780 17.122953
62.785 17.077101
62.790 16.952129
62.795 16.830536
62.800 16.174385
62.805 16.365059
62.810 16.594177
62.815 16.450926
62.820 16.433947
62.825 16.412281
62.830 16.17585
62.835 15.758499
62.840 15.104326
62.845 15.124917
62.850 15.475661
62.855 15.488989
62.860 15.626533
62.865 16.342997
62.870 17.093531
62.875 17.157396
62.880 17.159624
62.885 17.582165
62.890 17.639391
62.895 17.33069
62.900 17.239416
62.905 17.336662
62.910 17.817404
62.915 17.829348
62.920 17.179554
62.925 17.0383
62.930 16.980587
62.935 16.15148
62.940 16.418045
62.945 16.19194
62.950 15.889317
62.955 15.927723
62.960 15.736609
62.965 15.991519
62.970 17.252981
62.975 17.564941
62.980 17.949133
62.985 18.332287
62.990 18.614998
62.995 18.968267
63.000 18.992025
63.005 18.130972
63.010 17.693998
63.015 18.050791
63.020 17.454958
63.025 17.40753
63.030 17.136482
63.035 16.931717
63.040 17.353689
63.045 17.542852
63.050 17.436155
63.055 17.883875
63.060 18.025169
63.065 18.544142
63.070 18.369011
63.075 18.411345
63.080 18.396189
63.085 18.242353
63.090 18.122751
63.095 18.171177
63.100 18.12137
63.105 18.812567
63.110 19.310163
63.115 19.118086
63.120 18.85755
63.125 19.430868
63.130 19.788361
63.135 19.767393
63.140 18.859089
63.145 17.73175
63.150 17.943428
63.155 18.269743
63.160 17.83334
63.165 17.483946
63.170 17.952288
63.175 18.818134
63.180 19.269924
63.185 18.552017
63.190 17.884886
63.195 17.659658
63.200 17.559191
63.205 16.833569
63.210 16.027885
63.215 16.00565
63.220 16.400377
63.225 16.432289
63.230 16.658598
63.235 17.104252
63.240 17.813732
63.245 18.23938
63.250 18.063421
63.255 18.499029
63.260 18.839647
63.265 19.001265
63.270 18.366276
63.275 17.557787
63.280 17.627134
63.285 18.3724
63.290 18.467051
63.295 18.954994
63.300 18.659424
63.305 18.88843
63.310 19.229271
63.315 19.152102
63.320 18.432032
63.325 17.833405
63.330 17.275082
63.335 17.500557
63.340 17.669922
63.345 17.844488
63.350 17.797991
63.355 17.479256
63.360 17.893305
63.365 17.716869
63.370 17.499626
63.375 17.437252
63.380 16.74264
63.385 16.844833
63.390 17.509859
63.395 17.700827
63.400 17.88686
63.405 18.05694
63.410 17.896311
63.415 18.618437
63.420 18.212702
63.425 17.616926
63.430 17.235325
63.435 17.659492
63.440 17.450918
63.445 17.236359
63.450 17.316456
63.455 17.631052
63.460 17.746801
63.465 17.763369
63.470 17.977385
63.475 18.426805
63.480 18.773502
63.485 18.520536
63.490 17.755669
63.495 18.299486
63.500 18.371059
63.505 17.787066
63.510 17.536345
63.515 17.37785
63.520 17.131067
63.525 17.420324
63.530 17.2234
63.535 16.962753
63.540 17.29908
63.545 17.907907
63.550 17.928225
63.555 18.61541
63.560 18.332912
63.565 17.459291
63.570 17.196478
63.575 16.737085
63.580 15.973465
63.585 15.741913
63.590 15.971633
63.595 16.545135
63.600 17.458956
63.605 17.56324
63.610 17.569794
63.615 18.284548
63.620 18.828531
63.625 18.058083
63.630 18.256563
63.635 17.78163
63.640 17.829147
63.645 18.049006
63.650 17.606989
63.655 17.417086
63.660 17.554068
63.665 17.512371
63.670 18.033691
63.675 18.010632
63.680 17.749079
63.685 17.930117
63.690 18.447586
63.695 18.450308
63.700 18.05377
63.705 17.494106
63.710 17.402647
63.715 16.961924
63.720 16.472496
63.725 15.687125
63.730 15.658572
63.735 16.065102
63.740 16.423218
63.745 16.862736
63.750 16.982397
63.755 16.952921
63.760 17.624851
63.765 17.308052
63.770 16.897068
63.775 17.266027
63.780 17.263712
63.785 18.087927
63.790 18.387831
63.795 17.939369
63.800 17.750198
63.805 17.589504
63.810 17.07259
63.815 17.111835
63.820 16.82613
63.825 17.01441
63.830 17.55257
63.835 17.910328
63.840 18.601477
63.845 18.640028
63.850 18.323864
63.855 18.479807
63.860 18.258024
63.865 18.116184
63.870 18.160282
63.875 18.161875
63.880 18.183424
63.885 18.826929
63.890 18.01922
63.895 18.211086
63.900 17.885334
63.905 17.899353
63.910 17.754944
63.915 17.494579
63.920 17.190403
63.925 17.974054
63.930 18.032335
63.935 18.453495
63.940 18.410774
63.945 18.344326
63.950 18.624804
63.955 18.450418
63.960 17.920837
63.965 18.030561
63.970 18.334919
63.975 18.111481
63.980 18.001247
63.985 17.945971
63.990 17.83544
63.995 18.077408
64.000 17.933611
64.005 17.620102
64.010 18.352585
64.015 18.86022
64.020 19.581255
64.025 20.002209
64.030 19.453465
64.035 19.323166
64.040 19.39946
64.045 19.068415
64.050 18.518642
64.055 17.779882
64.060 18.028032
64.065 18.946836
64.070 19.345942
64.075 19.405149
64.080 19.522919
64.085 19.545828
64.090 19.58647
64.095 18.999737
64.100 18.346088
64.105 17.766968
64.110 17.534168
64.115 17.336802
64.120 17.822498
64.125 18.832905
64.130 19.194971
64.135 19.675886
64.140 19.837496
64.145 19.700195
64.150 20.126497
64.155 19.847235
64.160 18.685549
64.165 18.461515
64.170 18.032789
64.175 18.01297
64.180 18.252562
64.185 18.046791
64.190 18.029818
64.195 18.314928
64.200 18.585409
64.205 19.075499
64.210 19.650047
64.215 19.875484
64.220 19.493786
64.225 19.198349
64.230 18.990425
64.235 18.531149
64.240 18.218531
64.245 17.415949
64.250 16.949577
64.255 16.60054
64.260 17.070824
64.265 17.392979
64.270 17.087061
64.275 17.077368
64.280 17.15303
64.285 17.498888
64.290 18.372997
64.295 18.362457
64.300 17.984188
64.305 18.116106
64.310 18.624529
64.315 18.346788
64.320 17.593819
64.325 17.136036
64.330 16.831572
64.335 17.088593
64.340 17.650255
64.345 17.291565
64.350 17.872217
64.355 18.418066
64.360 18.475367
64.365 18.433304
64.370 18.227911
64.375 17.732147
64.380 17.973612
64.385 18.191011
64.390 18.261299
64.395 18.293526
64.400 18.595907
64.405 19.286861
64.410 19.960005
64.415 20.19998
64.420 20.1308
64.425 19.666502
64.430 19.601261
64.435 19.645391
64.440 19.115936
64.445 18.895794
64.450 18.333307
64.455 18.016323
64.460 18.105
64.465 18.025291
64.470 18.109495
64.475 18.435858
64.480 18.784986
64.485 20.063009
64.490 20.44784
64.495 20.331511
64.500 20.250723
64.505 19.772549
64.510 19.818218
64.515 19.405233
64.520 18.83437
64.525 19.107924
64.530 19.614901
64.535 19.668678
64.540 19.386238
64.545 18.649063
64.550 18.305971
64.555 17.732613
64.560 18.069553
64.565 18.527264
64.570 19.161787
64.575 19.77577
64.580 20.315968
64.585 20.30438
64.590 20.861565
64.595 20.845249
64.600 20.542543
64.605 20.385057
64.610 20.18335
64.615 19.969624
64.620 19.600519
64.625 18.920866
64.630 18.47834
64.635 18.323326
64.640 18.172909
64.645 18.437834
64.650 19.009254
64.655 19.977957
64.660 20.553423
64.665 20.421728
64.670 20.829273
64.675 20.718439
64.680 20.058985
64.685 18.9457
64.690 18.179121
64.695 17.460938
64.700 17.544201
64.705 17.405804
64.710 17.916676
64.715 19.207237
64.720 19.574587
64.725 19.491377
64.730 19.197269
64.735 18.873644
64.740 18.876728
64.745 18.643793
64.750 17.908712
64.755 18.265047
64.760 18.794941
64.765 19.483644
64.770 19.83073
64.775 19.887629
64.780 19.549845
64.785 19.784348
64.790 19.697237
64.795 19.664064
64.800 19.860609
64.805 19.789743
64.810 19.522144
64.815 20.276711
64.820 20.512833
64.825 21.078876
64.830 21.010765
64.835 20.44335
64.840 20.378891
64.845 21.032495
64.850 21.168533
64.855 21.105492
64.860 20.927036
64.865 21.451593
64.870 21.327873
64.875 20.410145
64.880 20.166325
64.885 20.307901
64.890 20.276186
64.895 20.478237
64.900 20.116762
64.905 20.808107
64.910 21.439117
64.915 21.438648
64.920 20.556713
64.925 20.559607
64.930 20.359001
64.935 20.685993
64.940 21.322386
64.945 22.099228
64.950 21.869741
64.955 21.837881
64.960 21.765503
64.965 21.766319
64.970 21.447151
64.975 21.043718
64.980 20.965759
64.985 21.395954
64.990 22.044399
64.995 21.992237
65.000 22.290346
65.005 22.651876
65.010 22.861078
65.015 22.481434
65.020 23.201904
65.025 23.345114
65.030 23.920099
65.035 23.848125
65.040 23.240984
65.045 22.998997
65.050 23.310219
65.055 22.850967
65.060 22.623058
65.065 22.136135
65.070 22.667397
65.075 23.393511
65.080 24.129499
65.085 23.866003
65.090 23.306826
65.095 23.532497
65.100 23.650267
65.105 23.344351
65.110 22.970196
65.115 22.597748
65.120 23.310198
65.125 24.331196
65.130 24.117661
65.135 23.955769
65.140 23.730562
65.145 23.023359
65.150 22.017942
65.155 21.603216
65.160 20.840233
65.165 20.718967
65.170 20.838102
65.175 21.055729
65.180 21.811785
65.185 22.443598
65.190 22.37726
65.195 22.194658
65.200 22.546822
65.205 22.504072
65.210 22.399326
65.215 22.668142
65.220 22.775276
65.225 22.450781
65.230 23.265438
65.235 23.527006
65.240 24.20738
65.245 24.615829
65.250 24.396873
65.255 24.215889
65.260 24.076031
65.265 23.425825
65.270 23.109488
65.275 22.397566
65.280 22.457792
65.285 22.60874
65.290 22.846617
65.295 22.901146
65.300 22.613804
65.305 22.604828
65.310 23.216125
65.315 22.993814
65.320 22.897367
65.325 22.881813
65.330 23.232061
65.335 24.003635
65.340 24.222183
65.345 23.719946
65.350 23.377195
65.355 23.375065
65.360 23.308458
65.365 23.582443
65.370 24.065769
65.375 24.542847
65.380 24.79101
65.385 25.537971
65.390 26.051397
65.395 26.351538
65.400 26.211105
65.405 25.896751
65.410 25.538595
65.415 25.761768
65.420 25.702444
65.425 25.564182
65.430 25.436234
65.435 25.764854
65.440 26.150791
65.445 26.589746
65.450 26.315989
65.455 26.289486
65.460 26.506876
65.465 26.227077
65.470 25.577158
65.475 25.063562
65.480 24.951982
65.485 24.962193
65.490 25.009705
65.495 25.204659
65.500 25.996021
65.505 26.250444
65.510 26.070362
65.515 26.269867
65.520 25.86853
65.525 25.467394
65.530 25.867786
65.535 26.366158
65.540 26.394661
65.545 26.561106
65.550 26.606951
65.555 26.851595
65.560 27.181721
65.565 26.945961
65.570 27.335396
65.575 28.195768
65.580 29.417496
65.585 29.997404
65.590 30.694077
65.595 30.664471
65.600 30.541597
65.605 30.207682
65.610 29.653366
65.615 28.923672
65.620 28.983892
65.625 29.221418
65.630 29.749769
65.635 29.697384
65.640 30.045486
65.645 30.865602
65.650 30.732592
65.655 30.623966
65.660 30.468765
65.665 31.04458
65.670 31.568993
65.675 32.49889
65.680 32.528618
65.685 33.318047
65.690 33.835594
65.695 33.472023
65.700 32.861141
65.705 32.529507
65.710 31.318928
65.715 31.551523
65.720 31.698742
65.725 31.702452
65.730 32.457703
65.735 32.679886
65.740 32.695637
65.745 33.739315
65.750 33.715366
65.755 33.942646
65.760 34.254093
65.765 34.274166
65.770 35.216885
65.775 35.606358
65.780 35.236652
65.785 35.471977
65.790 35.088234
65.795 35.423748
65.800 34.853394
65.805 34.347012
65.810 34.146648
65.815 34.412846
65.820 35.044861
65.825 35.557404
65.830 36.083237
65.835 36.906593
65.840 37.121117
65.845 36.623188
65.850 36.842712
65.855 36.554615
65.860 36.453339
65.865 37.249039
65.870 37.635021
65.875 38.340454
65.880 38.89175
65.885 38.664722
65.890 39.515083
65.895 39.890305
65.900 39.488583
65.905 39.40007
65.910 38.792934
65.915 38.647564
65.920 38.965286
65.925 38.397732
65.930 37.626976
65.935 37.272221
65.940 36.995052
65.945 37.20203
65.950 37.500435
65.955 38.000797
65.960 37.957401
65.965 38.363636
65.970 38.7995
65.975 38.33947
65.980 38.105637
65.985 38.072105
65.990 37.408096
65.995 37.54681
66.000 37.949207
66.005 38.072002
66.010 38.583565
66.015 38.473423
66.020 38.425568
66.025 38.696213
66.030 38.487064
66.035 38.315475
66.040 37.785809
66.045 38.011211
66.050 37.988815
66.055 37.933311
66.060 38.101677
66.065 38.335159
66.070 37.747734
66.075 37.616093
66.080 37.880512
66.085 38.193653
66.090 38.26469
66.095 38.167633
66.100 38.055141
66.105 38.228096
66.110 38.130314
66.115 38.873276
66.120 39.037838
66.125 38.415657
66.130 37.585934
66.135 37.147186
66.140 37.329426
66.145 36.774139
66.150 36.074677
66.155 36.257961
66.160 36.281261
66.165 36.981686
66.170 36.875759
66.175 36.675892
66.180 37.269951
66.185 37.161659
66.190 36.643661
66.195 36.670223
66.200 36.710407
66.205 36.669071
66.210 36.890175
66.215 36.434044
66.220 36.74147
66.225 37.233089
66.230 37.360786
66.235 36.668255
66.240 35.941444
66.245 35.104973
66.250 34.927528
66.255 35.097599
66.260 34.626183
66.265 34.713669
66.270 34.452011
66.275 34.166618
66.280 34.348755
66.285 33.960838
66.290 33.1828
66.295 33.004238
66.300 32.819618
66.305 33.094009
66.310 33.219658
66.315 32.833038
66.320 33.574383
66.325 32.790371
66.330 32.524597
66.335 32.177368
66.340 32.250771
66.345 32.832474
66.350 32.532116
66.355 32.043137
66.360 32.182186
66.365 31.85548
66.370 32.575142
66.375 33.145275
66.380 32.884148
66.385 33.060722
66.390 32.373112
66.395 32.556377
66.400 32.52285
66.405 31.403267
66.410 29.595633
66.415 29.292017
66.420 28.534201
66.425 28.802687
66.430 28.171474
66.435 27.521318
66.440 27.501772
66.445 27.677811
66.450 26.773924
66.455 26.915876
66.460 26.877964
66.465 27.184763
66.470 27.502596
66.475 27.572073
66.480 28.261881
66.485 28.919445
66.490 29.031185
66.495 28.7665
66.500 28.327129
66.505 28.660923
66.510 28.798134
66.515 27.694593
66.520 28.029293
66.525 27.903332
66.530 27.903702
66.535 28.542542
66.540 28.122559
66.545 28.103212
66.550 28.595882
66.555 27.808605
66.560 27.616013
66.565 27.41032
66.570 27.204229
66.575 26.682653
66.580 25.692802
66.585 24.820578
66.590 24.482437
66.595 25.173746
66.600 25.188448
66.605 25.296707
66.610 25.877089
66.615 26.379465
66.620 26.993681
66.625 27.006586
66.630 26.50642
66.635 26.288626
66.640 25.36705
66.645 24.883352
66.650 24.689602
66.655 25.029516
66.660 24.442656
66.665 23.873123
66.670 23.548494
66.675 24.005413
66.680 24.338737
66.685 24.277773
66.690 24.120464
66.695 24.652756
66.700 25.127998
66.705 25.655626
66.710 25.387194
66.715 24.69392
66.720 24.767387
66.725 24.954056
66.730 24.984177
66.735 24.806963
66.740 24.941954
66.745 25.300795
66.750 26.024675
66.755 26.285307
66.760 25.903734
66.765 25.644232
66.770 25.293577
66.775 24.658854
66.780 24.541967
66.785 24.133923
66.790 24.005903
66.795 24.038858
66.800 23.982384
66.805 24.659689
66.810 24.932163
66.815 24.601793
66.820 24.446718
66.825 24.058531
66.830 24.004494
66.835 24.254768
66.840 24.653044
66.845 24.804783
66.850 24.669281
66.855 24.926382
66.860 25.066917
66.865 24.963293
66.870 24.22702
66.875 23.458904
66.880 23.264315
66.885 23.422546
66.890 22.356199
66.895 22.044285
66.900 21.740715
66.905 21.648981
66.910 21.558981
66.915 21.447813
66.920 21.329237
66.925 22.188805
66.930 22.471703
66.935 22.613455
66.940 22.6646
66.945 22.608927
66.950 22.807156
66.955 22.569439
66.960 22.243986
66.965 22.484392
66.970 22.958654
66.975 23.399218
66.980 23.315432
66.985 23.172039
66.990 23.424749
66.995 23.751337
67.000 23.871721
67.005 23.765768
67.010 23.277258
67.015 22.825199
67.020 22.615755
67.025 22.591045
67.030 22.019911
67.035 21.837276
67.040 21.411264
67.045 21.743969
67.050 21.69282
67.055 21.317398
67.060 21.404667
67.065 21.353527
67.070 21.212484
67.075 22.033197
67.080 22.163183
67.085 22.319096
67.090 22.813629
67.095 23.204611
67.100 23.382957
67.105 22.618837
67.110 22.559668
67.115 22.15601
67.120 22.800648
67.125 23.25209
67.130 23.017063
67.135 23.437378
67.140 24.110136
67.145 23.504244
67.150 23.99287
67.155 23.810072
67.160 23.224186
67.165 23.382032
67.170 23.276604
67.175 23.047659
67.180 23.458637
67.185 23.459557
67.190 23.933865
67.195 23.581003
67.200 23.152693
67.205 22.850288
67.210 22.586264
67.215 22.227468
67.220 21.824745
67.225 21.617163
67.230 21.737482
67.235 21.436533
67.240 21.805552
67.245 22.091278
67.250 22.076361
67.255 22.187183
67.260 21.880653
67.265 21.849838
67.270 22.10597
67.275 21.802137
67.280 21.885323
67.285 22.068811
67.290 22.206381
67.295 22.349327
67.300 22.627308
67.305 22.734253
67.310 22.298248
67.315 22.349331
67.320 21.921083
67.325 21.181372
67.330 20.691912
67.335 20.593882
67.340 20.703056
67.345 21.035603
67.350 20.751562
67.355 20.987421
67.360 21.376709
67.365 21.569986
67.370 21.305017
67.375 21.095991
67.380 20.71353
67.385 20.89267
67.390 20.504318
67.395 20.679483
67.400 21.01626
67.405 21.347097
67.410 20.93951
67.415 21.604733
67.420 21.390701
67.425 22.195807
67.430 22.717932
67.435 22.490152
67.440 22.713669
67.445 22.689268
67.450 21.766842
67.455 21.364548
67.460 21.315731
67.465 20.98481
67.470 20.571585
67.475 20.128704
67.480 20.429905
67.485 21.797657
67.490 22.46751
67.495 22.114986
67.500 22.206518
67.505 22.618399
67.510 22.655733
67.515 22.956377
67.520 22.848539
67.525 22.308886
67.530 21.949089
67.535 21.989771
67.540 22.09218
67.545 21.818068
67.550 21.053787
67.555 20.801228
67.560 21.004681
67.565 21.198542
67.570 20.763058
67.575 20.374849
67.580 20.853542
67.585 20.477457
67.590 20.807524
67.595 21.019531
67.600 21.575165
67.605 22.13628
67.610 22.547342
67.615 22.175529
67.620 22.308588
67.625 22.143585
67.630 21.949936
67.635 21.478271
67.640 20.721369
67.645 20.589022
67.650 21.228605
67.655 21.914461
67.660 21.567411
67.665 21.276155
67.670 21.821182
67.675 22.643044
67.680 22.423008
67.685 22.437546
67.690 21.389719
67.695 21.138823
67.700 21.528191
67.705 20.877977
67.710 20.153807
67.715 20.374588
67.720 20.347797
67.725 20.580324
67.730 20.163748
67.735 19.986704
67.740 20.056694
67.745 20.224741
67.750 20.550325
67.755 20.504688
67.760 21.121788
67.765 21.438374
67.770 20.933334
67.775 20.461006
67.780 20.674601
67.785 20.457848
67.790 20.132332
67.795 19.436829
67.800 19.668484
67.805 20.289572
67.810 21.173809
67.815 21.328281
67.820 21.074413
67.825 21.198006
67.830 21.526104
67.835 21.584482
67.840 21.375574
67.845 20.519859
67.850 20.096458
67.855 20.536634
67.860 20.899324
67.865 20.457905
67.870 20.070906
67.875 20.664036
67.880 21.229345
67.885 21.021458
67.890 20.765993
67.895 21.031279
67.900 22.086618
67.905 22.330347
67.910 21.408491
67.915 20.944
67.920 20.809664
67.925 19.918819
67.930 19.782219
67.935 19.427509
67.940 19.309914
67.945 19.464954
67.950 20.044924
67.955 20.558203
67.960 20.723516
67.965 20.423708
67.970 20.723448
67.975 21.146349
67.980 21.874247
67.985 21.966282
67.990 22.008757
67.995 22.492226
68.000 22.500198
68.005 22.036966
68.010 22.282526
68.015 22.080372
68.020 21.891821
68.025 21.689211
68.030 21.725819
68.035 21.169022
68.040 20.790531
68.045 20.306368
68.050 20.104486
68.055 20.325375
68.060 20.262362
68.065 20.021198
68.070 21.444784
68.075 22.350256
68.080 22.503967
68.085 22.713015
68.090 22.60503
68.095 23.013697
68.100 23.174238
68.105 22.084326
68.110 21.866341
68.115 21.970369
68.120 21.710661
68.125 21.848478
68.130 21.567722
68.135 21.607771
68.140 21.695776
68.145 21.217693
68.150 21.439917
68.155 21.366577
68.160 20.807981
68.165 20.789917
68.170 21.014263
68.175 21.206978
68.180 21.258604
68.185 20.668686
68.190 20.905222
68.195 21.140728
68.200 21.15209
68.205 20.82844
68.210 20.93598
68.215 21.240498
68.220 21.284992
68.225 20.986279
68.230 20.818073
68.235 20.783733
68.240 20.578539
68.245 20.309444
68.250 20.229542
68.255 20.195415
68.260 20.310425
68.265 20.514872
68.270 20.530329
68.275 20.721907
68.280 20.594269
68.285 20.916298
68.290 20.646639
68.295 20.426331
68.300 20.557919
68.305 20.25724
68.310 20.186411
68.315 20.008139
68.320 19.838646
68.325 20.08803
68.330 20.250235
68.335 20.574526
68.340 21.433937
68.345 22.218607
68.350 22.267319
68.355 22.497368
68.360 22.377573
68.365 22.844063
68.370 22.46105
68.375 21.710464
68.380 21.276789
68.385 21.683748
68.390 21.29653
68.395 21.587465
68.400 21.605844
68.405 21.283033
68.410 21.157661
68.415 21.271172
68.420 21.223379
68.425 21.386194
68.430 20.99184
68.435 20.494568
68.440 20.746788
68.445 20.969507
68.450 20.632462
68.455 20.488956
68.460 20.544399
68.465 20.912943
68.470 20.67964
68.475 21.12668
68.480 20.898829
68.485 20.537188
68.490 21.111536
68.495 21.250198
68.500 21.484829
68.505 22.038551
68.510 21.812899
68.515 22.1413
68.520 22.523521
68.525 22.034681
68.530 21.652683
68.535 21.17605
68.540 20.409798
68.545 20.410576
68.550 20.919964
68.555 20.876444
68.560 21.364214
68.565 21.644396
68.570 21.788588
68.575 22.865189
68.580 22.900606
68.585 22.576962
68.590 22.048548
68.595 20.967154
68.600 20.909256
68.605 21.483835
68.610 20.897173
68.615 20.762697
68.620 20.917479
68.625 21.449484
68.630 21.890245
68.635 21.697594
68.640 21.412689
68.645 21.480982
68.650 20.907454
68.655 20.3769
68.660 20.477901
68.665 20.422846
68.670 20.544264
68.675 20.116009
68.680 20.459663
68.685 21.121002
68.690 21.405487
68.695 21.323574
68.700 21.642916
68.705 21.472672
68.710 21.533785
68.715 21.567677
68.720 21.342354
68.725 21.003584
68.730 21.423437
68.735 21.577425
68.740 21.501627
68.745 21.214169
68.750 21.265594
68.755 21.649704
68.760 22.488169
68.765 22.631277
68.770 22.460409
68.775 22.703442
68.780 22.964218
68.785 22.454594
68.790 22.149416
68.795 21.845491
68.800 21.166681
68.805 20.996984
68.810 21.163252
68.815 20.908562
68.820 21.032675
68.825 21.25795
68.830 21.197372
68.835 21.576893
68.840 21.844389
68.845 22.004879
68.850 22.163633
68.855 21.937862
68.860 21.464294
68.865 20.796654
68.870 20.592958
68.875 20.445093
68.880 20.55868
68.885 20.805286
68.890 21.001085
68.895 21.491955
68.900 21.772308
68.905 21.50633
68.910 21.796307
68.915 22.074785
68.920 22.016542
68.925 22.095919
68.930 22.407495
68.935 23.049704
68.940 23.807583
68.945 23.71678
68.950 23.129627
68.955 22.935816
68.960 23.567913
68.965 23.653734
68.970 23.218792
68.975 23.54882
68.980 23.65061
68.985 23.883337
68.990 23.778099
68.995 23.539379
69.000 23.715448
69.005 24.196543
69.010 23.991772
69.015 23.986103
69.020 23.906721
69.025 23.625647
69.030 23.629185
69.035 23.683422
69.040 23.305662
69.045 23.515169
69.050 24.253138
69.055 25.483816
69.060 26.111385
69.065 25.869028
69.070 25.416124
69.075 25.584841
69.080 25.791018
69.085 25.764154
69.090 25.836767
69.095 25.804152
69.100 26.242147
69.105 27.404522
69.110 28.074738
69.115 27.986206
69.120 27.674089
69.125 27.212481
69.130 27.334175
69.135 26.889225
69.140 26.248968
69.145 26.205141
69.150 26.281284
69.155 26.614447
69.160 26.511328
69.165 26.199766
69.170 26.701279
69.175 26.930485
69.180 26.238117
69.185 25.983593
69.190 25.574314
69.195 26.226303
69.200 26.242496
69.205 25.86809
69.210 25.832806
69.215 26.674828
69.220 27.033224
69.225 27.329227
69.230 27.472075
69.235 28.086475
69.240 27.814381
69.245 27.508717
69.250 27.343868
69.255 27.041479
69.260 27.177135
69.265 27.194887
69.270 27.68758
69.275 27.606382
69.280 27.431471
69.285 27.162205
69.290 27.281347
69.295 26.971794
69.300 26.785555
69.305 26.422291
69.310 27.033684
69.315 27.38628
69.320 27.535995
69.325 27.946171
69.330 28.363174
69.335 28.13497
69.340 28.131649
69.345 28.276665
69.350 28.506187
69.355 28.871675
69.360 27.436327
69.365 27.005156
69.370 27.754036
69.375 28.141212
69.380 28.094849
69.385 28.163132
69.390 29.269642
69.395 30.236721
69.400 30.019482
69.405 29.081379
69.410 28.265615
69.415 27.977932
69.420 27.322599
69.425 26.35013
69.430 27.246269
69.435 27.824726
69.440 28.669252
69.445 29.94838
69.450 30.858702
69.455 30.926493
69.460 30.773031
69.465 30.442898
69.470 30.077467
69.475 29.224937
69.480 28.504866
69.485 28.075205
69.490 28.245316
69.495 27.925461
69.500 27.358744
69.505 27.789207
69.510 28.271029
69.515 28.855669
69.520 29.59655
69.525 30.814182
69.530 31.023743
69.535 31.360893
69.540 31.579147
69.545 31.902784
69.550 31.142954
69.555 29.961569
69.560 28.777893
69.565 29.249714
69.570 30.306946
69.575 30.760511
69.580 30.906897
69.585 31.224499
69.590 32.165619
69.595 32.370995
69.600 32.488342
69.605 31.547789
69.610 30.836304
69.615 30.411963
69.620 30.148733
69.625 29.5634
69.630 29.337431
69.635 28.656492
69.640 28.510489
69.645 28.03981
69.650 27.664135
69.655 28.219793
69.660 28.201637
69.665 28.081091
69.670 28.246914
69.675 28.824102
69.680 29.41391
69.685 29.631836
69.690 29.357265
69.695 29.03548
69.700 30.200077
69.705 29.778276
69.710 29.405289
69.715 28.595602
69.720 27.883789
69.725 27.62785
69.730 26.819592
69.735 26.094679
69.740 25.94323
69.745 26.091915
69.750 26.934757
69.755 27.537031
69.760 27.36462
69.765 27.736696
69.770 28.076899
69.775 28.163525
69.780 27.969727
69.785 27.634335
69.790 27.680395
69.795 27.860926
69.800 27.814846
69.805 27.055645
69.810 26.884815
69.815 27.0005
69.820 27.06661
69.825 26.7696
69.830 26.745796
69.835 27.046715
69.840 26.882891
69.845 26.117554
69.850 25.426497
69.855 24.922638
69.860 24.768227
69.865 24.459688
69.870 23.428362
69.875 23.671593
69.880 23.955246
69.885 24.009069
69.890 24.487679
69.895 23.977118
69.900 24.052294
69.905 24.260309
69.910 23.878553
69.915 23.73839
69.920 23.840048
69.925 23.252878
69.930 23.660194
69.935 22.802668
69.940 23.022039
69.945 23.901653
69.950 23.625101
69.955 22.855953
69.960 22.303474
69.965 22.096735
69.970 22.426378
69.975 21.522896
69.980 20.779842
69.985 21.503332
69.990 21.532047
69.995 21.689447
70.000 21.854336
70.005 21.527
70.010 21.625887
70.015 21.337887
70.020 21.289711
70.025 22.471416
70.030 22.867502
70.035 23.746452
70.040 24.264347
70.045 24.275051
70.050 23.743126
70.055 23.52088
70.060 23.343599
70.065 22.896147
70.070 22.261677
70.075 22.532576
70.080 22.790497
70.085 23.029222
70.090 23.054855
70.095 22.35491
70.100 21.958906
70.105 22.112631
70.110 22.377008
70.115 22.429764
70.120 22.925999
70.125 22.86511
70.130 23.090849
70.135 23.274635
70.140 22.518831
70.145 21.663778
70.150 21.666594
70.155 20.949957
70.160 20.563488
70.165 20.649672
70.170 20.696384
70.175 20.836226
70.180 21.363239
70.185 22.15764
70.190 22.55801
70.195 23.118429
70.200 23.160126
70.205 22.667688
70.210 23.01362
70.215 22.700706
70.220 22.426594
70.225 22.064295
70.230 21.265207
70.235 21.242449
70.240 21.247381
70.245 20.648857
70.250 20.386209
70.255 20.480707
70.260 20.931627
70.265 20.903322
70.270 20.659653
70.275 20.242311
70.280 20.277813
70.285 19.495514
70.290 18.686617
70.295 18.464331
70.300 18.505238
70.305 17.945095
70.310 18.449442
70.315 19.27655
70.320 20.363937
70.325 20.138691
70.330 20.148245
70.335 19.878819
70.340 20.033209
70.345 19.289946
70.350 18.52948
70.355 18.181374
70.360 18.891861
70.365 18.96739
70.370 19.568466
70.375 19.410776
70.380 19.925362
70.385 19.603796
70.390 19.607916
70.395 19.347782
70.400 19.250729
70.405 19.600351
70.410 20.039837
70.415 20.688063
70.420 21.754705
70.425 21.855085
70.430 22.376156
70.435 22.597961
70.440 22.046696
70.445 22.274786
70.450 21.572651
70.455 20.649742
70.460 20.360142
70.465 19.65766
70.470 19.370754
70.475 19.234674
70.480 19.778912
70.485 19.811819
70.490 19.989737
70.495 19.956919
70.500 19.934727
70.505 19.965525
70.510 19.628153
70.515 18.977507
70.520 18.639875
70.525 18.421125
70.530 17.92691
70.535 17.859222
70.540 17.931496
70.545 18.057608
70.550 18.384922
70.555 19.029095
70.560 19.682356
70.565 20.141296
70.570 20.261656
70.575 20.427557
70.580 20.910074
70.585 20.742916
70.590 20.648304
70.595 20.434839
70.600 20.661438
70.605 20.268141
70.610 20.293247
70.615 20.017084
70.620 20.257265
70.625 20.467697
70.630 20.427738
70.635 20.277533
70.640 20.309473
70.645 20.266748
70.650 20.181187
70.655 20.411259
70.660 20.578762
70.665 20.370064
70.670 20.690025
70.675 20.183125
70.680 19.819159
70.685 19.62171
70.690 19.209818
70.695 19.02969
70.700 18.853489
70.705 18.780272
70.710 19.172781
70.715 19.205164
70.720 18.780819
70.725 18.549683
70.730 18.408669
70.735 18.965315
70.740 19.183916
70.745 18.634092
70.750 18.61858
70.755 18.548183
70.760 19.003956
70.765 18.95052
70.770 18.621683
70.775 19.013422
70.780 19.391178
70.785 19.840284
70.790 20.162399
70.795 20.154032
70.800 20.134943
70.805 20.150768
70.810 19.613306
70.815 19.772045
70.820 19.592804
70.825 19.641312
70.830 19.422304
70.835 19.060492
70.840 19.151152
70.845 19.601137
70.850 19.295912
70.855 18.848312
70.860 18.758982
70.865 19.035475
70.870 19.42312
70.875 19.273617
70.880 18.740133
70.885 19.058567
70.890 19.749376
70.895 19.092171
70.900 18.849493
70.905 18.448164
70.910 18.409286
70.915 18.57449
70.920 18.870647
70.925 18.714893
70.930 19.07918
70.935 19.368664
70.940 19.538513
70.945 19.785805
70.950 19.599573
70.955 19.330093
70.960 19.078981
70.965 19.309837
70.970 19.430826
70.975 19.433138
70.980 19.857384
70.985 19.883575
70.990 19.868023
70.995 19.620487
71.000 19.289366
71.005 19.130289
71.010 19.332235
71.015 18.663929
71.020 19.041122
71.025 18.321976
71.030 18.571482
71.035 19.095472
71.040 19.480228
71.045 19.67713
71.050 19.710236
71.055 20.125067
71.060 20.952019
71.065 21.149218
71.070 20.884132
71.075 19.853731
71.080 19.495262
71.085 19.043762
71.090 18.888681
71.095 18.782112
71.100 18.172224
71.105 18.557381
71.110 18.421825
71.115 18.44195
71.120 18.551716
71.125 18.667196
71.130 19.074604
71.135 19.250505
71.140 19.039431
71.145 19.392241
71.150 20.068478
71.155 19.903925
71.160 19.555508
71.165 19.807333
71.170 19.554455
71.175 19.630449
71.180 19.431017
71.185 19.559778
71.190 19.455088
71.195 19.189413
71.200 18.594086
71.205 18.753916
71.210 19.17322
71.215 18.918331
71.220 18.32662
71.225 18.272203
71.230 18.023062
71.235 18.309013
71.240 18.146822
71.245 18.561054
71.250 18.760822
71.255 19.061745
71.260 19.056896
71.265 19.78232
71.270 19.838352
71.275 19.649967
71.280 19.543022
71.285 19.50905
71.290 19.517899
71.295 19.432386
71.300 18.452383
71.305 18.980881
71.310 18.904024
71.315 18.778147
71.320 19.224794
71.325 19.395493
71.330 19.706865
71.335 19.648193
71.340 19.519064
71.345 20.007132
71.350 20.104767
71.355 20.080948
71.360 19.8524
71.365 19.680735
71.370 19.087574
71.375 18.368406
71.380 17.832029
71.385 17.639378
71.390 17.250418
71.395 17.082273
71.400 17.919943
71.405 19.32465
71.410 19.254677
71.415 19.147987
71.420 19.105761
71.425 19.525795
71.430 20.104301
71.435 19.539829
71.440 19.115141
71.445 19.733639
71.450 19.974459
71.455 20.145716
71.460 20.056349
71.465 19.916521
71.470 19.717525
71.475 19.496153
71.480 19.233095
71.485 18.875515
71.490 18.851316
71.495 19.270521
71.500 19.572084
71.505 19.703299
71.510 19.400072
71.515 19.875341
71.520 19.73918
71.525 19.850483
71.530 19.177744
71.535 19.034554
71.540 19.788002
71.545 20.323912
71.550 20.1154
71.555 20.261166
71.560 19.926964
71.565 20.197548
71.570 19.250248
71.575 18.675976
71.580 18.579811
71.585 18.823515
71.590 18.960861
71.595 19.293859
71.600 19.65605
71.605 20.367785
71.610 20.689007
71.615 20.678732
71.620 20.788618
71.625 20.481136
71.630 20.202774
71.635 19.750124
71.640 19.385818
71.645 19.233585
71.650 19.067245
71.655 18.336706
71.660 18.577488
71.665 18.198498
71.670 18.203085
71.675 18.222256
71.680 17.757921
71.685 17.639156
71.690 18.594223
71.695 18.621798
71.700 18.790339
71.705 18.945421
71.710 19.14397
71.715 19.599499
71.720 19.341236
71.725 18.457317
71.730 18.491814
71.735 18.289753
71.740 18.425314
71.745 18.536615
71.750 18.358561
71.755 18.485506
71.760 18.90019
71.765 19.475967
71.770 19.342379
71.775 18.907837
71.780 18.827309
71.785 19.45031
71.790 19.383242
71.795 18.861897
71.800 18.923504
71.805 19.405865
71.810 19.607492
71.815 19.717306
71.820 18.976135
71.825 18.820601
71.830 18.776628
71.835 18.489996
71.840 18.268484
71.845 17.793993
71.850 17.810406
71.855 18.11208
71.860 18.69796
71.865 19.201752
71.870 19.354292
71.875 19.296421
71.880 19.301891
71.885 18.918503
71.890 19.357195
71.895 18.917089
71.900 18.319784
71.905 17.969627
71.910 18.264772
71.915 18.320654
71.920 18.77652
71.925 18.27841
71.930 19.087404
71.935 19.607136
71.940 19.725571
71.945 19.125509
71.950 18.652243
71.955 18.202709
71.960 18.469852
71.965 18.109171
71.970 18.226543
71.975 18.2442
71.980 18.43416
71.985 18.597292
71.990 18.546686
71.995 18.666233
72.000 18.615376
72.005 18.222691
72.010 18.180296
72.015 18.388874
72.020 19.042414
72.025 18.863911
72.030 17.941896
72.035 17.129568
72.040 17.154959
72.045 17.40196
72.050 17.281704
72.055 17.253201
72.060 17.540939
72.065 18.183641
72.070 18.93507
72.075 18.701277
72.080 18.542793
72.085 18.339924
72.090 17.945599
72.095 18.130543
72.100 17.732199
72.105 17.541014
72.110 17.867205
72.115 18.349434
72.120 18.883013
72.125 19.153168
72.130 19.504833
72.135 19.959751
72.140 20.1315
72.145 20.485872
72.150 19.793947
72.155 19.563009
72.160 18.83515
72.165 18.125069
72.170 18.206282
72.175 17.869804
72.180 17.523544
72.185 17.075415
72.190 16.924149
72.195 16.992937
72.200 16.925802
72.205 17.149031
72.210 16.634275
72.215 17.631113
72.220 18.502054
72.225 18.970219
72.230 19.977354
72.235 20.577564
72.240 20.589418
72.245 21.02076
72.250 20.511129
72.255 20.12546
72.260 19.555723
72.265 18.304863
72.270 18.134413
72.275 18.283607
72.280 17.789911
72.285 17.320713
72.290 17.284691
72.295 17.240328
72.300 18.13829
72.305 18.25741
72.310 18.467857
72.315 19.032469
72.320 18.810583
72.325 18.646616
72.330 18.670069
72.335 18.214661
72.340 18.460361
72.345 18.708496
72.350 18.463243
72.355 19.081295
72.360 19.139303
72.365 19.068491
72.370 18.714577
72.375 18.419559
72.380 18.634508
72.385 18.553415
72.390 18.551916
72.395 18.691553
72.400 19.105249
72.405 19.041021
72.410 18.984821
72.415 18.754606
72.420 19.110197
72.425 19.314726
72.430 19.565172
72.435 19.447927
72.440 19.314966
72.445 19.042358
72.450 18.47979
72.455 18.238125
72.460 17.722097
72.465 17.684729
72.470 17.91268
72.475 17.305178
72.480 17.90848
72.485 18.318945
72.490 18.446667
72.495 18.3988
72.500 18.057192
72.505 18.142181
72.510 18.526621
72.515 17.697363
72.520 17.208368
72.525 17.276072
72.530 17.268234
72.535 16.95668
72.540 16.846178
72.545 16.862928
72.550 17.61018
72.555 18.105671
72.560 17.772337
72.565 18.142458
72.570 18.80076
72.575 19.161018
72.580 19.32259
72.585 19.366198
72.590 19.318562
72.595 19.639389
72.600 18.835228
72.605 18.009659
72.610 17.316307
72.615 17.156857
72.620 17.226324
72.625 17.137884
72.630 16.650486
72.635 16.890373
72.640 16.755543
72.645 16.829086
72.650 16.679235
72.655 16.74181
72.660 16.892965
72.665 17.172495
72.670 17.683483
72.675 18.014935
72.680 17.890385
72.685 17.628437
72.690 16.947372
72.695 16.541929
72.700 16.577106
72.705 16.980473
72.710 17.103445
72.715 17.112492
72.720 17.356689
72.725 18.157295
72.730 18.889086
72.735 18.603134
72.740 17.508354
72.745 17.375076
72.750 17.444061
72.755 16.781212
72.760 16.083427
72.765 15.653504
72.770 15.73361
72.775 16.455948
72.780 16.787367
72.785 17.016645
72.790 17.354319
72.795 17.643011
72.800 17.854626
72.805 18.036854
72.810 17.661192
72.815 17.249659
72.820 16.687672
72.825 16.612732
72.830 16.657961
72.835 16.891911
72.840 16.85458
72.845 16.860897
72.850 17.333614
72.855 17.306959
72.860 17.641266
72.865 17.485989
72.870 17.159227
72.875 17.439829
72.880 17.87459
72.885 18.056688
72.890 18.666487
72.895 18.360411
72.900 19.055414
72.905 18.817707
72.910 18.243389
72.915 17.635586
72.920 17.747858
72.925 17.77088
72.930 17.25881
72.935 17.090405
72.940 17.549805
72.945 18.142801
72.950 18.776558
72.955 18.265034
72.960 18.285913
72.965 19.048662
72.970 19.198303
72.975 19.023899
72.980 18.587259
72.985 18.137459
72.990 18.476736
72.995 18.416777
73.000 17.852854
