!@!!GADDS PLOTSO FILE: Chi integration type
!@!!Title/SampleName: map-fb
!@!!Comment: ?
!@!!User: Bruker Instrument Administrator
!@!!Site: University of Illinois Chicago
!@!!Frame: map-fb_01_000.gfrm
!@!!Wavelengths    1.54184   1.54056   1.54439
!@!!Frame angles: 2Theta: 63.000 Omega: 50.000 Phi: 0.000 Chi: 90.000
!@!!Integration range: 2Theta: 53.000 to 73.000  Gamma: -105.000 to -75.000
!@!!Integration method: bin normalized
!@!N
!@!SS
!@!M
!@!L 0.0 0.0 0.0 0.0
!@!XDegrees
!@!YCounts
53.000 4.931275
53.005 4.756324
53.010 4.722157
53.015 4.96281
53.020 5.416564
53.025 5.655785
53.030 5.616532
53.035 5.410596
53.040 5.1449
53.045 4.92298
53.050 4.750828
53.055 4.355258
53.060 3.99839
53.065 3.68452
53.070 3.592786
53.075 3.500915
53.080 3.532588
53.085 3.700396
53.090 3.896883
53.095 4.325976
53.100 4.549583
53.105 4.665389
53.110 4.820278
53.115 4.696939
53.120 4.373671
53.125 4.271914
53.130 4.097338
53.135 4.2478
53.140 4.316225
53.145 4.229092
53.150 4.355145
53.155 4.815295
53.160 5.193858
53.165 5.339549
53.170 5.384696
53.175 5.352814
53.180 5.464462
53.185 5.32808
53.190 5.010643
53.195 4.899948
53.200 5.138126
53.205 5.223463
53.210 5.355798
53.215 5.52194
53.220 5.335473
53.225 5.405056
53.230 5.138103
53.235 5.035367
53.240 4.893259
53.245 4.718401
53.250 4.51426
53.255 4.775455
53.260 4.783563
53.265 5.258752
53.270 5.464482
53.275 5.648448
53.280 5.998886
53.285 6.022382
53.290 6.030802
53.295 5.873859
53.300 5.327718
53.305 5.298312
53.310 5.221459
53.315 5.121304
53.320 5.186368
53.325 5.285459
53.330 5.660789
53.335 5.476563
53.340 5.506691
53.345 5.697328
53.350 5.711649
53.355 5.897694
53.360 5.670815
53.365 5.312429
53.370 5.571108
53.375 5.434637
53.380 5.13609
53.385 5.158313
53.390 4.944953
53.395 5.135552
53.400 5.442505
53.405 5.424344
53.410 5.512474
53.415 5.601861
53.420 5.615744
53.425 5.42929
53.430 5.126808
53.435 4.86986
53.440 4.599187
53.445 4.533151
53.450 4.392208
53.455 4.382335
53.460 4.749462
53.465 5.295345
53.470 5.513276
53.475 5.640563
53.480 5.682837
53.485 5.623535
53.490 5.553247
53.495 5.048535
53.500 4.562686
53.505 4.251722
53.510 4.148976
53.515 4.321729
53.520 4.487304
53.525 4.229147
53.530 4.499529
53.535 5.161375
53.540 5.686161
53.545 6.018347
53.550 6.191522
53.555 6.570013
53.560 6.973003
53.565 6.751247
53.570 5.88704
53.575 5.550318
53.580 5.148068
53.585 5.014806
53.590 4.8394
53.595 4.718405
53.600 4.777461
53.605 5.072998
53.610 5.144562
53.615 5.200997
53.620 4.991331
53.625 5.030817
53.630 5.274521
53.635 5.173854
53.640 4.942931
53.645 4.845829
53.650 4.756497
53.655 4.641394
53.660 4.42031
53.665 4.339245
53.670 4.432236
53.675 4.562247
53.680 4.850776
53.685 5.134822
53.690 4.87736
53.695 4.94852
53.700 5.015574
53.705 5.157187
53.710 5.337872
53.715 4.958966
53.720 4.927372
53.725 5.25437
53.730 5.357368
53.735 5.56987
53.740 5.419221
53.745 5.05024
53.750 5.213546
53.755 5.314865
53.760 5.661856
53.765 5.692117
53.770 5.638529
53.775 5.578249
53.780 5.541447
53.785 5.234101
53.790 5.104843
53.795 4.773633
53.800 4.859469
53.805 4.77724
53.810 4.772155
53.815 5.03124
53.820 5.379324
53.825 5.508946
53.830 5.245006
53.835 4.888365
53.840 4.733641
53.845 4.800582
53.850 4.828358
53.855 4.791071
53.860 4.504718
53.865 4.834237
53.870 4.831467
53.875 4.952899
53.880 4.99351
53.885 4.790867
53.890 4.766209
53.895 5.209457
53.900 5.331514
53.905 5.434244
53.910 5.535767
53.915 5.476723
53.920 5.45596
53.925 5.365218
53.930 4.921471
53.935 4.832395
53.940 5.038355
53.945 5.021105
53.950 4.975522
53.955 5.1953
53.960 5.209245
53.965 5.166322
53.970 4.907312
53.975 4.903534
53.980 5.059049
53.985 5.260716
53.990 5.23228
53.995 5.340772
54.000 5.480809
54.005 5.879121
54.010 5.684936
54.015 5.619387
54.020 5.501308
54.025 5.515526
54.030 5.837511
54.035 5.835464
54.040 5.628668
54.045 5.55117
54.050 5.600914
54.055 5.917623
54.060 5.935049
54.065 5.790297
54.070 5.991498
54.075 6.076884
54.080 6.104838
54.085 6.047104
54.090 5.620045
54.095 5.553843
54.100 5.793403
54.105 5.641334
54.110 5.946718
54.115 6.134364
54.120 6.281596
54.125 6.630955
54.130 6.522685
54.135 6.195993
54.140 6.199485
54.145 6.244863
54.150 5.966983
54.155 5.674125
54.160 5.554969
54.165 5.114134
54.170 5.053952
54.175 4.974219
54.180 4.854616
54.185 4.950453
54.190 5.298023
54.195 5.633297
54.200 6.005522
54.205 5.862957
54.210 5.582429
54.215 5.368722
54.220 5.490992
54.225 5.393506
54.230 5.6451
54.235 5.988823
54.240 6.467936
54.245 6.944423
54.250 7.152735
54.255 7.138202
54.260 6.977074
54.265 6.432422
54.270 6.766277
54.275 6.758698
54.280 6.658646
54.285 6.270467
54.290 6.151156
54.295 6.255961
54.300 6.625261
54.305 6.067942
54.310 5.561329
54.315 5.371886
54.320 5.364354
54.325 5.495779
54.330 5.632118
54.335 5.559494
54.340 5.893297
54.345 6.046532
54.350 6.235529
54.355 6.230074
54.360 6.052893
54.365 5.808697
54.370 5.296435
54.375 5.3603
54.380 5.544702
54.385 5.263608
54.390 5.104789
54.395 4.982461
54.400 5.387579
54.405 5.8866
54.410 5.972925
54.415 6.138231
54.420 6.406178
54.425 6.569199
54.430 6.500075
54.435 6.252002
54.440 5.846543
54.445 5.692776
54.450 5.549204
54.455 5.571291
54.460 5.940695
54.465 6.084532
54.470 6.214443
54.475 6.391341
54.480 6.241144
54.485 6.014861
54.490 5.979513
54.495 5.581628
54.500 5.735849
54.505 5.7888
54.510 5.911339
54.515 6.071075
54.520 6.595103
54.525 6.633228
54.530 6.587049
54.535 6.371011
54.540 6.045751
54.545 5.817639
54.550 5.981462
54.555 5.883615
54.560 5.853678
54.565 6.072683
54.570 6.24052
54.575 6.599481
54.580 6.768517
54.585 6.818194
54.590 6.769211
54.595 6.941018
54.600 6.706869
54.605 6.384373
54.610 6.35645
54.615 6.278584
54.620 6.164778
54.625 6.28076
54.630 6.469697
54.635 6.498535
54.640 6.437053
54.645 6.22364
54.650 5.861318
54.655 5.986725
54.660 5.778102
54.665 5.448894
54.670 5.541171
54.675 5.604
54.680 5.794333
54.685 6.335461
54.690 6.239498
54.695 6.114278
54.700 6.272762
54.705 6.252396
54.710 6.452405
54.715 6.155272
54.720 5.805909
54.725 5.802238
54.730 5.829692
54.735 5.574503
54.740 5.615557
54.745 5.345337
54.750 5.395806
54.755 5.596242
54.760 5.724893
54.765 5.896727
54.770 6.018693
54.775 6.244802
54.780 6.331383
54.785 6.087627
54.790 6.046316
54.795 6.005944
54.800 6.167536
54.805 6.460754
54.810 6.464687
54.815 6.902904
54.820 7.116252
54.825 7.011252
54.830 7.038255
54.835 6.772527
54.840 6.342373
54.845 6.16001
54.850 6.321116
54.855 6.133428
54.860 6.082306
54.865 6.237305
54.870 6.266754
54.875 6.470983
54.880 6.749115
54.885 6.644491
54.890 6.769669
54.895 6.961127
54.900 7.01458
54.905 7.235979
54.910 7.27423
54.915 6.953152
54.920 6.895998
54.925 7.054738
54.930 7.13506
54.935 6.937125
54.940 6.812435
54.945 6.997097
54.950 7.28202
54.955 7.636233
54.960 7.294306
54.965 7.080855
54.970 7.06338
54.975 7.321991
54.980 6.809027
54.985 6.252811
54.990 6.036869
54.995 6.252111
55.000 6.603635
55.005 6.574078
55.010 6.414316
55.015 6.510656
55.020 6.468175
55.025 6.435527
55.030 6.120934
55.035 6.147915
55.040 6.122284
55.045 6.190966
55.050 6.597325
55.055 6.995389
55.060 7.039662
55.065 7.26649
55.070 6.994952
55.075 6.882638
55.080 7.151186
55.085 6.68877
55.090 6.640392
55.095 6.680432
55.100 6.89975
55.105 7.07527
55.110 7.279837
55.115 7.574028
55.120 8.247746
55.125 8.284992
55.130 8.190106
55.135 8.036016
55.140 8.064524
55.145 7.928121
55.150 7.37702
55.155 7.306792
55.160 7.612561
55.165 7.478024
55.170 7.184543
55.175 7.153902
55.180 6.925489
55.185 7.250946
55.190 7.066563
55.195 6.835242
55.200 6.645997
55.205 6.788161
55.210 6.87294
55.215 6.999737
55.220 6.994597
55.225 7.149235
55.230 7.530227
55.235 7.699804
55.240 7.771354
55.245 7.712964
55.250 7.689299
55.255 7.728095
55.260 7.23199
55.265 7.261855
55.270 7.247951
55.275 7.301501
55.280 7.091313
55.285 7.329144
55.290 6.975417
55.295 7.163955
55.300 6.894683
55.305 7.077632
55.310 7.058758
55.315 7.582012
55.320 7.467166
55.325 7.482571
55.330 7.296432
55.335 7.220889
55.340 7.315293
55.345 7.563957
55.350 7.088698
55.355 7.110986
55.360 7.324503
55.365 7.223454
55.370 7.512187
55.375 7.502409
55.380 7.339209
55.385 7.463297
55.390 7.510438
55.395 7.322563
55.400 7.507246
55.405 7.372193
55.410 7.068305
55.415 7.06518
55.420 7.027603
55.425 7.274057
55.430 7.944005
55.435 7.996735
55.440 8.140923
55.445 8.179094
55.450 8.129734
55.455 7.912595
55.460 7.922575
55.465 7.902
55.470 8.203449
55.475 8.022601
55.480 7.932656
55.485 7.97557
55.490 8.318543
55.495 8.096383
55.500 7.734582
55.505 7.845704
55.510 7.97001
55.515 8.030725
55.520 8.138745
55.525 8.03365
55.530 8.327826
55.535 8.031238
55.540 7.400584
55.545 7.044713
55.550 7.129155
55.555 7.038666
55.560 6.579626
55.565 6.379352
55.570 6.684622
55.575 7.430541
55.580 7.798545
55.585 8.073638
55.590 7.646401
55.595 7.705628
55.600 7.831139
55.605 7.673662
55.610 7.819165
55.615 7.381666
55.620 7.315577
55.625 7.455723
55.630 7.330519
55.635 7.110166
55.640 6.771374
55.645 6.218421
55.650 6.416386
55.655 6.900652
55.660 7.206216
55.665 7.620699
55.670 8.440017
55.675 8.827627
55.680 9.079769
55.685 9.402052
55.690 9.107583
55.695 8.822543
55.700 8.134115
55.705 7.821937
55.710 7.824129
55.715 7.508849
55.720 6.989235
55.725 7.109922
55.730 7.514912
55.735 7.972385
55.740 7.459695
55.745 7.235559
55.750 7.310536
55.755 7.244823
55.760 6.99217
55.765 6.753926
55.770 6.212201
55.775 6.417285
55.780 6.599734
55.785 6.61247
55.790 6.94346
55.795 7.057534
55.800 7.127213
55.805 7.447972
55.810 7.356246
55.815 7.634475
55.820 7.654431
55.825 7.498845
55.830 7.510885
55.835 7.310068
55.840 7.293606
55.845 7.28587
55.850 7.163018
55.855 7.238198
55.860 7.049302
55.865 7.067891
55.870 7.637121
55.875 7.758978
55.880 7.808801
55.885 8.037409
55.890 7.997974
55.895 8.088464
55.900 8.015006
55.905 7.520651
55.910 7.667699
55.915 7.600853
55.920 7.443404
55.925 7.342523
55.930 7.477291
55.935 7.735291
55.940 7.83855
55.945 7.989443
55.950 7.998882
55.955 8.115048
55.960 8.317356
55.965 8.169674
55.970 8.155308
55.975 7.899921
55.980 7.831447
55.985 7.927336
55.990 7.394693
55.995 7.09721
56.000 7.365046
56.005 7.404121
56.010 7.5509
56.015 7.521156
56.020 7.801453
56.025 8.023039
56.030 8.046879
56.035 8.252188
56.040 8.19768
56.045 8.151178
56.050 7.961829
56.055 7.836118
56.060 7.871387
56.065 8.229278
56.070 7.635549
56.075 7.673113
56.080 7.700654
56.085 7.819155
56.090 8.152731
56.095 8.467101
56.100 8.653582
56.105 8.576465
56.110 8.818729
56.115 8.683006
56.120 8.116706
56.125 7.647572
56.130 7.355184
56.135 7.306456
56.140 7.386856
56.145 7.308844
56.150 7.472636
56.155 7.832817
56.160 7.814601
56.165 7.764477
56.170 7.816732
56.175 7.885913
56.180 7.772831
56.185 7.455561
56.190 7.294036
56.195 7.639045
56.200 7.656474
56.205 8.136009
56.210 8.165595
56.215 8.557583
56.220 9.234886
56.225 9.955617
56.230 10.184074
56.235 10.179825
56.240 10.058388
56.245 10.129979
56.250 9.894778
56.255 9.676365
56.260 8.892234
56.265 8.479383
56.270 8.132597
56.275 8.146927
56.280 8.167912
56.285 8.40385
56.290 8.613701
56.295 8.962568
56.300 9.145797
56.305 8.896346
56.310 8.704917
56.315 8.695149
56.320 8.510445
56.325 8.627448
56.330 8.576967
56.335 8.622754
56.340 8.628304
56.345 8.814824
56.350 8.808841
56.355 8.310002
56.360 7.845202
56.365 7.837298
56.370 7.502306
56.375 7.535435
56.380 7.636118
56.385 7.618669
56.390 7.883816
56.395 7.839395
56.400 7.641225
56.405 7.822599
56.410 7.842676
56.415 7.662766
56.420 7.637115
56.425 7.703725
56.430 7.685599
56.435 8.051252
56.440 8.198811
56.445 8.134724
56.450 8.285358
56.455 8.713135
56.460 9.123035
56.465 9.027474
56.470 8.79928
56.475 9.236751
56.480 9.294007
56.485 9.598861
56.490 9.660312
56.495 9.577696
56.500 9.548482
56.505 9.411532
56.510 9.446619
56.515 9.443789
56.520 9.245695
56.525 8.997798
56.530 9.014232
56.535 9.393937
56.540 9.236204
56.545 8.798506
56.550 8.823283
56.555 8.814708
56.560 8.380995
56.565 8.300498
56.570 8.085812
56.575 8.304809
56.580 8.202094
56.585 7.914349
56.590 7.813263
56.595 8.146397
56.600 8.45811
56.605 8.668694
56.610 8.755278
56.615 8.992935
56.620 9.297497
56.625 8.87406
56.630 8.956624
56.635 8.984649
56.640 9.026275
56.645 8.802735
56.650 8.544344
56.655 8.453539
56.660 8.729158
56.665 8.318622
56.670 7.68841
56.675 7.409082
56.680 7.728308
56.685 7.932926
56.690 8.129416
56.695 8.423622
56.700 8.95824
56.705 9.091519
56.710 9.159302
56.715 9.465483
56.720 9.340936
56.725 9.11477
56.730 8.78411
56.735 8.632785
56.740 8.951246
56.745 9.104271
56.750 9.066255
56.755 9.231766
56.760 9.333093
56.765 9.39739
56.770 9.213063
56.775 9.102301
56.780 9.02248
56.785 8.69937
56.790 8.788592
56.795 8.827002
56.800 9.399942
56.805 9.717397
56.810 9.904597
56.815 9.845152
56.820 9.826831
56.825 9.957608
56.830 10.015261
56.835 9.809956
56.840 9.909173
56.845 9.798142
56.850 9.496547
56.855 9.512161
56.860 8.993166
56.865 8.543139
56.870 8.199091
56.875 7.948603
56.880 7.925293
56.885 8.052712
56.890 8.040918
56.895 8.204695
56.900 8.315388
56.905 8.2204
56.910 8.255569
56.915 8.248532
56.920 8.606954
56.925 8.6117
56.930 8.881224
56.935 9.165891
56.940 9.291266
56.945 9.700478
56.950 9.641367
56.955 9.346326
56.960 9.671151
56.965 9.360501
56.970 9.212045
56.975 9.347659
56.980 9.07268
56.985 9.154032
56.990 9.504997
56.995 9.446022
57.000 10.028291
57.005 10.045624
57.010 9.673038
57.015 9.974092
57.020 9.927645
57.025 9.757316
57.030 9.449857
57.035 9.057928
57.040 9.029179
57.045 9.426092
57.050 9.383541
57.055 9.308187
57.060 9.377186
57.065 9.651306
57.070 9.558614
57.075 9.790824
57.080 9.455337
57.085 9.512792
57.090 9.604102
57.095 9.551252
57.100 9.31889
57.105 9.399814
57.110 9.182181
57.115 9.111298
57.120 8.853875
57.125 9.077107
57.130 9.149077
57.135 9.149682
57.140 9.300527
57.145 9.423875
57.150 9.630539
57.155 9.902604
57.160 10.16615
57.165 10.023376
57.170 10.095072
57.175 9.90799
57.180 9.478271
57.185 9.215981
57.190 8.819255
57.195 8.58487
57.200 8.665964
57.205 8.459176
57.210 8.785514
57.215 9.747292
57.220 9.763032
57.225 9.532054
57.230 9.257074
57.235 9.244673
57.240 9.158725
57.245 8.751992
57.250 8.402467
57.255 8.373571
57.260 8.688564
57.265 8.819262
57.270 9.082263
57.275 9.35795
57.280 9.72568
57.285 9.746008
57.290 9.924875
57.295 9.976295
57.300 10.040176
57.305 9.830215
57.310 9.660052
57.315 9.359765
57.320 9.158867
57.325 9.186625
57.330 8.951562
57.335 9.120292
57.340 9.09972
57.345 9.001799
57.350 9.121335
57.355 9.389099
57.360 9.269729
57.365 9.447266
57.370 9.506671
57.375 9.99439
57.380 10.504826
57.385 10.50852
57.390 10.725842
57.395 11.031339
57.400 10.884844
57.405 10.482434
57.410 9.721988
57.415 9.324297
57.420 9.537914
57.425 8.901276
57.430 8.484616
57.435 8.484972
57.440 8.692466
57.445 9.004534
57.450 8.895777
57.455 8.66163
57.460 9.165618
57.465 9.328797
57.470 9.716963
57.475 9.601635
57.480 9.683208
57.485 9.495753
57.490 9.514492
57.495 9.63854
57.500 9.74478
57.505 9.330994
57.510 9.529636
57.515 9.724404
57.520 10.387145
57.525 10.679302
57.530 10.2759
57.535 10.241787
57.540 10.220885
57.545 9.793514
57.550 9.23166
57.555 8.627181
57.560 8.760622
57.565 8.984617
57.570 9.137266
57.575 9.61638
57.580 10.098731
57.585 10.685056
57.590 11.030076
57.595 11.007091
57.600 11.097598
57.605 11.027189
57.610 10.828079
57.615 11.064575
57.620 10.976264
57.625 11.0178
57.630 10.57727
57.635 10.586704
57.640 10.583446
57.645 10.378966
57.650 10.323374
57.655 10.129271
57.660 9.828017
57.665 10.10439
57.670 9.912037
57.675 9.626118
57.680 9.481922
57.685 9.636168
57.690 9.856291
57.695 9.814854
57.700 9.650343
57.705 9.739281
57.710 10.260814
57.715 10.404695
57.720 10.354716
57.725 10.54039
57.730 11.17278
57.735 11.463095
57.740 11.267073
57.745 11.387483
57.750 11.432556
57.755 11.327852
57.760 11.125277
57.765 10.381377
57.770 9.877706
57.775 10.081719
57.780 9.822257
57.785 9.584141
57.790 9.283748
57.795 9.190894
57.800 9.387278
57.805 9.626904
57.810 9.736449
57.815 9.66108
57.820 9.708015
57.825 9.723572
57.830 9.709983
57.835 10.101271
57.840 10.186779
57.845 10.108147
57.850 10.223546
57.855 10.332454
57.860 10.373985
57.865 10.53722
57.870 10.080186
57.875 10.174911
57.880 10.171062
57.885 10.846495
57.890 10.977307
57.895 11.182526
57.900 11.309955
57.905 11.549294
57.910 11.643199
57.915 11.96884
57.920 12.134371
57.925 12.027161
57.930 12.00918
57.935 12.188357
57.940 12.135212
57.945 12.380573
57.950 11.910076
57.955 11.749954
57.960 11.682237
57.965 11.449324
57.970 11.836631
57.975 11.555363
57.980 11.467307
57.985 11.324815
57.990 11.246886
57.995 11.355268
58.000 11.376768
58.005 10.781247
58.010 11.091455
58.015 11.411136
58.020 11.307544
58.025 10.978373
58.030 11.08749
58.035 11.384165
58.040 11.900285
58.045 12.069197
58.050 11.917678
58.055 12.14265
58.060 12.572989
58.065 12.602687
58.070 12.900054
58.075 13.22732
58.080 12.994127
58.085 12.376952
58.090 12.050817
58.095 12.069134
58.100 11.735295
58.105 11.343135
58.110 10.817936
58.115 10.743217
58.120 11.978166
58.125 12.098926
58.130 12.080345
58.135 12.880309
58.140 12.699229
58.145 12.737423
58.150 12.715355
58.155 12.25532
58.160 12.150786
58.165 12.144819
58.170 12.063022
58.175 12.595037
58.180 12.534711
58.185 12.451001
58.190 12.372939
58.195 12.640486
58.200 12.788866
58.205 12.629079
58.210 12.03766
58.215 12.093968
58.220 12.439692
58.225 12.584003
58.230 12.433082
58.235 12.606479
58.240 12.651299
58.245 12.751856
58.250 13.289644
58.255 13.171796
58.260 13.038218
58.265 13.244862
58.270 12.547414
58.275 12.798339
58.280 13.157863
58.285 12.812733
58.290 12.752183
58.295 12.614222
58.300 12.406737
58.305 13.080939
58.310 13.004026
58.315 13.07682
58.320 13.023933
58.325 13.376056
58.330 13.52449
58.335 13.950927
58.340 14.042449
58.345 14.026492
58.350 13.629972
58.355 13.702318
58.360 13.991865
58.365 14.448473
58.370 14.0453
58.375 13.715518
58.380 13.824842
58.385 13.98434
58.390 13.71596
58.395 13.885483
58.400 14.009061
58.405 14.251981
58.410 14.58319
58.415 15.257535
58.420 15.942351
58.425 16.604023
58.430 16.423632
58.435 16.208736
58.440 16.526119
58.445 16.614313
58.450 16.616974
58.455 16.974091
58.460 16.698484
58.465 16.814419
58.470 16.989811
58.475 17.044744
58.480 16.82485
58.485 16.88867
58.490 17.056114
58.495 17.629009
58.500 18.501369
58.505 19.074917
58.510 19.441599
58.515 19.589422
58.520 20.21566
58.525 20.81485
58.530 20.77416
58.535 21.008831
58.540 21.268011
58.545 21.690142
58.550 22.110069
58.555 21.938267
58.560 22.191963
58.565 22.648634
58.570 22.421558
58.575 21.785049
58.580 21.451393
58.585 21.545269
58.590 21.885141
58.595 22.880278
58.600 23.312553
58.605 23.828207
58.610 24.85018
58.615 25.608316
58.620 25.915365
58.625 25.972637
58.630 25.128355
58.635 24.431149
58.640 24.304659
58.645 24.186005
58.650 24.16674
58.655 24.408251
58.660 24.87472
58.665 25.032824
58.670 25.763718
58.675 25.686857
58.680 26.323772
58.685 26.263363
58.690 25.875338
58.695 26.153851
58.700 26.309256
58.705 26.171175
58.710 26.094275
58.715 25.150822
58.720 25.811014
58.725 25.512308
58.730 24.83345
58.735 24.909523
58.740 24.924768
58.745 25.112534
58.750 25.443033
58.755 24.850574
58.760 25.387676
58.765 25.29628
58.770 24.688894
58.775 24.335793
58.780 23.741894
58.785 22.717237
58.790 22.278708
58.795 21.568178
58.800 21.240156
58.805 21.844141
58.810 22.216221
58.815 22.289227
58.820 22.33099
58.825 22.621836
58.830 22.363178
58.835 21.92605
58.840 21.005827
58.845 20.377872
58.850 20.166912
58.855 20.19845
58.860 20.25606
58.865 20.199245
58.870 19.528032
58.875 19.289242
58.880 19.456999
58.885 19.703693
58.890 18.806183
58.895 17.679852
58.900 17.200768
58.905 16.677694
58.910 16.55335
58.915 16.357376
58.920 16.029726
58.925 16.139456
58.930 16.346516
58.935 16.418737
58.940 16.229891
58.945 15.719922
58.950 15.47346
58.955 15.263264
58.960 15.211667
58.965 15.108654
58.970 15.316725
58.975 15.833437
58.980 15.998678
58.985 15.535908
58.990 15.087932
58.995 14.653589
59.000 14.580634
59.005 14.183366
59.010 13.573171
59.015 13.429188
59.020 13.215485
59.025 13.382357
59.030 13.877029
59.035 13.644711
59.040 13.724094
59.045 13.845614
59.050 13.738674
59.055 13.965754
59.060 13.804473
59.065 13.627672
59.070 14.098978
59.075 13.935021
59.080 14.179353
59.085 14.054009
59.090 13.988276
59.095 13.844953
59.100 13.784372
59.105 13.259762
59.110 12.79882
59.115 12.316051
59.120 12.142837
59.125 12.103733
59.130 12.289555
59.135 12.690047
59.140 13.672353
59.145 13.973055
59.150 13.901401
59.155 14.077791
59.160 14.351601
59.165 13.936669
59.170 13.037058
59.175 12.413695
59.180 12.529255
59.185 12.600422
59.190 12.655029
59.195 12.540114
59.200 12.697255
59.205 12.902217
59.210 13.111166
59.215 13.230122
59.220 13.358998
59.225 13.190361
59.230 13.097282
59.235 13.197233
59.240 13.171057
59.245 13.208229
59.250 13.026036
59.255 12.582492
59.260 12.71151
59.265 12.571587
59.270 12.580977
59.275 12.324039
59.280 11.606285
59.285 11.478917
59.290 11.802669
59.295 11.660603
59.300 11.536393
59.305 11.79201
59.310 12.200444
59.315 12.532137
59.320 12.585037
59.325 12.124471
59.330 11.755519
59.335 11.693234
59.340 11.673678
59.345 11.770479
59.350 11.481068
59.355 11.414035
59.360 11.764028
59.365 12.21158
59.370 12.216118
59.375 11.978765
59.380 11.651107
59.385 11.74421
59.390 11.949943
59.395 11.586567
59.400 11.587726
59.405 11.875815
59.410 11.571386
59.415 12.115417
59.420 12.357315
59.425 12.02088
59.430 12.284524
59.435 12.05366
59.440 11.825873
59.445 11.976044
59.450 12.130995
59.455 11.951858
59.460 12.071697
59.465 12.071124
59.470 12.092095
59.475 12.044456
59.480 12.043293
59.485 11.933984
59.490 12.235487
59.495 12.378633
59.500 12.052117
59.505 12.241164
59.510 12.35574
59.515 12.439969
59.520 12.2984
59.525 12.175024
59.530 12.116233
59.535 12.490964
59.540 12.53193
59.545 12.294192
59.550 11.840967
59.555 11.562623
59.560 10.862102
59.565 10.253022
59.570 10.280829
59.575 10.475945
59.580 10.407322
59.585 10.611156
59.590 10.919866
59.595 11.96425
59.600 12.437614
59.605 12.135048
59.610 11.765437
59.615 11.908379
59.620 11.762546
59.625 11.793865
59.630 12.184778
59.635 12.443805
59.640 12.760269
59.645 13.183407
59.650 13.761419
59.655 13.580332
59.660 12.826356
59.665 11.88905
59.670 11.42527
59.675 11.235709
59.680 11.117164
59.685 10.874693
59.690 11.023841
59.695 11.675837
59.700 12.105485
59.705 11.814037
59.710 11.720635
59.715 11.42391
59.720 11.132154
59.725 11.209383
59.730 11.023834
59.735 11.099237
59.740 11.210197
59.745 10.594233
59.750 10.192726
59.755 10.044909
59.760 10.158895
59.765 10.0034
59.770 9.829054
59.775 10.481728
59.780 11.087693
59.785 11.534408
59.790 11.653152
59.795 11.883443
59.800 11.82636
59.805 11.217055
59.810 11.19876
59.815 11.610924
59.820 11.726938
59.825 11.981531
59.830 11.902054
59.835 12.384126
59.840 13.061094
59.845 13.483654
59.850 13.066211
59.855 13.106977
59.860 12.89239
59.865 12.65325
59.870 12.605244
59.875 11.886103
59.880 11.551545
59.885 11.94555
59.890 11.997536
59.895 12.473425
59.900 12.753911
59.905 13.189754
59.910 14.119504
59.915 13.959821
59.920 13.962505
59.925 13.755451
59.930 13.613169
59.935 13.464325
59.940 13.626503
59.945 13.149281
59.950 13.105835
59.955 12.791126
59.960 13.092628
59.965 13.265217
59.970 13.18329
59.975 12.97729
59.980 13.175605
59.985 13.322977
59.990 13.368542
59.995 13.177696
60.000 12.925334
60.005 12.748551
60.010 12.667903
60.015 12.439359
60.020 12.379006
60.025 12.222999
60.030 12.189912
60.035 12.229068
60.040 12.445654
60.045 12.51462
60.050 12.627903
60.055 12.695561
60.060 12.820238
60.065 12.634972
60.070 12.699361
60.075 12.814054
60.080 12.822318
60.085 12.21522
60.090 11.824544
60.095 11.654481
60.100 11.875356
60.105 12.177964
60.110 11.918779
60.115 11.530245
60.120 11.846635
60.125 12.132886
60.130 12.44931
60.135 12.017972
60.140 11.508928
60.145 11.868585
60.150 12.198889
60.155 11.836802
60.160 12.035867
60.165 11.639757
60.170 11.854273
60.175 12.014795
60.180 11.662578
60.185 11.633013
60.190 12.054054
60.195 11.555202
60.200 11.666071
60.205 11.782324
60.210 11.732202
60.215 12.52868
60.220 12.771912
60.225 12.666314
60.230 13.037997
60.235 13.469014
60.240 13.197314
60.245 12.955939
60.250 12.091908
60.255 11.722979
60.260 11.312425
60.265 11.530951
60.270 11.276816
60.275 11.02059
60.280 10.798506
60.285 10.674512
60.290 11.347176
60.295 11.509452
60.300 10.910867
60.305 11.546399
60.310 12.145888
60.315 12.6076
60.320 12.953709
60.325 12.324834
60.330 12.494005
60.335 12.688324
60.340 12.409409
60.345 12.488243
60.350 12.319067
60.355 11.894248
60.360 11.508182
60.365 11.416348
60.370 11.390074
60.375 11.258069
60.380 11.108084
60.385 11.357399
60.390 11.870397
60.395 12.382907
60.400 12.427191
60.405 12.636309
60.410 12.775264
60.415 12.803857
60.420 12.930555
60.425 13.092066
60.430 13.4009
60.435 13.433058
60.440 13.051565
60.445 13.314628
60.450 13.504808
60.455 12.97157
60.460 12.947065
60.465 13.277239
60.470 13.558786
60.475 13.610031
60.480 13.448606
60.485 12.910231
60.490 13.149243
60.495 13.117996
60.500 12.588218
60.505 12.513746
60.510 13.02365
60.515 12.906064
60.520 12.746222
60.525 12.496078
60.530 12.382165
60.535 12.510198
60.540 12.590996
60.545 11.782607
60.550 11.860696
60.555 12.025082
60.560 12.010303
60.565 11.843244
60.570 11.758223
60.575 11.594749
60.580 11.969516
60.585 11.805651
60.590 11.847115
60.595 11.326869
60.600 11.187325
60.605 11.189553
60.610 10.904326
60.615 10.759332
60.620 11.268778
60.625 11.381637
60.630 11.580297
60.635 11.726774
60.640 11.739657
60.645 12.021131
60.650 12.291746
60.655 12.076972
60.660 12.218547
60.665 12.458158
60.670 12.365621
60.675 11.923635
60.680 11.93772
60.685 11.229627
60.690 10.862649
60.695 10.623273
60.700 10.901224
60.705 11.649072
60.710 11.849479
60.715 11.805059
60.720 11.867699
60.725 11.686502
60.730 11.721692
60.735 11.349696
60.740 10.989165
60.745 10.973794
60.750 10.999249
60.755 11.254305
60.760 11.801505
60.765 12.057981
60.770 12.246133
60.775 12.523396
60.780 13.170631
60.785 13.46111
60.790 13.132889
60.795 12.992332
60.800 13.204784
60.805 12.827678
60.810 12.639652
60.815 12.499006
60.820 12.554954
60.825 12.650175
60.830 12.993663
60.835 12.310582
60.840 12.756484
60.845 13.397209
60.850 13.245103
60.855 13.088264
60.860 13.149325
60.865 12.788296
60.870 13.167864
60.875 12.958292
60.880 11.901543
60.885 11.488118
60.890 11.909595
60.895 11.912544
60.900 12.320959
60.905 12.69723
60.910 12.930986
60.915 13.166095
60.920 13.908669
60.925 13.943688
60.930 13.785729
60.935 13.531257
60.940 13.234667
60.945 12.996061
60.950 13.511128
60.955 12.963775
60.960 12.862985
60.965 13.421831
60.970 13.877764
60.975 13.644642
60.980 13.559996
60.985 13.390258
60.990 13.35328
60.995 13.093708
61.000 12.869701
61.005 12.506128
61.010 12.439206
61.015 12.174446
61.020 11.773317
61.025 11.614676
61.030 11.374838
61.035 10.914782
61.040 10.641934
61.045 10.653051
61.050 11.126225
61.055 11.354715
61.060 12.158273
61.065 12.605816
61.070 13.05922
61.075 13.503546
61.080 13.689903
61.085 13.638972
61.090 13.434969
61.095 13.115607
61.100 13.335255
61.105 13.752672
61.110 13.884548
61.115 13.735944
61.120 13.488782
61.125 12.946547
61.130 12.762195
61.135 12.436784
61.140 11.673304
61.145 11.685773
61.150 11.990755
61.155 12.658414
61.160 12.995037
61.165 13.116443
61.170 13.31554
61.175 13.518648
61.180 13.415972
61.185 13.111413
61.190 12.83371
61.195 12.791037
61.200 12.740051
61.205 13.086328
61.210 13.300289
61.215 13.749012
61.220 13.872858
61.225 13.482633
61.230 13.65582
61.235 13.536072
61.240 13.291364
61.245 13.05932
61.250 12.856991
61.255 13.165313
61.260 13.724483
61.265 14.526547
61.270 14.907438
61.275 14.400488
61.280 13.997463
61.285 13.852647
61.290 13.790868
61.295 13.383032
61.300 12.548577
61.305 11.752105
61.310 11.388281
61.315 11.638859
61.320 11.517278
61.325 11.285956
61.330 11.367414
61.335 11.663142
61.340 12.005002
61.345 12.0828
61.350 11.891602
61.355 11.741179
61.360 11.616816
61.365 11.363486
61.370 11.122552
61.375 11.349416
61.380 12.011186
61.385 12.445173
61.390 12.438396
61.395 12.352345
61.400 12.61857
61.405 12.94622
61.410 12.810067
61.415 12.87283
61.420 12.84057
61.425 13.305545
61.430 13.468067
61.435 13.384511
61.440 13.35038
61.445 13.385526
61.450 13.137666
61.455 13.628807
61.460 13.861776
61.465 13.576627
61.470 14.051661
61.475 14.452484
61.480 14.557095
61.485 14.485742
61.490 13.72371
61.495 13.467573
61.500 13.581049
61.505 13.124617
61.510 13.127217
61.515 13.53129
61.520 13.40486
61.525 13.348887
61.530 13.242621
61.535 13.350104
61.540 13.522359
61.545 13.524838
61.550 13.397855
61.555 14.045154
61.560 14.524576
61.565 14.962885
61.570 15.318182
61.575 14.953953
61.580 14.44883
61.585 13.700926
61.590 12.528209
61.595 11.782343
61.600 11.275262
61.605 11.085528
61.610 11.365407
61.615 11.764503
61.620 12.090096
61.625 12.786725
61.630 13.183105
61.635 12.982441
61.640 12.712173
61.645 12.452878
61.650 12.138128
61.655 12.332629
61.660 12.115505
61.665 12.464499
61.670 12.959695
61.675 13.302859
61.680 13.330872
61.685 13.12302
61.690 13.050415
61.695 13.052895
61.700 12.801865
61.705 12.647891
61.710 12.503136
61.715 12.387055
61.720 12.711269
61.725 12.59387
61.730 12.377325
61.735 11.768921
61.740 11.57606
61.745 11.348399
61.750 11.827366
61.755 12.025398
61.760 12.574493
61.765 13.445769
61.770 13.629033
61.775 14.132258
61.780 14.629235
61.785 14.181552
61.790 14.099981
61.795 14.029987
61.800 13.81187
61.805 14.25357
61.810 14.204934
61.815 14.239278
61.820 13.863718
61.825 13.156039
61.830 12.656689
61.835 12.412309
61.840 12.308965
61.845 11.942835
61.850 11.443229
61.855 11.875762
61.860 12.503344
61.865 12.943579
61.870 13.123661
61.875 13.358848
61.880 14.024031
61.885 14.445503
61.890 14.558342
61.895 14.277966
61.900 14.080927
61.905 13.615441
61.910 13.349906
61.915 12.76467
61.920 12.297377
61.925 12.422837
61.930 12.607793
61.935 13.247674
61.940 13.863602
61.945 13.919027
61.950 13.78581
61.955 13.83327
61.960 13.562618
61.965 13.37771
61.970 12.736135
61.975 12.561218
61.980 12.434743
61.985 12.682202
61.990 13.1518
61.995 13.666514
62.000 13.761236
62.005 13.875856
62.010 13.942138
62.015 13.604413
62.020 13.528815
62.025 13.02413
62.030 12.575882
62.035 12.30514
62.040 11.708688
62.045 11.303007
62.050 12.112822
62.055 12.051465
62.060 12.314023
62.065 12.965615
62.070 13.044753
62.075 13.252019
62.080 13.468329
62.085 13.359644
62.090 13.782218
62.095 13.224321
62.100 12.651432
62.105 13.177856
62.110 14.06659
62.115 14.407699
62.120 14.125647
62.125 14.485997
62.130 15.047734
62.135 15.395429
62.140 14.956098
62.145 14.621698
62.150 14.174931
62.155 14.195695
62.160 14.061743
62.165 14.102426
62.170 13.761145
62.175 13.728067
62.180 13.569729
62.185 13.758463
62.190 13.923078
62.195 13.746214
62.200 13.152055
62.205 12.937079
62.210 13.031509
62.215 13.242644
62.220 13.112567
62.225 12.941943
62.230 12.750159
62.235 12.996315
62.240 13.07476
62.245 13.233404
62.250 13.250395
62.255 13.343748
62.260 13.415525
62.265 13.57646
62.270 13.37205
62.275 13.73068
62.280 13.558848
62.285 13.120341
62.290 13.024664
62.295 12.995062
62.300 13.38434
62.305 13.857769
62.310 13.422296
62.315 13.277549
62.320 13.753325
62.325 14.054398
62.330 14.267307
62.335 13.910643
62.340 13.729377
62.345 14.108053
62.350 14.617785
62.355 14.592348
62.360 14.433745
62.365 13.781445
62.370 13.925594
62.375 13.929754
62.380 14.218046
62.385 13.383744
62.390 13.506264
62.395 13.910521
62.400 13.818403
62.405 13.307134
62.410 13.620867
62.415 13.576638
62.420 13.848415
62.425 13.370343
62.430 13.656991
62.435 14.476315
62.440 14.923882
62.445 14.904868
62.450 15.368527
62.455 15.869065
62.460 15.647301
62.465 14.699204
62.470 14.481448
62.475 14.330376
62.480 14.021079
62.485 13.402967
62.490 13.189013
62.495 13.642629
62.500 13.954941
62.505 13.728957
62.510 13.447325
62.515 13.083293
62.520 13.013983
62.525 12.827187
62.530 12.996202
62.535 12.879743
62.540 13.163886
62.545 13.90813
62.550 14.01132
62.555 14.516769
62.560 14.252836
62.565 14.062272
62.570 13.818102
62.575 13.342364
62.580 12.803257
62.585 12.744715
62.590 12.161305
62.595 12.109689
62.600 11.90826
62.605 12.273999
62.610 12.624568
62.615 12.904779
62.620 13.337429
62.625 13.307857
62.630 13.733741
62.635 13.851768
62.640 13.767499
62.645 13.626313
62.650 13.759681
62.655 13.261081
62.660 13.36128
62.665 13.310484
62.670 13.627883
62.675 14.514846
62.680 14.472435
62.685 14.445289
62.690 14.707528
62.695 14.880779
62.700 14.272273
62.705 14.118185
62.710 13.763399
62.715 13.708608
62.720 13.773718
62.725 14.247733
62.730 14.810322
62.735 15.316304
62.740 14.852782
62.745 14.511107
62.750 14.911893
62.755 15.039344
62.760 14.584899
62.765 14.145257
62.770 13.999816
62.775 14.027891
62.780 14.114367
62.785 13.548583
62.790 13.050199
62.795 13.711976
62.800 14.660277
62.805 15.127338
62.810 15.404546
62.815 15.481873
62.820 15.864374
62.825 15.801824
62.830 14.987268
62.835 13.963634
62.840 14.033326
62.845 14.043761
62.850 14.128994
62.855 14.093927
62.860 14.318683
62.865 14.32412
62.870 14.613828
62.875 14.159299
62.880 13.634153
62.885 13.234087
62.890 13.128679
62.895 13.546246
62.900 13.894215
62.905 13.782098
62.910 13.9609
62.915 14.366508
62.920 14.471428
62.925 14.146932
62.930 13.590791
62.935 13.506042
62.940 13.041435
62.945 12.767743
62.950 12.474921
62.955 12.848742
62.960 12.829532
62.965 12.213628
62.970 12.385623
62.975 13.123967
62.980 13.557197
62.985 13.899454
62.990 14.076704
62.995 15.075104
63.000 16.049948
63.005 16.028877
63.010 15.84765
63.015 15.471282
63.020 14.81023
63.025 14.350649
63.030 14.276925
63.035 14.203138
63.040 14.410789
63.045 14.331115
63.050 14.386233
63.055 14.273695
63.060 14.10527
63.065 13.635673
63.070 13.487382
63.075 12.873886
63.080 13.160815
63.085 13.00668
63.090 13.399396
63.095 13.708139
63.100 14.107071
63.105 14.626816
63.110 14.738242
63.115 15.259976
63.120 15.787952
63.125 15.945294
63.130 15.972302
63.135 15.354165
63.140 14.753379
63.145 14.401182
63.150 13.694293
63.155 13.115877
63.160 13.526248
63.165 13.482521
63.170 13.32024
63.175 13.875633
63.180 14.961315
63.185 15.730451
63.190 16.432592
63.195 15.834142
63.200 15.558862
63.205 15.894137
63.210 15.594036
63.215 14.7321
63.220 14.415988
63.225 14.517684
63.230 14.895375
63.235 15.258339
63.240 15.557342
63.245 15.315642
63.250 15.171046
63.255 15.216723
63.260 14.753479
63.265 14.707145
63.270 14.50443
63.275 14.254718
63.280 15.455143
63.285 16.318867
63.290 16.385687
63.295 16.238819
63.300 15.913728
63.305 16.255217
63.310 16.254541
63.315 15.488005
63.320 15.020682
63.325 14.631871
63.330 14.460853
63.335 14.746736
63.340 14.640956
63.345 14.077719
63.350 14.248476
63.355 14.28581
63.360 14.674094
63.365 15.211432
63.370 15.488572
63.375 15.759082
63.380 15.990496
63.385 15.994547
63.390 15.834716
63.395 15.881786
63.400 15.398072
63.405 14.729802
63.410 14.713775
63.415 14.610256
63.420 14.142934
63.425 14.29445
63.430 13.936575
63.435 14.068612
63.440 14.676175
63.445 14.902449
63.450 15.55285
63.455 16.228199
63.460 16.297565
63.465 16.639326
63.470 17.068493
63.475 16.795195
63.480 16.49831
63.485 16.116013
63.490 15.622144
63.495 15.175278
63.500 14.950088
63.505 14.370831
63.510 14.410856
63.515 14.197002
63.520 13.73903
63.525 13.482223
63.530 13.689967
63.535 13.771458
63.540 14.084347
63.545 13.663657
63.550 13.885493
63.555 14.733945
63.560 15.047059
63.565 14.646014
63.570 14.443992
63.575 14.148281
63.580 13.992674
63.585 13.914542
63.590 14.218477
63.595 13.92728
63.600 14.420967
63.605 14.690665
63.610 14.85103
63.615 15.343484
63.620 15.749567
63.625 15.324022
63.630 16.159651
63.635 16.345966
63.640 16.577213
63.645 16.667429
63.650 16.937206
63.655 17.057037
63.660 16.988815
63.665 17.009573
63.670 17.106258
63.675 17.241299
63.680 17.340101
63.685 16.625086
63.690 15.905851
63.695 15.836082
63.700 15.668675
63.705 14.892552
63.710 14.202935
63.715 14.250464
63.720 14.968542
63.725 15.550812
63.730 15.258224
63.735 15.271526
63.740 15.389584
63.745 15.580278
63.750 15.339613
63.755 14.575147
63.760 14.470551
63.765 14.44062
63.770 14.428226
63.775 14.742957
63.780 15.136104
63.785 15.615689
63.790 15.762804
63.795 15.99614
63.800 15.840034
63.805 16.010962
63.810 16.217039
63.815 16.298048
63.820 16.238932
63.825 16.069698
63.830 15.663074
63.835 15.792874
63.840 15.382976
63.845 14.851582
63.850 14.129282
63.855 14.405683
63.860 15.370922
63.865 15.776569
63.870 15.85952
63.875 15.907005
63.880 16.139849
63.885 16.351231
63.890 15.973495
63.895 15.347895
63.900 15.517443
63.905 15.58571
63.910 15.346652
63.915 15.44927
63.920 15.56502
63.925 15.222313
63.930 14.924185
63.935 14.821644
63.940 14.988446
63.945 14.903334
63.950 15.428471
63.955 15.464173
63.960 16.209671
63.965 16.759203
63.970 16.643202
63.975 16.580038
63.980 17.234938
63.985 17.194386
63.990 17.02562
63.995 16.509228
64.000 16.289486
64.005 16.765839
64.010 17.914288
64.015 18.994509
64.020 19.828743
64.025 20.472315
64.030 20.496441
64.035 20.615204
64.040 20.86017
64.045 20.27034
64.050 19.592987
64.055 19.34586
64.060 19.332455
64.065 19.700939
64.070 19.856632
64.075 19.690475
64.080 19.516846
64.085 19.486589
64.090 19.420444
64.095 20.010115
64.100 20.483091
64.105 20.595751
64.110 20.698997
64.115 21.245214
64.120 21.071901
64.125 20.596212
64.130 20.156347
64.135 19.880844
64.140 20.076347
64.145 20.503975
64.150 21.029812
64.155 21.388718
64.160 21.982935
64.165 22.313627
64.170 22.629025
64.175 23.110073
64.180 23.306301
64.185 23.325472
64.190 23.957438
64.195 24.328758
64.200 25.274422
64.205 26.208296
64.210 25.950014
64.215 26.012152
64.220 26.935854
64.225 27.725451
64.230 28.478552
64.235 28.770985
64.240 29.241793
64.245 30.567163
64.250 31.409052
64.255 32.230621
64.260 32.275177
64.265 32.246605
64.270 32.554398
64.275 32.84005
64.280 32.730061
64.285 32.857998
64.290 33.160908
64.295 34.381046
64.300 35.67939
64.305 35.834206
64.310 35.693569
64.315 37.067204
64.320 37.434898
64.325 38.153713
64.330 37.976536
64.335 37.675026
64.340 37.675739
64.345 37.888454
64.350 37.567051
64.355 37.731747
64.360 38.924088
64.365 39.557018
64.370 40.451794
64.375 41.770496
64.380 42.534782
64.385 42.381405
64.390 41.496529
64.395 40.091854
64.400 39.353001
64.405 39.219624
64.410 39.465633
64.415 38.861801
64.420 39.31472
64.425 40.650215
64.430 41.155643
64.435 42.364059
64.440 42.823429
64.445 43.13353
64.450 43.678699
64.455 43.562325
64.460 43.399414
64.465 43.903374
64.470 43.293015
64.475 42.194176
64.480 41.484585
64.485 41.018604
64.490 40.935349
64.495 40.289707
64.500 39.680023
64.505 39.693432
64.510 39.732155
64.515 39.6763
64.520 39.55777
64.525 38.817627
64.530 38.196838
64.535 37.733707
64.540 37.173161
64.545 36.467583
64.550 35.836685
64.555 35.310974
64.560 35.565979
64.565 35.419746
64.570 35.043209
64.575 33.859146
64.580 33.451363
64.585 33.087112
64.590 32.873638
64.595 32.234684
64.600 31.605326
64.605 30.588287
64.610 31.061993
64.615 30.846022
64.620 30.379314
64.625 29.522682
64.630 28.568256
64.635 27.490831
64.640 26.568003
64.645 25.430704
64.650 25.021778
64.655 24.724819
64.660 24.844637
64.665 25.119843
64.670 25.356697
64.675 25.821592
64.680 25.972736
64.685 25.630064
64.690 25.640528
64.695 25.314657
64.700 25.438734
64.705 25.295973
64.710 24.830799
64.715 24.792656
64.720 24.618685
64.725 23.728065
64.730 22.991829
64.735 22.475773
64.740 22.37921
64.745 22.237511
64.750 21.460674
64.755 21.357737
64.760 21.21603
64.765 21.371096
64.770 21.186962
64.775 20.996185
64.780 20.578196
64.785 20.678301
64.790 20.319983
64.795 20.504536
64.800 20.579832
64.805 20.328835
64.810 20.392416
64.815 20.764175
64.820 20.433796
64.825 20.719585
64.830 20.597292
64.835 20.577915
64.840 20.731861
64.845 20.093273
64.850 19.527756
64.855 19.791548
64.860 19.62047
64.865 18.911526
64.870 18.862764
64.875 18.46517
64.880 18.722088
64.885 19.161953
64.890 18.544428
64.895 18.90251
64.900 19.380442
64.905 19.010519
64.910 19.013577
64.915 19.093809
64.920 19.17161
64.925 19.475264
64.930 19.352316
64.935 19.19611
64.940 19.060799
64.945 18.954674
64.950 18.961168
64.955 19.102015
64.960 19.766474
64.965 19.860262
64.970 20.230352
64.975 21.205727
64.980 22.200974
64.985 22.437368
64.990 22.734924
64.995 21.989202
65.000 22.02771
65.005 22.36932
65.010 22.250931
65.015 21.895908
65.020 22.338932
65.025 22.299103
65.030 22.232225
65.035 22.17333
65.040 22.34169
65.045 22.226196
65.050 22.122604
65.055 22.363005
65.060 22.587038
65.065 23.536386
65.070 23.442171
65.075 23.244671
65.080 23.410244
65.085 23.769632
65.090 23.860252
65.095 23.598074
65.100 23.31805
65.105 23.346031
65.110 23.158867
65.115 23.241367
65.120 23.425087
65.125 23.386833
65.130 24.095898
65.135 24.734529
65.140 25.405766
65.145 25.869854
65.150 25.840548
65.155 25.684656
65.160 25.546021
65.165 26.071627
65.170 26.050701
65.175 26.579777
65.180 27.217524
65.185 27.326342
65.190 27.538723
65.195 27.824932
65.200 27.832218
65.205 28.333775
65.210 28.210085
65.215 28.210302
65.220 29.029917
65.225 29.107939
65.230 29.289656
65.235 28.831715
65.240 28.784489
65.245 28.974909
65.250 28.763472
65.255 28.723331
65.260 28.263634
65.265 28.204193
65.270 28.163523
65.275 28.452364
65.280 27.963451
65.285 28.576859
65.290 28.522617
65.295 29.434473
65.300 29.775278
65.305 30.5821
65.310 30.333775
65.315 30.809458
65.320 31.156483
65.325 31.042711
65.330 31.677332
65.335 32.686771
65.340 33.026413
65.345 33.320351
65.350 33.097748
65.355 33.276573
65.360 34.57695
65.365 34.684601
65.370 34.262726
65.375 34.464607
65.380 35.378456
65.385 36.8787
65.390 36.403191
65.395 36.00985
65.400 36.409561
65.405 36.651516
65.410 37.108887
65.415 36.48275
65.420 36.256096
65.425 37.608093
65.430 37.945354
65.435 37.630772
65.440 37.946743
65.445 37.70446
65.450 38.023102
65.455 37.783661
65.460 38.119186
65.465 37.98032
65.470 38.091557
65.475 37.882782
65.480 38.395416
65.485 39.251995
65.490 38.918499
65.495 38.273026
65.500 37.850883
65.505 37.770733
65.510 38.125237
65.515 37.972885
65.520 38.249435
65.525 38.959667
65.530 39.188667
65.535 39.645657
65.540 40.15641
65.545 40.435574
65.550 40.440983
65.555 40.620831
65.560 40.847412
65.565 40.431042
65.570 40.257664
65.575 40.519829
65.580 40.233688
65.585 39.317844
65.590 38.456055
65.595 37.0256
65.600 36.849464
65.605 37.137352
65.610 36.462639
65.615 35.614258
65.620 35.934406
65.625 35.73214
65.630 35.589993
65.635 35.089275
65.640 34.224163
65.645 33.790462
65.650 33.53323
65.655 32.787811
65.660 32.65353
65.665 33.043411
65.670 33.034626
65.675 33.312557
65.680 33.360634
65.685 33.545181
65.690 33.255383
65.695 33.423096
65.700 32.986942
65.705 32.339081
65.710 30.950174
65.715 30.40118
65.720 30.109005
65.725 29.689936
65.730 28.894934
65.735 28.692368
65.740 28.986883
65.745 29.135731
65.750 28.323996
65.755 27.414507
65.760 27.161308
65.765 26.97386
65.770 27.110634
65.775 27.109972
65.780 27.190767
65.785 26.874281
65.790 26.692356
65.795 26.961172
65.800 26.692146
65.805 26.042814
65.810 25.123013
65.815 24.796234
65.820 24.715994
65.825 24.379396
65.830 23.607672
65.835 23.707939
65.840 23.917786
65.845 23.947329
65.850 24.012741
65.855 22.910627
65.860 23.16925
65.865 22.614185
65.870 21.893713
65.875 21.624323
65.880 21.807514
65.885 21.695932
65.890 22.276785
65.895 22.004265
65.900 22.063473
65.905 21.882147
65.910 21.03183
65.915 20.429163
65.920 20.146963
65.925 20.147545
65.930 19.553461
65.935 19.104548
65.940 19.457453
65.945 19.266184
65.950 19.600174
65.955 19.987213
65.960 19.68964
65.965 19.893814
65.970 19.815664
65.975 19.350519
65.980 19.643875
65.985 19.298578
65.990 19.17518
65.995 19.293228
66.000 19.207586
66.005 19.562111
66.010 19.641781
66.015 19.936775
66.020 20.160252
66.025 19.897957
66.030 19.532938
66.035 19.074696
66.040 18.799923
66.045 18.748371
66.050 18.379009
66.055 17.717234
66.060 17.569824
66.065 17.667757
66.070 17.874746
66.075 17.861031
66.080 18.084543
66.085 18.271185
66.090 18.661196
66.095 19.351973
66.100 19.690035
66.105 19.177507
66.110 18.766306
66.115 18.585361
66.120 18.151634
66.125 18.096159
66.130 17.392168
66.135 16.892607
66.140 17.373768
66.145 17.55974
66.150 17.999655
66.155 17.836605
66.160 17.805031
66.165 17.339689
66.170 16.931473
66.175 16.517019
66.180 15.91788
66.185 15.209036
66.190 15.347785
66.195 15.327404
66.200 15.723706
66.205 16.221743
66.210 16.605408
66.215 17.5371
66.220 18.008646
66.225 18.132441
66.230 18.033665
66.235 17.907745
66.240 17.52577
66.245 17.262758
66.250 17.051968
66.255 16.753036
66.260 16.595255
66.265 16.304693
66.270 16.389496
66.275 16.537897
66.280 16.586399
66.285 16.43751
66.290 17.018955
66.295 17.078382
66.300 17.058079
66.305 16.887581
66.310 16.487421
66.315 15.89917
66.320 15.251082
66.325 14.70862
66.330 14.686544
66.335 15.148325
66.340 15.219736
66.345 15.360832
66.350 15.725911
66.355 16.089941
66.360 16.117697
66.365 16.055174
66.370 16.48283
66.375 16.996031
66.380 17.266335
66.385 17.399406
66.390 17.663479
66.395 17.614269
66.400 17.513563
66.405 17.0916
66.410 16.758194
66.415 16.484201
66.420 16.183035
66.425 15.916203
66.430 15.866083
66.435 16.468401
66.440 16.940073
66.445 17.624779
66.450 17.7076
66.455 18.013554
66.460 18.025198
66.465 17.956699
66.470 16.838253
66.475 16.102383
66.480 15.643869
66.485 16.682451
66.490 16.665844
66.495 16.14642
66.500 16.040365
66.505 16.599863
66.510 16.513597
66.515 16.012705
66.520 15.147003
66.525 15.058034
66.530 15.541625
66.535 15.762637
66.540 15.711937
66.545 16.294964
66.550 16.738739
66.555 16.564396
66.560 16.302347
66.565 16.506895
66.570 16.777208
66.575 17.059698
66.580 16.726944
66.585 16.376755
66.590 16.772615
66.595 17.115084
66.600 17.20055
66.605 17.297531
66.610 16.786781
66.615 16.484282
66.620 16.135881
66.625 15.937243
66.630 15.900704
66.635 15.477239
66.640 14.98474
66.645 14.957249
66.650 15.151713
66.655 15.169541
66.660 14.918454
66.665 14.946554
66.670 14.81696
66.675 14.808547
66.680 15.173657
66.685 15.667937
66.690 16.093725
66.695 16.375093
66.700 16.383097
66.705 16.592569
66.710 16.386209
66.715 16.341869
66.720 15.689372
66.725 14.986871
66.730 14.055979
66.735 13.822214
66.740 14.158932
66.745 14.524692
66.750 14.538576
66.755 14.685365
66.760 15.149193
66.765 15.977715
66.770 15.870205
66.775 15.59198
66.780 15.911104
66.785 15.823679
66.790 16.138502
66.795 16.810434
66.800 16.903736
66.805 17.283308
66.810 17.144609
66.815 16.695595
66.820 16.594822
66.825 15.986811
66.830 15.249345
66.835 14.975958
66.840 14.520423
66.845 14.471294
66.850 14.552382
66.855 14.731684
66.860 15.419525
66.865 15.683054
66.870 15.814118
66.875 16.284527
66.880 16.420267
66.885 16.406521
66.890 15.828478
66.895 15.39851
66.900 15.459691
66.905 15.753738
66.910 16.060503
66.915 15.699129
66.920 16.082899
66.925 16.665718
66.930 17.217813
66.935 17.321762
66.940 16.764071
66.945 16.722639
66.950 17.124245
66.955 16.98489
66.960 16.707504
66.965 15.940228
66.970 15.989055
66.975 16.094284
66.980 16.111547
66.985 15.968286
66.990 15.839741
66.995 16.263145
67.000 16.554205
67.005 16.336201
67.010 16.415184
67.015 16.295908
67.020 16.468945
67.025 16.645506
67.030 16.651537
67.035 16.317354
67.040 16.273453
67.045 16.171745
67.050 15.64827
67.055 15.466502
67.060 15.416434
67.065 15.201337
67.070 15.853714
67.075 15.517698
67.080 15.914834
67.085 15.739146
67.090 15.571398
67.095 15.786958
67.100 15.95319
67.105 15.345655
67.110 15.022129
67.115 14.626499
67.120 15.209278
67.125 15.22421
67.130 15.053078
67.135 14.677497
67.140 14.752375
67.145 15.161363
67.150 14.830219
67.155 14.547956
67.160 14.52372
67.165 14.548433
67.170 15.041993
67.175 15.143003
67.180 15.513829
67.185 15.550507
67.190 15.703194
67.195 15.792578
67.200 15.36904
67.205 15.469522
67.210 15.684392
67.215 15.560205
67.220 15.944449
67.225 16.135361
67.230 16.340315
67.235 16.431118
67.240 16.042891
67.245 15.858185
67.250 15.785066
67.255 15.568153
67.260 15.745633
67.265 15.781456
67.270 16.206844
67.275 16.551931
67.280 16.737934
67.285 17.117895
67.290 17.047018
67.295 16.708586
67.300 16.729456
67.305 16.864525
67.310 16.604691
67.315 16.249859
67.320 15.856057
67.325 15.70648
67.330 15.056198
67.335 14.385439
67.340 14.15042
67.345 14.600112
67.350 15.009353
67.355 15.531553
67.360 15.870034
67.365 16.429903
67.370 16.474844
67.375 16.441319
67.380 16.810764
67.385 16.842232
67.390 16.184093
67.395 15.591945
67.400 14.778733
67.405 14.788425
67.410 14.807646
67.415 14.278516
67.420 13.910738
67.425 14.091315
67.430 14.464211
67.435 15.080295
67.440 15.285112
67.445 14.796014
67.450 14.94189
67.455 14.92886
67.460 15.175975
67.465 15.598741
67.470 15.541924
67.475 15.69647
67.480 15.977644
67.485 16.605207
67.490 16.876667
67.495 17.276495
67.500 16.93272
67.505 16.512405
67.510 16.167027
67.515 16.022257
67.520 15.82937
67.525 15.322089
67.530 14.800314
67.535 14.973082
67.540 15.279967
67.545 15.362624
67.550 15.255533
67.555 15.310781
67.560 15.650908
67.565 15.667575
67.570 15.721975
67.575 15.916161
67.580 15.930786
67.585 16.132317
67.590 16.034952
67.595 16.188688
67.600 16.337313
67.605 16.527655
67.610 17.129221
67.615 17.077045
67.620 16.414755
67.625 15.99273
67.630 15.928733
67.635 15.850414
67.640 15.709699
67.645 15.403182
67.650 15.319379
67.655 16.236599
67.660 16.67449
67.665 16.505732
67.670 16.29554
67.675 16.055023
67.680 16.3911
67.685 16.656456
67.690 16.320639
67.695 15.829285
67.700 15.934081
67.705 16.278641
67.710 16.140728
67.715 15.66945
67.720 16.004004
67.725 15.969072
67.730 16.515783
67.735 16.732283
67.740 16.648609
67.745 16.651972
67.750 16.797226
67.755 16.779671
67.760 17.354511
67.765 17.190582
67.770 16.868549
67.775 17.142725
67.780 17.269855
67.785 17.098551
67.790 16.406569
67.795 15.678519
67.800 15.505023
67.805 15.407541
67.810 14.751231
67.815 14.522007
67.820 14.323375
67.825 14.386086
67.830 14.863609
67.835 15.492162
67.840 15.914596
67.845 16.486336
67.850 16.928982
67.855 17.180807
67.860 17.246641
67.865 17.162886
67.870 17.255318
67.875 16.946785
67.880 16.956585
67.885 16.857344
67.890 17.378828
67.895 17.53573
67.900 17.21422
67.905 16.661329
67.910 17.104649
67.915 17.344173
67.920 16.597948
67.925 16.050301
67.930 16.254648
67.935 16.785095
67.940 16.938848
67.945 16.872923
67.950 16.695631
67.955 16.705961
67.960 16.705381
67.965 16.161861
67.970 16.080584
67.975 15.997771
67.980 15.183061
67.985 15.099022
67.990 14.831173
67.995 14.686977
68.000 15.015021
68.005 14.690036
68.010 15.313105
68.015 15.596384
68.020 15.602628
68.025 16.513039
68.030 16.589218
68.035 16.50135
68.040 16.026346
68.045 15.576562
68.050 16.053497
68.055 16.551769
68.060 16.257751
68.065 15.957924
68.070 15.958081
68.075 16.628454
68.080 16.599276
68.085 16.155842
68.090 15.574334
68.095 15.594382
68.100 16.117155
68.105 16.562557
68.110 16.517801
68.115 16.761232
68.120 16.82074
68.125 16.588999
68.130 16.446918
68.135 16.713448
68.140 16.864288
68.145 16.783426
68.150 16.782177
68.155 16.768324
68.160 17.308016
68.165 17.516979
68.170 17.344456
68.175 17.31904
68.180 17.513594
68.185 17.412056
68.190 17.567039
68.195 17.749624
68.200 17.860426
68.205 17.508774
68.210 17.262548
68.215 17.372467
68.220 18.391678
68.225 18.882792
68.230 18.948849
68.235 18.927681
68.240 19.076181
68.245 19.420815
68.250 19.163816
68.255 18.530027
68.260 18.977503
68.265 19.066902
68.270 19.240778
68.275 19.202074
68.280 19.202559
68.285 19.203436
68.290 19.344976
68.295 19.389669
68.300 19.731287
68.305 19.842466
68.310 19.865332
68.315 20.286993
68.320 20.440447
68.325 20.48377
68.330 20.091093
68.335 19.67869
68.340 19.844961
68.345 20.173742
68.350 20.144135
68.355 20.203608
68.360 19.854128
68.365 19.594286
68.370 20.071562
68.375 20.455338
68.380 20.34849
68.385 20.325872
68.390 20.599976
68.395 21.038467
68.400 21.45505
68.405 21.812372
68.410 22.288612
68.415 23.18191
68.420 23.947287
68.425 24.307901
68.430 24.89698
68.435 24.972523
68.440 24.67992
68.445 24.525534
68.450 24.350893
68.455 24.479609
68.460 24.201027
68.465 24.344603
68.470 24.864727
68.475 25.828844
68.480 25.811871
68.485 26.525906
68.490 25.974379
68.495 26.023056
68.500 26.072979
68.505 25.694304
68.510 24.91534
68.515 24.555172
68.520 23.741741
68.525 24.774412
68.530 25.315563
68.535 25.330416
68.540 26.219004
68.545 26.805826
68.550 27.284477
68.555 28.036182
68.560 28.238844
68.565 28.642433
68.570 28.714117
68.575 28.542751
68.580 28.810701
68.585 28.640203
68.590 28.547768
68.595 28.447172
68.600 29.21327
68.605 29.867298
68.610 29.747057
68.615 30.036961
68.620 30.950575
68.625 31.810785
68.630 32.346169
68.635 32.759151
68.640 33.348572
68.645 34.490967
68.650 34.940544
68.655 35.507217
68.660 36.116997
68.665 34.953938
68.670 34.128269
68.675 33.763954
68.680 32.988045
68.685 33.040146
68.690 32.696995
68.695 32.742981
68.700 32.988239
68.705 33.724964
68.710 34.610397
68.715 34.747025
68.720 35.003353
68.725 35.39637
68.730 35.748299
68.735 36.334202
68.740 36.226234
68.745 36.932487
68.750 37.139416
68.755 37.129379
68.760 36.666302
68.765 37.131035
68.770 37.805756
68.775 37.368576
68.780 36.479393
68.785 36.10585
68.790 35.872231
68.795 35.481701
68.800 34.73069
68.805 34.339161
68.810 34.370682
68.815 34.403584
68.820 34.432289
68.825 34.700325
68.830 34.941952
68.835 34.464771
68.840 33.697086
68.845 33.151764
68.850 32.937752
68.855 33.610516
68.860 33.269882
68.865 33.253132
68.870 33.353344
68.875 33.442001
68.880 33.691723
68.885 33.84359
68.890 33.447392
68.895 33.140255
68.900 32.65163
68.905 32.802078
68.910 32.749268
68.915 32.429249
68.920 31.491131
68.925 31.128115
68.930 31.01112
68.935 30.724247
68.940 30.229731
68.945 30.207979
68.950 30.437496
68.955 30.608356
68.960 30.611851
68.965 30.99678
68.970 31.269646
68.975 30.744431
68.980 30.045221
68.985 29.506519
68.990 28.949085
68.995 28.161137
69.000 26.4515
69.005 25.987524
69.010 25.801188
69.015 24.849974
69.020 24.51553
69.025 24.752935
69.030 24.855728
69.035 25.845596
69.040 26.007843
69.045 26.922029
69.050 27.226349
69.055 27.253061
69.060 26.70488
69.065 26.413773
69.070 25.88751
69.075 24.86685
69.080 24.26487
69.085 24.315262
69.090 24.090773
69.095 23.898386
69.100 23.965788
69.105 23.741558
69.110 23.458952
69.115 23.318182
69.120 23.185137
69.125 22.899712
69.130 22.778919
69.135 22.194014
69.140 22.122732
69.145 22.352757
69.150 22.45146
69.155 22.295933
69.160 21.955032
69.165 21.366972
69.170 20.933172
69.175 19.965967
69.180 18.83337
69.185 18.295284
69.190 17.785763
69.195 17.913349
69.200 18.604794
69.205 19.087297
69.210 18.639156
69.215 18.537365
69.220 18.493784
69.225 18.185534
69.230 18.352533
69.235 18.327351
69.240 18.443674
69.245 19.026501
69.250 19.343822
69.255 19.602798
69.260 20.145636
69.265 19.338661
69.270 18.356524
69.275 18.111547
69.280 18.611357
69.285 18.517601
69.290 18.198439
69.295 18.077526
69.300 18.382614
69.305 18.584763
69.310 17.963232
69.315 17.001223
69.320 16.623037
69.325 16.563953
69.330 16.303322
69.335 16.076124
69.340 16.188215
69.345 16.245556
69.350 16.674673
69.355 17.132233
69.360 17.058088
69.365 17.398626
69.370 17.42658
69.375 17.71752
69.380 17.622551
69.385 16.94787
69.390 16.536226
69.395 16.469532
69.400 16.435392
69.405 15.958126
69.410 15.470127
69.415 15.308131
69.420 15.43196
69.425 15.121122
69.430 15.373733
69.435 15.665718
69.440 16.415613
69.445 16.893749
69.450 17.185642
69.455 16.997406
69.460 17.402977
69.465 17.161745
69.470 17.101461
69.475 17.095564
69.480 17.616657
69.485 18.037737
69.490 18.725863
69.495 18.59466
69.500 17.981197
69.505 17.562593
69.510 17.280081
69.515 16.742941
69.520 16.861063
69.525 16.499063
69.530 16.394342
69.535 16.719101
69.540 16.822609
69.545 16.862682
69.550 17.040562
69.555 16.761395
69.560 16.515301
69.565 16.596027
69.570 17.359859
69.575 17.152473
69.580 16.91452
69.585 16.892523
69.590 17.121983
69.595 17.705589
69.600 17.671398
69.605 17.269636
69.610 17.59647
69.615 17.835245
69.620 17.351509
69.625 17.198444
69.630 16.824976
69.635 16.470896
69.640 16.322306
69.645 16.188473
69.650 15.90451
69.655 16.360361
69.660 16.687313
69.665 16.726439
69.670 17.056686
69.675 16.798321
69.680 16.94471
69.685 16.761648
69.690 16.315748
69.695 16.122366
69.700 16.103708
69.705 15.677487
69.710 15.796298
69.715 16.250834
69.720 16.509865
69.725 16.661451
69.730 16.823313
69.735 17.261597
69.740 18.008957
69.745 17.918568
69.750 17.445173
69.755 17.500154
69.760 17.322573
69.765 17.024414
69.770 16.534311
69.775 15.888026
69.780 15.984732
69.785 16.292206
69.790 16.608276
69.795 16.284225
69.800 16.357058
69.805 16.307344
69.810 16.870443
69.815 17.153303
69.820 17.158825
69.825 17.668787
69.830 18.209845
69.835 18.3482
69.840 18.927126
69.845 19.059031
69.850 18.827488
69.855 18.720207
69.860 18.688587
69.865 19.38279
69.870 19.393415
69.875 18.727217
69.880 18.550346
69.885 18.120749
69.890 17.646326
69.895 16.773029
69.900 16.258284
69.905 16.697811
69.910 16.905804
69.915 16.648058
69.920 16.624802
69.925 16.400909
69.930 16.318022
69.935 15.599819
69.940 15.009972
69.945 15.010102
69.950 15.065306
69.955 15.748314
69.960 15.963335
69.965 15.841163
69.970 16.288231
69.975 16.318237
69.980 16.323023
69.985 16.01762
69.990 15.650433
69.995 15.790606
70.000 15.873133
70.005 15.632894
70.010 15.400633
70.015 15.680604
70.020 15.794559
70.025 15.781608
70.030 16.187304
70.035 17.084713
70.040 16.905592
70.045 16.907486
70.050 16.359892
70.055 15.983898
70.060 16.050068
70.065 15.612089
70.070 15.349974
70.075 15.860622
70.080 15.75982
70.085 16.224365
70.090 16.41761
70.095 16.34911
70.100 16.306938
70.105 16.081175
70.110 16.35952
70.115 16.798126
70.120 16.836733
70.125 16.742645
70.130 16.819569
70.135 16.709702
70.140 16.770206
70.145 16.784456
70.150 16.167133
70.155 16.138824
70.160 16.503597
70.165 16.348063
70.170 15.89223
70.175 15.819966
70.180 15.776825
70.185 16.137943
70.190 16.488558
70.195 15.838699
70.200 15.673154
70.205 15.598821
70.210 15.806812
70.215 16.110399
70.220 15.983957
70.225 15.780521
70.230 15.784222
70.235 15.859034
70.240 16.276878
70.245 16.023054
70.250 15.962607
70.255 15.858793
70.260 15.81946
70.265 16.395811
70.270 16.392004
70.275 16.367695
70.280 16.332758
70.285 16.600681
70.290 16.770451
70.295 16.836449
70.300 16.889874
70.305 17.130394
70.310 17.191984
70.315 16.84539
70.320 16.421164
70.325 16.312317
70.330 16.637606
70.335 16.211771
70.340 15.486605
70.345 15.026599
70.350 14.857251
70.355 15.279671
70.360 15.22838
70.365 15.571189
70.370 15.884073
70.375 16.358667
70.380 16.375504
70.385 16.720049
70.390 17.015785
70.395 17.078732
70.400 17.249281
70.405 17.227425
70.410 17.335653
70.415 17.366589
70.420 17.044682
70.425 16.402208
70.430 16.546171
70.435 16.193897
70.440 16.506996
70.445 16.826517
70.450 16.605476
70.455 16.87888
70.460 17.217615
70.465 16.8477
70.470 17.002718
70.475 16.861467
70.480 16.472843
70.485 16.438148
70.490 16.365511
70.495 16.190413
70.500 16.205065
70.505 16.333994
70.510 16.522751
70.515 17.169388
70.520 17.237886
70.525 17.177042
70.530 17.472876
70.535 16.991831
70.540 16.611589
70.545 16.164391
70.550 16.172197
70.555 16.382736
70.560 15.778959
70.565 15.861109
70.570 16.132259
70.575 16.190821
70.580 16.471746
70.585 16.562269
70.590 16.747997
70.595 16.651052
70.600 16.532721
70.605 17.008844
70.610 17.196455
70.615 17.147396
70.620 16.99761
70.625 16.890551
70.630 17.142763
70.635 16.900656
70.640 16.759403
70.645 16.527563
70.650 16.669538
70.655 16.675444
70.660 16.398396
70.665 16.746485
70.670 16.936474
70.675 16.904305
70.680 16.875994
70.685 16.541456
70.690 16.18988
70.695 16.513332
70.700 15.959574
70.705 15.62874
70.710 15.818835
70.715 15.917842
70.720 15.932731
70.725 16.471762
70.730 16.234699
70.735 16.279707
70.740 16.748512
70.745 16.440163
70.750 16.372278
70.755 16.363632
70.760 16.212044
70.765 16.031448
70.770 16.361797
70.775 16.2234
70.780 15.819354
70.785 15.508009
70.790 15.317667
70.795 15.252385
70.800 15.117889
70.805 15.157166
70.810 14.768086
70.815 15.148958
70.820 16.247759
70.825 16.584448
70.830 16.697989
70.835 17.042244
70.840 16.77935
70.845 16.89736
70.850 16.632727
70.855 16.34227
70.860 16.355024
70.865 16.391726
70.870 16.220993
70.875 15.895026
70.880 16.054762
70.885 16.405643
70.890 16.705696
70.895 16.85924
70.900 17.062517
70.905 17.294542
70.910 17.731548
70.915 17.313513
70.920 16.534866
70.925 16.152946
70.930 15.983032
70.935 15.793252
70.940 15.346798
70.945 15.280439
70.950 15.682253
70.955 15.92316
70.960 16.223761
70.965 16.609024
70.970 17.01329
70.975 16.701708
70.980 16.332098
70.985 16.293352
70.990 15.578618
70.995 14.820511
71.000 14.154521
71.005 13.636875
71.010 14.385816
71.015 14.69377
71.020 14.817656
71.025 15.597196
71.030 16.079777
71.035 16.290533
71.040 17.115013
71.045 16.870558
71.050 17.087345
71.055 17.21933
71.060 17.068947
71.065 17.117495
71.070 16.993498
71.075 16.516451
71.080 16.572104
71.085 16.397085
71.090 16.591234
71.095 16.417559
71.100 16.177025
71.105 16.233833
71.110 16.374304
71.115 16.546587
71.120 16.723797
71.125 16.873999
71.130 17.103767
71.135 17.197336
71.140 17.291164
71.145 17.282871
71.150 16.878387
71.155 16.323732
71.160 15.684695
71.165 15.822643
71.170 16.044279
71.175 16.109629
71.180 15.517054
71.185 15.749081
71.190 15.828959
71.195 15.910011
71.200 15.934609
71.205 15.802516
71.210 15.866886
71.215 15.934349
71.220 16.152687
71.225 15.972448
71.230 15.651178
71.235 15.309906
71.240 15.1939
71.245 15.369742
71.250 15.571156
71.255 15.283072
71.260 15.237684
71.265 16.070377
71.270 16.053566
71.275 15.789419
71.280 15.703849
71.285 15.851829
71.290 16.046585
71.295 16.290846
71.300 15.539912
71.305 15.665929
71.310 15.559573
71.315 15.14695
71.320 15.426807
71.325 14.948998
71.330 14.636879
71.335 15.055384
71.340 15.130922
71.345 15.293226
71.350 15.366136
71.355 15.36436
71.360 15.324004
71.365 15.410316
71.370 15.759233
71.375 15.830332
71.380 16.455717
71.385 16.674911
71.390 16.796373
71.395 17.37862
71.400 17.457319
71.405 17.282478
71.410 17.358809
71.415 16.954918
71.420 16.556889
71.425 16.33777
71.430 16.037174
71.435 15.79941
71.440 15.797108
71.445 15.761629
71.450 15.9246
71.455 16.38913
71.460 16.631516
71.465 16.190395
71.470 15.862993
71.475 16.015938
71.480 16.126211
71.485 16.400204
71.490 16.563465
71.495 16.924921
71.500 17.985828
71.505 17.896635
71.510 17.512339
71.515 17.293493
71.520 17.055904
71.525 16.714388
71.530 15.972259
71.535 14.959746
71.540 15.2829
71.545 15.94133
71.550 16.111544
71.555 16.169041
71.560 16.616409
71.565 17.079584
71.570 18.080414
71.575 18.152054
71.580 17.953705
71.585 18.228722
71.590 18.481243
71.595 18.252163
71.600 17.551535
71.605 17.1968
71.610 16.965446
71.615 16.253073
71.620 15.806221
71.625 15.713549
71.630 16.451759
71.635 16.686022
71.640 16.679642
71.645 16.818491
71.650 17.194956
71.655 17.209524
71.660 16.886274
71.665 16.193306
71.670 16.781122
71.675 16.891958
71.680 16.602806
71.685 16.535471
71.690 16.222353
71.695 16.366472
71.700 16.618549
71.705 16.780172
71.710 16.91585
71.715 16.968641
71.720 17.371475
71.725 17.385914
71.730 16.975613
71.735 16.69416
71.740 16.005693
71.745 15.673238
71.750 15.354192
71.755 15.20778
71.760 15.648223
71.765 15.829684
71.770 15.421815
71.775 15.641995
71.780 16.092039
71.785 16.412735
71.790 15.527059
71.795 15.079547
71.800 15.809579
71.805 15.644789
71.810 15.513459
71.815 15.55284
71.820 15.426015
71.825 15.545859
71.830 14.992937
71.835 14.661154
71.840 15.038373
71.845 15.20264
71.850 15.045421
71.855 15.265541
71.860 15.828866
71.865 16.123005
71.870 15.877653
71.875 15.511099
71.880 15.705036
71.885 16.025179
71.890 16.731897
71.895 16.752415
71.900 16.841921
71.905 17.296343
71.910 17.692898
71.915 17.619232
71.920 17.491177
71.925 17.255087
71.930 17.061947
71.935 17.241791
71.940 17.229305
71.945 16.257301
71.950 15.96401
71.955 15.778028
71.960 15.256452
71.965 15.01389
71.970 14.535851
71.975 15.215096
71.980 15.914792
71.985 15.682076
71.990 15.732846
71.995 15.893694
72.000 16.269373
72.005 16.348679
72.010 16.038366
72.015 15.573637
72.020 15.574379
72.025 15.570387
72.030 15.891839
72.035 15.869095
72.040 15.801197
72.045 15.676583
72.050 15.764465
72.055 16.167566
72.060 16.137741
72.065 15.897562
72.070 16.268747
72.075 15.909845
72.080 15.727674
72.085 15.924383
72.090 16.205721
72.095 16.373144
72.100 17.167023
72.105 17.470156
72.110 17.805517
72.115 17.90729
72.120 17.337067
72.125 16.952387
72.130 16.42687
72.135 15.984806
72.140 15.828914
72.145 15.755579
72.150 15.776088
72.155 15.907552
72.160 16.012455
72.165 16.165932
72.170 15.51195
72.175 15.350774
72.180 15.549881
72.185 15.867536
72.190 15.940568
72.195 16.605944
72.200 16.520277
72.205 16.552855
72.210 16.821548
72.215 16.441507
72.220 16.207102
72.225 16.116159
72.230 15.853187
72.235 16.042803
72.240 15.791224
72.245 15.956163
72.250 16.316792
72.255 16.360537
72.260 16.297178
72.265 16.442783
72.270 16.708107
72.275 16.657141
72.280 16.573767
72.285 16.396322
72.290 15.995088
72.295 15.872709
72.300 15.771483
72.305 15.834819
72.310 15.738217
72.315 15.586637
72.320 16.172586
72.325 16.503098
72.330 15.923931
72.335 16.193104
72.340 16.207819
72.345 16.653194
72.350 16.599606
72.355 16.167282
72.360 16.354227
72.365 15.838637
72.370 15.32145
72.375 14.79564
72.380 14.605185
72.385 14.813796
72.390 14.77735
72.395 15.112717
72.400 15.855068
72.405 16.534149
72.410 17.007339
72.415 16.916924
72.420 16.841898
72.425 16.70833
72.430 16.466681
72.435 16.107838
72.440 15.700529
72.445 15.664063
72.450 15.651616
72.455 15.570476
72.460 15.901164
72.465 16.128878
72.470 16.410381
72.475 16.732954
72.480 16.518309
72.485 16.838465
72.490 16.679607
72.495 15.875394
72.500 15.442192
72.505 15.189596
72.510 15.257049
72.515 15.055607
72.520 15.107001
72.525 15.368541
72.530 15.671903
72.535 15.804816
72.540 16.022919
72.545 16.651068
72.550 16.830929
72.555 16.056765
72.560 15.922696
72.565 15.985861
72.570 15.887403
72.575 15.785011
72.580 15.488797
72.585 16.290037
72.590 17.075943
72.595 17.228298
72.600 17.03528
72.605 17.004112
72.610 16.409163
72.615 15.76494
72.620 15.396154
72.625 15.312764
72.630 15.178244
72.635 14.984185
72.640 15.018698
72.645 15.183088
72.650 14.95674
72.655 14.758943
72.660 15.134397
72.665 14.895556
72.670 14.932605
72.675 15.207994
72.680 15.360593
72.685 15.071313
72.690 15.230414
72.695 15.777078
72.700 16.495461
72.705 16.456821
72.710 16.072315
72.715 16.648178
72.720 16.694328
72.725 16.247849
72.730 16.07358
72.735 16.054173
72.740 16.051685
72.745 16.004812
72.750 15.840482
72.755 15.657496
72.760 15.720976
72.765 16.045633
72.770 15.876371
72.775 16.227869
72.780 16.139143
72.785 16.021318
72.790 16.035942
72.795 15.984127
72.800 15.708331
72.805 15.220696
72.810 15.740884
72.815 15.924629
72.820 16.184671
72.825 16.366087
72.830 15.68998
72.835 15.726105
72.840 15.823484
72.845 15.100686
72.850 14.707889
72.855 14.868908
72.860 14.883526
72.865 15.213195
72.870 15.412627
72.875 15.311034
72.880 15.390529
72.885 15.462729
72.890 15.014428
72.895 15.019356
72.900 14.594371
72.905 14.614041
72.910 14.406276
72.915 14.248556
72.920 14.375752
72.925 14.35363
72.930 14.225929
72.935 14.255218
72.940 14.127437
72.945 14.511839
72.950 14.702424
72.955 14.776213
72.960 14.558932
72.965 14.726143
72.970 14.72795
72.975 14.698554
72.980 14.649298
72.985 14.435922
72.990 13.931295
72.995 14.3961
73.000 14.676359
