!@!!GADDS PLOTSO FILE: Chi integration type
!@!!Title/SampleName: map-90
!@!!Comment: ?
!@!!User: Bruker Instrument Administrator
!@!!Site: University of Illinois Chicago
!@!!Frame: map-90_01_000.gfrm
!@!!Wavelengths    1.54184   1.54056   1.54439
!@!!Frame angles: 2Theta: 63.000 Omega: 50.000 Phi: 0.000 Chi: 90.000
!@!!Integration range: 2Theta: 53.000 to 73.000  Gamma: -105.000 to -75.000
!@!!Integration method: bin normalized
!@!N
!@!SS
!@!M
!@!L 0.0 0.0 0.0 0.0
!@!XDegrees
!@!YCounts
53.000 7.339704
53.005 7.249748
53.010 6.779405
53.015 6.220292
53.020 6.046867
53.025 6.166749
53.030 6.133383
53.035 6.27899
53.040 6.780499
53.045 7.562963
53.050 8.122185
53.055 8.375229
53.060 8.376755
53.065 8.378996
53.070 8.525246
53.075 8.158246
53.080 7.541661
53.085 7.458544
53.090 7.450711
53.095 7.727758
53.100 7.517469
53.105 7.562088
53.110 8.004919
53.115 8.218069
53.120 8.183404
53.125 8.05766
53.130 7.785419
53.135 7.700529
53.140 7.613497
53.145 7.467827
53.150 7.490324
53.155 7.767667
53.160 8.195579
53.165 8.542997
53.170 8.780054
53.175 8.637535
53.180 8.636531
53.185 8.472068
53.190 8.327269
53.195 8.111502
53.200 8.125341
53.205 8.51316
53.210 8.420247
53.215 8.649743
53.220 9.271074
53.225 10.114768
53.230 10.248497
53.235 10.287568
53.240 10.208515
53.245 10.199026
53.250 10.303178
53.255 9.556494
53.260 8.830252
53.265 8.95645
53.270 9.086703
53.275 9.375263
53.280 9.462564
53.285 9.213678
53.290 9.294648
53.295 9.258899
53.300 8.786445
53.305 8.217839
53.310 8.035742
53.315 8.212645
53.320 7.945049
53.325 7.905418
53.330 8.123612
53.335 8.275858
53.340 8.443063
53.345 8.163134
53.350 7.724042
53.355 8.208694
53.360 8.269847
53.365 7.881375
53.370 7.815006
53.375 8.222262
53.380 8.642558
53.385 8.993326
53.390 8.795484
53.395 8.720112
53.400 9.379792
53.405 9.749914
53.410 9.269246
53.415 8.815721
53.420 8.833706
53.425 8.941549
53.430 8.911074
53.435 8.740933
53.440 8.449699
53.445 8.541362
53.450 8.700096
53.455 8.421564
53.460 8.421207
53.465 8.07564
53.470 7.796365
53.475 8.086731
53.480 8.277415
53.485 8.245722
53.490 8.125
53.495 8.26704
53.500 8.261128
53.505 8.071623
53.510 7.673516
53.515 7.360914
53.520 7.717358
53.525 7.676179
53.530 7.555635
53.535 7.730853
53.540 7.656625
53.545 7.867259
53.550 8.235663
53.555 8.280293
53.560 8.724788
53.565 8.888762
53.570 8.982171
53.575 9.095935
53.580 9.310791
53.585 8.903008
53.590 9.308654
53.595 9.150794
53.600 8.999219
53.605 8.955169
53.610 8.440407
53.615 8.185725
53.620 8.197508
53.625 8.005878
53.630 8.184592
53.635 8.273137
53.640 8.253649
53.645 8.413717
53.650 8.567177
53.655 8.235639
53.660 8.487216
53.665 8.669342
53.670 9.04974
53.675 9.08702
53.680 9.102104
53.685 9.439999
53.690 10.140381
53.695 9.664693
53.700 9.400803
53.705 9.270627
53.710 9.685567
53.715 9.568778
53.720 9.72455
53.725 9.682744
53.730 9.847499
53.735 9.658669
53.740 9.662501
53.745 9.374666
53.750 9.324082
53.755 8.815505
53.760 8.644551
53.765 9.531437
53.770 9.621325
53.775 9.65448
53.780 10.001025
53.785 10.32862
53.790 10.404642
53.795 9.885803
53.800 9.420923
53.805 9.279425
53.810 9.252727
53.815 9.219623
53.820 8.987394
53.825 8.499125
53.830 8.37211
53.835 8.699447
53.840 8.803967
53.845 8.380196
53.850 8.311048
53.855 8.515345
53.860 9.026325
53.865 9.007454
53.870 8.647644
53.875 8.797014
53.880 8.965212
53.885 8.923772
53.890 8.610017
53.895 8.572058
53.900 8.662905
53.905 8.533323
53.910 8.107052
53.915 8.184381
53.920 8.115281
53.925 8.401891
53.930 8.715179
53.935 8.310044
53.940 8.53767
53.945 8.843163
53.950 8.777344
53.955 8.914532
53.960 8.77327
53.965 8.968902
53.970 9.32639
53.975 9.683402
53.980 9.779359
53.985 9.700056
53.990 9.640281
53.995 9.346044
54.000 9.026168
54.005 9.314966
54.010 9.418429
54.015 9.827313
54.020 10.077725
54.025 9.834354
54.030 10.079906
54.035 10.119275
54.040 9.843781
54.045 9.529655
54.050 9.000271
54.055 8.714899
54.060 8.650407
54.065 8.708119
54.070 8.809688
54.075 8.480794
54.080 8.896824
54.085 9.395087
54.090 9.474016
54.095 9.426136
54.100 9.335324
54.105 9.399408
54.110 9.631904
54.115 9.336581
54.120 9.346677
54.125 9.745986
54.130 9.912183
54.135 10.028552
54.140 10.315596
54.145 10.439478
54.150 10.315924
54.155 10.398109
54.160 10.513093
54.165 10.566076
54.170 10.358257
54.175 10.352333
54.180 10.026092
54.185 9.812521
54.190 9.657649
54.195 9.75965
54.200 9.949243
54.205 9.926293
54.210 10.113038
54.215 10.343237
54.220 10.18344
54.225 10.299536
54.230 10.449142
54.235 10.463503
54.240 10.082803
54.245 9.963943
54.250 10.315568
54.255 10.526729
54.260 10.218913
54.265 9.818157
54.270 10.040487
54.275 10.400481
54.280 10.048774
54.285 9.481827
54.290 9.35899
54.295 9.31358
54.300 8.911713
54.305 8.280299
54.310 7.852389
54.315 8.30226
54.320 8.54873
54.325 8.323794
54.330 8.197888
54.335 8.462686
54.340 8.70917
54.345 8.827808
54.350 8.61651
54.355 8.719827
54.360 9.045835
54.365 9.393363
54.370 9.787001
54.375 10.008336
54.380 9.894032
54.385 10.051081
54.390 10.293402
54.395 10.423529
54.400 10.327326
54.405 10.092355
54.410 9.989808
54.415 10.175192
54.420 9.788811
54.425 9.42035
54.430 9.202982
54.435 9.222651
54.440 9.680331
54.445 9.808622
54.450 10.047063
54.455 10.325879
54.460 10.438658
54.465 10.402388
54.470 10.54375
54.475 10.354302
54.480 10.169984
54.485 9.718313
54.490 9.824408
54.495 10.035858
54.500 10.108639
54.505 9.667234
54.510 9.84059
54.515 10.128556
54.520 10.106437
54.525 9.544139
54.530 9.224919
54.535 9.149485
54.540 8.748973
54.545 8.167913
54.550 8.08061
54.555 8.310447
54.560 8.730257
54.565 8.848473
54.570 8.730375
54.575 8.925819
54.580 9.093848
54.585 8.770753
54.590 8.569236
54.595 8.662507
54.600 8.835755
54.605 9.152618
54.610 9.735834
54.615 9.757343
54.620 9.963936
54.625 10.045074
54.630 9.87946
54.635 10.056516
54.640 9.802298
54.645 9.651541
54.650 10.168407
54.655 10.287884
54.660 10.195851
54.665 10.431256
54.670 10.446144
54.675 10.662177
54.680 10.73042
54.685 10.735619
54.690 10.986365
54.695 10.798844
54.700 10.244754
54.705 9.804902
54.710 9.31904
54.715 9.152903
54.720 8.564478
54.725 8.305705
54.730 8.399292
54.735 8.558969
54.740 9.00734
54.745 9.534522
54.750 9.547345
54.755 10.092401
54.760 10.327965
54.765 10.590276
54.770 11.111293
54.775 11.006042
54.780 10.894862
54.785 10.72146
54.790 10.652518
54.795 10.715652
54.800 10.289253
54.805 10.170814
54.810 10.277
54.815 10.212337
54.820 10.27469
54.825 10.169641
54.830 10.26071
54.835 10.868395
54.840 10.606156
54.845 10.736222
54.850 10.654313
54.855 10.889235
54.860 10.644588
54.865 10.314778
54.870 9.648905
54.875 9.687786
54.880 9.404918
54.885 9.228358
54.890 9.19805
54.895 9.84088
54.900 10.118557
54.905 10.26078
54.910 10.156031
54.915 9.936794
54.920 10.053292
54.925 9.93827
54.930 9.610664
54.935 9.387425
54.940 9.125197
54.945 9.111517
54.950 9.659388
54.955 9.814002
54.960 9.801505
54.965 9.680045
54.970 9.482098
54.975 9.27272
54.980 9.160985
54.985 8.964353
54.990 8.857762
54.995 8.822014
55.000 8.886978
55.005 9.377113
55.010 9.856298
55.015 9.749207
55.020 9.78961
55.025 9.964765
55.030 9.961324
55.035 10.032074
55.040 9.872932
55.045 9.982187
55.050 10.254782
55.055 9.773315
55.060 9.822783
55.065 9.914577
55.070 10.034166
55.075 10.325531
55.080 10.763388
55.085 10.809508
55.090 10.735491
55.095 10.529493
55.100 10.53335
55.105 10.646997
55.110 10.372087
55.115 9.991926
55.120 10.012322
55.125 10.758821
55.130 10.873673
55.135 10.862556
55.140 10.670719
55.145 10.55357
55.150 10.369257
55.155 9.840908
55.160 9.538581
55.165 9.267052
55.170 9.07246
55.175 8.844501
55.180 9.134349
55.185 9.48189
55.190 10.284521
55.195 10.100054
55.200 10.37852
55.205 10.582615
55.210 10.538895
55.215 10.37335
55.220 10.168747
55.225 10.145767
55.230 10.401571
55.235 10.568609
55.240 10.306673
55.245 10.192797
55.250 10.238579
55.255 10.173968
55.260 9.941175
55.265 9.573155
55.270 9.39695
55.275 9.633725
55.280 9.670882
55.285 9.548873
55.290 9.231256
55.295 9.18334
55.300 9.702955
55.305 10.068991
55.310 10.083216
55.315 10.355547
55.320 9.98369
55.325 10.62842
55.330 10.387656
55.335 9.970148
55.340 10.293275
55.345 10.677108
55.350 10.931723
55.355 11.139743
55.360 10.809216
55.365 11.058366
55.370 10.784849
55.375 10.109859
55.380 9.47672
55.385 9.361326
55.390 9.469648
55.395 9.280012
55.400 9.671126
55.405 9.985816
55.410 10.659968
55.415 10.803162
55.420 10.776607
55.425 10.902719
55.430 11.00605
55.435 10.391032
55.440 9.994958
55.445 9.755738
55.450 9.932038
55.455 10.012892
55.460 10.406707
55.465 10.370726
55.470 10.635114
55.475 10.80581
55.480 10.702336
55.485 11.087147
55.490 11.078744
55.495 11.030198
55.500 11.080937
55.505 11.525946
55.510 11.873199
55.515 11.64599
55.520 11.796162
55.525 11.897269
55.530 11.930395
55.535 11.929324
55.540 11.524725
55.545 11.552274
55.550 11.511248
55.555 10.816475
55.560 10.498717
55.565 10.623786
55.570 10.629889
55.575 10.357744
55.580 10.209754
55.585 9.990509
55.590 10.416237
55.595 10.553189
55.600 10.298473
55.605 10.262293
55.610 10.130447
55.615 10.15324
55.620 10.443232
55.625 10.152913
55.630 10.028994
55.635 9.991229
55.640 10.022483
55.645 10.023281
55.650 10.628819
55.655 10.728731
55.660 10.50523
55.665 10.340457
55.670 10.743574
55.675 10.85649
55.680 11.027254
55.685 10.466862
55.690 10.468841
55.695 10.830265
55.700 10.544298
55.705 10.09973
55.710 9.670851
55.715 9.440297
55.720 9.326991
55.725 9.241302
55.730 9.026063
55.735 9.178686
55.740 9.433661
55.745 10.091226
55.750 10.311435
55.755 10.11315
55.760 10.401676
55.765 10.999013
55.770 12.009331
55.775 11.93624
55.780 11.990616
55.785 12.347026
55.790 12.915514
55.795 12.965587
55.800 12.607667
55.805 11.863756
55.810 11.666967
55.815 11.734967
55.820 11.311687
55.825 10.93089
55.830 10.888591
55.835 11.210989
55.840 11.666146
55.845 11.621381
55.850 12.062267
55.855 12.768975
55.860 13.126346
55.865 12.899702
55.870 12.60247
55.875 12.227983
55.880 12.155471
55.885 11.915669
55.890 11.573439
55.895 11.164692
55.900 10.814
55.905 11.141279
55.910 11.592093
55.915 11.729472
55.920 11.619828
55.925 11.863259
55.930 12.34987
55.935 12.80332
55.940 12.641988
55.945 12.491726
55.950 11.981743
55.955 11.335134
55.960 10.983029
55.965 10.709399
55.970 10.630712
55.975 10.525351
55.980 10.452319
55.985 10.894864
55.990 11.268836
55.995 10.766154
56.000 10.846541
56.005 10.763038
56.010 10.804151
56.015 10.914707
56.020 10.65777
56.025 10.348647
56.030 10.69541
56.035 10.529443
56.040 10.154296
56.045 9.455822
56.050 9.009153
56.055 9.363972
56.060 9.163649
56.065 9.068177
56.070 8.964536
56.075 9.673278
56.080 10.261238
56.085 10.391759
56.090 10.472803
56.095 11.295903
56.100 11.720771
56.105 11.853765
56.110 11.627043
56.115 11.699836
56.120 11.438463
56.125 11.429743
56.130 11.046564
56.135 10.930634
56.140 10.935863
56.145 10.925032
56.150 10.531959
56.155 10.438485
56.160 10.556035
56.165 10.865732
56.170 10.932856
56.175 10.780506
56.180 11.13905
56.185 11.55314
56.190 11.365442
56.195 10.626043
56.200 10.251199
56.205 10.363111
56.210 10.550225
56.215 11.234201
56.220 11.042637
56.225 11.47585
56.230 12.262349
56.235 12.593252
56.240 12.199982
56.245 11.989714
56.250 11.516172
56.255 12.07629
56.260 12.25318
56.265 12.562783
56.270 12.063549
56.275 12.506572
56.280 12.403009
56.285 11.900978
56.290 11.878314
56.295 11.559751
56.300 10.989055
56.305 11.459073
56.310 11.359524
56.315 11.496812
56.320 11.809395
56.325 12.068819
56.330 12.254982
56.335 12.371017
56.340 12.4755
56.345 12.542202
56.350 12.586726
56.355 12.675098
56.360 12.647476
56.365 12.431038
56.370 12.219883
56.375 11.880725
56.380 11.803589
56.385 11.95961
56.390 11.771948
56.395 11.408425
56.400 11.236655
56.405 11.390272
56.410 11.550646
56.415 11.560236
56.420 11.076577
56.425 10.99414
56.430 11.287513
56.435 11.295162
56.440 11.046027
56.445 10.716535
56.450 10.621424
56.455 10.943936
56.460 10.533855
56.465 10.143043
56.470 10.343473
56.475 10.733953
56.480 10.892491
56.485 10.858558
56.490 11.46645
56.495 11.72307
56.500 11.970999
56.505 11.839565
56.510 11.549448
56.515 11.047933
56.520 11.035649
56.525 10.586561
56.530 10.664622
56.535 10.903902
56.540 10.844838
56.545 10.702431
56.550 11.421289
56.555 11.653377
56.560 11.819375
56.565 11.53941
56.570 11.592652
56.575 11.857845
56.580 11.885206
56.585 11.93879
56.590 11.733112
56.595 11.69448
56.600 11.872098
56.605 11.350122
56.610 11.222827
56.615 11.101147
56.620 10.876409
56.625 10.554031
56.630 10.779064
56.635 10.821083
56.640 10.792023
56.645 10.855475
56.650 10.851743
56.655 10.776443
56.660 10.658282
56.665 10.139832
56.670 10.041155
56.675 10.441208
56.680 10.907195
56.685 10.970679
56.690 11.26084
56.695 11.638678
56.700 11.763823
56.705 11.762656
56.710 11.441355
56.715 10.940248
56.720 10.752222
56.725 10.477493
56.730 10.645801
56.735 10.774992
56.740 10.610854
56.745 11.107158
56.750 12.273324
56.755 12.722946
56.760 13.32698
56.765 12.949877
56.770 13.398448
56.775 13.851257
56.780 13.797649
56.785 13.274003
56.790 12.960872
56.795 12.802388
56.800 13.119697
56.805 12.86656
56.810 12.842306
56.815 12.240734
56.820 11.962393
56.825 12.181213
56.830 12.572021
56.835 13.26972
56.840 13.36688
56.845 13.173436
56.850 13.050473
56.855 12.843704
56.860 12.457607
56.865 12.055941
56.870 11.830263
56.875 11.658856
56.880 11.710175
56.885 11.544557
56.890 12.004727
56.895 12.734361
56.900 12.573241
56.905 12.498987
56.910 12.859142
56.915 12.982897
56.920 13.055903
56.925 12.875704
56.930 12.467606
56.935 12.241215
56.940 11.975647
56.945 11.840296
56.950 12.237638
56.955 12.374202
56.960 12.170285
56.965 11.881064
56.970 11.920322
56.975 12.354345
56.980 12.525014
56.985 12.864067
56.990 13.144309
56.995 13.265575
57.000 13.337529
57.005 13.652964
57.010 13.952765
57.015 13.887154
57.020 13.713885
57.025 13.811618
57.030 14.120081
57.035 14.148771
57.040 13.715391
57.045 13.102493
57.050 13.174819
57.055 12.995865
57.060 12.661142
57.065 12.45244
57.070 12.419512
57.075 12.818038
57.080 13.04588
57.085 12.971511
57.090 13.087863
57.095 13.07937
57.100 12.623527
57.105 12.612934
57.110 12.021819
57.115 12.052582
57.120 12.120005
57.125 12.269622
57.130 12.732805
57.135 13.377616
57.140 13.705631
57.145 13.656611
57.150 13.403458
57.155 13.033154
57.160 12.676229
57.165 12.072613
57.170 11.989189
57.175 12.094169
57.180 11.861259
57.185 11.92383
57.190 12.195884
57.195 12.358761
57.200 12.634035
57.205 12.360089
57.210 11.871709
57.215 11.731741
57.220 11.888517
57.225 11.633602
57.230 11.655941
57.235 11.512835
57.240 11.42487
57.245 11.930035
57.250 12.12734
57.255 12.125662
57.260 12.487095
57.265 13.085227
57.270 12.768967
57.275 12.449916
57.280 12.534022
57.285 12.836321
57.290 12.435708
57.295 12.222898
57.300 12.358814
57.305 12.823553
57.310 13.236586
57.315 13.317838
57.320 13.608557
57.325 14.455194
57.330 14.552789
57.335 14.190487
57.340 14.044055
57.345 14.020085
57.350 13.685369
57.355 13.350726
57.360 12.880583
57.365 12.691169
57.370 12.983819
57.375 13.107124
57.380 13.170391
57.385 13.083934
57.390 12.986841
57.395 13.029972
57.400 13.025583
57.405 12.642454
57.410 12.255241
57.415 11.883643
57.420 12.12929
57.425 12.671282
57.430 12.731512
57.435 12.712872
57.440 13.10043
57.445 13.610972
57.450 14.079136
57.455 14.862048
57.460 14.301073
57.465 14.17372
57.470 13.965838
57.475 13.87184
57.480 14.121937
57.485 14.00946
57.490 13.230547
57.495 13.251362
57.500 13.19213
57.505 13.094744
57.510 12.999824
57.515 12.340047
57.520 12.096155
57.525 12.161031
57.530 12.563353
57.535 12.688887
57.540 12.611777
57.545 12.976927
57.550 13.177151
57.555 13.365533
57.560 13.277805
57.565 13.104463
57.570 13.257865
57.575 13.358931
57.580 13.016339
57.585 13.385068
57.590 13.597613
57.595 14.217052
57.600 14.318699
57.605 14.298329
57.610 14.32465
57.615 14.235666
57.620 13.735546
57.625 13.745628
57.630 13.517342
57.635 13.477706
57.640 13.406023
57.645 13.659142
57.650 13.95443
57.655 13.87042
57.660 13.488303
57.665 13.532578
57.670 13.430108
57.675 13.663624
57.680 13.587834
57.685 13.502672
57.690 13.876149
57.695 13.714249
57.700 13.663814
57.705 13.491961
57.710 13.354214
57.715 13.214506
57.720 13.487421
57.725 13.629426
57.730 13.862
57.735 13.796304
57.740 14.214294
57.745 14.511168
57.750 14.67574
57.755 14.591237
57.760 14.291189
57.765 13.987903
57.770 13.902334
57.775 13.909023
57.780 13.665302
57.785 13.502275
57.790 13.377128
57.795 13.300045
57.800 13.417941
57.805 13.39339
57.810 13.039411
57.815 12.884976
57.820 12.947142
57.825 12.614574
57.830 12.566835
57.835 12.874788
57.840 13.434503
57.845 13.872126
57.850 14.29418
57.855 14.343445
57.860 14.639906
57.865 15.003439
57.870 15.151891
57.875 15.501665
57.880 15.171182
57.885 15.332883
57.890 15.389263
57.895 15.331371
57.900 15.491301
57.905 14.540141
57.910 13.734499
57.915 14.165329
57.920 13.927299
57.925 14.222194
57.930 14.425263
57.935 14.447878
57.940 14.889961
57.945 14.566357
57.950 14.1366
57.955 13.763162
57.960 13.534233
57.965 13.409833
57.970 13.58361
57.975 13.667318
57.980 14.728886
57.985 15.167761
57.990 15.328119
57.995 15.265696
58.000 14.961895
58.005 14.730047
58.010 14.519679
58.015 14.108349
58.020 14.124534
58.025 14.400559
58.030 14.805835
58.035 14.985888
58.040 14.573887
58.045 15.031009
58.050 14.709464
58.055 14.37046
58.060 13.960238
58.065 13.933086
58.070 14.394292
58.075 14.682927
58.080 14.377575
58.085 14.768848
58.090 14.815463
58.095 15.181437
58.100 14.816258
58.105 14.390492
58.110 14.331146
58.115 14.409573
58.120 14.213522
58.125 14.27493
58.130 14.19397
58.135 15.247276
58.140 15.775121
58.145 16.073895
58.150 16.228527
58.155 16.60836
58.160 16.567423
58.165 16.579006
58.170 16.450142
58.175 16.284567
58.180 16.167332
58.185 16.422544
58.190 16.888977
58.195 16.827583
58.200 16.643597
58.205 16.038992
58.210 15.976981
58.215 16.085314
58.220 16.117142
58.225 16.00407
58.230 16.035906
58.235 15.842776
58.240 15.932829
58.245 15.802042
58.250 15.353985
58.255 14.730405
58.260 13.962822
58.265 14.563074
58.270 15.271364
58.275 15.33689
58.280 15.633958
58.285 16.189692
58.290 16.508566
58.295 17.095049
58.300 16.877583
58.305 16.579914
58.310 16.263435
58.315 16.016756
58.320 15.676948
58.325 15.344065
58.330 14.947076
58.335 15.028952
58.340 15.441834
58.345 15.72758
58.350 16.131104
58.355 16.409798
58.360 17.075899
58.365 17.996197
58.370 17.766762
58.375 18.015545
58.380 18.177088
58.385 18.395533
58.390 19.298561
58.395 19.392843
58.400 18.629055
58.405 18.561522
58.410 19.343132
58.415 19.719702
58.420 19.936846
58.425 19.523796
58.430 20.130892
58.435 20.958019
58.440 21.507263
58.445 21.5966
58.450 22.181007
58.455 22.257652
58.460 23.193739
58.465 23.754837
58.470 24.545811
58.475 24.571556
58.480 24.42948
58.485 24.839493
58.490 25.435198
58.495 25.201303
58.500 25.321453
58.505 25.321589
58.510 25.467144
58.515 25.183699
58.520 25.24721
58.525 25.854849
58.530 26.10338
58.535 26.863432
58.540 27.380129
58.545 27.721601
58.550 28.716448
58.555 29.130642
58.560 28.802269
58.565 29.012749
58.570 28.377773
58.575 28.297462
58.580 29.182789
58.585 29.134775
58.590 29.840527
58.595 31.125162
58.600 31.734346
58.605 32.310501
58.610 32.748257
58.615 32.893005
58.620 33.616585
58.625 34.309353
58.630 34.842171
58.635 34.329792
58.640 34.845757
58.645 35.091183
58.650 35.315266
58.655 35.719463
58.660 34.95723
58.665 34.651001
58.670 35.382885
58.675 35.190025
58.680 34.72406
58.685 34.501701
58.690 34.539429
58.695 34.835632
58.700 34.844997
58.705 34.650379
58.710 35.038807
58.715 35.33062
58.720 35.577549
58.725 35.261456
58.730 35.063244
58.735 34.875557
58.740 34.456131
58.745 33.545666
58.750 33.271023
58.755 33.09137
58.760 33.16885
58.765 32.406498
58.770 31.970415
58.775 31.923477
58.780 31.525858
58.785 31.012926
58.790 30.16729
58.795 29.890568
58.800 29.241173
58.805 28.976261
58.810 28.547295
58.815 28.346155
58.820 27.46385
58.825 26.96085
58.830 26.08147
58.835 26.354603
58.840 26.394848
58.845 26.421028
58.850 26.019098
58.855 26.3333
58.860 26.898335
58.865 27.017693
58.870 26.442122
58.875 26.130169
58.880 26.033438
58.885 26.196917
58.890 25.984007
58.895 25.810936
58.900 25.899508
58.905 25.322355
58.910 25.053299
58.915 24.733948
58.920 24.251503
58.925 23.437656
58.930 22.7036
58.935 21.971518
58.940 22.234091
58.945 21.735981
58.950 20.86043
58.955 20.340321
58.960 20.398586
58.965 20.367893
58.970 20.214149
58.975 19.984589
58.980 20.595427
58.985 20.822355
58.990 20.795868
58.995 20.048473
59.000 19.239063
59.005 18.892862
59.010 17.9734
59.015 17.152962
59.020 16.358522
59.025 16.799353
59.030 16.873135
59.035 16.591965
59.040 16.680893
59.045 16.913418
59.050 16.519018
59.055 16.422232
59.060 16.175562
59.065 16.2297
59.070 16.515926
59.075 15.957696
59.080 15.601445
59.085 15.817944
59.090 16.130932
59.095 16.205128
59.100 16.67894
59.105 16.468178
59.110 16.362665
59.115 16.450346
59.120 16.19894
59.125 16.369732
59.130 16.147736
59.135 16.066628
59.140 16.536915
59.145 16.331877
59.150 16.073664
59.155 15.781921
59.160 15.029571
59.165 14.989364
59.170 14.560319
59.175 14.545138
59.180 14.54172
59.185 14.54956
59.190 14.807426
59.195 15.275537
59.200 15.730172
59.205 16.200006
59.210 15.993815
59.215 15.850246
59.220 16.16946
59.225 15.701104
59.230 15.636388
59.235 15.208405
59.240 14.567013
59.245 14.570025
59.250 14.993443
59.255 14.652495
59.260 14.722305
59.265 14.557157
59.270 14.439107
59.275 14.872023
59.280 14.681871
59.285 14.194912
59.290 14.7287
59.295 15.141541
59.300 15.477969
59.305 15.685215
59.310 16.027695
59.315 16.38265
59.320 16.362274
59.325 15.981655
59.330 16.120657
59.335 15.905591
59.340 15.464176
59.345 14.501831
59.350 14.107931
59.355 14.630046
59.360 15.048326
59.365 14.810727
59.370 14.647828
59.375 14.226755
59.380 14.153539
59.385 13.834893
59.390 14.369174
59.395 13.791469
59.400 14.128318
59.405 14.402688
59.410 14.86447
59.415 15.340317
59.420 15.555057
59.425 14.892915
59.430 14.904434
59.435 14.265305
59.440 14.051257
59.445 14.400978
59.450 15.019171
59.455 14.628585
59.460 14.911119
59.465 15.057853
59.470 15.317855
59.475 15.651526
59.480 15.321244
59.485 14.493143
59.490 14.860363
59.495 14.882718
59.500 15.113947
59.505 14.500763
59.510 14.043738
59.515 14.368327
59.520 15.482347
59.525 15.368525
59.530 15.163016
59.535 15.360718
59.540 15.733093
59.545 15.980906
59.550 15.621477
59.555 14.777201
59.560 14.228174
59.565 13.686307
59.570 13.423034
59.575 13.216087
59.580 13.19592
59.585 13.808953
59.590 14.329332
59.595 15.202322
59.600 15.077939
59.605 14.933741
59.610 15.267983
59.615 15.16622
59.620 15.126369
59.625 14.700169
59.630 14.66623
59.635 14.968047
59.640 14.961484
59.645 14.733679
59.650 14.37824
59.655 13.833197
59.660 13.966384
59.665 13.918992
59.670 13.997084
59.675 14.092497
59.680 14.112419
59.685 14.405114
59.690 15.100375
59.695 15.04984
59.700 15.07775
59.705 15.638297
59.710 15.641737
59.715 15.519448
59.720 15.198503
59.725 14.791433
59.730 14.549681
59.735 14.965343
59.740 14.885406
59.745 15.158826
59.750 15.427638
59.755 15.202713
59.760 15.053205
59.765 15.34118
59.770 14.111445
59.775 13.728769
59.780 13.468319
59.785 13.377673
59.790 13.417403
59.795 13.507145
59.800 13.45311
59.805 13.717718
59.810 13.277783
59.815 13.073211
59.820 13.464309
59.825 14.019393
59.830 13.847082
59.835 13.518476
59.840 13.860512
59.845 14.686435
59.850 14.861134
59.855 14.237528
59.860 14.076449
59.865 14.46399
59.870 14.789322
59.875 15.314765
59.880 15.305232
59.885 15.469602
59.890 15.893813
59.895 15.776533
59.900 15.465281
59.905 15.352791
59.910 14.731883
59.915 14.399568
59.920 14.484262
59.925 14.523891
59.930 14.642042
59.935 14.518208
59.940 14.415574
59.945 14.448235
59.950 14.455181
59.955 14.36521
59.960 14.283038
59.965 14.604766
59.970 14.787068
59.975 14.684215
59.980 14.839422
59.985 14.795854
59.990 14.54499
59.995 14.156769
60.000 13.476156
60.005 13.389252
60.010 14.122032
60.015 14.119743
60.020 14.129456
60.025 14.357272
60.030 14.605432
60.035 14.835311
60.040 14.862642
60.045 14.735684
60.050 14.539164
60.055 14.398724
60.060 14.491899
60.065 14.480518
60.070 14.701572
60.075 14.669317
60.080 14.306339
60.085 14.957664
60.090 15.573959
60.095 15.585041
60.100 15.420883
60.105 15.255812
60.110 15.336664
60.115 15.151198
60.120 14.620584
60.125 13.6589
60.130 13.477748
60.135 13.820896
60.140 14.094411
60.145 13.696829
60.150 14.003331
60.155 14.384099
60.160 14.72289
60.165 15.143621
60.170 15.10377
60.175 15.264979
60.180 15.190454
60.185 14.796166
60.190 14.336348
60.195 14.53409
60.200 14.132195
60.205 13.933137
60.210 13.457813
60.215 13.952147
60.220 14.055301
60.225 14.115821
60.230 13.815109
60.235 13.343573
60.240 13.267044
60.245 13.3392
60.250 13.263155
60.255 13.233929
60.260 13.562437
60.265 14.329659
60.270 14.654648
60.275 14.695869
60.280 15.106464
60.285 14.9881
60.290 15.258996
60.295 15.276263
60.300 15.048179
60.305 15.225458
60.310 15.385422
60.315 15.233856
60.320 15.642306
60.325 15.922501
60.330 15.839042
60.335 15.978482
60.340 16.251028
60.345 16.502762
60.350 16.415768
60.355 16.064768
60.360 15.365127
60.365 14.771077
60.370 15.005312
60.375 14.655006
60.380 14.217692
60.385 14.421805
60.390 14.951153
60.395 15.59934
60.400 15.804003
60.405 15.361529
60.410 14.860571
60.415 14.817341
60.420 14.145219
60.425 13.577374
60.430 13.647546
60.435 13.593699
60.440 13.640584
60.445 14.139474
60.450 14.482908
60.455 14.695668
60.460 14.719843
60.465 14.319798
60.470 14.448758
60.475 14.701378
60.480 14.873588
60.485 14.873929
60.490 14.898601
60.495 14.820532
60.500 15.016757
60.505 15.116996
60.510 15.398724
60.515 15.499065
60.520 15.53464
60.525 15.739988
60.530 15.970137
60.535 15.657527
60.540 15.58967
60.545 14.88706
60.550 14.687461
60.555 14.899969
60.560 14.446491
60.565 14.302254
60.570 14.363945
60.575 14.532475
60.580 14.694422
60.585 14.412362
60.590 14.451999
60.595 14.53932
60.600 14.498578
60.605 14.639272
60.610 14.35522
60.615 14.273314
60.620 14.433531
60.625 14.201768
60.630 14.433708
60.635 14.485694
60.640 14.376131
60.645 14.789389
60.650 15.059613
60.655 15.112288
60.660 15.137608
60.665 15.001673
60.670 15.717525
60.675 15.526125
60.680 15.759501
60.685 15.453765
60.690 15.273428
60.695 15.342575
60.700 14.874578
60.705 14.284742
60.710 14.124352
60.715 14.037787
60.720 14.595589
60.725 14.797469
60.730 14.90511
60.735 15.460718
60.740 15.380762
60.745 15.11548
60.750 14.59858
60.755 14.566486
60.760 14.599068
60.765 14.568982
60.770 14.52679
60.775 14.376462
60.780 14.666289
60.785 15.197208
60.790 15.105129
60.795 15.026871
60.800 15.398799
60.805 15.559519
60.810 16.173862
60.815 16.358589
60.820 16.111061
60.825 16.294313
60.830 16.716391
60.835 16.830891
60.840 16.607903
60.845 15.947994
60.850 15.668941
60.855 15.644017
60.860 15.275786
60.865 14.903266
60.870 14.952544
60.875 15.638627
60.880 15.964526
60.885 16.114185
60.890 15.738874
60.895 15.546712
60.900 15.379089
60.905 14.816344
60.910 14.395682
60.915 14.885236
60.920 15.49348
60.925 16.090698
60.930 16.527115
60.935 16.649612
60.940 16.808641
60.945 16.75165
60.950 15.968679
60.955 14.8124
60.960 14.383194
60.965 13.853244
60.970 13.533828
60.975 13.468927
60.980 12.903606
60.985 13.008604
60.990 13.653742
60.995 13.884722
61.000 14.089742
61.005 13.996531
61.010 14.213634
61.015 15.166079
61.020 15.206719
61.025 15.265122
61.030 15.643709
61.035 15.655604
61.040 15.637226
61.045 15.691446
61.050 15.50587
61.055 15.987976
61.060 15.971972
61.065 15.757344
61.070 16.472349
61.075 16.392879
61.080 16.31566
61.085 16.234165
61.090 15.440379
61.095 15.220244
61.100 15.02823
61.105 14.7969
61.110 15.124898
61.115 14.657986
61.120 14.557554
61.125 15.036808
61.130 15.300701
61.135 15.618299
61.140 15.347795
61.145 15.224701
61.150 15.40072
61.155 15.695722
61.160 15.664717
61.165 15.51247
61.170 15.562776
61.175 15.622398
61.180 15.72965
61.185 15.72433
61.190 14.91932
61.195 14.899108
61.200 14.923793
61.205 14.783987
61.210 14.767782
61.215 14.368071
61.220 14.667862
61.225 15.882626
61.230 16.702953
61.235 16.740524
61.240 16.142647
61.245 15.774322
61.250 16.284191
61.255 16.310986
61.260 16.016394
61.265 15.802555
61.270 15.73081
61.275 16.53927
61.280 17.231089
61.285 16.690037
61.290 16.209156
61.295 15.935896
61.300 15.246047
61.305 14.878705
61.310 14.340715
61.315 14.484698
61.320 14.830344
61.325 15.085169
61.330 15.075266
61.335 15.285357
61.340 15.763959
61.345 15.91892
61.350 15.404722
61.355 15.468928
61.360 15.138091
61.365 15.319222
61.370 15.290408
61.375 14.680523
61.380 14.704282
61.385 14.89045
61.390 15.041467
61.395 15.514295
61.400 15.703301
61.405 15.596904
61.410 15.705928
61.415 15.602719
61.420 15.561304
61.425 15.239978
61.430 14.857533
61.435 14.170646
61.440 14.469199
61.445 15.004665
61.450 15.171938
61.455 15.618056
61.460 15.787582
61.465 15.752473
61.470 16.553301
61.475 16.876226
61.480 16.772495
61.485 16.506903
61.490 15.995161
61.495 16.610508
61.500 16.797604
61.505 16.23876
61.510 15.601562
61.515 15.154465
61.520 15.096672
61.525 15.055011
61.530 14.426298
61.535 14.105558
61.540 13.855443
61.545 13.771313
61.550 14.379164
61.555 14.732295
61.560 14.478553
61.565 14.38271
61.570 14.63235
61.575 15.112248
61.580 15.012625
61.585 14.816034
61.590 14.863933
61.595 15.019319
61.600 15.511319
61.605 15.568351
61.610 15.151903
61.615 15.253677
61.620 15.195347
61.625 15.556769
61.630 16.077406
61.635 16.235744
61.640 16.219995
61.645 16.538786
61.650 16.033096
61.655 15.612635
61.660 15.058237
61.665 14.677159
61.670 14.748934
61.675 15.176857
61.680 15.442841
61.685 15.943587
61.690 16.004234
61.695 15.813511
61.700 16.03269
61.705 15.712716
61.710 15.330853
61.715 14.89338
61.720 14.785795
61.725 15.412813
61.730 16.15811
61.735 16.328499
61.740 16.364395
61.745 16.374889
61.750 16.56896
61.755 16.934212
61.760 16.253075
61.765 15.267221
61.770 14.935522
61.775 14.813938
61.780 14.890931
61.785 15.207064
61.790 15.132269
61.795 15.84759
61.800 16.809042
61.805 16.790474
61.810 16.659801
61.815 17.207226
61.820 17.288786
61.825 17.576578
61.830 17.415554
61.835 16.893229
61.840 17.224211
61.845 17.331247
61.850 17.097231
61.855 17.039288
61.860 16.957848
61.865 17.439272
61.870 17.56674
61.875 18.430243
61.880 18.410376
61.885 18.159597
61.890 17.911396
61.895 17.285078
61.900 16.973763
61.905 16.552431
61.910 16.067486
61.915 16.21381
61.920 16.199656
61.925 16.263418
61.930 16.827679
61.935 16.887064
61.940 16.74505
61.945 16.670713
61.950 16.543972
61.955 16.84289
61.960 16.934904
61.965 16.482965
61.970 16.585667
61.975 16.701048
61.980 16.227423
61.985 16.162554
61.990 15.872539
61.995 15.349549
62.000 15.304177
62.005 15.288804
62.010 15.05185
62.015 15.239688
62.020 15.40279
62.025 15.620983
62.030 15.576383
62.035 15.184667
62.040 14.544683
62.045 14.676273
62.050 14.178695
62.055 13.547451
62.060 13.181523
62.065 13.496877
62.070 13.557995
62.075 13.95266
62.080 14.082613
62.085 14.239108
62.090 14.513329
62.095 14.867445
62.100 14.959778
62.105 15.209704
62.110 14.855137
62.115 15.022387
62.120 15.061164
62.125 15.185205
62.130 15.305578
62.135 15.605259
62.140 15.514777
62.145 15.996903
62.150 16.37722
62.155 16.667242
62.160 16.482698
62.165 16.120752
62.170 15.819086
62.175 16.005449
62.180 16.086168
62.185 16.275663
62.190 16.043831
62.195 16.147614
62.200 16.31926
62.205 16.735289
62.210 16.577366
62.215 16.378674
62.220 15.855219
62.225 16.417969
62.230 16.390015
62.235 16.252729
62.240 16.299297
62.245 16.248859
62.250 16.833542
62.255 17.08449
62.260 17.049004
62.265 16.920227
62.270 16.861473
62.275 17.116365
62.280 17.302919
62.285 16.466291
62.290 16.357975
62.295 16.194689
62.300 16.701015
62.305 16.24291
62.310 15.387271
62.315 15.421677
62.320 15.638506
62.325 15.738447
62.330 15.892599
62.335 15.878276
62.340 16.286465
62.345 16.865847
62.350 16.8615
62.355 16.522093
62.360 16.561529
62.365 16.179335
62.370 16.179941
62.375 16.507519
62.380 16.370621
62.385 16.293528
62.390 16.547918
62.395 16.088306
62.400 16.251087
62.405 16.085434
62.410 15.44558
62.415 15.309116
62.420 15.496198
62.425 15.669989
62.430 15.649827
62.435 15.564553
62.440 15.428955
62.445 15.873442
62.450 16.212862
62.455 16.283943
62.460 16.028322
62.465 16.012899
62.470 16.677107
62.475 17.452686
62.480 17.556885
62.485 17.465837
62.490 17.111727
62.495 16.996603
62.500 16.931156
62.505 16.191372
62.510 15.225073
62.515 14.916714
62.520 14.319817
62.525 14.54517
62.530 14.4977
62.535 14.655046
62.540 14.663712
62.545 15.517483
62.550 15.694512
62.555 16.262688
62.560 16.154581
62.565 16.227835
62.570 15.668938
62.575 15.488024
62.580 15.126863
62.585 14.900302
62.590 14.881564
62.595 15.342895
62.600 15.701076
62.605 15.48128
62.610 15.460642
62.615 15.608325
62.620 16.002731
62.625 15.701174
62.630 15.99068
62.635 16.44095
62.640 17.059319
62.645 17.212008
62.650 16.473202
62.655 15.798445
62.660 16.070135
62.665 15.624004
62.670 15.454378
62.675 15.368987
62.680 15.607579
62.685 15.806849
62.690 15.665886
62.695 15.34341
62.700 15.051288
62.705 14.890671
62.710 14.966328
62.715 14.58888
62.720 14.890648
62.725 15.383895
62.730 15.771271
62.735 16.095953
62.740 16.04423
62.745 15.879705
62.750 16.41963
62.755 16.521498
62.760 16.564245
62.765 16.286814
62.770 15.919378
62.775 16.482691
62.780 17.174099
62.785 16.59416
62.790 16.334566
62.795 16.342024
62.800 16.637888
62.805 16.990263
62.810 16.200262
62.815 15.681974
62.820 16.145994
62.825 16.731627
62.830 16.916784
62.835 16.522549
62.840 15.854922
62.845 16.148554
62.850 16.024458
62.855 15.83548
62.860 15.430502
62.865 14.934551
62.870 14.531822
62.875 14.681367
62.880 14.558028
62.885 14.595693
62.890 14.417434
62.895 14.104226
62.900 14.342475
62.905 15.205104
62.910 15.114315
62.915 15.748376
62.920 15.970287
62.925 16.049677
62.930 16.176155
62.935 16.909727
62.940 16.595392
62.945 16.544327
62.950 16.592539
62.955 16.376297
62.960 16.472729
62.965 16.257921
62.970 15.937076
62.975 16.582792
62.980 16.80839
62.985 16.73963
62.990 16.973787
62.995 17.394337
63.000 17.664648
63.005 17.634972
63.010 17.532696
63.015 17.477894
63.020 17.36993
63.025 16.930784
63.030 16.186388
63.035 16.144075
63.040 15.980519
63.045 15.683983
63.050 15.926217
63.055 15.619276
63.060 16.262451
63.065 16.526945
63.070 16.32394
63.075 16.598734
63.080 16.534279
63.085 16.007208
63.090 15.890844
63.095 15.502637
63.100 15.600685
63.105 15.898416
63.110 15.711185
63.115 16.008142
63.120 16.098228
63.125 16.340475
63.130 16.150881
63.135 16.23608
63.140 16.172754
63.145 15.907016
63.150 16.054869
63.155 16.649061
63.160 16.74268
63.165 16.988976
63.170 17.065086
63.175 17.067793
63.180 16.65708
63.185 15.958199
63.190 15.281317
63.195 15.070272
63.200 15.12902
63.205 14.383083
63.210 14.245595
63.215 15.027435
63.220 15.122749
63.225 15.270429
63.230 15.681316
63.235 15.56288
63.240 16.162056
63.245 16.140585
63.250 16.283131
63.255 16.907465
63.260 17.073801
63.265 17.133442
63.270 17.257885
63.275 17.491072
63.280 17.613499
63.285 17.249537
63.290 16.651878
63.295 16.493862
63.300 16.715931
63.305 17.441099
63.310 17.551342
63.315 17.409422
63.320 17.696129
63.325 18.027147
63.330 18.372057
63.335 17.730881
63.340 17.052029
63.345 16.666792
63.350 16.887911
63.355 16.739592
63.360 17.130217
63.365 16.857977
63.370 16.5823
63.375 16.511477
63.380 16.512156
63.385 16.349796
63.390 16.473742
63.395 16.232212
63.400 16.516983
63.405 16.835543
63.410 16.260977
63.415 16.073477
63.420 16.56086
63.425 16.562029
63.430 16.235098
63.435 16.355143
63.440 16.372282
63.445 16.870739
63.450 17.633396
63.455 17.442978
63.460 17.298347
63.465 17.29977
63.470 16.657675
63.475 16.870602
63.480 16.98052
63.485 16.54199
63.490 16.230303
63.495 16.104059
63.500 16.237438
63.505 16.843744
63.510 16.660524
63.515 16.520222
63.520 16.811344
63.525 17.0865
63.530 17.363958
63.535 17.382677
63.540 17.297939
63.545 17.751003
63.550 17.765274
63.555 17.50507
63.560 17.31072
63.565 17.048147
63.570 16.713341
63.575 16.684427
63.580 16.107298
63.585 16.011803
63.590 15.777903
63.595 15.955191
63.600 16.219927
63.605 16.141233
63.610 16.016663
63.615 16.401299
63.620 16.76936
63.625 16.669092
63.630 16.33349
63.635 16.445244
63.640 16.922146
63.645 17.072287
63.650 16.747118
63.655 17.016184
63.660 17.289415
63.665 17.448002
63.670 17.642111
63.675 17.87772
63.680 17.917934
63.685 18.021124
63.690 17.898129
63.695 18.490587
63.700 18.630299
63.705 18.535509
63.710 18.081884
63.715 18.115919
63.720 18.338516
63.725 18.082293
63.730 17.118345
63.735 17.131588
63.740 17.206301
63.745 17.533243
63.750 17.619923
63.755 17.621958
63.760 17.719501
63.765 18.478767
63.770 18.352262
63.775 18.315891
63.780 18.401838
63.785 18.277813
63.790 17.99637
63.795 18.420481
63.800 18.829542
63.805 19.344944
63.810 18.916498
63.815 18.749828
63.820 18.754452
63.825 18.909149
63.830 18.212151
63.835 17.705297
63.840 17.135307
63.845 17.026556
63.850 16.548603
63.855 16.231012
63.860 16.435907
63.865 16.702749
63.870 16.756414
63.875 16.993393
63.880 17.573923
63.885 18.384926
63.890 18.932003
63.895 18.935484
63.900 19.231422
63.905 19.024002
63.910 19.406893
63.915 19.627634
63.920 19.485649
63.925 19.6952
63.930 19.658382
63.935 19.860979
63.940 20.291235
63.945 19.882246
63.950 19.812319
63.955 20.101812
63.960 20.507257
63.965 20.711012
63.970 20.386726
63.975 20.327744
63.980 20.741617
63.985 20.645348
63.990 20.342932
63.995 20.279444
64.000 20.732641
64.005 20.829687
64.010 20.750074
64.015 20.851355
64.020 21.563309
64.025 21.317942
64.030 20.676184
64.035 20.105776
64.040 20.426987
64.045 20.921923
64.050 20.774059
64.055 20.202435
64.060 19.941019
64.065 19.755428
64.070 19.979296
64.075 20.416588
64.080 20.165697
64.085 20.027346
64.090 20.649763
64.095 21.702347
64.100 22.967356
64.105 23.390381
64.110 22.559437
64.115 23.233318
64.120 24.162271
64.125 24.474218
64.130 25.142736
64.135 25.193741
64.140 25.362268
64.145 25.486673
64.150 25.357424
64.155 25.206915
64.160 25.180977
64.165 24.88324
64.170 25.372149
64.175 25.120272
64.180 26.053061
64.185 26.653217
64.190 27.394707
64.195 28.240479
64.200 29.061434
64.205 28.966696
64.210 29.674978
64.215 29.967611
64.220 31.05195
64.225 31.376579
64.230 32.006748
64.235 32.58387
64.240 33.725872
64.245 35.451748
64.250 36.257301
64.255 37.056122
64.260 37.720188
64.265 37.619553
64.270 38.065453
64.275 38.750237
64.280 38.418343
64.285 39.090313
64.290 40.11385
64.295 40.443073
64.300 41.851208
64.305 41.626484
64.310 41.924847
64.315 42.279819
64.320 41.921528
64.325 42.607697
64.330 43.329052
64.335 43.10041
64.340 44.740364
64.345 44.979584
64.350 45.922085
64.355 46.340218
64.360 46.032379
64.365 46.865982
64.370 47.842537
64.375 47.032494
64.380 47.562241
64.385 47.750427
64.390 48.061138
64.395 48.618225
64.400 48.345673
64.405 48.554562
64.410 48.870815
64.415 48.585918
64.420 48.089687
64.425 47.674129
64.430 47.518013
64.435 47.400166
64.440 47.393055
64.445 47.373592
64.450 47.249718
64.455 47.501945
64.460 47.567764
64.465 48.248375
64.470 48.941414
64.475 48.296497
64.480 48.135559
64.485 47.845604
64.490 47.884731
64.495 48.228867
64.500 47.35561
64.505 46.919991
64.510 46.758148
64.515 47.1717
64.520 47.111954
64.525 46.676659
64.530 46.87923
64.535 46.558193
64.540 45.533382
64.545 45.361565
64.550 44.386852
64.555 43.744831
64.560 43.3564
64.565 41.87352
64.570 40.462425
64.575 39.792145
64.580 38.967396
64.585 38.822655
64.590 39.271381
64.595 38.53352
64.600 38.178696
64.605 38.506889
64.610 38.134686
64.615 37.402046
64.620 37.194195
64.625 36.469013
64.630 36.826687
64.635 36.691727
64.640 36.468967
64.645 36.345367
64.650 36.184566
64.655 35.271004
64.660 34.24992
64.665 33.295612
64.670 33.101963
64.675 32.301212
64.680 32.114143
64.685 31.847609
64.690 31.039679
64.695 30.702974
64.700 30.353693
64.705 29.663258
64.710 28.954651
64.715 28.175898
64.720 26.933334
64.725 26.309746
64.730 26.536713
64.735 25.954838
64.740 25.359278
64.745 24.243475
64.750 23.630224
64.755 23.983358
64.760 23.500669
64.765 23.377893
64.770 23.714338
64.775 24.066706
64.780 24.873936
64.785 25.432644
64.790 25.991297
64.795 25.806242
64.800 25.038046
64.805 24.871952
64.810 24.640921
64.815 24.203413
64.820 23.881496
64.825 23.494667
64.830 23.682016
64.835 23.620033
64.840 23.225058
64.845 22.743225
64.850 22.310688
64.855 22.172012
64.860 21.964453
64.865 22.042175
64.870 22.936789
64.875 23.433971
64.880 24.084282
64.885 23.863861
64.890 23.590538
64.895 24.043493
64.900 24.269867
64.905 23.469864
64.910 23.248161
64.915 22.708694
64.920 23.417915
64.925 23.408592
64.930 22.808895
64.935 22.794636
64.940 23.155319
64.945 23.065109
64.950 22.950926
64.955 22.720865
64.960 23.452045
64.965 24.079746
64.970 24.42099
64.975 24.316006
64.980 24.297945
64.985 24.742647
64.990 25.334726
64.995 25.361017
65.000 25.897272
65.005 25.934372
65.010 27.148176
65.015 28.162128
65.020 30.101994
65.025 30.323933
65.030 30.21356
65.035 30.442436
65.040 30.567724
65.045 30.816681
65.050 31.07548
65.055 30.759859
65.060 31.505249
65.065 32.650291
65.070 33.145035
65.075 34.421009
65.080 35.197697
65.085 35.958984
65.090 35.351768
65.095 35.441734
65.100 35.349491
65.105 36.430359
65.110 35.921005
65.115 36.097656
65.120 36.541973
65.125 37.126801
65.130 37.255371
65.135 37.750748
65.140 37.076004
65.145 37.252113
65.150 36.585331
65.155 36.301826
65.160 37.28989
65.165 38.283943
65.170 38.054485
65.175 38.05085
65.180 38.151299
65.185 38.169899
65.190 38.5228
65.195 38.385227
65.200 37.84301
65.205 37.74976
65.210 37.320992
65.215 37.496868
65.220 37.906933
65.225 37.85894
65.230 38.534725
65.235 39.010754
65.240 38.718853
65.245 39.417591
65.250 39.54995
65.255 39.007107
65.260 38.610382
65.265 36.793083
65.270 36.828449
65.275 37.821289
65.280 37.734623
65.285 37.864693
65.290 38.309055
65.295 38.650639
65.300 39.995758
65.305 40.10136
65.310 40.509357
65.315 40.94503
65.320 41.518955
65.325 41.383404
65.330 41.124531
65.335 41.09869
65.340 40.75174
65.345 40.205696
65.350 40.281651
65.355 39.768215
65.360 39.963394
65.365 40.572124
65.370 40.742889
65.375 40.794682
65.380 40.359825
65.385 40.193211
65.390 40.30574
65.395 40.469086
65.400 39.49725
65.405 38.799728
65.410 39.282433
65.415 39.136948
65.420 38.868816
65.425 38.230217
65.430 37.593788
65.435 38.189514
65.440 38.12389
65.445 37.565937
65.450 37.407253
65.455 37.085537
65.460 37.182487
65.465 37.656807
65.470 37.251381
65.475 36.758183
65.480 36.616959
65.485 36.319221
65.490 36.555767
65.495 36.940456
65.500 36.806816
65.505 37.567852
65.510 38.752037
65.515 39.201187
65.520 39.009281
65.525 38.076065
65.530 37.283215
65.535 37.587925
65.540 37.33469
65.545 36.722786
65.550 36.268559
65.555 35.853893
65.560 35.518711
65.565 35.766582
65.570 35.719532
65.575 34.739475
65.580 34.251877
65.585 34.266865
65.590 34.405384
65.595 34.822273
65.600 34.773418
65.605 34.844074
65.610 35.131519
65.615 35.031269
65.620 35.587074
65.625 36.280281
65.630 36.820488
65.635 36.66745
65.640 36.493301
65.645 36.363827
65.650 36.228458
65.655 35.582623
65.660 34.555233
65.665 33.363628
65.670 32.354263
65.675 31.411867
65.680 31.647829
65.685 31.818724
65.690 31.793591
65.695 31.915823
65.700 32.045849
65.705 31.970276
65.710 31.900797
65.715 31.429007
65.720 30.537941
65.725 30.420752
65.730 30.494509
65.735 30.842119
65.740 31.109304
65.745 31.091532
65.750 31.362604
65.755 31.382069
65.760 31.544497
65.765 31.02421
65.770 30.548693
65.775 30.235212
65.780 29.929251
65.785 28.836033
65.790 27.828501
65.795 26.409412
65.800 26.057501
65.805 25.745749
65.810 25.351089
65.815 25.144402
65.820 25.334879
65.825 26.15539
65.830 26.898706
65.835 26.41857
65.840 26.028433
65.845 25.893917
65.850 25.776491
65.855 24.246122
65.860 23.937096
65.865 23.67565
65.870 23.691044
65.875 23.836033
65.880 24.590364
65.885 24.602661
65.890 24.844528
65.895 24.561693
65.900 24.387226
65.905 23.965099
65.910 23.725332
65.915 22.650621
65.920 22.550076
65.925 22.440443
65.930 22.325775
65.935 22.842062
65.940 23.435289
65.945 23.485895
65.950 23.754059
65.955 23.487083
65.960 23.533293
65.965 22.758886
65.970 21.986597
65.975 21.719728
65.980 21.490585
65.985 21.03599
65.990 20.847618
65.995 20.425423
66.000 20.095453
66.005 20.325129
66.010 19.896334
66.015 19.859383
66.020 19.760185
66.025 19.742817
66.030 20.205633
66.035 20.263037
66.040 19.610144
66.045 19.615746
66.050 19.498144
66.055 19.75456
66.060 19.716999
66.065 19.212355
66.070 19.253801
66.075 19.143932
66.080 19.365564
66.085 18.827511
66.090 19.218248
66.095 18.966337
66.100 19.006357
66.105 19.450214
66.110 19.590996
66.115 19.642273
66.120 19.939989
66.125 19.535265
66.130 19.782446
66.135 19.173645
66.140 18.801554
66.145 18.224489
66.150 18.000504
66.155 18.239403
66.160 18.152758
66.165 18.463905
66.170 18.872334
66.175 19.095165
66.180 19.506449
66.185 19.086735
66.190 18.663027
66.195 18.787003
66.200 19.103111
66.205 19.498085
66.210 19.021721
66.215 18.904337
66.220 18.981089
66.225 18.567858
66.230 18.120832
66.235 17.280537
66.240 16.920124
66.245 17.55476
66.250 18.260801
66.255 18.399702
66.260 18.700495
66.265 19.18585
66.270 19.16605
66.275 18.716125
66.280 18.283287
66.285 17.771223
66.290 17.741699
66.295 17.426321
66.300 17.720396
66.305 18.094578
66.310 18.344715
66.315 18.115713
66.320 18.236359
66.325 18.569962
66.330 18.51173
66.335 17.540216
66.340 17.641523
66.345 17.626106
66.350 17.790487
66.355 17.953129
66.360 18.217852
66.365 18.001465
66.370 18.064035
66.375 17.823248
66.380 17.921192
66.385 17.696661
66.390 17.235514
66.395 16.837664
66.400 17.016232
66.405 16.9722
66.410 17.148453
66.415 17.465044
66.420 17.707886
66.425 18.022511
66.430 17.817392
66.435 18.084772
66.440 18.420958
66.445 18.488501
66.450 18.368345
66.455 18.351646
66.460 18.026974
66.465 17.903244
66.470 17.503935
66.475 17.288103
66.480 16.735695
66.485 16.558647
66.490 16.374079
66.495 16.547598
66.500 16.932062
66.505 17.183586
66.510 16.976954
66.515 16.905443
66.520 16.803654
66.525 16.793194
66.530 16.576683
66.535 16.351469
66.540 16.194519
66.545 16.581179
66.550 17.707296
66.555 18.260204
66.560 18.595419
66.565 18.492659
66.570 18.945105
66.575 19.030493
66.580 19.370022
66.585 19.544909
66.590 19.480057
66.595 19.877367
66.600 20.312088
66.605 20.163706
66.610 19.757099
66.615 19.097687
66.620 17.970993
66.625 17.356194
66.630 17.122854
66.635 17.072268
66.640 17.092617
66.645 17.845324
66.650 18.36047
66.655 18.576569
66.660 18.251568
66.665 17.780968
66.670 17.677578
66.675 17.577925
66.680 17.46876
66.685 17.386868
66.690 17.5755
66.695 17.379431
66.700 17.054209
66.705 17.424572
66.710 17.420612
66.715 16.595797
66.720 16.878263
66.725 17.056166
66.730 17.817179
66.735 17.642523
66.740 17.187023
66.745 17.213409
66.750 17.232925
66.755 16.472523
66.760 16.862211
66.765 16.292219
66.770 16.5439
66.775 16.623882
66.780 17.007311
66.785 17.55102
66.790 17.174709
66.795 16.54756
66.800 17.154873
66.805 17.607004
66.810 17.724459
66.815 17.465307
66.820 17.062893
66.825 17.428917
66.830 17.673487
66.835 17.035048
66.840 16.719572
66.845 16.602488
66.850 16.444355
66.855 16.231472
66.860 16.53248
66.865 16.308033
66.870 16.348501
66.875 16.027969
66.880 15.591108
66.885 15.80395
66.890 16.190931
66.895 15.929215
66.900 15.774804
66.905 16.387777
66.910 17.230829
66.915 17.61075
66.920 17.763262
66.925 17.684185
66.930 17.895512
66.935 18.324133
66.940 18.346619
66.945 17.756889
66.950 17.630295
66.955 17.644894
66.960 17.629435
66.965 16.865082
66.970 16.818188
66.975 16.872162
66.980 16.924141
66.985 16.949383
66.990 17.066994
66.995 17.07811
67.000 17.389996
67.005 17.786043
67.010 17.874264
67.015 17.818787
67.020 17.397552
67.025 17.585434
67.030 17.603512
67.035 17.794367
67.040 17.712627
67.045 17.698502
67.050 17.887262
67.055 18.192995
67.060 18.165085
67.065 18.312178
67.070 18.000883
67.075 17.499277
67.080 17.300301
67.085 16.783278
67.090 16.812145
67.095 16.86042
67.100 17.254692
67.105 17.093702
67.110 17.259861
67.115 17.754963
67.120 18.600471
67.125 18.214317
67.130 18.307213
67.135 18.3997
67.140 18.805332
67.145 19.130239
67.150 19.275249
67.155 19.55719
67.160 19.684233
67.165 19.428932
67.170 19.601236
67.175 19.822435
67.180 19.551472
67.185 19.293949
67.190 19.198559
67.195 19.379322
67.200 19.547869
67.205 18.935259
67.210 18.461021
67.215 18.42758
67.220 17.966444
67.225 17.655216
67.230 17.512022
67.235 17.043573
67.240 17.427782
67.245 17.744631
67.250 17.182129
67.255 17.129633
67.260 17.190283
67.265 17.533066
67.270 18.29509
67.275 18.756189
67.280 18.900074
67.285 19.219254
67.290 19.349617
67.295 19.46907
67.300 19.389627
67.305 18.774857
67.310 17.653639
67.315 17.195904
67.320 17.392874
67.325 17.971462
67.330 18.097963
67.335 18.221033
67.340 18.247433
67.345 18.68326
67.350 19.252953
67.355 18.734053
67.360 18.498968
67.365 18.163944
67.370 17.723989
67.375 18.029161
67.380 17.953398
67.385 17.375479
67.390 17.392092
67.395 17.028465
67.400 16.966543
67.405 16.692324
67.410 16.2526
67.415 15.726525
67.420 15.938388
67.425 15.820927
67.430 15.761663
67.435 15.398661
67.440 15.790138
67.445 16.159883
67.450 16.371557
67.455 16.411331
67.460 17.017391
67.465 16.875467
67.470 17.066521
67.475 17.386103
67.480 17.512629
67.485 17.863823
67.490 17.819641
67.495 17.466906
67.500 17.913319
67.505 18.294037
67.510 18.177299
67.515 17.79812
67.520 17.93788
67.525 17.82498
67.530 17.632956
67.535 17.508825
67.540 17.337025
67.545 17.177114
67.550 18.01803
67.555 17.93804
67.560 18.076593
67.565 18.650211
67.570 18.309595
67.575 18.258116
67.580 18.111908
67.585 17.7992
67.590 18.203245
67.595 18.777544
67.600 18.96982
67.605 19.364237
67.610 19.360157
67.615 19.30055
67.620 19.414871
67.625 19.151356
67.630 18.978264
67.635 18.649847
67.640 18.453169
67.645 18.639835
67.650 18.909298
67.655 19.357267
67.660 19.245352
67.665 19.130919
67.670 19.364958
67.675 19.638302
67.680 19.949978
67.685 19.432043
67.690 18.454641
67.695 18.537773
67.700 18.345465
67.705 18.502995
67.710 18.12627
67.715 17.747063
67.720 17.776327
67.725 17.955246
67.730 17.549078
67.735 17.663113
67.740 17.426371
67.745 17.766804
67.750 18.060482
67.755 17.960024
67.760 18.280447
67.765 18.4182
67.770 18.055799
67.775 17.874739
67.780 17.694925
67.785 17.419413
67.790 17.597603
67.795 16.470699
67.800 16.222042
67.805 16.302862
67.810 16.676929
67.815 16.860174
67.820 16.825319
67.825 16.515263
67.830 17.577982
67.835 18.054792
67.840 17.948177
67.845 17.579857
67.850 17.795641
67.855 18.348286
67.860 18.919327
67.865 18.721804
67.870 18.653673
67.875 18.508917
67.880 18.213455
67.885 17.640976
67.890 17.216463
67.895 16.609934
67.900 16.326036
67.905 16.654284
67.910 17.401775
67.915 17.684555
67.920 17.865788
67.925 17.458336
67.930 17.318316
67.935 17.321472
67.940 17.197865
67.945 16.611448
67.950 16.699764
67.955 16.94734
67.960 17.06752
67.965 17.318716
67.970 17.783909
67.975 18.578699
67.980 19.177088
67.985 19.088745
67.990 18.937544
67.995 19.089987
68.000 19.536203
68.005 19.012152
68.010 18.671921
68.015 18.833042
68.020 18.681864
68.025 18.781935
68.030 19.051302
68.035 18.872332
68.040 18.676678
68.045 18.043688
68.050 17.667189
68.055 18.082874
68.060 18.375124
68.065 18.626471
68.070 19.119299
68.075 19.4023
68.080 20.250114
68.085 20.651066
68.090 20.662661
68.095 20.124765
68.100 19.285446
68.105 19.108627
68.110 19.486605
68.115 19.197874
68.120 18.783403
68.125 19.222549
68.130 19.816961
68.135 20.352972
68.140 20.549765
68.145 20.625402
68.150 20.527857
68.155 20.477594
68.160 20.471918
68.165 20.396198
68.170 19.903734
68.175 20.21003
68.180 20.130127
68.185 20.176691
68.190 20.141151
68.195 20.076958
68.200 20.268629
68.205 20.161282
68.210 19.662476
68.215 19.158817
68.220 19.311655
68.225 19.875801
68.230 20.336807
68.235 20.73576
68.240 21.681362
68.245 21.848278
68.250 22.913157
68.255 23.094418
68.260 23.234854
68.265 22.964956
68.270 22.823847
68.275 22.832378
68.280 23.624105
68.285 23.259995
68.290 23.283293
68.295 22.936354
68.300 23.188396
68.305 23.577385
68.310 23.272631
68.315 22.99972
68.320 23.158817
68.325 23.967813
68.330 24.580439
68.335 25.053904
68.340 25.160313
68.345 25.562117
68.350 25.341427
68.355 25.735357
68.360 25.705948
68.365 25.685312
68.370 25.515791
68.375 26.254381
68.380 27.224518
68.385 27.910709
68.390 28.566288
68.395 28.762707
68.400 28.953432
68.405 29.550272
68.410 29.834265
68.415 29.987507
68.420 31.362572
68.425 31.387648
68.430 31.730518
68.435 31.935925
68.440 31.252695
68.445 31.463825
68.450 31.978466
68.455 31.561964
68.460 31.523981
68.465 31.097149
68.470 31.390448
68.475 31.883707
68.480 31.943253
68.485 31.683601
68.490 31.061367
68.495 31.230986
68.500 32.067657
68.505 32.706184
68.510 32.873566
68.515 32.788723
68.520 33.5173
68.525 34.136497
68.530 34.310196
68.535 34.027752
68.540 33.696823
68.545 33.701237
68.550 33.783527
68.555 33.287857
68.560 33.784435
68.565 34.298527
68.570 35.364834
68.575 35.804218
68.580 35.318291
68.585 35.115021
68.590 35.193703
68.595 34.463219
68.600 33.746471
68.605 33.332737
68.610 33.618309
68.615 34.012264
68.620 34.244972
68.625 34.643303
68.630 35.73634
68.635 35.992607
68.640 36.100555
68.645 36.210911
68.650 36.883484
68.655 36.810547
68.660 36.906883
68.665 36.805824
68.670 37.644096
68.675 37.324142
68.680 37.128899
68.685 37.801094
68.690 38.473476
68.695 39.378387
68.700 39.146385
68.705 38.27002
68.710 37.99633
68.715 37.603645
68.720 36.91589
68.725 36.32095
68.730 34.8064
68.735 34.809685
68.740 35.330669
68.745 36.102966
68.750 35.947636
68.755 35.684711
68.760 35.73933
68.765 36.040562
68.770 35.648102
68.775 35.363392
68.780 34.281757
68.785 33.801151
68.790 33.86195
68.795 34.57864
68.800 35.511543
68.805 35.449467
68.810 35.019188
68.815 36.209518
68.820 36.46072
68.825 36.232212
68.830 35.233166
68.835 34.956379
68.840 35.347717
68.845 34.667999
68.850 33.99017
68.855 34.124424
68.860 33.516621
68.865 32.513287
68.870 31.356441
68.875 30.512943
68.880 29.987268
68.885 29.586437
68.890 29.402313
68.895 29.94669
68.900 30.636856
68.905 31.817904
68.910 32.714916
68.915 33.26078
68.920 32.910053
68.925 33.245358
68.930 33.462547
68.935 32.779202
68.940 32.228905
68.945 31.647993
68.950 31.722563
68.955 31.615368
68.960 30.598734
68.965 30.252686
68.970 29.154367
68.975 29.113516
68.980 29.15114
68.985 28.833689
68.990 28.779284
68.995 28.461103
69.000 28.391802
69.005 29.061863
69.010 28.189079
69.015 27.666319
69.020 28.266403
69.025 27.734673
69.030 27.10738
69.035 26.470861
69.040 26.35906
69.045 26.379665
69.050 26.056822
69.055 26.043592
69.060 26.499376
69.065 26.918207
69.070 27.018459
69.075 26.64473
69.080 26.295891
69.085 26.61451
69.090 26.198679
69.095 26.149019
69.100 26.109827
69.105 25.819157
69.110 25.641939
69.115 26.241167
69.120 25.352207
69.125 24.911694
69.130 24.97677
69.135 24.760406
69.140 24.452808
69.145 23.524773
69.150 22.632126
69.155 22.639357
69.160 22.683737
69.165 21.935621
69.170 21.716068
69.175 21.999512
69.180 23.028055
69.185 23.741592
69.190 23.383278
69.195 23.000229
69.200 22.605036
69.205 22.282724
69.210 21.293346
69.215 20.48605
69.220 20.251461
69.225 20.416636
69.230 20.758753
69.235 21.218929
69.240 21.085833
69.245 21.659433
69.250 21.512989
69.255 21.03825
69.260 20.965284
69.265 20.862223
69.270 20.647858
69.275 20.522701
69.280 20.413527
69.285 20.638731
69.290 20.714235
69.295 20.687685
69.300 20.568365
69.305 20.211266
69.310 20.417063
69.315 20.093557
69.320 19.192968
69.325 19.125288
69.330 18.867493
69.335 19.103882
69.340 19.227854
69.345 18.950766
69.350 19.538246
69.355 19.735981
69.360 19.441122
69.365 19.824835
69.370 19.897144
69.375 20.136011
69.380 19.955381
69.385 20.006014
69.390 20.472218
69.395 20.648277
69.400 20.729031
69.405 20.67347
69.410 20.922821
69.415 20.64782
69.420 19.861164
69.425 19.513838
69.430 18.690414
69.435 18.540161
69.440 18.846813
69.445 19.210804
69.450 18.68399
69.455 19.016483
69.460 18.951181
69.465 19.222546
69.470 18.859867
69.475 18.150414
69.480 17.824528
69.485 17.753183
69.490 17.111534
69.495 17.100945
69.500 16.727165
69.505 16.689285
69.510 16.944477
69.515 17.16293
69.520 17.78273
69.525 17.980507
69.530 18.224194
69.535 18.125404
69.540 18.381077
69.545 18.093754
69.550 18.091398
69.555 18.245008
69.560 18.067245
69.565 18.102787
69.570 18.195601
69.575 18.307844
69.580 18.901577
69.585 18.889954
69.590 18.838123
69.595 19.425949
69.600 19.54841
69.605 19.578897
69.610 19.207209
69.615 19.06897
69.620 18.818628
69.625 18.210135
69.630 17.900486
69.635 17.895227
69.640 17.80076
69.645 17.389174
69.650 16.797081
69.655 16.974657
69.660 17.836409
69.665 17.725985
69.670 18.260494
69.675 18.578144
69.680 18.522488
69.685 18.467682
69.690 18.323048
69.695 17.762144
69.700 17.505545
69.705 17.163971
69.710 17.379944
69.715 17.759188
69.720 17.388456
69.725 17.382254
69.730 17.881865
69.735 18.014238
69.740 18.165323
69.745 18.037739
69.750 17.969
69.755 18.152515
69.760 18.1518
69.765 17.812086
69.770 17.704956
69.775 17.662077
69.780 17.948511
69.785 17.85951
69.790 17.757496
69.795 17.776014
69.800 17.77533
69.805 17.757132
69.810 17.460234
69.815 17.383585
69.820 17.979826
69.825 18.811773
69.830 19.225531
69.835 19.230028
69.840 19.100664
69.845 19.062031
69.850 19.174017
69.855 18.71076
69.860 17.589653
69.865 17.473183
69.870 17.721733
69.875 17.896866
69.880 17.908068
69.885 17.943613
69.890 18.33638
69.895 18.709976
69.900 18.347332
69.905 18.420048
69.910 18.911114
69.915 19.124853
69.920 18.686245
69.925 18.134268
69.930 18.064928
69.935 18.600496
69.940 18.101183
69.945 17.737061
69.950 17.352913
69.955 18.093119
69.960 18.312387
69.965 17.92708
69.970 17.407658
69.975 17.681156
69.980 17.639359
69.985 17.978693
69.990 17.685722
69.995 18.271933
70.000 19.268166
70.005 19.490652
70.010 19.384193
70.015 18.982132
70.020 18.334726
70.025 18.053137
70.030 18.172525
70.035 17.502754
70.040 17.735844
70.045 17.926346
70.050 18.122173
70.055 18.013718
70.060 18.36801
70.065 18.394926
70.070 18.903032
70.075 18.638651
70.080 18.26366
70.085 18.280109
70.090 18.864824
70.095 18.275654
70.100 17.978367
70.105 17.380396
70.110 17.176073
70.115 17.404135
70.120 17.466642
70.125 17.642557
70.130 17.775732
70.135 17.545727
70.140 18.24905
70.145 18.579472
70.150 18.568451
70.155 18.705086
70.160 18.183374
70.165 18.318228
70.170 18.464823
70.175 18.601244
70.180 18.526068
70.185 18.124994
70.190 18.057089
70.195 18.174496
70.200 18.544746
70.205 19.688944
70.210 19.168791
70.215 19.316874
70.220 19.667549
70.225 19.209749
70.230 18.892166
70.235 18.359793
70.240 17.735813
70.245 18.176516
70.250 18.187166
70.255 18.428919
70.260 18.587379
70.265 18.47451
70.270 18.077675
70.275 17.569304
70.280 17.429604
70.285 17.196098
70.290 16.781349
70.295 16.380865
70.300 16.646851
70.305 17.192234
70.310 17.116293
70.315 17.300926
70.320 17.357153
70.325 17.916529
70.330 18.573956
70.335 18.425964
70.340 18.335463
70.345 18.657171
70.350 17.96055
70.355 17.836536
70.360 17.837963
70.365 18.02483
70.370 18.303116
70.375 18.060202
70.380 18.139919
70.385 18.277065
70.390 18.287802
70.395 17.945282
70.400 17.048656
70.405 17.150009
70.410 16.963324
70.415 16.264269
70.420 16.805607
70.425 16.503254
70.430 16.875187
70.435 17.296459
70.440 17.102535
70.445 17.493326
70.450 17.901997
70.455 17.66357
70.460 17.732943
70.465 17.205355
70.470 17.464863
70.475 17.33602
70.480 17.446329
70.485 17.394562
70.490 17.016216
70.495 17.23851
70.500 17.792368
70.505 17.250687
70.510 17.09523
70.515 17.390324
70.520 17.982502
70.525 18.236256
70.530 17.973003
70.535 17.980967
70.540 18.360235
70.545 18.747715
70.550 18.374454
70.555 18.359022
70.560 18.378429
70.565 18.595255
70.570 18.452385
70.575 18.124969
70.580 17.480343
70.585 17.144394
70.590 16.745924
70.595 16.870365
70.600 16.816128
70.605 16.958832
70.610 16.918989
70.615 17.641647
70.620 18.746712
70.625 19.699562
70.630 19.945166
70.635 20.496733
70.640 20.960976
70.645 21.172558
70.650 20.530552
70.655 19.258835
70.660 18.399338
70.665 17.97361
70.670 17.554882
70.675 17.493366
70.680 17.677515
70.685 17.747618
70.690 18.640194
70.695 19.073574
70.700 18.874794
70.705 18.543413
70.710 18.377003
70.715 18.27289
70.720 18.256275
70.725 18.086508
70.730 17.728937
70.735 17.961796
70.740 17.839178
70.745 17.808691
70.750 17.564009
70.755 16.953897
70.760 16.608685
70.765 16.99222
70.770 17.360159
70.775 17.379236
70.780 16.66003
70.785 17.096571
70.790 17.793844
70.795 17.472738
70.800 17.447781
70.805 17.416813
70.810 17.633018
70.815 17.984037
70.820 18.463902
70.825 18.257059
70.830 18.177046
70.835 17.67783
70.840 17.103073
70.845 17.074825
70.850 16.795393
70.855 16.466099
70.860 16.389294
70.865 16.866209
70.870 17.507067
70.875 18.162237
70.880 18.91835
70.885 19.510567
70.890 19.687124
70.895 19.768278
70.900 19.44375
70.905 19.116598
70.910 18.884933
70.915 18.173668
70.920 17.390812
70.925 16.833992
70.930 17.188431
70.935 17.779972
70.940 17.753361
70.945 17.607969
70.950 17.788475
70.955 18.596233
70.960 19.011103
70.965 18.516998
70.970 18.680372
70.975 19.077585
70.980 19.074696
70.985 19.181259
70.990 18.896833
70.995 18.806623
71.000 18.855877
71.005 18.180782
71.010 18.518814
71.015 19.198994
71.020 19.078995
71.025 19.224691
71.030 19.432505
71.035 19.643608
71.040 19.352911
71.045 18.914764
71.050 19.099365
71.055 19.220001
71.060 18.918131
71.065 18.411745
71.070 18.426107
71.075 18.538229
71.080 18.166782
71.085 17.660593
71.090 17.485092
71.095 17.635841
71.100 17.661394
71.105 17.385801
71.110 17.302267
71.115 16.976482
71.120 17.372927
71.125 17.903761
71.130 18.338642
71.135 18.146288
71.140 18.29528
71.145 18.539675
71.150 19.262049
71.155 18.572617
71.160 18.617393
71.165 18.741108
71.170 18.960878
71.175 18.660631
71.180 18.664545
71.185 18.211271
71.190 18.433844
71.195 18.651464
71.200 18.382393
71.205 19.039118
71.210 19.715445
71.215 19.669956
71.220 19.696552
71.225 19.44459
71.230 18.242605
71.235 18.445501
71.240 18.005964
71.245 17.847204
71.250 18.681421
71.255 18.882353
71.260 18.859472
71.265 19.206215
71.270 18.894823
71.275 18.858919
71.280 17.834196
71.285 17.179628
71.290 17.910885
71.295 17.784107
71.300 17.138563
71.305 16.908249
71.310 16.670008
71.315 16.564533
71.320 15.776115
71.325 15.425261
71.330 15.486802
71.335 16.294254
71.340 16.506615
71.345 17.067276
71.350 17.191357
71.355 17.223415
71.360 17.441324
71.365 17.835247
71.370 17.166746
71.375 17.187136
71.380 17.813002
71.385 17.995983
71.390 17.634932
71.395 17.479586
71.400 17.200003
71.405 17.734474
71.410 18.118612
71.415 17.717304
71.420 18.321449
71.425 18.600546
71.430 18.260851
71.435 18.476124
71.440 18.043467
71.445 17.848587
71.450 17.75559
71.455 17.339779
71.460 17.673109
71.465 18.048431
71.470 18.078455
71.475 18.037592
71.480 17.882704
71.485 17.507826
71.490 17.590893
71.495 17.781374
71.500 17.238737
71.505 17.414284
71.510 16.942801
71.515 16.966812
71.520 17.410843
71.525 17.302835
71.530 16.916334
71.535 17.363794
71.540 17.941738
71.545 17.856365
71.550 17.901672
71.555 17.638458
71.560 17.75095
71.565 17.550009
71.570 18.28314
71.575 17.805283
71.580 18.429657
71.585 18.266035
71.590 18.222012
71.595 18.489981
71.600 17.970675
71.605 16.932749
71.610 16.791862
71.615 16.275066
71.620 16.184362
71.625 15.563567
71.630 15.175714
71.635 15.676748
71.640 15.844337
71.645 16.096197
71.650 16.315483
71.655 16.695745
71.660 17.166281
71.665 17.567192
71.670 17.187809
71.675 17.033573
71.680 16.99349
71.685 16.665049
71.690 16.545994
71.695 16.585388
71.700 16.748198
71.705 16.734318
71.710 16.671577
71.715 16.935314
71.720 17.433001
71.725 18.012146
71.730 17.851885
71.735 18.087507
71.740 18.074915
71.745 18.700411
71.750 18.28754
71.755 18.025766
71.760 17.820446
71.765 18.021507
71.770 17.921295
71.775 18.026619
71.780 17.77927
71.785 17.641819
71.790 16.924654
71.795 16.543728
71.800 16.194666
71.805 16.198244
71.810 16.472441
71.815 15.88044
71.820 15.816231
71.825 16.220345
71.830 16.408403
71.835 16.745874
71.840 16.415665
71.845 16.838005
71.850 17.656076
71.855 18.046429
71.860 17.577549
71.865 17.462818
71.870 17.655832
71.875 18.104492
71.880 17.852943
71.885 17.681677
71.890 18.16437
71.895 18.73737
71.900 18.064621
71.905 18.011057
71.910 17.766752
71.915 17.278502
71.920 16.641472
71.925 15.86178
71.930 15.988655
71.935 16.459162
71.940 15.935676
71.945 15.881075
71.950 16.832228
71.955 17.751915
71.960 18.46423
71.965 18.373451
71.970 18.586361
71.975 18.88447
71.980 19.081316
71.985 18.950708
71.990 18.696541
71.995 18.654608
72.000 18.654999
72.005 18.298668
72.010 18.556215
72.015 18.598989
72.020 18.996233
72.025 18.612217
72.030 18.317652
72.035 18.525221
72.040 18.802561
72.045 18.573166
72.050 18.424078
72.055 18.064159
72.060 18.589239
72.065 18.532558
72.070 18.011257
72.075 18.257652
72.080 17.29114
72.085 16.369068
72.090 15.795819
72.095 15.69852
72.100 15.952937
72.105 15.164397
72.110 14.690512
72.115 16.01161
72.120 16.849617
72.125 17.061691
72.130 16.632673
72.135 17.23325
72.140 18.667364
72.145 18.927105
72.150 18.085243
72.155 18.198702
72.160 18.092966
72.165 17.633093
72.170 16.613152
72.175 15.993226
72.180 15.595253
72.185 15.496101
72.190 15.066985
72.195 15.359609
72.200 16.158287
72.205 16.574987
72.210 16.614943
72.215 16.139545
72.220 16.17795
72.225 15.815523
72.230 15.715921
72.235 15.94711
72.240 16.570936
72.245 17.064533
72.250 18.083862
72.255 18.101065
72.260 18.854364
72.265 18.946436
72.270 18.944836
72.275 18.623196
72.280 18.510284
72.285 18.404406
72.290 18.908476
72.295 18.61006
72.300 18.36644
72.305 18.221842
72.310 17.79854
72.315 17.389002
72.320 17.157452
72.325 17.250486
72.330 17.912127
72.335 18.468531
72.340 18.652731
72.345 18.919828
72.350 18.302364
72.355 17.923149
72.360 17.148268
72.365 16.826082
72.370 16.257813
72.375 15.772794
72.380 16.028599
72.385 16.697546
72.390 16.748852
72.395 17.213057
72.400 16.949635
72.405 17.346567
72.410 17.981133
72.415 18.176476
72.420 18.696814
72.425 18.580236
72.430 18.191904
72.435 17.422705
72.440 16.967085
72.445 16.928303
72.450 17.280796
72.455 17.778421
72.460 17.978893
72.465 18.315924
72.470 18.470098
72.475 18.767
72.480 18.465752
72.485 18.213039
72.490 18.259466
72.495 18.340189
72.500 18.738987
72.505 18.823059
72.510 18.263628
72.515 17.913277
72.520 17.508978
72.525 17.058109
72.530 16.904835
72.535 16.838667
72.540 17.064959
72.545 16.932192
72.550 17.420258
72.555 17.426472
72.560 17.710073
72.565 17.730566
72.570 17.602709
72.575 18.043207
72.580 19.152596
72.585 19.259699
72.590 19.780449
72.595 19.548157
72.600 19.868845
72.605 19.631123
72.610 19.166655
72.615 18.62307
72.620 18.513977
72.625 18.601
72.630 18.882771
72.635 18.350967
72.640 18.7008
72.645 18.561865
72.650 17.746908
72.655 17.280827
72.660 16.915833
72.665 16.666574
72.670 16.558769
72.675 16.639048
72.680 16.539675
72.685 17.248682
72.690 17.707104
72.695 17.477365
72.700 17.526173
72.705 17.736942
72.710 17.112823
72.715 17.078676
72.720 16.617138
72.725 16.352852
72.730 16.585815
72.735 16.40361
72.740 16.107452
72.745 16.444324
72.750 16.033623
72.755 15.914892
72.760 15.787399
72.765 16.163725
72.770 16.633121
72.775 16.581432
72.780 16.338978
72.785 16.455458
72.790 15.931573
72.795 15.692684
72.800 14.554999
72.805 14.345778
72.810 14.669672
72.815 15.004699
72.820 15.638652
72.825 16.654964
72.830 17.112417
72.835 18.088034
72.840 18.457516
72.845 18.35947
72.850 18.354372
72.855 17.791176
72.860 17.20261
72.865 16.995483
72.870 16.975441
72.875 16.950434
72.880 16.468845
72.885 16.231108
72.890 16.16448
72.895 16.056456
72.900 15.680199
72.905 15.454474
72.910 15.177654
72.915 15.619615
72.920 15.768091
72.925 16.35116
72.930 17.294796
72.935 17.052074
72.940 16.793949
72.945 17.369379
72.950 17.525639
72.955 17.640091
72.960 16.978825
72.965 16.665438
72.970 17.334988
72.975 17.115355
72.980 16.94779
72.985 16.620985
72.990 16.309475
72.995 16.878168
73.000 16.515139
