!@!!GADDS PLOTSO FILE: Chi integration type
!@!!Title/SampleName: map-36
!@!!Comment: ?
!@!!User: Bruker Instrument Administrator
!@!!Site: University of Illinois Chicago
!@!!Frame: map-36_01_000.gfrm
!@!!Wavelengths    1.54184   1.54056   1.54439
!@!!Frame angles: 2Theta: 63.000 Omega: 50.000 Phi: 0.000 Chi: 90.000
!@!!Integration range: 2Theta: 53.000 to 73.000  Gamma: -105.000 to -75.000
!@!!Integration method: bin normalized
!@!N
!@!SS
!@!M
!@!L 0.0 0.0 0.0 0.0
!@!XDegrees
!@!YCounts
53.000 8.129153
53.005 7.684478
53.010 6.995942
53.015 6.499794
53.020 6.381588
53.025 6.615345
53.030 6.433885
53.035 6.57537
53.040 7.099767
53.045 7.407337
53.050 7.578744
53.055 7.477402
53.060 7.558649
53.065 7.672891
53.070 7.493592
53.075 7.275508
53.080 6.835947
53.085 6.563032
53.090 6.65537
53.095 6.661925
53.100 7.147058
53.105 7.836717
53.110 8.129067
53.115 8.916867
53.120 9.116545
53.125 8.601514
53.130 8.350373
53.135 8.055424
53.140 7.703496
53.145 7.58114
53.150 7.258253
53.155 6.962483
53.160 7.761035
53.165 7.697847
53.170 7.716925
53.175 7.81443
53.180 8.040314
53.185 8.344959
53.190 8.318678
53.195 7.837392
53.200 7.952267
53.205 7.552202
53.210 7.522189
53.215 6.860543
53.220 6.96792
53.225 7.457726
53.230 7.564114
53.235 7.321133
53.240 7.42963
53.245 7.537482
53.250 7.611677
53.255 7.535645
53.260 7.295235
53.265 6.998433
53.270 7.048997
53.275 6.833003
53.280 6.799762
53.285 6.878924
53.290 7.131411
53.295 7.615865
53.300 7.667003
53.305 7.519996
53.310 7.882257
53.315 7.904494
53.320 8.089591
53.325 7.713093
53.330 7.897178
53.335 8.766395
53.340 9.00809
53.345 8.974258
53.350 8.983832
53.355 8.417915
53.360 7.924291
53.365 7.600934
53.370 7.195467
53.375 7.144543
53.380 6.855971
53.385 6.933858
53.390 7.47083
53.395 7.590417
53.400 7.475859
53.405 7.417907
53.410 7.855617
53.415 8.223651
53.420 8.82009
53.425 9.194788
53.430 9.763772
53.435 9.943731
53.440 9.55519
53.445 9.66314
53.450 9.618814
53.455 8.962723
53.460 8.931585
53.465 8.279693
53.470 8.404208
53.475 8.2925
53.480 8.247643
53.485 8.098062
53.490 8.238162
53.495 8.424977
53.500 8.64177
53.505 8.805151
53.510 9.091681
53.515 9.320079
53.520 9.669751
53.525 9.704022
53.530 9.414047
53.535 9.302593
53.540 9.219504
53.545 8.969186
53.550 8.814182
53.555 8.199127
53.560 8.340441
53.565 8.724551
53.570 8.721103
53.575 8.434756
53.580 8.196012
53.585 7.993398
53.590 8.399768
53.595 8.082208
53.600 8.26216
53.605 8.515666
53.610 9.31837
53.615 9.506808
53.620 9.661373
53.625 9.367749
53.630 9.185071
53.635 8.737946
53.640 8.5859
53.645 7.873173
53.650 7.963697
53.655 7.564574
53.660 7.720695
53.665 7.984439
53.670 8.181672
53.675 8.162383
53.680 8.623016
53.685 8.921564
53.690 9.112872
53.695 9.28493
53.700 9.070661
53.705 9.262734
53.710 9.241677
53.715 8.793404
53.720 9.024565
53.725 9.203859
53.730 9.179885
53.735 9.134767
53.740 8.800754
53.745 8.979162
53.750 9.047398
53.755 9.480832
53.760 9.485229
53.765 9.70478
53.770 9.488488
53.775 9.364423
53.780 9.340886
53.785 8.989747
53.790 8.460584
53.795 8.100609
53.800 7.582005
53.805 7.96837
53.810 8.402206
53.815 8.187902
53.820 8.530107
53.825 9.058524
53.830 9.694864
53.835 9.944405
53.840 9.654653
53.845 9.420201
53.850 9.733843
53.855 10.225906
53.860 10.215268
53.865 9.899541
53.870 9.679345
53.875 9.945824
53.880 9.970039
53.885 9.19834
53.890 8.436555
53.895 8.007558
53.900 8.341601
53.905 8.274144
53.910 7.78779
53.915 7.716539
53.920 7.956106
53.925 8.089738
53.930 8.383724
53.935 8.264977
53.940 8.594047
53.945 8.634521
53.950 8.875675
53.955 9.003372
53.960 9.38528
53.965 9.024354
53.970 9.02832
53.975 9.127372
53.980 9.206239
53.985 9.156091
53.990 8.896674
53.995 8.873236
54.000 9.286407
54.005 9.679705
54.010 9.669702
54.015 9.538019
54.020 9.687779
54.025 9.912845
54.030 9.455386
54.035 9.487946
54.040 9.333852
54.045 9.465384
54.050 9.264969
54.055 9.35586
54.060 9.613938
54.065 9.953651
54.070 10.013918
54.075 10.183908
54.080 10.502744
54.085 10.414968
54.090 10.077262
54.095 9.680549
54.100 10.022413
54.105 9.869552
54.110 9.973123
54.115 9.936367
54.120 10.00177
54.125 10.234535
54.130 10.266298
54.135 10.251346
54.140 9.965606
54.145 9.645452
54.150 9.797769
54.155 9.815058
54.160 9.798937
54.165 9.789652
54.170 9.661427
54.175 9.5818
54.180 9.378175
54.185 8.973326
54.190 8.916428
54.195 8.824656
54.200 8.67369
54.205 8.840506
54.210 8.759114
54.215 9.08008
54.220 9.515648
54.225 9.455727
54.230 9.407038
54.235 9.417186
54.240 9.457113
54.245 9.542208
54.250 9.558877
54.255 9.140286
54.260 9.414956
54.265 9.382702
54.270 9.46049
54.275 9.869727
54.280 10.447572
54.285 10.616509
54.290 10.824039
54.295 10.63857
54.300 10.756581
54.305 10.733827
54.310 10.430498
54.315 10.462281
54.320 10.317798
54.325 10.099201
54.330 10.005196
54.335 9.667128
54.340 9.434704
54.345 9.354755
54.350 8.858279
54.355 8.856014
54.360 9.273208
54.365 9.20504
54.370 9.287894
54.375 8.914033
54.380 8.536894
54.385 8.444312
54.390 8.181396
54.395 8.199052
54.400 8.71306
54.405 8.864774
54.410 9.153235
54.415 9.284467
54.420 9.421437
54.425 9.502704
54.430 9.374479
54.435 9.394255
54.440 9.320166
54.445 9.635602
54.450 10.300929
54.455 10.523835
54.460 10.666977
54.465 10.529207
54.470 10.047337
54.475 10.042695
54.480 9.865726
54.485 9.226145
54.490 9.242398
54.495 9.402206
54.500 9.306439
54.505 9.605157
54.510 9.41329
54.515 9.227151
54.520 9.66408
54.525 9.547874
54.530 9.388986
54.535 9.403289
54.540 9.194917
54.545 9.312898
54.550 9.49826
54.555 9.667295
54.560 9.698409
54.565 9.850761
54.570 9.85017
54.575 10.252684
54.580 10.128031
54.585 9.98308
54.590 9.476564
54.595 9.425203
54.600 9.622429
54.605 9.370665
54.610 9.081322
54.615 9.39609
54.620 9.585643
54.625 9.710433
54.630 9.855966
54.635 9.841587
54.640 10.097442
54.645 9.908624
54.650 9.794441
54.655 9.759792
54.660 9.880025
54.665 9.374514
54.670 9.355928
54.675 9.982246
54.680 9.756122
54.685 9.509909
54.690 9.147902
54.695 9.262959
54.700 9.42056
54.705 9.333958
54.710 9.057592
54.715 9.110979
54.720 9.387889
54.725 9.511819
54.730 9.578971
54.735 9.843042
54.740 10.082609
54.745 10.475509
54.750 10.832762
54.755 10.87093
54.760 10.816042
54.765 10.395608
54.770 10.014077
54.775 9.745536
54.780 9.402846
54.785 9.037045
54.790 8.650096
54.795 8.857764
54.800 9.153364
54.805 9.055054
54.810 9.492107
54.815 9.819558
54.820 10.6182
54.825 10.938594
54.830 10.922809
54.835 11.012199
54.840 10.845086
54.845 10.819811
54.850 10.910157
54.855 10.324449
54.860 10.145738
54.865 9.635634
54.870 9.921788
54.875 10.187236
54.880 9.780942
54.885 9.913595
54.890 10.204951
54.895 10.432407
54.900 10.65032
54.905 10.310408
54.910 10.090232
54.915 10.3063
54.920 9.863334
54.925 9.56654
54.930 9.63007
54.935 9.449458
54.940 9.726368
54.945 9.859255
54.950 9.606882
54.955 10.148865
54.960 10.562738
54.965 10.623001
54.970 11.118331
54.975 10.969951
54.980 11.125395
54.985 11.230488
54.990 10.973569
54.995 10.262397
55.000 10.029793
55.005 9.523335
55.010 9.170755
55.015 8.831158
55.020 8.545338
55.025 8.676237
55.030 9.297189
55.035 9.47174
55.040 9.940823
55.045 10.21355
55.050 10.366708
55.055 10.326573
55.060 10.298697
55.065 9.947544
55.070 9.732446
55.075 10.093656
55.080 10.494374
55.085 9.831026
55.090 9.820371
55.095 9.835812
55.100 10.247677
55.105 10.259346
55.110 10.070576
55.115 9.778494
55.120 10.507427
55.125 11.031587
55.130 11.362018
55.135 11.600033
55.140 11.651195
55.145 11.616019
55.150 11.679421
55.155 11.582549
55.160 11.060549
55.165 10.675072
55.170 10.537284
55.175 10.442863
55.180 10.235508
55.185 10.374653
55.190 10.610857
55.195 11.116672
55.200 11.345468
55.205 11.238758
55.210 11.217656
55.215 11.23618
55.220 10.580617
55.225 9.867889
55.230 9.611098
55.235 9.637698
55.240 9.651782
55.245 9.577342
55.250 9.61962
55.255 10.462609
55.260 10.590549
55.265 10.013363
55.270 9.701521
55.275 9.46034
55.280 9.832893
55.285 10.095896
55.290 10.334227
55.295 10.552465
55.300 11.233829
55.305 11.662342
55.310 11.887254
55.315 11.760055
55.320 11.285699
55.325 11.632664
55.330 11.983912
55.335 11.501179
55.340 11.24684
55.345 11.60164
55.350 11.523765
55.355 12.135396
55.360 12.236499
55.365 12.625824
55.370 12.900266
55.375 12.877707
55.380 12.589805
55.385 12.380512
55.390 12.046915
55.395 11.704926
55.400 11.261149
55.405 11.072494
55.410 11.002924
55.415 10.736398
55.420 10.884831
55.425 10.422797
55.430 9.967176
55.435 9.49077
55.440 9.359042
55.445 9.563514
55.450 9.856853
55.455 9.710609
55.460 9.909874
55.465 10.478426
55.470 11.08014
55.475 11.493483
55.480 11.253583
55.485 11.701089
55.490 11.574332
55.495 11.653308
55.500 11.255136
55.505 11.428722
55.510 11.34324
55.515 11.300788
55.520 11.380855
55.525 11.592638
55.530 11.357045
55.535 11.721089
55.540 11.641723
55.545 11.976885
55.550 11.88207
55.555 11.346898
55.560 10.953497
55.565 11.158133
55.570 11.304048
55.575 11.029959
55.580 10.754475
55.585 11.408171
55.590 11.856801
55.595 11.788376
55.600 11.682895
55.605 11.695454
55.610 11.790702
55.615 11.705717
55.620 11.012423
55.625 10.91221
55.630 11.061919
55.635 10.777179
55.640 10.820133
55.645 11.00295
55.650 11.182638
55.655 11.042109
55.660 11.069303
55.665 11.21211
55.670 11.40162
55.675 11.449059
55.680 11.448
55.685 12.013566
55.690 12.630857
55.695 12.951328
55.700 12.957163
55.705 12.654867
55.710 12.39595
55.715 11.8001
55.720 11.286184
55.725 10.611667
55.730 10.326425
55.735 10.152357
55.740 9.907295
55.745 9.527603
55.750 9.733348
55.755 9.746922
55.760 10.105202
55.765 10.341494
55.770 10.870789
55.775 10.915697
55.780 10.787971
55.785 11.061912
55.790 11.305365
55.795 11.619973
55.800 11.690774
55.805 11.249082
55.810 11.297183
55.815 11.645383
55.820 11.319678
55.825 10.868254
55.830 10.136142
55.835 10.00375
55.840 10.254068
55.845 10.40016
55.850 10.495612
55.855 10.824143
55.860 11.024306
55.865 11.29321
55.870 11.795341
55.875 11.874134
55.880 11.919651
55.885 12.513027
55.890 12.412158
55.895 12.365124
55.900 12.264986
55.905 11.975123
55.910 12.326156
55.915 12.507424
55.920 12.044968
55.925 12.408392
55.930 13.119547
55.935 13.304238
55.940 13.468118
55.945 13.464123
55.950 13.430226
55.955 13.023125
55.960 12.191765
55.965 11.788222
55.970 11.523965
55.975 11.735391
55.980 11.269488
55.985 11.253063
55.990 11.292227
55.995 11.372799
56.000 11.431927
56.005 11.241659
56.010 11.219671
56.015 11.476932
56.020 12.183132
56.025 12.624855
56.030 12.715
56.035 13.100957
56.040 12.921645
56.045 12.390774
56.050 12.139806
56.055 11.344677
56.060 10.879951
56.065 10.26356
56.070 9.753814
56.075 9.917714
56.080 9.828278
56.085 9.840014
56.090 10.096576
56.095 10.395404
56.100 10.873173
56.105 10.915087
56.110 10.987336
56.115 11.251717
56.120 11.337058
56.125 11.085347
56.130 10.863252
56.135 10.532969
56.140 10.7606
56.145 11.565383
56.150 11.095168
56.155 11.221171
56.160 11.883348
56.165 12.336148
56.170 12.4896
56.175 12.270586
56.180 11.565536
56.185 11.670598
56.190 11.631574
56.195 11.287474
56.200 11.031966
56.205 11.138677
56.210 11.162232
56.215 11.841748
56.220 12.143155
56.225 12.327658
56.230 12.756035
56.235 13.288316
56.240 13.382072
56.245 13.678343
56.250 13.645301
56.255 13.980313
56.260 13.706302
56.265 13.335846
56.270 12.6122
56.275 12.646479
56.280 12.057466
56.285 11.40539
56.290 10.715776
56.295 10.749791
56.300 11.268817
56.305 11.242626
56.310 11.084899
56.315 11.481937
56.320 11.516025
56.325 11.553027
56.330 11.842995
56.335 11.880758
56.340 12.056422
56.345 11.939619
56.350 11.708408
56.355 11.84884
56.360 11.66519
56.365 11.30774
56.370 11.340332
56.375 11.500172
56.380 11.543086
56.385 11.304218
56.390 11.434023
56.395 11.434718
56.400 11.324714
56.405 11.307045
56.410 11.663877
56.415 12.173929
56.420 12.373823
56.425 12.478137
56.430 12.440849
56.435 12.128574
56.440 12.293283
56.445 11.999809
56.450 11.712626
56.455 11.958982
56.460 11.88815
56.465 11.812682
56.470 11.99167
56.475 11.799459
56.480 11.715715
56.485 11.399258
56.490 11.691561
56.495 11.891522
56.500 12.190423
56.505 12.283152
56.510 12.326294
56.515 12.20758
56.520 12.440532
56.525 12.281535
56.530 12.630172
56.535 12.605676
56.540 12.36065
56.545 12.079017
56.550 12.465189
56.555 12.482455
56.560 12.064945
56.565 11.570451
56.570 11.491526
56.575 11.927666
56.580 12.194737
56.585 11.525519
56.590 11.4404
56.595 11.482504
56.600 11.777176
56.605 11.879926
56.610 11.433548
56.615 11.57413
56.620 11.90969
56.625 11.944283
56.630 11.60139
56.635 11.600951
56.640 11.70722
56.645 11.771133
56.650 11.680116
56.655 11.72261
56.660 11.575363
56.665 11.364863
56.670 10.905493
56.675 10.99079
56.680 11.001462
56.685 11.288928
56.690 11.234756
56.695 11.42097
56.700 12.220381
56.705 12.544954
56.710 12.467578
56.715 12.447762
56.720 12.421785
56.725 12.768394
56.730 13.112756
56.735 12.996229
56.740 12.556523
56.745 12.203608
56.750 12.292831
56.755 12.385471
56.760 12.157496
56.765 12.571659
56.770 12.943946
56.775 13.137196
56.780 13.335816
56.785 13.368749
56.790 13.382195
56.795 13.102308
56.800 12.392952
56.805 11.904886
56.810 11.91948
56.815 12.030647
56.820 11.927339
56.825 12.078565
56.830 12.225087
56.835 12.873504
56.840 14.034771
56.845 14.463839
56.850 14.549531
56.855 14.509768
56.860 14.408298
56.865 14.391701
56.870 14.00218
56.875 13.688306
56.880 13.178073
56.885 12.794104
56.890 12.596103
56.895 12.141043
56.900 11.753097
56.905 11.195101
56.910 10.95882
56.915 11.353234
56.920 11.357524
56.925 11.698298
56.930 12.278014
56.935 12.698076
56.940 13.127586
56.945 13.058835
56.950 12.920315
56.955 12.978657
56.960 12.712206
56.965 12.973454
56.970 13.020509
56.975 12.887716
56.980 12.873545
56.985 13.056997
56.990 12.889465
56.995 13.014885
57.000 12.490584
57.005 12.033276
57.010 11.740406
57.015 11.726108
57.020 11.660633
57.025 11.504764
57.030 11.482646
57.035 11.512677
57.040 11.672352
57.045 11.786617
57.050 12.225948
57.055 12.495049
57.060 12.887743
57.065 12.754077
57.070 12.62128
57.075 12.909158
57.080 13.204406
57.085 12.898204
57.090 12.762259
57.095 13.016106
57.100 13.323779
57.105 13.817675
57.110 13.839382
57.115 13.647241
57.120 13.633902
57.125 13.717149
57.130 13.378345
57.135 13.388968
57.140 12.896129
57.145 12.651635
57.150 12.643176
57.155 12.304929
57.160 11.964734
57.165 11.686892
57.170 11.761087
57.175 12.216436
57.180 12.284631
57.185 12.593509
57.190 12.942636
57.195 13.336257
57.200 13.546431
57.205 13.186769
57.210 12.842641
57.215 12.795008
57.220 12.370743
57.225 12.226492
57.230 12.071311
57.235 11.939087
57.240 11.907508
57.245 11.602954
57.250 11.323196
57.255 11.023348
57.260 10.978456
57.265 10.882684
57.270 10.692478
57.275 10.659819
57.280 10.79636
57.285 10.864722
57.290 11.119594
57.295 11.065112
57.300 11.576268
57.305 12.347051
57.310 12.669782
57.315 13.583305
57.320 14.856953
57.325 15.305176
57.330 15.602197
57.335 15.082241
57.340 14.441957
57.345 14.275995
57.350 13.697164
57.355 13.11464
57.360 12.992849
57.365 13.351324
57.370 13.443199
57.375 13.642526
57.380 13.600338
57.385 12.839876
57.390 12.655739
57.395 12.63448
57.400 12.728616
57.405 13.017235
57.410 13.108285
57.415 13.292038
57.420 13.34868
57.425 13.162411
57.430 12.950397
57.435 12.626
57.440 13.104657
57.445 13.400805
57.450 13.496413
57.455 13.716882
57.460 13.92197
57.465 13.816542
57.470 13.768512
57.475 13.107867
57.480 12.850469
57.485 13.000915
57.490 12.998312
57.495 13.366616
57.500 13.267782
57.505 13.018292
57.510 13.087845
57.515 13.204642
57.520 13.04365
57.525 12.620743
57.530 12.583754
57.535 12.927964
57.540 13.10741
57.545 13.213693
57.550 13.420951
57.555 13.252932
57.560 13.102494
57.565 12.758115
57.570 12.853658
57.575 12.920288
57.580 12.406105
57.585 12.430818
57.590 12.931281
57.595 13.324149
57.600 13.475498
57.605 13.560113
57.610 13.863137
57.615 13.902719
57.620 13.878069
57.625 13.915544
57.630 14.034454
57.635 14.150892
57.640 14.391731
57.645 14.219063
57.650 14.467784
57.655 13.930588
57.660 13.927413
57.665 13.768501
57.670 13.018337
57.675 12.226163
57.680 12.001226
57.685 12.119999
57.690 13.01069
57.695 13.501573
57.700 13.982235
57.705 14.329347
57.710 14.691506
57.715 15.109405
57.720 14.692779
57.725 14.370372
57.730 13.792441
57.735 13.443175
57.740 13.297569
57.745 13.100121
57.750 13.298324
57.755 13.337828
57.760 13.151735
57.765 13.096428
57.770 13.030034
57.775 13.436356
57.780 13.304707
57.785 12.867707
57.790 12.810587
57.795 12.97082
57.800 13.419911
57.805 13.525439
57.810 13.535867
57.815 14.131203
57.820 14.768261
57.825 15.164891
57.830 15.076421
57.835 15.021895
57.840 15.10076
57.845 14.879678
57.850 14.587004
57.855 13.751348
57.860 13.449217
57.865 13.058772
57.870 12.566429
57.875 12.616801
57.880 12.930105
57.885 12.738642
57.890 13.148381
57.895 13.135592
57.900 12.866656
57.905 12.81133
57.910 12.605726
57.915 12.115952
57.920 12.340111
57.925 12.303638
57.930 12.080935
57.935 12.711101
57.940 12.859832
57.945 13.250942
57.950 13.553508
57.955 13.268532
57.960 12.969874
57.965 13.538432
57.970 13.572327
57.975 13.438029
57.980 13.163335
57.985 13.056534
57.990 13.367646
57.995 14.103697
58.000 13.988815
58.005 13.76099
58.010 13.610696
58.015 13.458493
58.020 13.310176
58.025 13.021447
58.030 12.473962
58.035 12.24143
58.040 12.406641
58.045 12.260474
58.050 12.39013
58.055 12.680092
58.060 13.268785
58.065 13.320449
58.070 12.87871
58.075 12.617743
58.080 13.438072
58.085 13.287578
58.090 12.994846
58.095 12.496562
58.100 12.877853
58.105 13.579998
58.110 14.38169
58.115 14.349368
58.120 14.78217
58.125 15.210734
58.130 15.202655
58.135 15.086163
58.140 14.71695
58.145 14.131752
58.150 14.133376
58.155 14.232218
58.160 14.207188
58.165 14.052011
58.170 14.077208
58.175 14.191274
58.180 14.274833
58.185 14.261819
58.190 13.932103
58.195 13.157494
58.200 13.147347
58.205 13.447143
58.210 13.923086
58.215 14.099306
58.220 13.930402
58.225 14.021368
58.230 14.850447
58.235 15.550054
58.240 15.345876
58.245 14.712885
58.250 14.350672
58.255 14.663098
58.260 15.052791
58.265 15.070204
58.270 14.581233
58.275 14.476521
58.280 14.66802
58.285 14.127042
58.290 13.867653
58.295 13.717923
58.300 13.760999
58.305 13.691998
58.310 13.55162
58.315 13.562671
58.320 13.944933
58.325 13.797704
58.330 13.937298
58.335 13.756128
58.340 13.360059
58.345 13.817971
58.350 13.822284
58.355 13.342163
58.360 13.197579
58.365 13.06151
58.370 12.942462
58.375 13.414433
58.380 13.049
58.385 13.281603
58.390 13.960135
58.395 14.174389
58.400 14.538176
58.405 14.704934
58.410 14.255312
58.415 13.980874
58.420 14.312981
58.425 14.228223
58.430 14.212769
58.435 14.057853
58.440 14.439603
58.445 14.996952
58.450 15.089575
58.455 14.66796
58.460 14.583826
58.465 14.310231
58.470 14.083026
58.475 14.096346
58.480 14.86055
58.485 15.081224
58.490 15.257038
58.495 15.928324
58.500 16.012306
58.505 16.511713
58.510 16.038923
58.515 15.280451
58.520 15.158512
58.525 14.719796
58.530 14.18116
58.535 14.019333
58.540 13.179848
58.545 12.84106
58.550 13.099285
58.555 12.716174
58.560 13.069765
58.565 12.91372
58.570 12.810436
58.575 13.252246
58.580 13.211617
58.585 13.327882
58.590 13.763502
58.595 13.644691
58.600 13.778194
58.605 14.215033
58.610 14.159182
58.615 14.702359
58.620 14.680573
58.625 14.82005
58.630 15.070062
58.635 15.895656
58.640 15.963589
58.645 16.538866
58.650 16.355114
58.655 15.678061
58.660 15.514278
58.665 15.482517
58.670 14.795886
58.675 14.952564
58.680 15.063502
58.685 15.493389
58.690 15.709796
58.695 15.314856
58.700 14.57652
58.705 14.612309
58.710 14.106218
58.715 13.656431
58.720 13.933318
58.725 14.492651
58.730 14.870508
58.735 15.26047
58.740 15.507661
58.745 15.623453
58.750 15.619746
58.755 14.891811
58.760 14.461012
58.765 14.238326
58.770 14.348466
58.775 14.305628
58.780 13.889902
58.785 13.421619
58.790 13.201533
58.795 13.613788
58.800 13.495336
58.805 13.343353
58.810 13.439222
58.815 13.409486
58.820 13.538134
58.825 13.683765
58.830 13.848721
58.835 14.095704
58.840 13.804952
58.845 13.457372
58.850 14.209152
58.855 14.503904
58.860 14.674579
58.865 14.700448
58.870 15.046427
58.875 15.19254
58.880 15.08727
58.885 14.500008
58.890 14.742865
58.895 14.654394
58.900 14.200098
58.905 14.073636
58.910 14.606588
58.915 15.146848
58.920 14.867546
58.925 14.265174
58.930 14.051531
58.935 14.23105
58.940 14.457622
58.945 14.191694
58.950 14.099332
58.955 14.057217
58.960 14.035759
58.965 14.399524
58.970 14.441963
58.975 14.617314
58.980 14.671916
58.985 15.108071
58.990 15.718776
58.995 16.185225
59.000 16.249866
59.005 16.098198
59.010 15.789406
59.015 15.788281
59.020 15.770321
59.025 15.485413
59.030 15.258259
59.035 15.72385
59.040 16.162788
59.045 16.224468
59.050 15.95864
59.055 15.802981
59.060 15.749676
59.065 15.484583
59.070 15.041077
59.075 14.393515
59.080 14.622255
59.085 14.878016
59.090 14.947356
59.095 14.990053
59.100 15.078162
59.105 14.978023
59.110 15.218301
59.115 15.058137
59.120 14.999812
59.125 15.274981
59.130 15.648752
59.135 15.745198
59.140 15.886824
59.145 15.882102
59.150 16.100199
59.155 15.377853
59.160 14.94364
59.165 15.086249
59.170 15.066596
59.175 15.374508
59.180 15.590199
59.185 16.128185
59.190 16.598007
59.195 17.102848
59.200 17.124723
59.205 17.086264
59.210 16.832479
59.215 16.328911
59.220 15.814697
59.225 16.045229
59.230 16.130177
59.235 15.723392
59.240 15.579675
59.245 16.004139
59.250 15.930598
59.255 15.907707
59.260 15.918111
59.265 15.972239
59.270 16.416122
59.275 16.995567
59.280 16.843363
59.285 16.739901
59.290 16.558535
59.295 16.497564
59.300 16.481483
59.305 16.404003
59.310 15.963795
59.315 15.86736
59.320 16.41888
59.325 17.11478
59.330 17.028196
59.335 16.596172
59.340 15.95752
59.345 16.062063
59.350 16.422403
59.355 16.278633
59.360 15.806876
59.365 15.650335
59.370 15.858946
59.375 15.742899
59.380 15.285748
59.385 15.14917
59.390 15.8942
59.395 15.795218
59.400 15.8724
59.405 15.654017
59.410 16.521269
59.415 17.051315
59.420 16.862671
59.425 16.457514
59.430 16.794252
59.435 16.689571
59.440 16.842682
59.445 16.435949
59.450 16.581377
59.455 17.111698
59.460 16.975946
59.465 17.181299
59.470 17.888304
59.475 18.073835
59.480 18.401096
59.485 17.835014
59.490 17.079435
59.495 16.460018
59.500 15.74528
59.505 15.59897
59.510 15.430132
59.515 14.901854
59.520 15.302981
59.525 16.053175
59.530 16.406862
59.535 17.092562
59.540 16.973562
59.545 16.940834
59.550 17.314688
59.555 17.623888
59.560 17.380833
59.565 16.959885
59.570 16.445648
59.575 16.206026
59.580 16.11853
59.585 15.995271
59.590 15.445802
59.595 15.203986
59.600 16.042067
59.605 16.518156
59.610 17.069494
59.615 17.563705
59.620 17.647085
59.625 17.97547
59.630 18.277466
59.635 18.17454
59.640 18.158436
59.645 17.983166
59.650 18.087269
59.655 17.991571
59.660 17.783337
59.665 17.364815
59.670 17.015484
59.675 17.260815
59.680 17.580799
59.685 17.740738
59.690 18.167017
59.695 18.418566
59.700 19.097767
59.705 19.094265
59.710 18.777136
59.715 18.204325
59.720 17.718361
59.725 18.231743
59.730 18.44792
59.735 18.134613
59.740 18.151548
59.745 18.399366
59.750 19.337458
59.755 19.497044
59.760 19.173119
59.765 18.860218
59.770 18.639
59.775 18.693863
59.780 18.565147
59.785 17.931894
59.790 18.037142
59.795 17.634344
59.800 18.016743
59.805 18.525633
59.810 18.987827
59.815 18.429283
59.820 18.572371
59.825 18.198267
59.830 18.376963
59.835 18.063389
59.840 17.994598
59.845 18.512568
59.850 19.167484
59.855 18.909489
59.860 19.598534
59.865 20.425079
59.870 21.032402
59.875 20.803656
59.880 20.55682
59.885 20.811728
59.890 20.898586
59.895 20.092594
59.900 19.382742
59.905 19.233892
59.910 19.029428
59.915 18.297768
59.920 18.489803
59.925 18.737623
59.930 18.701067
59.935 18.398161
59.940 18.116369
59.945 18.683483
59.950 18.645071
59.955 18.073158
59.960 18.378138
59.965 18.783171
59.970 18.524805
59.975 18.369993
59.980 18.607344
59.985 19.295673
59.990 19.8699
59.995 19.475283
60.000 19.999193
60.005 20.870962
60.010 21.162786
60.015 20.567438
60.020 20.432459
60.025 20.203068
60.030 20.601206
60.035 20.366583
60.040 20.062157
60.045 20.299709
60.050 20.947422
60.055 20.663691
60.060 20.865986
60.065 20.589857
60.070 20.8398
60.075 20.929457
60.080 21.183142
60.085 21.930632
60.090 22.201181
60.095 22.006254
60.100 21.821909
60.105 21.389202
60.110 20.835672
60.115 20.812855
60.120 20.515076
60.125 20.684511
60.130 20.631495
60.135 20.969707
60.140 21.84771
60.145 22.336309
60.150 22.370268
60.155 21.522259
60.160 21.390285
60.165 21.55994
60.170 21.428581
60.175 20.924568
60.180 21.007025
60.185 20.456274
60.190 20.108778
60.195 19.877028
60.200 19.875233
60.205 19.752918
60.210 19.745266
60.215 19.412233
60.220 19.651804
60.225 20.347187
60.230 20.892904
60.235 20.912169
60.240 21.254414
60.245 21.276915
60.250 21.267052
60.255 21.271305
60.260 21.412434
60.265 21.455467
60.270 21.321308
60.275 21.177177
60.280 21.164654
60.285 21.787565
60.290 21.688538
60.295 21.256479
60.300 20.752708
60.305 20.571447
60.310 20.76128
60.315 21.033213
60.320 20.5392
60.325 20.28091
60.330 20.471581
60.335 20.779568
60.340 20.938526
60.345 21.324957
60.350 20.859417
60.355 20.800766
60.360 21.05394
60.365 20.679878
60.370 20.135492
60.375 19.957949
60.380 19.617659
60.385 20.301767
60.390 20.379896
60.395 21.379925
60.400 21.402201
60.405 21.584337
60.410 21.527676
60.415 21.177979
60.420 20.612743
60.425 20.333015
60.430 18.996109
60.435 18.377354
60.440 18.14393
60.445 18.094423
60.450 18.332703
60.455 18.121992
60.460 18.488991
60.465 19.179121
60.470 19.828701
60.475 20.27524
60.480 20.427467
60.485 20.587399
60.490 20.862377
60.495 20.724474
60.500 20.588419
60.505 20.486944
60.510 20.581894
60.515 20.228954
60.520 19.281286
60.525 18.874653
60.530 18.618742
60.535 19.529085
60.540 19.500347
60.545 19.394751
60.550 19.272875
60.555 19.631927
60.560 19.958466
60.565 20.237902
60.570 19.275146
60.575 19.393679
60.580 19.656879
60.585 20.467802
60.590 20.492304
60.595 20.171644
60.600 20.271471
60.605 20.910074
60.610 20.578896
60.615 19.958794
60.620 19.421549
60.625 19.27033
60.630 18.89332
60.635 17.584002
60.640 16.997927
60.645 17.212259
60.650 17.716551
60.655 17.851204
60.660 18.305794
60.665 18.755251
60.670 19.184338
60.675 19.186646
60.680 19.06262
60.685 18.001501
60.690 17.853872
60.695 17.501896
60.700 17.654163
60.705 17.654032
60.710 17.174282
60.715 17.043657
60.720 17.884584
60.725 17.750801
60.730 18.061518
60.735 18.244358
60.740 18.066206
60.745 18.271648
60.750 19.23259
60.755 19.305126
60.760 19.511127
60.765 19.05554
60.770 18.551357
60.775 18.536644
60.780 18.615631
60.785 17.784737
60.790 17.193886
60.795 17.1071
60.800 16.800358
60.805 17.164028
60.810 17.635607
60.815 17.256538
60.820 17.642101
60.825 17.916422
60.830 17.409552
60.835 17.690378
60.840 17.551922
60.845 16.794813
60.850 16.852404
60.855 17.099018
60.860 17.27894
60.865 17.750765
60.870 17.774975
60.875 17.970053
60.880 18.162577
60.885 17.337214
60.890 16.333632
60.895 15.689383
60.900 16.060165
60.905 15.932135
60.910 15.799024
60.915 15.937809
60.920 16.424891
60.925 16.830568
60.930 16.838614
60.935 16.695908
60.940 16.72279
60.945 16.238089
60.950 16.429684
60.955 16.43383
60.960 16.906153
60.965 17.105894
60.970 16.972464
60.975 16.818886
60.980 17.065506
60.985 17.438324
60.990 17.391691
60.995 17.199108
61.000 17.195112
61.005 16.921019
61.010 16.921141
61.015 16.621382
61.020 16.137316
61.025 16.281694
61.030 16.065538
61.035 16.335625
61.040 16.564484
61.045 16.552225
61.050 17.117535
61.055 17.510702
61.060 17.198631
61.065 16.885904
61.070 16.801851
61.075 16.627295
61.080 17.075806
61.085 16.610994
61.090 15.840962
61.095 15.922699
61.100 15.723392
61.105 15.644719
61.110 15.814425
61.115 15.430653
61.120 15.858745
61.125 16.431465
61.130 17.086756
61.135 17.281073
61.140 16.938211
61.145 16.80302
61.150 16.640965
61.155 16.302357
61.160 15.953821
61.165 15.646869
61.170 15.468203
61.175 15.703569
61.180 15.388954
61.185 15.882119
61.190 16.418228
61.195 16.79277
61.200 17.150309
61.205 17.802847
61.210 18.1413
61.215 18.185953
61.220 18.425802
61.225 18.567986
61.230 18.531857
61.235 17.933428
61.240 17.522284
61.245 17.759937
61.250 17.784662
61.255 17.464025
61.260 16.897516
61.265 16.954037
61.270 17.190338
61.275 17.217129
61.280 17.04851
61.285 17.356819
61.290 17.164154
61.295 17.510283
61.300 17.195013
61.305 17.303282
61.310 17.096165
61.315 16.65456
61.320 16.546419
61.325 16.621189
61.330 16.623541
61.335 16.803606
61.340 16.776817
61.345 17.079453
61.350 17.142344
61.355 17.144878
61.360 16.948193
61.365 16.06798
61.370 15.720464
61.375 15.508915
61.380 15.747735
61.385 15.656563
61.390 16.069496
61.395 15.99816
61.400 16.087196
61.405 16.337206
61.410 16.727947
61.415 16.595459
61.420 16.822752
61.425 16.166466
61.430 16.64043
61.435 17.05615
61.440 16.624834
61.445 16.397671
61.450 16.548527
61.455 16.306574
61.460 16.171
61.465 16.174938
61.470 16.432381
61.475 16.910637
61.480 17.049261
61.485 17.228283
61.490 17.351933
61.495 17.746704
61.500 17.506626
61.505 17.295378
61.510 17.452896
61.515 17.710945
61.520 17.510195
61.525 17.368231
61.530 17.682844
61.535 17.994326
61.540 17.840328
61.545 17.637388
61.550 17.599314
61.555 18.013754
61.560 18.39702
61.565 18.036043
61.570 17.850151
61.575 18.099318
61.580 17.731895
61.585 17.209114
61.590 16.493589
61.595 15.633544
61.600 15.772175
61.605 15.621919
61.610 15.13821
61.615 15.580022
61.620 15.64032
61.625 16.123978
61.630 16.087008
61.635 15.828306
61.640 16.153255
61.645 16.662251
61.650 16.456936
61.655 16.488766
61.660 16.801601
61.665 17.467194
61.670 17.635105
61.675 17.373966
61.680 16.714518
61.685 16.652077
61.690 16.734039
61.695 16.162766
61.700 15.741986
61.705 15.290177
61.710 15.27964
61.715 15.694193
61.720 15.830597
61.725 15.793251
61.730 15.976522
61.735 16.068714
61.740 16.257223
61.745 16.266752
61.750 16.151751
61.755 16.017319
61.760 16.111542
61.765 16.367056
61.770 16.469589
61.775 16.522995
61.780 16.484554
61.785 17.002867
61.790 17.097221
61.795 16.951923
61.800 16.776863
61.805 16.995468
61.810 17.589743
61.815 17.698374
61.820 17.320971
61.825 17.416409
61.830 17.475517
61.835 17.4923
61.840 17.267187
61.845 16.687963
61.850 16.53879
61.855 16.830227
61.860 17.093174
61.865 16.748306
61.870 16.557804
61.875 16.75997
61.880 16.833868
61.885 16.630308
61.890 16.20866
61.895 16.171358
61.900 16.243164
61.905 15.883613
61.910 15.650621
61.915 15.921578
61.920 16.05374
61.925 15.843046
61.930 15.734559
61.935 16.115042
61.940 16.669798
61.945 16.40365
61.950 15.941366
61.955 16.272942
61.960 16.358511
61.965 16.520111
61.970 16.609404
61.975 16.484413
61.980 17.041431
61.985 16.98456
61.990 16.858797
61.995 16.462719
62.000 16.303391
62.005 16.154583
62.010 16.712881
62.015 16.485703
62.020 16.516249
62.025 16.243141
62.030 16.386131
62.035 16.594383
62.040 16.15971
62.045 15.141199
62.050 14.898497
62.055 14.845339
62.060 15.361954
62.065 15.612039
62.070 15.535985
62.075 15.877379
62.080 16.587046
62.085 17.125664
62.090 17.392048
62.095 17.554844
62.100 17.322956
62.105 17.563644
62.110 17.902327
62.115 17.620333
62.120 17.4443
62.125 17.789543
62.130 17.845171
62.135 18.119764
62.140 18.043961
62.145 17.580545
62.150 17.557634
62.155 17.705212
62.160 17.395649
62.165 17.476456
62.170 18.078287
62.175 18.028172
62.180 18.526581
62.185 18.50909
62.190 18.239178
62.195 17.913776
62.200 17.534889
62.205 16.263355
62.210 15.789138
62.215 15.124259
62.220 14.762599
62.225 15.070511
62.230 14.811009
62.235 14.530321
62.240 15.284858
62.245 15.540814
62.250 15.985724
62.255 16.406874
62.260 16.323584
62.265 16.06386
62.270 16.134048
62.275 15.687353
62.280 15.82398
62.285 15.867274
62.290 15.328275
62.295 15.493876
62.300 15.832095
62.305 16.000656
62.310 16.222202
62.315 16.275661
62.320 16.11606
62.325 16.214931
62.330 16.774979
62.335 16.745934
62.340 16.961327
62.345 17.169788
62.350 16.713867
62.355 17.01116
62.360 16.980015
62.365 16.474554
62.370 16.353975
62.375 15.772566
62.380 15.793175
62.385 16.314854
62.390 16.617647
62.395 17.052929
62.400 17.229374
62.405 17.570112
62.410 17.772402
62.415 18.119585
62.420 18.238922
62.425 18.273655
62.430 18.177959
62.435 17.865662
62.440 18.026993
62.445 18.115782
62.450 18.506838
62.455 18.275198
62.460 17.579006
62.465 17.579382
62.470 17.379681
62.475 17.139111
62.480 16.846918
62.485 16.038359
62.490 16.534836
62.495 16.74519
62.500 16.56883
62.505 17.208393
62.510 17.185923
62.515 17.358091
62.520 17.131905
62.525 16.506519
62.530 16.395155
62.535 16.199116
62.540 15.629392
62.545 15.633559
62.550 15.274628
62.555 14.984664
62.560 14.852764
62.565 14.602017
62.570 14.575523
62.575 14.856178
62.580 14.919963
62.585 14.662502
62.590 14.703631
62.595 14.905681
62.600 14.746394
62.605 14.976174
62.610 14.950331
62.615 14.64574
62.620 14.87849
62.625 15.204596
62.630 15.171708
62.635 15.651499
62.640 15.722723
62.645 15.787499
62.650 16.267948
62.655 16.431385
62.660 16.584867
62.665 16.99468
62.670 17.214367
62.675 17.178188
62.680 17.249147
62.685 17.321665
62.690 17.384811
62.695 16.994904
62.700 16.614437
62.705 16.058626
62.710 15.709021
62.715 15.576677
62.720 15.85472
62.725 16.217283
62.730 16.421965
62.735 16.647869
62.740 17.188635
62.745 17.019781
62.750 16.643703
62.755 16.460995
62.760 16.462934
62.765 16.842415
62.770 17.023256
62.775 17.179302
62.780 17.706602
62.785 17.631447
62.790 17.611633
62.795 17.356888
62.800 16.974493
62.805 17.071671
62.810 16.655693
62.815 16.406364
62.820 16.217577
62.825 15.65776
62.830 15.862209
62.835 15.845892
62.840 15.759273
62.845 15.865391
62.850 16.323511
62.855 16.778786
62.860 17.038935
62.865 16.867188
62.870 16.67861
62.875 16.721361
62.880 16.79744
62.885 16.721716
62.890 16.415657
62.895 16.283487
62.900 15.834658
62.905 16.361568
62.910 16.14502
62.915 16.228085
62.920 16.048189
62.925 16.529398
62.930 16.356207
62.935 17.145231
62.940 17.00902
62.945 16.67341
62.950 16.527435
62.955 17.163704
62.960 17.119633
62.965 17.66342
62.970 17.345495
62.975 17.30093
62.980 17.330925
62.985 17.01609
62.990 16.631371
62.995 16.843819
63.000 16.623528
63.005 16.952135
63.010 17.413681
63.015 17.646692
63.020 17.750448
63.025 17.460455
63.030 17.192839
63.035 17.398624
63.040 16.774715
63.045 16.606604
63.050 16.742142
63.055 16.641699
63.060 17.039505
63.065 17.102505
63.070 17.111919
63.075 17.102531
63.080 16.927555
63.085 16.828196
63.090 17.059143
63.095 16.879547
63.100 16.823063
63.105 16.993536
63.110 16.719757
63.115 17.001966
63.120 16.738934
63.125 17.078278
63.130 17.510639
63.135 17.353613
63.140 16.845963
63.145 16.978497
63.150 16.881369
63.155 17.622425
63.160 17.706093
63.165 17.389505
63.170 17.792545
63.175 18.131992
63.180 18.74299
63.185 18.20133
63.190 17.413963
63.195 17.104544
63.200 16.970869
63.205 16.753937
63.210 16.498642
63.215 16.408287
63.220 16.958687
63.225 16.797945
63.230 16.395296
63.235 16.490276
63.240 16.576288
63.245 16.228386
63.250 15.683261
63.255 15.925856
63.260 16.748606
63.265 17.371641
63.270 17.606977
63.275 17.571516
63.280 17.851318
63.285 18.541594
63.290 18.228807
63.295 18.225714
63.300 17.750322
63.305 17.401152
63.310 17.470432
63.315 17.452303
63.320 17.171207
63.325 17.630062
63.330 17.233696
63.335 17.041552
63.340 16.869812
63.345 16.947481
63.350 16.681715
63.355 16.435949
63.360 15.978757
63.365 15.954041
63.370 16.308626
63.375 16.509714
63.380 16.522869
63.385 16.93631
63.390 16.857265
63.395 16.911533
63.400 17.329004
63.405 17.665277
63.410 17.498468
63.415 16.713593
63.420 16.623983
63.425 17.514994
63.430 17.766346
63.435 17.42144
63.440 17.007586
63.445 16.975761
63.450 17.347523
63.455 17.266674
63.460 16.600117
63.465 16.325344
63.470 16.747021
63.475 16.816679
63.480 17.265463
63.485 17.750399
63.490 17.977539
63.495 18.118235
63.500 18.306686
63.505 18.711136
63.510 19.006636
63.515 18.84446
63.520 18.58168
63.525 18.887325
63.530 18.918447
63.535 18.768534
63.540 18.22521
63.545 17.823557
63.550 17.622465
63.555 17.5114
63.560 17.494375
63.565 17.445534
63.570 17.15136
63.575 17.034161
63.580 17.4762
63.585 17.4076
63.590 17.274279
63.595 16.635317
63.600 16.351276
63.605 16.7125
63.610 17.277353
63.615 17.150497
63.620 17.26169
63.625 17.386829
63.630 17.593374
63.635 17.8442
63.640 17.712713
63.645 17.312178
63.650 16.990583
63.655 16.484779
63.660 16.656515
63.665 16.253345
63.670 15.818599
63.675 15.572421
63.680 15.670519
63.685 16.233633
63.690 16.689611
63.695 16.389629
63.700 17.262583
63.705 18.248083
63.710 18.631866
63.715 18.627335
63.720 17.721315
63.725 17.374273
63.730 17.534157
63.735 17.513407
63.740 16.662477
63.745 16.271749
63.750 16.362806
63.755 16.763681
63.760 17.020981
63.765 16.760063
63.770 16.400824
63.775 16.721504
63.780 17.380495
63.785 17.508896
63.790 17.549387
63.795 17.549238
63.800 18.105963
63.805 17.72245
63.810 17.533922
63.815 17.414343
63.820 17.507341
63.825 17.888573
63.830 17.671867
63.835 17.612196
63.840 18.740698
63.845 18.292765
63.850 18.03685
63.855 18.366098
63.860 18.639599
63.865 19.263403
63.870 19.23794
63.875 18.99374
63.880 19.347183
63.885 19.294239
63.890 19.073568
63.895 18.670275
63.900 18.57342
63.905 18.206669
63.910 17.443251
63.915 17.469772
63.920 17.701756
63.925 17.765379
63.930 17.626884
63.935 16.778042
63.940 16.252417
63.945 16.486073
63.950 16.498629
63.955 16.106253
63.960 16.112286
63.965 16.395601
63.970 16.531807
63.975 17.107227
63.980 16.963842
63.985 17.207472
63.990 17.423334
63.995 17.187946
64.000 17.355261
64.005 17.79052
64.010 17.839815
64.015 19.088917
64.020 19.809397
64.025 20.028023
64.030 20.235237
64.035 20.062128
64.040 19.843147
64.045 19.89184
64.050 18.676868
64.055 18.017277
64.060 17.748339
64.065 17.894819
64.070 18.008835
64.075 18.474955
64.080 19.165646
64.085 19.518543
64.090 18.9538
64.095 19.016178
64.100 18.479158
64.105 18.457663
64.110 18.217434
64.115 17.246283
64.120 17.111609
64.125 17.766415
64.130 17.958082
64.135 18.320332
64.140 18.342325
64.145 18.133207
64.150 18.248667
64.155 18.273926
64.160 17.689901
64.165 17.255163
64.170 16.961678
64.175 17.120874
64.180 17.15048
64.185 16.907209
64.190 16.830708
64.195 16.487463
64.200 16.796061
64.205 17.086817
64.210 16.439758
64.215 16.778236
64.220 16.935806
64.225 17.10568
64.230 17.44688
64.235 17.357971
64.240 16.893547
64.245 16.662411
64.250 16.205338
64.255 16.531816
64.260 16.928343
64.265 16.646492
64.270 16.237263
64.275 16.647444
64.280 17.195156
64.285 17.418457
64.290 17.431343
64.295 17.359051
64.300 18.256281
64.305 18.474392
64.310 18.963434
64.315 19.011528
64.320 19.384264
64.325 19.397346
64.330 18.377209
64.335 17.445122
64.340 17.237841
64.345 16.975092
64.350 17.651335
64.355 17.329895
64.360 16.885649
64.365 17.326284
64.370 18.017748
64.375 18.211691
64.380 18.113232
64.385 17.791941
64.390 18.087975
64.395 18.496304
64.400 19.064789
64.405 18.816963
64.410 18.843534
64.415 18.837866
64.420 18.422934
64.425 18.572483
64.430 18.703978
64.435 19.001919
64.440 19.310244
64.445 19.845339
64.450 19.856413
64.455 19.711662
64.460 19.365625
64.465 19.512899
64.470 19.134914
64.475 18.921583
64.480 18.904764
64.485 18.796906
64.490 19.382944
64.495 19.600365
64.500 19.382036
64.505 19.386389
64.510 19.276072
64.515 18.587397
64.520 18.400663
64.525 18.323694
64.530 18.109665
64.535 17.990278
64.540 17.945333
64.545 18.242746
64.550 18.493538
64.555 18.519583
64.560 18.079191
64.565 18.078079
64.570 18.573782
64.575 18.369896
64.580 18.495991
64.585 18.748686
64.590 19.420816
64.595 19.353987
64.600 19.170698
64.605 18.589167
64.610 18.44488
64.615 17.915394
64.620 17.513453
64.625 17.069218
64.630 17.698656
64.635 17.749712
64.640 17.739243
64.645 17.472826
64.650 17.776449
64.655 17.949396
64.660 18.273535
64.665 18.277308
64.670 18.693771
64.675 19.343672
64.680 19.986534
64.685 19.912256
64.690 19.896132
64.695 19.623245
64.700 19.454514
64.705 19.808134
64.710 19.388954
64.715 19.380587
64.720 18.989332
64.725 18.944532
64.730 19.229532
64.735 18.812628
64.740 18.083599
64.745 17.727373
64.750 17.855717
64.755 18.478134
64.760 18.649637
64.765 19.126417
64.770 19.920732
64.775 20.580505
64.780 20.954447
64.785 20.670349
64.790 20.235893
64.795 19.660463
64.800 18.997158
64.805 18.6954
64.810 18.407227
64.815 18.78167
64.820 19.403551
64.825 19.708969
64.830 20.222347
64.835 20.051083
64.840 20.032478
64.845 20.149813
64.850 20.095432
64.855 20.109507
64.860 20.018585
64.865 19.483297
64.870 19.318041
64.875 19.319368
64.880 19.961697
64.885 20.091793
64.890 19.387922
64.895 19.740973
64.900 20.516335
64.905 21.294313
64.910 20.990734
64.915 20.350649
64.920 20.124512
64.925 20.564171
64.930 20.389486
64.935 19.936148
64.940 19.239716
64.945 18.676319
64.950 18.291092
64.955 18.303741
64.960 17.550011
64.965 17.293859
64.970 17.572472
64.975 17.868933
64.980 18.344217
64.985 18.515631
64.990 19.081181
64.995 20.291794
65.000 20.961285
65.005 21.029968
65.010 20.966236
65.015 20.833523
65.020 21.803904
65.025 21.547134
65.030 21.141008
65.035 21.174639
65.040 21.056984
65.045 21.444357
65.050 22.141144
65.055 21.244194
65.060 21.048569
65.065 20.755762
65.070 20.727341
65.075 21.253029
65.080 21.725765
65.085 21.769381
65.090 22.204567
65.095 22.505079
65.100 22.316319
65.105 22.385315
65.110 21.912258
65.115 22.039543
65.120 22.208157
65.125 21.980652
65.130 21.724051
65.135 22.194899
65.140 22.240332
65.145 22.152834
65.150 21.206223
65.155 20.689301
65.160 20.921629
65.165 20.742727
65.170 20.888939
65.175 20.760593
65.180 21.261614
65.185 21.55504
65.190 21.979151
65.195 21.470621
65.200 21.961075
65.205 22.232925
65.210 22.210325
65.215 21.693731
65.220 21.755518
65.225 21.234833
65.230 21.682089
65.235 22.107826
65.240 21.92588
65.245 22.640764
65.250 22.90917
65.255 22.780657
65.260 23.105614
65.265 22.972555
65.270 22.873411
65.275 23.073349
65.280 22.90226
65.285 22.934389
65.290 22.79521
65.295 22.900005
65.300 22.921553
65.305 22.519869
65.310 22.532087
65.315 22.415804
65.320 23.080967
65.325 23.398739
65.330 23.176853
65.335 23.089643
65.340 23.45479
65.345 22.950241
65.350 22.274927
65.355 22.098572
65.360 22.549704
65.365 23.156948
65.370 23.587158
65.375 23.224716
65.380 23.311239
65.385 23.826439
65.390 23.352489
65.395 22.982201
65.400 22.892673
65.405 23.159285
65.410 23.025417
65.415 22.98074
65.420 23.219702
65.425 23.968313
65.430 24.07535
65.435 23.871416
65.440 23.975807
65.445 24.640352
65.450 24.53223
65.455 24.499502
65.460 24.712997
65.465 24.497786
65.470 24.302767
65.475 24.094025
65.480 23.777988
65.485 24.682535
65.490 25.211317
65.495 24.775982
65.500 25.038689
65.505 25.422066
65.510 25.391636
65.515 25.656725
65.520 24.966162
65.525 23.892691
65.530 24.139023
65.535 24.553795
65.540 24.847525
65.545 25.054594
65.550 25.753225
65.555 26.63908
65.560 27.45425
65.565 27.784847
65.570 27.077614
65.575 27.149639
65.580 28.17989
65.585 27.786446
65.590 26.97776
65.595 26.758619
65.600 27.011858
65.605 28.401697
65.610 29.194384
65.615 29.12262
65.620 29.533369
65.625 30.397659
65.630 30.662697
65.635 30.778681
65.640 30.478735
65.645 30.467403
65.650 30.597654
65.655 30.691687
65.660 30.528496
65.665 30.942217
65.670 30.830402
65.675 30.696421
65.680 30.689157
65.685 30.397978
65.690 30.972502
65.695 31.424456
65.700 31.492228
65.705 31.903162
65.710 32.178658
65.715 31.779705
65.720 32.066422
65.725 31.965652
65.730 32.351723
65.735 32.44241
65.740 31.969284
65.745 32.163551
65.750 33.064579
65.755 33.577305
65.760 33.41082
65.765 33.52541
65.770 33.556103
65.775 34.052284
65.780 33.760921
65.785 34.294636
65.790 34.08247
65.795 34.359539
65.800 34.603981
65.805 35.137959
65.810 35.495842
65.815 36.019382
65.820 36.121754
65.825 36.048325
65.830 36.096863
65.835 36.561771
65.840 37.352737
65.845 37.833729
65.850 38.116039
65.855 38.508396
65.860 39.284016
65.865 39.26255
65.870 39.286659
65.875 38.973858
65.880 38.839565
65.885 38.58955
65.890 37.916553
65.895 37.475605
65.900 36.766079
65.905 36.603256
65.910 36.327614
65.915 36.159672
65.920 35.655361
65.925 35.499619
65.930 36.263935
65.935 36.680256
65.940 36.917156
65.945 36.917934
65.950 37.267536
65.955 36.949158
65.960 36.316185
65.965 36.784729
65.970 37.238083
65.975 37.168888
65.980 37.031387
65.985 37.261467
65.990 38.442772
65.995 38.779228
66.000 38.762295
66.005 38.064339
66.010 37.574085
66.015 37.934353
66.020 37.866863
66.025 37.676746
66.030 38.111031
66.035 37.843307
66.040 38.502769
66.045 39.032162
66.050 38.499168
66.055 38.139832
66.060 37.936268
66.065 37.552666
66.070 37.23344
66.075 36.401524
66.080 35.918457
66.085 35.768944
66.090 35.883373
66.095 35.961151
66.100 35.77227
66.105 35.575409
66.110 35.844288
66.115 35.716785
66.120 35.863758
66.125 35.84811
66.130 35.563873
66.135 35.276176
66.140 35.15295
66.145 35.08514
66.150 34.787319
66.155 34.42783
66.160 34.238358
66.165 34.299877
66.170 34.825317
66.175 34.733292
66.180 34.849655
66.185 34.785652
66.190 34.561623
66.195 33.987289
66.200 34.143394
66.205 34.333801
66.210 34.744183
66.215 34.812141
66.220 35.192974
66.225 36.239388
66.230 36.731659
66.235 36.551712
66.240 35.613373
66.245 35.911831
66.250 36.394077
66.255 35.929993
66.260 35.204868
66.265 34.794842
66.270 35.042896
66.275 35.461391
66.280 34.740681
66.285 33.969101
66.290 33.787594
66.295 33.849102
66.300 34.502819
66.305 33.796925
66.310 32.766499
66.315 31.933262
66.320 32.163307
66.325 32.43988
66.330 31.781292
66.335 30.918085
66.340 30.548124
66.345 30.493315
66.350 30.686392
66.355 30.155678
66.360 29.888355
66.365 29.508192
66.370 29.304121
66.375 29.125498
66.380 29.543896
66.385 29.287109
66.390 29.439577
66.395 29.802181
66.400 30.379148
66.405 30.830582
66.410 30.912502
66.415 30.285282
66.420 30.119604
66.425 29.791294
66.430 29.275366
66.435 28.762245
66.440 28.142149
66.445 27.52655
66.450 27.955334
66.455 28.324106
66.460 28.440039
66.465 28.230448
66.470 28.248932
66.475 28.250175
66.480 28.585381
66.485 28.506401
66.490 28.087391
66.495 27.867012
66.500 27.400787
66.505 27.898577
66.510 27.546886
66.515 27.084673
66.520 27.117432
66.525 26.825214
66.530 26.54702
66.535 26.926182
66.540 27.096766
66.545 28.009804
66.550 28.299984
66.555 27.563892
66.560 27.474567
66.565 27.76045
66.570 28.219927
66.575 27.488754
66.580 26.305979
66.585 25.702005
66.590 26.084764
66.595 26.035307
66.600 25.380779
66.605 24.916216
66.610 25.062382
66.615 24.849876
66.620 25.138178
66.625 24.725771
66.630 24.438282
66.635 24.30134
66.640 24.147495
66.645 23.884592
66.650 24.136887
66.655 24.073195
66.660 24.463264
66.665 24.981264
66.670 25.341463
66.675 25.513584
66.680 26.210859
66.685 26.469097
66.690 26.304537
66.695 25.933771
66.700 25.30225
66.705 24.764225
66.710 24.288975
66.715 23.788477
66.720 23.333782
66.725 23.172935
66.730 23.120718
66.735 23.689432
66.740 24.313627
66.745 24.947474
66.750 24.748871
66.755 24.123482
66.760 24.272072
66.765 24.154148
66.770 24.141678
66.775 23.691027
66.780 23.140074
66.785 23.186882
66.790 22.939608
66.795 22.58206
66.800 22.652451
66.805 22.541122
66.810 22.169605
66.815 21.561934
66.820 21.21718
66.825 22.064114
66.830 22.033503
66.835 21.703833
66.840 21.847775
66.845 21.929968
66.850 22.761354
66.855 22.830574
66.860 22.998457
66.865 23.539959
66.870 23.62241
66.875 23.560156
66.880 23.8452
66.885 24.1742
66.890 24.603582
66.895 24.817745
66.900 24.12196
66.905 23.988333
66.910 24.100681
66.915 23.97407
66.920 23.417627
66.925 23.337486
66.930 23.113905
66.935 23.586399
66.940 23.868225
66.945 23.679865
66.950 23.418171
66.955 23.484253
66.960 22.998714
66.965 22.553999
66.970 22.399057
66.975 22.082748
66.980 21.954981
66.985 22.137127
66.990 22.630894
66.995 22.811857
67.000 23.793076
67.005 24.168549
67.010 24.090389
67.015 23.788509
67.020 23.540291
67.025 23.118481
67.030 22.562641
67.035 21.388126
67.040 20.997433
67.045 21.405025
67.050 22.428755
67.055 22.282686
67.060 22.430367
67.065 22.670065
67.070 22.484077
67.075 22.320234
67.080 21.740494
67.085 22.005798
67.090 21.993649
67.095 22.227474
67.100 21.715528
67.105 21.950134
67.110 22.189701
67.115 22.024714
67.120 22.120201
67.125 22.381847
67.130 21.880507
67.135 22.051924
67.140 21.680227
67.145 22.267908
67.150 21.795263
67.155 21.5576
67.160 21.611084
67.165 22.472977
67.170 22.808746
67.175 23.199213
67.180 23.086178
67.185 23.741135
67.190 23.418133
67.195 23.224281
67.200 22.871571
67.205 22.652731
67.210 21.903803
67.215 21.325386
67.220 21.680408
67.225 22.150993
67.230 21.915424
67.235 21.697495
67.240 22.027609
67.245 22.068878
67.250 22.158957
67.255 21.635942
67.260 21.551062
67.265 21.84568
67.270 22.117542
67.275 21.908726
67.280 22.477112
67.285 21.961586
67.290 21.353706
67.295 20.612396
67.300 20.421986
67.305 20.447021
67.310 20.113472
67.315 20.126789
67.320 20.484318
67.325 20.49127
67.330 20.481812
67.335 20.63068
67.340 20.073977
67.345 20.186893
67.350 19.922712
67.355 19.98768
67.360 20.485548
67.365 20.95141
67.370 20.943727
67.375 21.52091
67.380 21.592327
67.385 21.380823
67.390 21.59502
67.395 21.320946
67.400 21.155779
67.405 20.752403
67.410 20.476618
67.415 20.441099
67.420 20.25252
67.425 19.937672
67.430 19.688732
67.435 19.991394
67.440 20.130863
67.445 19.968109
67.450 20.450817
67.455 20.492687
67.460 21.113237
67.465 20.971815
67.470 20.601782
67.475 20.503889
67.480 20.783512
67.485 20.507029
67.490 20.444757
67.495 19.855452
67.500 20.645864
67.505 20.735374
67.510 20.82394
67.515 20.7356
67.520 20.977921
67.525 21.300154
67.530 21.333925
67.535 20.836866
67.540 20.591238
67.545 20.632362
67.550 20.297865
67.555 20.586735
67.560 20.134426
67.565 19.794203
67.570 19.829653
67.575 19.612589
67.580 19.825199
67.585 20.162766
67.590 20.496155
67.595 20.66522
67.600 20.943619
67.605 20.408047
67.610 20.886852
67.615 20.802441
67.620 20.826052
67.625 20.641346
67.630 20.772083
67.635 21.355532
67.640 22.039087
67.645 21.721457
67.650 21.686533
67.655 21.418217
67.660 21.386131
67.665 21.352858
67.670 20.97747
67.675 21.223545
67.680 22.099958
67.685 21.997351
67.690 22.22928
67.695 21.864454
67.700 22.994831
67.705 22.878017
67.710 22.506233
67.715 22.217999
67.720 22.841339
67.725 22.16785
67.730 21.772184
67.735 20.860542
67.740 20.257196
67.745 19.80472
67.750 19.318937
67.755 19.18108
67.760 20.212473
67.765 20.663734
67.770 20.701485
67.775 21.350119
67.780 21.316088
67.785 21.637268
67.790 21.633638
67.795 21.372904
67.800 21.06447
67.805 21.060501
67.810 21.096149
67.815 21.502813
67.820 21.521204
67.825 21.195946
67.830 20.783667
67.835 20.818832
67.840 20.714979
67.845 20.948116
67.850 20.587971
67.855 20.61002
67.860 20.27795
67.865 20.099867
67.870 20.011549
67.875 20.050499
67.880 19.89765
67.885 20.322908
67.890 20.692289
67.895 21.376451
67.900 21.416544
67.905 21.163977
67.910 20.793098
67.915 20.509022
67.920 20.236172
67.925 19.419065
67.930 19.209929
67.935 19.829435
67.940 20.152107
67.945 20.428257
67.950 20.206083
67.955 20.057566
67.960 20.583939
67.965 21.017128
67.970 21.239492
67.975 21.673925
67.980 22.128067
67.985 23.034863
67.990 22.878248
67.995 22.974901
68.000 22.244909
68.005 21.684601
68.010 21.738718
68.015 21.409813
68.020 21.204115
68.025 21.193329
68.030 20.880157
68.035 21.473589
68.040 21.405773
68.045 21.189865
68.050 21.198889
68.055 20.816706
68.060 20.776043
68.065 20.538391
68.070 20.10569
68.075 19.944836
68.080 19.912998
68.085 20.327917
68.090 20.986734
68.095 20.885986
68.100 21.520658
68.105 22.478243
68.110 23.005526
68.115 23.29557
68.120 22.923399
68.125 22.440975
68.130 22.334398
68.135 21.490643
68.140 20.492682
68.145 19.631943
68.150 19.636448
68.155 19.792337
68.160 19.879457
68.165 19.972864
68.170 20.199116
68.175 20.118067
68.180 20.052691
68.185 19.464163
68.190 19.297361
68.195 19.387299
68.200 18.936121
68.205 18.804716
68.210 19.005802
68.215 19.484343
68.220 19.758999
68.225 19.483486
68.230 19.296797
68.235 19.665459
68.240 20.017035
68.245 20.240385
68.250 19.945208
68.255 19.395033
68.260 19.495708
68.265 19.855282
68.270 19.777163
68.275 19.458076
68.280 19.098869
68.285 19.080286
68.290 19.429256
68.295 19.997841
68.300 19.871002
68.305 19.841568
68.310 19.909321
68.315 20.481333
68.320 20.41189
68.325 20.722778
68.330 20.468927
68.335 21.007511
68.340 21.30612
68.345 21.679262
68.350 21.417276
68.355 21.875856
68.360 21.865795
68.365 21.826672
68.370 21.211233
68.375 21.010071
68.380 20.817802
68.385 20.653429
68.390 20.117491
68.395 20.012997
68.400 20.22646
68.405 20.452393
68.410 21.011786
68.415 20.711397
68.420 20.968325
68.425 21.324947
68.430 20.726961
68.435 20.559095
68.440 20.712851
68.445 20.3062
68.450 20.344482
68.455 20.52813
68.460 20.515553
68.465 20.706627
68.470 20.959772
68.475 21.161182
68.480 21.428104
68.485 21.718294
68.490 21.609089
68.495 21.811945
68.500 22.269041
68.505 22.558464
68.510 22.357315
68.515 22.037212
68.520 22.299126
68.525 22.819569
68.530 22.910149
68.535 22.89987
68.540 22.691813
68.545 22.243889
68.550 22.421516
68.555 22.213276
68.560 21.812517
68.565 21.269329
68.570 20.590326
68.575 20.19821
68.580 20.158037
68.585 19.954351
68.590 19.716101
68.595 19.793928
68.600 20.356955
68.605 20.94166
68.610 21.747549
68.615 22.163298
68.620 21.976379
68.625 21.209099
68.630 21.005896
68.635 20.987749
68.640 20.784794
68.645 20.337685
68.650 20.532242
68.655 20.950544
68.660 21.892591
68.665 22.089687
68.670 21.717813
68.675 21.777462
68.680 21.909391
68.685 21.53377
68.690 21.700827
68.695 21.19302
68.700 20.578173
68.705 20.74391
68.710 20.125147
68.715 20.430485
68.720 20.184484
68.725 19.920942
68.730 20.220421
68.735 20.830296
68.740 21.293821
68.745 21.48843
68.750 20.984257
68.755 21.620934
68.760 22.25527
68.765 22.733513
68.770 22.646217
68.775 22.469662
68.780 22.980991
68.785 23.247038
68.790 22.928005
68.795 22.528334
68.800 22.487396
68.805 22.106516
68.810 21.53116
68.815 21.619823
68.820 21.509895
68.825 20.998692
68.830 21.175474
68.835 20.89279
68.840 21.158623
68.845 21.773218
68.850 22.307055
68.855 23.105314
68.860 23.673697
68.865 23.364855
68.870 23.459024
68.875 23.725117
68.880 23.435921
68.885 23.288509
68.890 23.577477
68.895 23.190378
68.900 23.818626
68.905 24.220488
68.910 23.719204
68.915 23.354025
68.920 22.641312
68.925 22.32996
68.930 22.69232
68.935 22.319515
68.940 22.645626
68.945 22.798252
68.950 22.94231
68.955 22.739658
68.960 22.249733
68.965 21.832645
68.970 21.213409
68.975 20.883228
68.980 21.113796
68.985 21.037806
68.990 21.407356
68.995 21.412239
69.000 21.721645
69.005 22.796316
69.010 22.6593
69.015 23.011848
69.020 23.093096
69.025 23.345676
69.030 23.467491
69.035 22.890787
69.040 22.882069
69.045 23.564034
69.050 23.630333
69.055 24.441099
69.060 24.246889
69.065 24.718557
69.070 25.184721
69.075 24.634808
69.080 24.934408
69.085 25.369999
69.090 25.666443
69.095 26.197119
69.100 26.880932
69.105 27.444405
69.110 27.580656
69.115 26.872519
69.120 25.575848
69.125 24.673592
69.130 24.662521
69.135 23.97224
69.140 23.378557
69.145 23.556252
69.150 23.921274
69.155 25.157814
69.160 25.345263
69.165 25.380014
69.170 26.175333
69.175 26.263708
69.180 25.772015
69.185 26.296938
69.190 26.929409
69.195 27.262917
69.200 27.289555
69.205 26.712639
69.210 27.289583
69.215 27.060633
69.220 26.255926
69.225 26.101624
69.230 26.049814
69.235 25.730934
69.240 26.028191
69.245 26.882574
69.250 27.675829
69.255 27.794714
69.260 27.151077
69.265 27.119633
69.270 27.424515
69.275 27.066893
69.280 26.07386
69.285 26.019592
69.290 26.151117
69.295 26.476778
69.300 26.843901
69.305 27.721054
69.310 28.004166
69.315 28.431152
69.320 28.931629
69.325 28.782749
69.330 28.415215
69.335 28.436657
69.340 28.443008
69.345 28.459236
69.350 28.016647
69.355 27.619125
69.360 27.79941
69.365 27.455948
69.370 26.585873
69.375 26.502275
69.380 26.541571
69.385 26.76553
69.390 27.317827
69.395 27.426748
69.400 27.586763
69.405 27.628862
69.410 27.702705
69.415 28.096916
69.420 28.407766
69.425 27.591412
69.430 28.028894
69.435 28.504004
69.440 28.825432
69.445 28.605783
69.450 28.745987
69.455 28.907404
69.460 28.984241
69.465 28.83375
69.470 28.965336
69.475 28.938818
69.480 29.173378
69.485 28.891899
69.490 28.654606
69.495 28.253302
69.500 27.608156
69.505 27.7173
69.510 27.952942
69.515 27.552933
69.520 27.731913
69.525 28.464996
69.530 29.067663
69.535 29.716473
69.540 30.34804
69.545 30.356804
69.550 31.330732
69.555 31.799892
69.560 31.369419
69.565 31.552128
69.570 32.44178
69.575 32.061558
69.580 31.503265
69.585 30.103128
69.590 28.772198
69.595 28.871315
69.600 28.032446
69.605 27.135027
69.610 27.635239
69.615 27.96858
69.620 28.482178
69.625 28.651718
69.630 29.117517
69.635 29.674704
69.640 29.382162
69.645 29.003807
69.650 28.750889
69.655 29.25758
69.660 29.139229
69.665 28.582508
69.670 28.170856
69.675 28.187979
69.680 27.962805
69.685 27.828417
69.690 28.410881
69.695 28.688955
69.700 29.228268
69.705 28.501932
69.710 28.568031
69.715 28.440262
69.720 28.140202
69.725 27.756145
69.730 27.603111
69.735 27.751488
69.740 28.659317
69.745 28.485943
69.750 28.55559
69.755 28.325945
69.760 27.602859
69.765 26.60713
69.770 25.687836
69.775 24.695585
69.780 24.526152
69.785 24.926643
69.790 25.203964
69.795 25.831488
69.800 26.385597
69.805 26.139126
69.810 25.648026
69.815 25.470028
69.820 25.124327
69.825 24.534363
69.830 24.112108
69.835 24.403353
69.840 25.18206
69.845 25.678963
69.850 25.610672
69.855 25.227367
69.860 25.29212
69.865 24.828032
69.870 24.753986
69.875 24.730618
69.880 24.751299
69.885 24.905346
69.890 24.704195
69.895 24.450485
69.900 23.829597
69.905 23.90626
69.910 23.720358
69.915 23.190046
69.920 22.461838
69.925 22.692772
69.930 22.800133
69.935 22.931873
69.940 22.349039
69.945 22.551195
69.950 23.428295
69.955 23.754841
69.960 23.771725
69.965 23.685545
69.970 23.038752
69.975 22.608692
69.980 22.007132
69.985 21.410057
69.990 20.81431
69.995 20.120424
70.000 20.484749
70.005 20.696922
70.010 20.471579
70.015 20.329428
70.020 20.775711
70.025 21.425394
70.030 21.579403
70.035 21.577337
70.040 21.975489
70.045 21.688995
70.050 20.54986
70.055 19.854225
70.060 19.954853
70.065 20.181944
70.070 19.891825
70.075 19.726645
70.080 20.647419
70.085 21.488113
70.090 21.509428
70.095 20.531569
70.100 20.274269
70.105 20.779982
70.110 21.397812
70.115 21.440372
70.120 21.629265
70.125 21.833046
70.130 22.187311
70.135 21.93749
70.140 21.457293
70.145 20.951956
70.150 20.716145
70.155 20.61961
70.160 20.330847
70.165 20.747427
70.170 20.569275
70.175 20.537979
70.180 20.748671
70.185 20.710291
70.190 21.097647
70.195 21.335585
70.200 20.896143
70.205 20.820604
70.210 21.045954
70.215 20.822542
70.220 20.924816
70.225 20.829058
70.230 21.095526
70.235 21.260044
70.240 21.223074
70.245 21.536526
70.250 21.843885
70.255 22.489771
70.260 22.220659
70.265 22.164068
70.270 22.554796
70.275 22.380793
70.280 22.08375
70.285 21.493708
70.290 20.510614
70.295 20.446241
70.300 20.154341
70.305 20.096714
70.310 19.284775
70.315 18.850132
70.320 19.132296
70.325 19.794352
70.330 19.898561
70.335 19.839996
70.340 19.893177
70.345 20.763071
70.350 21.113571
70.355 20.400593
70.360 20.697956
70.365 20.910887
70.370 20.998281
70.375 20.964277
70.380 20.881962
70.385 20.854347
70.390 21.036232
70.395 20.55736
70.400 20.939901
70.405 20.722702
70.410 20.400459
70.415 19.75502
70.420 19.326494
70.425 19.41725
70.430 19.419636
70.435 19.225849
70.440 19.355274
70.445 19.524265
70.450 19.83317
70.455 20.149513
70.460 19.94879
70.465 19.601164
70.470 19.817173
70.475 20.527548
70.480 20.605389
70.485 20.502352
70.490 20.542421
70.495 20.411303
70.500 20.30938
70.505 19.850746
70.510 19.063255
70.515 18.725239
70.520 18.606533
70.525 18.762737
70.530 19.038836
70.535 18.985176
70.540 18.859966
70.545 18.939646
70.550 18.866066
70.555 18.763336
70.560 18.337193
70.565 17.926765
70.570 18.055805
70.575 18.108534
70.580 18.382818
70.585 18.580122
70.590 18.644484
70.595 18.592712
70.600 18.389946
70.605 17.729797
70.610 17.170473
70.615 16.762352
70.620 16.599592
70.625 17.283978
70.630 17.420761
70.635 18.026987
70.640 18.459089
70.645 18.786591
70.650 19.334652
70.655 18.929625
70.660 18.518068
70.665 18.92762
70.670 18.547737
70.675 18.754202
70.680 18.937668
70.685 19.282501
70.690 20.237473
70.695 20.91065
70.700 20.910555
70.705 20.68523
70.710 20.375198
70.715 20.25264
70.720 20.048565
70.725 19.508671
70.730 19.134686
70.735 18.951406
70.740 19.303549
70.745 19.372925
70.750 19.452068
70.755 19.799665
70.760 19.332659
70.765 18.98325
70.770 19.049679
70.775 18.715174
70.780 18.166262
70.785 18.039482
70.790 18.572958
70.795 18.77108
70.800 18.950623
70.805 18.783728
70.810 19.105774
70.815 19.652567
70.820 19.444614
70.825 19.582386
70.830 19.940479
70.835 20.426153
70.840 20.846952
70.845 21.012985
70.850 21.907572
70.855 21.400208
70.860 21.613096
70.865 21.403921
70.870 20.68936
70.875 20.687733
70.880 20.599316
70.885 19.973862
70.890 20.491997
70.895 19.435972
70.900 19.286633
70.905 19.242857
70.910 19.024328
70.915 18.537443
70.920 18.414206
70.925 17.807697
70.930 18.383245
70.935 17.973206
70.940 18.100916
70.945 18.082375
70.950 17.794575
70.955 17.36138
70.960 17.082199
70.965 17.477097
70.970 18.448549
70.975 18.546719
70.980 18.786278
70.985 18.770544
70.990 18.777687
70.995 19.183783
71.000 19.099808
71.005 18.323586
71.010 18.322155
71.015 18.62702
71.020 19.167139
71.025 19.036661
71.030 18.629818
71.035 18.553953
71.040 18.71747
71.045 18.898508
71.050 18.843376
71.055 19.140425
71.060 19.610739
71.065 19.681662
71.070 20.022112
71.075 20.339813
71.080 20.076979
71.085 19.902451
71.090 19.844423
71.095 19.7146
71.100 19.562588
71.105 18.686724
71.110 18.590916
71.115 18.506557
71.120 18.321665
71.125 17.961506
71.130 17.716314
71.135 18.453226
71.140 19.319878
71.145 19.341089
71.150 19.081875
71.155 19.36227
71.160 19.410166
71.165 19.416052
71.170 19.195658
71.175 18.571291
71.180 18.263853
71.185 18.773121
71.190 18.580677
71.195 18.711443
71.200 18.309668
71.205 18.117208
71.210 18.357723
71.215 18.263578
71.220 18.101767
71.225 18.217876
71.230 17.980007
71.235 17.909376
71.240 17.790386
71.245 17.947323
71.250 18.313913
71.255 18.741852
71.260 19.207724
71.265 19.757696
71.270 19.912867
71.275 20.37631
71.280 20.776011
71.285 20.77804
71.290 20.365192
71.295 19.580633
71.300 18.596716
71.305 17.922499
71.310 17.372147
71.315 16.811285
71.320 17.110979
71.325 17.22953
71.330 18.535547
71.335 19.146006
71.340 19.53245
71.345 19.627243
71.350 19.327068
71.355 18.445427
71.360 17.875679
71.365 17.21892
71.370 17.699209
71.375 17.686081
71.380 17.73332
71.385 18.124151
71.390 18.774496
71.395 19.250858
71.400 19.114555
71.405 18.962524
71.410 19.202559
71.415 18.960247
71.420 18.780197
71.425 18.290642
71.430 18.153093
71.435 17.817215
71.440 17.737003
71.445 17.584011
71.450 18.235191
71.455 18.219187
71.460 18.347704
71.465 18.842739
71.470 19.051399
71.475 19.558231
71.480 19.821081
71.485 19.891653
71.490 19.943523
71.495 19.969915
71.500 19.739183
71.505 19.547174
71.510 18.859472
71.515 18.556616
71.520 18.570147
71.525 18.605255
71.530 18.127636
71.535 17.969362
71.540 18.835548
71.545 18.645473
71.550 18.394136
71.555 18.695864
71.560 19.10008
71.565 19.23181
71.570 18.894094
71.575 18.33778
71.580 18.829248
71.585 18.944437
71.590 18.361513
71.595 18.308592
71.600 18.072809
71.605 17.980534
71.610 18.089201
71.615 17.642164
71.620 17.662949
71.625 18.235315
71.630 18.54105
71.635 18.968847
71.640 18.88607
71.645 19.07501
71.650 19.338133
71.655 18.910461
71.660 18.313541
71.665 18.535151
71.670 18.922262
71.675 19.414162
71.680 19.405048
71.685 19.497608
71.690 19.190678
71.695 19.190268
71.700 19.197023
71.705 18.736208
71.710 18.808243
71.715 18.81579
71.720 18.879311
71.725 19.60593
71.730 19.761642
71.735 19.379683
71.740 19.07839
71.745 18.43821
71.750 18.083853
71.755 17.395609
71.760 17.202036
71.765 17.279564
71.770 16.936207
71.775 16.760609
71.780 17.005043
71.785 17.132559
71.790 17.415064
71.795 17.637838
71.800 17.840994
71.805 18.065029
71.810 18.347792
71.815 18.40629
71.820 18.64616
71.825 18.041
71.830 17.812559
71.835 17.477425
71.840 17.398602
71.845 17.532724
71.850 17.875919
71.855 17.970488
71.860 18.199642
71.865 18.196583
71.870 18.147291
71.875 18.560623
71.880 17.965359
71.885 17.252314
71.890 17.019627
71.895 16.746675
71.900 16.961737
71.905 17.301319
71.910 17.868929
71.915 18.194422
71.920 18.491253
71.925 18.966763
71.930 19.321484
71.935 19.480415
71.940 19.30604
71.945 19.264484
71.950 19.073498
71.955 18.731499
71.960 18.390518
71.965 17.454636
71.970 17.179102
71.975 16.622364
71.980 17.013979
71.985 17.474392
71.990 17.075525
71.995 17.379124
72.000 18.050501
72.005 18.241419
72.010 18.093493
72.015 17.089159
72.020 17.603149
72.025 18.449108
72.030 18.663504
72.035 18.605118
72.040 18.05373
72.045 18.241478
72.050 18.48633
72.055 17.832821
72.060 17.327909
72.065 16.790842
72.070 17.056135
72.075 17.42136
72.080 16.877504
72.085 16.44915
72.090 16.998816
72.095 17.264528
72.100 17.201324
72.105 17.002144
72.110 16.975174
72.115 18.130753
72.120 18.254473
72.125 17.890957
72.130 17.810225
72.135 18.75983
72.140 19.082514
72.145 18.902809
72.150 18.069489
72.155 17.775394
72.160 18.288939
72.165 18.429506
72.170 18.206379
72.175 18.617481
72.180 18.799507
72.185 18.862701
72.190 19.047033
72.195 18.970333
72.200 18.55077
72.205 18.636253
72.210 18.617313
72.215 18.646414
72.220 19.126278
72.225 19.193287
72.230 19.063049
72.235 19.115746
72.240 18.730724
72.245 18.877495
72.250 18.858196
72.255 18.807705
72.260 18.660971
72.265 18.478951
72.270 18.369913
72.275 18.219799
72.280 18.285469
72.285 18.053377
72.290 18.247522
72.295 18.266705
72.300 18.193182
72.305 18.172907
72.310 18.133141
72.315 18.284399
72.320 18.529348
72.325 18.425602
72.330 18.912676
72.335 19.188139
72.340 18.965296
72.345 19.071428
72.350 18.164406
72.355 18.076504
72.360 18.261526
72.365 17.924561
72.370 17.608181
72.375 18.203779
72.380 18.15657
72.385 18.895842
72.390 18.157131
72.395 18.761993
72.400 19.44153
72.405 19.178692
72.410 18.637831
72.415 18.917074
72.420 19.27367
72.425 18.935503
72.430 18.517586
72.435 18.126589
72.440 18.567602
72.445 18.764168
72.450 18.15867
72.455 18.119453
72.460 18.2076
72.465 17.77453
72.470 17.549721
72.475 17.058355
72.480 17.161156
72.485 17.246132
72.490 17.394999
72.495 17.509256
72.500 18.139603
72.505 17.870787
72.510 17.558329
72.515 17.403353
72.520 17.432096
72.525 17.539192
72.530 17.224134
72.535 17.175459
72.540 17.64901
72.545 17.861662
72.550 18.005444
72.555 18.231247
72.560 18.289148
72.565 18.281866
72.570 17.840332
72.575 18.11441
72.580 17.98794
72.585 17.929022
72.590 17.78813
72.595 17.184259
72.600 17.31794
72.605 17.535093
72.610 17.550591
72.615 17.313162
72.620 17.026457
72.625 16.823187
72.630 16.873987
72.635 16.746141
72.640 16.221016
72.645 16.024185
72.650 16.230236
72.655 16.754784
72.660 16.873404
72.665 17.240421
72.670 17.274403
72.675 17.673182
72.680 17.583277
72.685 17.368034
72.690 16.97691
72.695 16.715864
72.700 16.241989
72.705 15.959048
72.710 15.835051
72.715 15.589499
72.720 16.197256
72.725 16.495203
72.730 17.058647
72.735 17.640497
72.740 17.812664
72.745 17.931709
72.750 18.292368
72.755 18.554432
72.760 18.464808
72.765 18.622108
72.770 18.559412
72.775 18.595615
72.780 18.452856
72.785 17.879883
72.790 18.124847
72.795 18.444229
72.800 17.778738
72.805 17.693249
72.810 17.720987
72.815 17.763311
72.820 17.271452
72.825 16.341457
72.830 15.034101
72.835 16.096571
72.840 16.388796
72.845 16.344568
72.850 16.565443
72.855 17.171623
72.860 18.698238
72.865 19.039803
72.870 18.465578
72.875 18.552586
72.880 19.306082
72.885 19.6763
72.890 19.241505
72.895 19.211004
72.900 18.995331
72.905 18.508692
72.910 18.526831
72.915 17.933128
72.920 18.12007
72.925 17.394564
72.930 17.052229
72.935 17.302048
72.940 17.825567
72.945 17.780279
72.950 17.220839
72.955 16.875185
72.960 17.241957
72.965 17.181425
72.970 16.827831
72.975 16.093805
72.980 16.355343
72.985 17.053856
72.990 16.862108
72.995 17.620123
73.000 17.923353
