!@!!GADDS PLOTSO FILE: Chi integration type
!@!!Title/SampleName: map-2c
!@!!Comment: ?
!@!!User: Bruker Instrument Administrator
!@!!Site: University of Illinois Chicago
!@!!Frame: map-2c_01_000.gfrm
!@!!Wavelengths    1.54184   1.54056   1.54439
!@!!Frame angles: 2Theta: 63.000 Omega: 50.000 Phi: 0.000 Chi: 90.000
!@!!Integration range: 2Theta: 53.000 to 73.000  Gamma: -105.000 to -75.000
!@!!Integration method: bin normalized
!@!N
!@!SS
!@!M
!@!L 0.0 0.0 0.0 0.0
!@!XDegrees
!@!YCounts
53.000 10.047264
53.005 10.101944
53.010 10.31393
53.015 10.150976
53.020 9.865713
53.025 10.137505
53.030 10.03599
53.035 9.527251
53.040 9.657142
53.045 10.000851
53.050 9.704675
53.055 9.772579
53.060 9.652824
53.065 9.725802
53.070 9.766211
53.075 9.287448
53.080 9.197985
53.085 9.649894
53.090 9.636882
53.095 9.588703
53.100 9.614856
53.105 9.994531
53.110 9.838095
53.115 9.785862
53.120 9.455677
53.125 9.117136
53.130 9.146503
53.135 8.671444
53.140 8.161229
53.145 8.091443
53.150 7.907644
53.155 8.448799
53.160 8.792647
53.165 9.351715
53.170 9.84813
53.175 10.479535
53.180 10.53598
53.185 10.812776
53.190 10.505523
53.195 10.324407
53.200 10.34051
53.205 10.550811
53.210 10.344557
53.215 10.206678
53.220 10.252002
53.225 10.23686
53.230 10.432692
53.235 10.347691
53.240 10.172142
53.245 10.193484
53.250 10.41733
53.255 10.889999
53.260 11.140025
53.265 10.961959
53.270 10.70583
53.275 10.955585
53.280 10.768753
53.285 10.651169
53.290 10.26778
53.295 10.077373
53.300 10.063119
53.305 9.865621
53.310 9.58549
53.315 9.891831
53.320 10.156272
53.325 10.229967
53.330 10.40091
53.335 11.069841
53.340 11.267046
53.345 11.60593
53.350 11.653498
53.355 11.190167
53.360 11.452198
53.365 11.507009
53.370 11.121707
53.375 10.767025
53.380 10.747517
53.385 10.566059
53.390 10.568576
53.395 10.397972
53.400 10.290476
53.405 10.977998
53.410 11.124296
53.415 11.374865
53.420 11.180593
53.425 11.102628
53.430 10.603303
53.435 10.598098
53.440 10.58819
53.445 10.560836
53.450 10.406898
53.455 10.589736
53.460 10.761155
53.465 11.391359
53.470 11.449888
53.475 11.202897
53.480 11.354958
53.485 11.481561
53.490 11.608663
53.495 11.410518
53.500 11.127636
53.505 10.880749
53.510 10.685968
53.515 11.041536
53.520 11.150989
53.525 11.412611
53.530 11.476493
53.535 10.941454
53.540 10.808028
53.545 10.908208
53.550 10.755205
53.555 10.312593
53.560 10.047132
53.565 10.064371
53.570 10.515028
53.575 10.537161
53.580 10.432249
53.585 10.514317
53.590 10.064157
53.595 10.18391
53.600 10.036476
53.605 10.440032
53.610 10.933638
53.615 11.024094
53.620 11.243484
53.625 11.654862
53.630 11.796045
53.635 12.042057
53.640 11.910082
53.645 11.997892
53.650 12.050563
53.655 11.981654
53.660 11.982141
53.665 11.663685
53.670 11.487639
53.675 11.136801
53.680 10.541699
53.685 10.285487
53.690 10.878849
53.695 11.04939
53.700 11.174752
53.705 11.48937
53.710 11.757092
53.715 12.17128
53.720 12.099524
53.725 11.258219
53.730 11.036153
53.735 11.065543
53.740 11.032327
53.745 11.259189
53.750 10.803709
53.755 10.568159
53.760 10.900722
53.765 11.144056
53.770 11.097426
53.775 10.622748
53.780 10.430294
53.785 10.822433
53.790 11.175261
53.795 10.982222
53.800 10.300388
53.805 10.078471
53.810 10.715785
53.815 10.775875
53.820 10.572505
53.825 10.390056
53.830 10.608932
53.835 10.617143
53.840 10.837288
53.845 10.534524
53.850 10.28567
53.855 10.209351
53.860 10.430458
53.865 10.663712
53.870 10.670436
53.875 9.969885
53.880 10.028349
53.885 10.074751
53.890 9.851622
53.895 9.552896
53.900 9.828586
53.905 10.507171
53.910 10.653809
53.915 10.750892
53.920 10.806208
53.925 10.755589
53.930 10.839563
53.935 10.425778
53.940 10.186702
53.945 10.297247
53.950 10.379574
53.955 10.872784
53.960 11.053313
53.965 11.065624
53.970 11.344359
53.975 11.220284
53.980 10.95915
53.985 10.643917
53.990 10.373872
53.995 10.650365
54.000 10.599028
54.005 10.69515
54.010 11.499255
54.015 12.46859
54.020 13.211242
54.025 13.227365
54.030 13.148159
54.035 13.171112
54.040 13.123845
54.045 12.346567
54.050 11.324677
54.055 11.095966
54.060 11.430796
54.065 11.200242
54.070 11.110205
54.075 10.878193
54.080 11.441248
54.085 11.389814
54.090 11.34824
54.095 11.407709
54.100 11.800102
54.105 11.583803
54.110 11.47436
54.115 11.204569
54.120 10.983308
54.125 10.847004
54.130 10.589774
54.135 10.669392
54.140 10.689386
54.145 10.470622
54.150 10.473622
54.155 10.595366
54.160 10.707399
54.165 11.073017
54.170 11.425038
54.175 11.534083
54.180 11.773083
54.185 11.579662
54.190 11.889753
54.195 11.896904
54.200 12.020449
54.205 11.545088
54.210 11.599695
54.215 11.465533
54.220 11.91461
54.225 11.779753
54.230 11.508701
54.235 11.313281
54.240 11.516492
54.245 11.768317
54.250 11.632018
54.255 11.049262
54.260 10.639171
54.265 10.438184
54.270 10.554078
54.275 11.074862
54.280 11.214509
54.285 11.613545
54.290 11.88518
54.295 11.445549
54.300 11.274254
54.305 11.489534
54.310 11.244245
54.315 11.58119
54.320 11.533175
54.325 11.741986
54.330 12.375983
54.335 12.470424
54.340 12.205969
54.345 11.84212
54.350 11.343327
54.355 11.680117
54.360 11.867504
54.365 11.717929
54.370 11.594686
54.375 11.401025
54.380 11.362257
54.385 11.639729
54.390 11.393168
54.395 11.244754
54.400 11.440984
54.405 11.916696
54.410 11.892229
54.415 11.932275
54.420 11.637152
54.425 11.72946
54.430 12.0168
54.435 12.074694
54.440 11.873219
54.445 12.056446
54.450 12.124287
54.455 12.083956
54.460 12.184181
54.465 12.297482
54.470 11.869631
54.475 11.768891
54.480 11.715245
54.485 11.552147
54.490 11.808825
54.495 11.778281
54.500 11.573664
54.505 11.597549
54.510 11.437269
54.515 11.620236
54.520 11.537506
54.525 11.009747
54.530 10.810758
54.535 11.038128
54.540 11.427691
54.545 12.000503
54.550 11.657616
54.555 11.953392
54.560 11.872573
54.565 12.064328
54.570 11.893917
54.575 11.72566
54.580 11.408898
54.585 11.905156
54.590 11.658533
54.595 11.637413
54.600 11.609183
54.605 11.491098
54.610 10.829734
54.615 10.927566
54.620 11.26477
54.625 11.572575
54.630 11.484908
54.635 11.160958
54.640 11.112544
54.645 11.533149
54.650 11.586841
54.655 11.416889
54.660 11.390741
54.665 11.06466
54.670 11.173182
54.675 11.355416
54.680 11.211016
54.685 11.060564
54.690 10.992219
54.695 11.284639
54.700 11.521453
54.705 11.603945
54.710 11.506958
54.715 11.630038
54.720 11.485557
54.725 11.444331
54.730 11.758431
54.735 11.553966
54.740 11.498637
54.745 11.941745
54.750 11.531301
54.755 11.162864
54.760 11.126122
54.765 11.299118
54.770 11.403807
54.775 11.604697
54.780 11.241451
54.785 11.377568
54.790 11.618846
54.795 12.170055
54.800 12.343749
54.805 12.616469
54.810 12.611664
54.815 13.005957
54.820 13.418005
54.825 12.940754
54.830 12.4926
54.835 12.177974
54.840 11.656331
54.845 11.729362
54.850 11.606389
54.855 11.418716
54.860 11.320113
54.865 11.344277
54.870 11.897997
54.875 12.326601
54.880 11.873466
54.885 11.527815
54.890 11.847118
54.895 11.940482
54.900 11.687921
54.905 11.210288
54.910 11.2248
54.915 11.93575
54.920 12.34365
54.925 11.93095
54.930 12.171538
54.935 11.88131
54.940 12.204116
54.945 12.015478
54.950 12.125705
54.955 12.154997
54.960 12.018756
54.965 12.083956
54.970 12.351516
54.975 11.97017
54.980 11.989676
54.985 11.494945
54.990 11.446498
54.995 11.955213
55.000 12.143184
55.005 12.400539
55.010 12.727609
55.015 12.459002
55.020 12.555345
55.025 12.460126
55.030 12.582423
55.035 12.527782
55.040 12.42782
55.045 12.350607
55.050 12.861593
55.055 12.811433
55.060 12.389693
55.065 11.581979
55.070 11.264723
55.075 11.290044
55.080 11.370181
55.085 11.07686
55.090 11.460885
55.095 12.294464
55.100 12.752562
55.105 12.917953
55.110 12.691596
55.115 12.640297
55.120 12.967406
55.125 13.317813
55.130 13.076241
55.135 13.255455
55.140 13.352305
55.145 13.441126
55.150 13.498082
55.155 12.744525
55.160 12.674828
55.165 12.147563
55.170 11.832009
55.175 11.83617
55.180 11.627285
55.185 11.972924
55.190 11.899818
55.195 11.666922
55.200 11.858732
55.205 11.917599
55.210 12.054834
55.215 12.088795
55.220 11.789743
55.225 11.907814
55.230 11.924784
55.235 11.842386
55.240 11.243151
55.245 10.918963
55.250 10.850327
55.255 10.752224
55.260 10.490762
55.265 10.450432
55.270 10.971165
55.275 11.548412
55.280 11.47256
55.285 11.544394
55.290 11.481971
55.295 11.680989
55.300 11.805653
55.305 11.919408
55.310 11.852211
55.315 11.76247
55.320 12.123261
55.325 12.195654
55.330 12.319741
55.335 12.424774
55.340 12.581859
55.345 12.692861
55.350 12.454757
55.355 12.365833
55.360 12.963345
55.365 12.747496
55.370 12.248152
55.375 11.921136
55.380 12.167157
55.385 12.487127
55.390 12.419095
55.395 11.781944
55.400 11.840075
55.405 11.942554
55.410 12.077819
55.415 11.962017
55.420 11.593534
55.425 11.576854
55.430 12.024601
55.435 12.031721
55.440 11.991934
55.445 11.940906
55.450 12.193457
55.455 11.99923
55.460 11.869501
55.465 11.737918
55.470 12.16734
55.475 12.410044
55.480 12.274324
55.485 12.594481
55.490 12.689208
55.495 13.081384
55.500 13.025043
55.505 12.832224
55.510 12.71071
55.515 12.733174
55.520 12.675128
55.525 13.304426
55.530 13.220468
55.535 13.380718
55.540 13.149962
55.545 12.767298
55.550 12.566356
55.555 12.708901
55.560 12.253808
55.565 12.076226
55.570 11.861438
55.575 12.258779
55.580 12.332076
55.585 12.438414
55.590 12.119525
55.595 11.999802
55.600 11.691738
55.605 11.483481
55.610 11.593027
55.615 11.801696
55.620 11.261249
55.625 11.48383
55.630 11.525422
55.635 12.458836
55.640 12.550147
55.645 12.358392
55.650 12.376213
55.655 12.972406
55.660 12.562121
55.665 12.006156
55.670 11.808199
55.675 11.774217
55.680 11.617872
55.685 11.737082
55.690 11.972498
55.695 12.527343
55.700 13.289102
55.705 13.539976
55.710 13.382008
55.715 13.452127
55.720 13.399734
55.725 13.382361
55.730 13.437414
55.735 12.807039
55.740 12.726385
55.745 13.362414
55.750 13.455623
55.755 13.107826
55.760 13.066982
55.765 13.062289
55.770 13.209958
55.775 13.275172
55.780 13.23314
55.785 13.471612
55.790 13.578883
55.795 13.597264
55.800 13.361425
55.805 13.454116
55.810 13.685281
55.815 13.312138
55.820 13.16332
55.825 12.743063
55.830 12.536861
55.835 12.973047
55.840 12.943259
55.845 12.601888
55.850 12.542509
55.855 12.474555
55.860 12.606022
55.865 12.231581
55.870 12.721881
55.875 12.991152
55.880 13.051159
55.885 13.03411
55.890 13.140472
55.895 13.122087
55.900 13.413626
55.905 13.158739
55.910 13.178836
55.915 13.025579
55.920 13.276201
55.925 13.320974
55.930 13.67606
55.935 13.579772
55.940 13.08058
55.945 13.341851
55.950 13.814019
55.955 13.669337
55.960 13.76466
55.965 13.702187
55.970 13.821599
55.975 13.674455
55.980 13.459838
55.985 12.962927
55.990 12.749533
55.995 12.849984
56.000 12.934938
56.005 12.623925
56.010 12.588266
56.015 12.208995
56.020 12.387684
56.025 12.754755
56.030 12.200282
56.035 12.199997
56.040 12.41748
56.045 12.809854
56.050 13.252535
56.055 13.63997
56.060 13.369287
56.065 13.39879
56.070 13.367674
56.075 13.338612
56.080 13.242649
56.085 12.616529
56.090 12.247432
56.095 12.701771
56.100 12.901602
56.105 12.974834
56.110 12.497358
56.115 12.13495
56.120 12.424751
56.125 12.384815
56.130 12.161618
56.135 11.961205
56.140 12.006476
56.145 12.84605
56.150 13.258221
56.155 13.08164
56.160 12.865641
56.165 13.167534
56.170 13.872222
56.175 14.264169
56.180 13.928734
56.185 13.880287
56.190 14.236508
56.195 14.263656
56.200 13.857911
56.205 13.141374
56.210 13.25679
56.215 13.06459
56.220 12.72847
56.225 12.764729
56.230 13.031218
56.235 13.467345
56.240 13.566797
56.245 13.317392
56.250 13.418844
56.255 13.905684
56.260 14.012696
56.265 14.000503
56.270 13.873153
56.275 13.886562
56.280 13.850523
56.285 13.918875
56.290 14.209208
56.295 14.42042
56.300 14.326286
56.305 14.259473
56.310 14.003218
56.315 14.000876
56.320 13.955006
56.325 13.725544
56.330 13.35437
56.335 13.193119
56.340 13.096007
56.345 13.668909
56.350 13.651322
56.355 13.943443
56.360 14.439044
56.365 14.794785
56.370 15.14436
56.375 14.961967
56.380 14.778693
56.385 14.941803
56.390 14.144961
56.395 13.757527
56.400 13.953832
56.405 13.696028
56.410 13.471479
56.415 13.153559
56.420 12.862082
56.425 13.201138
56.430 12.982592
56.435 12.579639
56.440 12.63816
56.445 12.924706
56.450 13.158068
56.455 13.356486
56.460 13.208276
56.465 12.844694
56.470 12.630244
56.475 12.681211
56.480 12.73983
56.485 12.661193
56.490 13.709612
56.495 14.568045
56.500 15.126892
56.505 15.839531
56.510 15.957414
56.515 15.996958
56.520 15.464614
56.525 14.376328
56.530 13.319878
56.535 13.153765
56.540 12.794996
56.545 12.097649
56.550 11.835691
56.555 11.734326
56.560 11.675604
56.565 12.368601
56.570 12.232873
56.575 12.372108
56.580 12.480036
56.585 12.91205
56.590 13.102983
56.595 13.072148
56.600 12.05677
56.605 11.640543
56.610 11.939739
56.615 12.324706
56.620 12.322539
56.625 12.901547
56.630 13.475558
56.635 14.049782
56.640 14.244083
56.645 13.604101
56.650 13.239376
56.655 12.848784
56.660 12.131558
56.665 11.894515
56.670 12.243206
56.675 12.77073
56.680 13.027819
56.685 13.309654
56.690 13.794392
56.695 14.00063
56.700 13.956801
56.705 13.890967
56.710 13.649084
56.715 13.973596
56.720 14.112819
56.725 14.423075
56.730 14.505146
56.735 14.50958
56.740 14.51195
56.745 15.035003
56.750 14.987807
56.755 14.6319
56.760 14.24405
56.765 14.412819
56.770 14.842752
56.775 14.894208
56.780 14.918542
56.785 15.282512
56.790 15.785674
56.795 15.928643
56.800 15.967647
56.805 16.104429
56.810 16.043678
56.815 15.518918
56.820 15.233487
56.825 15.096014
56.830 15.011754
56.835 15.264373
56.840 15.216218
56.845 14.784044
56.850 14.761546
56.855 14.39432
56.860 14.181091
56.865 14.082582
56.870 13.400084
56.875 12.792982
56.880 13.216317
56.885 13.093331
56.890 13.355916
56.895 13.54591
56.900 13.496218
56.905 14.107615
56.910 14.573339
56.915 14.891904
56.920 15.138974
56.925 14.811854
56.930 14.520926
56.935 14.673046
56.940 14.319924
56.945 13.960423
56.950 13.614901
56.955 13.585152
56.960 13.48584
56.965 13.56604
56.970 13.620755
56.975 13.543163
56.980 13.582538
56.985 13.47613
56.990 13.652669
56.995 14.096577
57.000 14.012129
57.005 13.984529
57.010 14.527628
57.015 14.840455
57.020 15.007051
57.025 15.054979
57.030 15.390282
57.035 15.496162
57.040 15.045782
57.045 15.164037
57.050 15.224719
57.055 15.06403
57.060 14.76859
57.065 14.647431
57.070 14.841404
57.075 14.690889
57.080 13.992022
57.085 13.505174
57.090 13.587854
57.095 13.426078
57.100 13.280428
57.105 13.547889
57.110 13.706213
57.115 13.74713
57.120 13.85217
57.125 13.844739
57.130 13.782437
57.135 13.470939
57.140 13.107257
57.145 13.309072
57.150 13.805038
57.155 14.374881
57.160 14.655612
57.165 14.924526
57.170 15.230201
57.175 16.081722
57.180 16.133757
57.185 15.872602
57.190 16.156919
57.195 15.887231
57.200 15.742373
57.205 15.404276
57.210 14.780925
57.215 14.421467
57.220 14.132409
57.225 13.879527
57.230 14.241008
57.235 14.657964
57.240 14.683956
57.245 15.043118
57.250 15.775182
57.255 15.541862
57.260 15.502893
57.265 15.63251
57.270 15.177521
57.275 15.186371
57.280 14.699112
57.285 14.176525
57.290 14.127879
57.295 14.067392
57.300 14.315992
57.305 14.90075
57.310 15.063891
57.315 14.993081
57.320 15.51301
57.325 15.846429
57.330 15.727667
57.335 15.413342
57.340 15.252433
57.345 15.558458
57.350 16.038277
57.355 16.091381
57.360 15.813618
57.365 15.67471
57.370 15.591701
57.375 14.954947
57.380 14.625719
57.385 14.23074
57.390 14.455034
57.395 14.95309
57.400 15.640378
57.405 16.222622
57.410 16.748514
57.415 17.120224
57.420 17.070038
57.425 16.660833
57.430 16.799162
57.435 15.909439
57.440 15.559848
57.445 15.270432
57.450 15.163526
57.455 15.641228
57.460 15.971175
57.465 15.569888
57.470 15.732654
57.475 15.612275
57.480 15.667991
57.485 15.236643
57.490 14.673902
57.495 14.098439
57.500 13.925737
57.505 14.353923
57.510 14.473555
57.515 14.743077
57.520 14.966654
57.525 14.848413
57.530 14.665735
57.535 14.937633
57.540 15.04374
57.545 15.060703
57.550 14.626471
57.555 15.000939
57.560 15.462795
57.565 16.137831
57.570 16.584793
57.575 16.420708
57.580 16.531164
57.585 16.992554
57.590 16.636654
57.595 16.653481
57.600 16.65485
57.605 16.464302
57.610 16.721106
57.615 16.908854
57.620 16.890835
57.625 17.384506
57.630 17.089092
57.635 16.672176
57.640 16.319355
57.645 16.11376
57.650 15.483206
57.655 15.211912
57.660 15.656878
57.665 15.829924
57.670 16.210253
57.675 16.794769
57.680 17.028151
57.685 17.571951
57.690 17.553232
57.695 17.055946
57.700 16.73768
57.705 16.176994
57.710 15.916886
57.715 15.563127
57.720 15.655538
57.725 16.246304
57.730 16.658813
57.735 16.978462
57.740 17.417589
57.745 17.12397
57.750 17.179079
57.755 16.745312
57.760 15.856845
57.765 15.62303
57.770 15.742023
57.775 15.345036
57.780 15.24963
57.785 15.528278
57.790 15.891804
57.795 16.113197
57.800 16.132105
57.805 16.070841
57.810 16.41168
57.815 16.602621
57.820 16.693214
57.825 16.342112
57.830 16.596104
57.835 16.387922
57.840 16.142925
57.845 16.012432
57.850 16.072874
57.855 16.051344
57.860 15.842453
57.865 15.567956
57.870 15.70383
57.875 15.993927
57.880 15.695782
57.885 15.471382
57.890 15.744957
57.895 16.018761
57.900 16.368132
57.905 16.286051
57.910 16.078072
57.915 16.694601
57.920 17.100683
57.925 17.006191
57.930 17.050056
57.935 16.74164
57.940 16.46332
57.945 16.305529
57.950 15.766504
57.955 15.168149
57.960 14.842867
57.965 15.158359
57.970 15.7349
57.975 16.679737
57.980 16.981785
57.985 17.527866
57.990 18.023422
57.995 18.391144
58.000 18.507647
58.005 18.329487
58.010 17.963013
58.015 17.993486
58.020 17.798536
58.025 17.504965
58.030 17.427113
58.035 17.327539
58.040 17.639833
58.045 17.442305
58.050 17.344727
58.055 17.494583
58.060 17.6012
58.065 17.84963
58.070 17.282852
58.075 16.775023
58.080 16.634027
58.085 16.738932
58.090 16.564531
58.095 17.008986
58.100 16.976892
58.105 17.618086
58.110 18.289246
58.115 18.657021
58.120 19.137091
58.125 19.075808
58.130 18.86632
58.135 18.572475
58.140 18.681223
58.145 18.994392
58.150 18.671762
58.155 18.652246
58.160 18.939953
58.165 18.536715
58.170 18.969486
58.175 19.332582
58.180 19.229023
58.185 19.726089
58.190 19.309538
58.195 19.490217
58.200 19.671082
58.205 19.254164
58.210 19.037245
58.215 18.73016
58.220 18.334791
58.225 18.635426
58.230 18.51808
58.235 18.578382
58.240 18.602085
58.245 17.667709
58.250 18.099747
58.255 18.68471
58.260 18.72187
58.265 18.852205
58.270 18.856081
58.275 19.576656
58.280 20.446392
58.285 20.895945
58.290 21.000937
58.295 21.78096
58.300 22.164425
58.305 22.393641
58.310 21.958405
58.315 22.133377
58.320 22.007687
58.325 22.237467
58.330 21.989588
58.335 22.274424
58.340 22.749914
58.345 23.205578
58.350 22.780384
58.355 23.034569
58.360 23.23814
58.365 23.561169
58.370 23.613487
58.375 23.414705
58.380 23.89892
58.385 24.96191
58.390 24.465935
58.395 24.220427
58.400 24.239323
58.405 25.045095
58.410 25.248114
58.415 24.817333
58.420 24.917639
58.425 26.412645
58.430 27.125963
58.435 27.081087
58.440 27.151321
58.445 28.091467
58.450 28.409082
58.455 27.598408
58.460 26.737566
58.465 26.340494
58.470 25.810001
58.475 24.941593
58.480 24.156801
58.485 24.130304
58.490 24.255503
58.495 23.962015
58.500 23.784197
58.505 24.333757
58.510 24.462805
58.515 24.390369
58.520 24.722092
58.525 25.575836
58.530 26.286123
58.535 26.622269
58.540 26.564899
58.545 26.682714
58.550 26.844366
58.555 27.056314
58.560 27.261688
58.565 27.174458
58.570 27.144985
58.575 27.133123
58.580 27.00433
58.585 26.934444
58.590 26.499914
58.595 26.352865
58.600 26.176823
58.605 26.39802
58.610 26.499392
58.615 26.749935
58.620 26.455645
58.625 26.180521
58.630 26.076694
58.635 26.00997
58.640 25.568495
58.645 25.979706
58.650 26.11351
58.655 26.424541
58.660 26.969818
58.665 26.796953
58.670 26.638092
58.675 27.037287
58.680 25.992115
58.685 26.259155
58.690 26.677917
58.695 26.856674
58.700 27.13656
58.705 26.97245
58.710 26.124207
58.715 26.326267
58.720 25.537865
58.725 24.780724
58.730 23.539253
58.735 22.62674
58.740 23.188091
58.745 23.524881
58.750 23.751873
58.755 23.577744
58.760 23.328527
58.765 23.566093
58.770 23.781172
58.775 23.674772
58.780 23.330832
58.785 22.969097
58.790 23.854385
58.795 24.179428
58.800 23.782894
58.805 23.799902
58.810 23.909033
58.815 23.313931
58.820 23.15785
58.825 22.857826
58.830 22.424618
58.835 22.352188
58.840 21.534384
58.845 21.247423
58.850 21.835747
58.855 22.170336
58.860 21.958374
58.865 22.153221
58.870 21.796642
58.875 22.048592
58.880 21.93133
58.885 21.663279
58.890 20.506878
58.895 20.048658
58.900 19.188684
58.905 19.476759
58.910 19.922796
58.915 20.015587
58.920 20.163969
58.925 21.586647
58.930 21.994284
58.935 22.872936
58.940 23.169907
58.945 22.814034
58.950 22.844881
58.955 22.152657
58.960 21.11982
58.965 21.05998
58.970 21.324369
58.975 21.42024
58.980 21.748652
58.985 22.030611
58.990 22.633627
58.995 22.700985
59.000 22.723043
59.005 22.188488
59.010 21.773874
59.015 21.24412
59.020 21.33437
59.025 21.799311
59.030 22.569647
59.035 22.51177
59.040 22.66556
59.045 22.473175
59.050 22.18325
59.055 21.983231
59.060 21.226944
59.065 20.634573
59.070 20.641548
59.075 20.593937
59.080 21.081448
59.085 21.099871
59.090 20.76239
59.095 20.770828
59.100 20.796833
59.105 20.961653
59.110 20.772455
59.115 19.808502
59.120 19.425457
59.125 19.678114
59.130 19.842621
59.135 19.442236
59.140 18.938211
59.145 19.385412
59.150 19.882364
59.155 20.381163
59.160 20.00366
59.165 19.712599
59.170 19.950274
59.175 20.170408
59.180 19.632668
59.185 19.761948
59.190 19.825212
59.195 19.949858
59.200 19.870651
59.205 20.127815
59.210 20.520605
59.215 20.059137
59.220 19.941261
59.225 19.507483
59.230 19.398869
59.235 19.328581
59.240 18.834425
59.245 18.703392
59.250 18.46752
59.255 18.492617
59.260 18.583441
59.265 18.51355
59.270 19.068617
59.275 19.152225
59.280 18.8092
59.285 19.312429
59.290 19.2785
59.295 19.504704
59.300 19.44738
59.305 18.951212
59.310 18.559793
59.315 18.729017
59.320 17.983414
59.325 17.348755
59.330 17.20829
59.335 17.201086
59.340 17.223097
59.345 17.376932
59.350 17.406174
59.355 18.01372
59.360 18.580233
59.365 18.824045
59.370 19.048931
59.375 19.318953
59.380 19.855394
59.385 20.363396
59.390 21.009928
59.395 20.674597
59.400 20.602396
59.405 20.899532
59.410 20.790506
59.415 20.230507
59.420 19.88063
59.425 19.637844
59.430 19.353891
59.435 18.541925
59.440 17.749479
59.445 17.583275
59.450 17.54825
59.455 17.220419
59.460 16.919689
59.465 16.969435
59.470 17.819475
59.475 18.252975
59.480 18.467607
59.485 18.390293
59.490 18.08749
59.495 18.26247
59.500 18.215418
59.505 18.038254
59.510 17.629608
59.515 17.082342
59.520 17.213312
59.525 18.046148
59.530 18.242599
59.535 18.459429
59.540 18.521925
59.545 18.983435
59.550 19.389034
59.555 19.410265
59.560 19.320654
59.565 19.761742
59.570 19.435301
59.575 19.570377
59.580 19.447371
59.585 19.49337
59.590 19.335218
59.595 18.98172
59.600 18.393898
59.605 18.475662
59.610 17.509439
59.615 17.124269
59.620 17.009464
59.625 16.976255
59.630 16.591713
59.635 16.649555
59.640 16.748947
59.645 17.199697
59.650 17.504608
59.655 17.905918
59.660 18.099472
59.665 18.430283
59.670 18.515825
59.675 18.501925
59.680 18.450678
59.685 18.512962
59.690 18.406597
59.695 18.432198
59.700 18.848862
59.705 18.555275
59.710 18.203096
59.715 18.174553
59.720 17.897196
59.725 18.197218
59.730 18.267857
59.735 17.773149
59.740 18.070103
59.745 18.287766
59.750 18.643372
59.755 18.391193
59.760 18.288113
59.765 18.361694
59.770 18.10778
59.775 18.200001
59.780 18.29357
59.785 17.885443
59.790 17.98912
59.795 17.406437
59.800 16.866528
59.805 17.428648
59.810 17.541674
59.815 17.78705
59.820 18.62742
59.825 18.606941
59.830 18.476313
59.835 18.404131
59.840 18.010052
59.845 17.92222
59.850 17.151001
59.855 16.916613
59.860 17.424206
59.865 17.615774
59.870 17.764061
59.875 17.734373
59.880 17.718271
59.885 18.371368
59.890 18.47254
59.895 18.218506
59.900 18.357166
59.905 18.299463
59.910 17.745131
59.915 17.302931
59.920 16.767038
59.925 16.3743
59.930 15.810773
59.935 15.700119
59.940 15.309568
59.945 15.587109
59.950 15.929944
59.955 16.055641
59.960 16.724812
59.965 17.561178
59.970 18.009796
59.975 19.036203
59.980 19.542906
59.985 19.45532
59.990 19.702982
59.995 19.056591
60.000 18.727646
60.005 18.685638
60.010 18.351452
60.015 18.408209
60.020 17.964851
60.025 17.74024
60.030 17.83952
60.035 17.722033
60.040 17.801876
60.045 18.072727
60.050 18.056164
60.055 18.513329
60.060 18.177647
60.065 18.630358
60.070 18.750721
60.075 18.240252
60.080 17.671526
60.085 17.28343
60.090 17.23753
60.095 17.317041
60.100 16.802992
60.105 16.73074
60.110 16.661905
60.115 16.602879
60.120 16.595814
60.125 16.342953
60.130 16.330147
60.135 16.097141
60.140 16.499662
60.145 16.699358
60.150 17.073708
60.155 17.175125
60.160 17.526342
60.165 17.476959
60.170 17.633192
60.175 17.749611
60.180 17.896763
60.185 17.803591
60.190 17.539528
60.195 17.466253
60.200 17.327436
60.205 17.435551
60.210 17.307713
60.215 17.096228
60.220 16.844454
60.225 16.784773
60.230 16.756313
60.235 17.105595
60.240 17.003891
60.245 16.909338
60.250 16.930771
60.255 17.03183
60.260 17.04442
60.265 16.609556
60.270 16.528156
60.275 16.605909
60.280 16.310047
60.285 15.989592
60.290 16.226749
60.295 16.299438
60.300 16.572144
60.305 16.396933
60.310 16.095699
60.315 16.497173
60.320 17.198166
60.325 17.777538
60.330 17.348261
60.335 16.669168
60.340 16.754036
60.345 16.873716
60.350 16.960154
60.355 16.408037
60.360 16.359056
60.365 16.95628
60.370 17.165298
60.375 17.124748
60.380 17.00597
60.385 16.874914
60.390 16.825756
60.395 16.548595
60.400 16.427019
60.405 16.456528
60.410 16.472656
60.415 16.439741
60.420 16.240835
60.425 16.549379
60.430 16.07165
60.435 15.681275
60.440 16.030514
60.445 16.13998
60.450 16.225714
60.455 16.465168
60.460 16.868057
60.465 17.270901
60.470 17.892319
60.475 17.84823
60.480 17.62553
60.485 17.536127
60.490 17.27146
60.495 17.201578
60.500 16.798904
60.505 16.955078
60.510 17.146969
60.515 17.474316
60.520 17.470745
60.525 16.939423
60.530 17.125854
60.535 17.982456
60.540 17.662964
60.545 17.803017
60.550 18.024826
60.555 18.15484
60.560 18.02965
60.565 17.301298
60.570 16.557133
60.575 16.387501
60.580 16.011993
60.585 15.651393
60.590 15.378185
60.595 15.817929
60.600 16.201399
60.605 16.395693
60.610 16.981262
60.615 17.410604
60.620 17.613953
60.625 18.059347
60.630 17.813332
60.635 17.371355
60.640 17.268047
60.645 17.127569
60.650 17.308802
60.655 17.280725
60.660 16.864145
60.665 17.188969
60.670 17.096785
60.675 17.103027
60.680 17.197535
60.685 16.579685
60.690 16.992085
60.695 17.267334
60.700 17.6686
60.705 17.569969
60.710 17.761778
60.715 17.30747
60.720 17.339367
60.725 17.209766
60.730 17.023348
60.735 16.94405
60.740 17.115923
60.745 16.64813
60.750 16.683332
60.755 16.590357
60.760 16.814466
60.765 17.224756
60.770 16.856558
60.775 17.056271
60.780 17.222195
60.785 17.394432
60.790 17.161613
60.795 17.21769
60.800 16.789158
60.805 16.99206
60.810 17.379332
60.815 17.644398
60.820 17.736622
60.825 17.43574
60.830 16.92515
60.835 16.669128
60.840 16.644514
60.845 16.69124
60.850 16.303574
60.855 15.552256
60.860 15.747031
60.865 15.37083
60.870 15.296797
60.875 15.233502
60.880 14.656774
60.885 14.618697
60.890 15.168495
60.895 16.038504
60.900 17.02652
60.905 17.372131
60.910 17.345198
60.915 17.407761
60.920 17.950657
60.925 18.826382
60.930 18.749077
60.935 18.004616
60.940 17.592888
60.945 17.248413
60.950 17.292019
60.955 17.270477
60.960 16.114408
60.965 15.555249
60.970 16.136974
60.975 16.583504
60.980 16.754139
60.985 17.499701
60.990 17.825741
60.995 17.756613
61.000 17.871979
61.005 17.969337
61.010 17.957731
61.015 18.007566
61.020 17.19655
61.025 16.946287
61.030 16.906111
61.035 16.493254
61.040 16.192913
61.045 16.49295
61.050 16.490337
61.055 16.218313
61.060 16.100582
61.065 16.375252
61.070 16.855324
61.075 16.962862
61.080 16.558994
61.085 16.625479
61.090 16.746775
61.095 16.753134
61.100 16.924555
61.105 16.731171
61.110 16.187515
61.115 15.623944
61.120 15.486828
61.125 15.776359
61.130 15.622901
61.135 15.260351
61.140 15.037906
61.145 16.036957
61.150 16.906519
61.155 16.818329
61.160 16.225239
61.165 16.408941
61.170 16.362747
61.175 16.239735
61.180 15.580027
61.185 15.144106
61.190 15.237762
61.195 15.494459
61.200 15.411883
61.205 15.647895
61.210 15.843079
61.215 15.979509
61.220 16.270096
61.225 16.908438
61.230 18.526825
61.235 18.747139
61.240 18.954651
61.245 18.656282
61.250 18.39229
61.255 18.19598
61.260 17.845119
61.265 16.524384
61.270 16.237774
61.275 16.305164
61.280 16.820999
61.285 16.911623
61.290 16.606728
61.295 15.944362
61.300 15.316304
61.305 15.480974
61.310 15.061575
61.315 14.673221
61.320 14.880129
61.325 15.45816
61.330 15.663937
61.335 16.027935
61.340 15.887877
61.345 16.656475
61.350 16.839565
61.355 16.725084
61.360 16.380684
61.365 16.847223
61.370 17.206392
61.375 17.049173
61.380 16.875553
61.385 16.799053
61.390 16.946432
61.395 16.788647
61.400 16.891058
61.405 16.656933
61.410 16.77298
61.415 16.695442
61.420 16.583168
61.425 16.61916
61.430 17.088608
61.435 16.377123
61.440 16.931915
61.445 16.64547
61.450 16.519609
61.455 17.152212
61.460 17.087404
61.465 17.080011
61.470 17.055614
61.475 16.442488
61.480 16.765203
61.485 17.113607
61.490 16.741762
61.495 16.743816
61.500 16.930956
61.505 17.428112
61.510 17.393976
61.515 16.688841
61.520 16.325937
61.525 16.717426
61.530 16.592665
61.535 16.524191
61.540 16.569611
61.545 17.243561
61.550 17.944021
61.555 18.314329
61.560 17.733618
61.565 18.226875
61.570 18.233334
61.575 18.331064
61.580 18.145809
61.585 17.675917
61.590 17.287411
61.595 17.431803
61.600 16.937311
61.605 16.926746
61.610 16.541481
61.615 15.95529
61.620 15.548079
61.625 15.535287
61.630 15.275064
61.635 15.070789
61.640 14.901486
61.645 15.538621
61.650 15.971871
61.655 16.45838
61.660 16.369717
61.665 16.661667
61.670 17.197191
61.675 17.226583
61.680 16.470839
61.685 16.452734
61.690 16.346298
61.695 16.656099
61.700 16.488667
61.705 16.200945
61.710 15.877399
61.715 16.48238
61.720 16.982775
61.725 16.960764
61.730 16.671217
61.735 16.476252
61.740 16.664785
61.745 16.699196
61.750 15.841005
61.755 15.929868
61.760 16.071781
61.765 16.23345
61.770 16.556877
61.775 16.209862
61.780 16.506052
61.785 17.452763
61.790 17.242065
61.795 17.544525
61.800 17.359587
61.805 17.038355
61.810 17.407681
61.815 17.382029
61.820 16.717316
61.825 16.931498
61.830 16.865995
61.835 17.223028
61.840 17.464006
61.845 17.783768
61.850 17.44125
61.855 17.204992
61.860 17.228411
61.865 17.436954
61.870 17.568703
61.875 17.94372
61.880 18.01429
61.885 18.583736
61.890 19.402473
61.895 19.858049
61.900 19.803984
61.905 19.811718
61.910 19.569399
61.915 19.072332
61.920 18.896194
61.925 18.898834
61.930 18.100723
61.935 17.949261
61.940 17.560043
61.945 17.569706
61.950 17.636759
61.955 17.460485
61.960 16.898695
61.965 16.912676
61.970 17.150639
61.975 17.67589
61.980 17.88814
61.985 17.821873
61.990 17.885262
61.995 17.854227
62.000 17.934649
62.005 17.645351
62.010 17.330753
62.015 17.117746
62.020 17.333796
62.025 17.330248
62.030 16.825285
62.035 16.552605
62.040 16.341824
62.045 16.084105
62.050 16.26811
62.055 16.096392
62.060 15.95275
62.065 15.920259
62.070 15.983583
62.075 16.176773
62.080 16.240656
62.085 16.388716
62.090 16.650162
62.095 16.748713
62.100 16.798723
62.105 16.788767
62.110 16.78433
62.115 17.07588
62.120 16.746559
62.125 16.835417
62.130 16.902872
62.135 17.619165
62.140 17.892477
62.145 17.783255
62.150 18.077185
62.155 18.06843
62.160 18.362221
62.165 18.724907
62.170 19.085632
62.175 19.48074
62.180 20.073742
62.185 19.848236
62.190 19.678333
62.195 19.282158
62.200 19.712339
62.205 19.701506
62.210 19.586441
62.215 19.392906
62.220 19.259628
62.225 19.330378
62.230 19.141867
62.235 18.133677
62.240 17.443113
62.245 17.076731
62.250 16.942499
62.255 17.178396
62.260 17.438503
62.265 17.740158
62.270 17.537947
62.275 18.195475
62.280 18.033068
62.285 17.224682
62.290 16.670071
62.295 15.933303
62.300 16.028921
62.305 16.39646
62.310 16.252886
62.315 16.558542
62.320 17.176456
62.325 17.949133
62.330 18.869789
62.335 18.874657
62.340 19.096407
62.345 18.712236
62.350 18.457176
62.355 17.911266
62.360 17.259113
62.365 16.61694
62.370 15.668776
62.375 15.235741
62.380 15.370492
62.385 15.776204
62.390 16.334978
62.395 16.409435
62.400 16.527195
62.405 17.839218
62.410 18.774302
62.415 19.283863
62.420 19.189377
62.425 19.106548
62.430 18.944511
62.435 18.952185
62.440 19.227856
62.445 18.342739
62.450 17.765018
62.455 17.236832
62.460 16.890423
62.465 17.452087
62.470 18.021667
62.475 17.55402
62.480 17.935856
62.485 18.246746
62.490 19.00046
62.495 19.379515
62.500 19.064703
62.505 18.615326
62.510 18.185972
62.515 18.252121
62.520 17.922319
62.525 17.608694
62.530 17.53124
62.535 17.563538
62.540 17.265215
62.545 17.162981
62.550 16.974001
62.555 17.091785
62.560 16.841259
62.565 16.63822
62.570 16.095518
62.575 16.222134
62.580 16.464962
62.585 16.278374
62.590 16.508244
62.595 16.613882
62.600 16.467752
62.605 16.882627
62.610 16.88732
62.615 16.626429
62.620 16.653706
62.625 16.781116
62.630 17.249218
62.635 17.711794
62.640 17.784224
62.645 18.150759
62.650 18.518005
62.655 18.330151
62.660 18.083759
62.665 17.761999
62.670 18.177574
62.675 18.31493
62.680 18.280508
62.685 18.353203
62.690 18.579926
62.695 18.483194
62.700 18.5931
62.705 18.474367
62.710 18.632278
62.715 18.349293
62.720 17.873907
62.725 18.036861
62.730 18.049677
62.735 18.390238
62.740 18.705538
62.745 18.476435
62.750 18.43993
62.755 18.884428
62.760 19.078041
62.765 19.174267
62.770 18.376841
62.775 17.794271
62.780 17.803888
62.785 17.403482
62.790 17.242716
62.795 17.06913
62.800 17.007963
62.805 16.792128
62.810 16.904028
62.815 16.624481
62.820 17.016338
62.825 17.03484
62.830 16.960646
62.835 17.379629
62.840 17.481792
62.845 17.429155
62.850 17.647326
62.855 17.91766
62.860 17.868311
62.865 17.160261
62.870 16.845131
62.875 17.373756
62.880 17.171068
62.885 17.667673
62.890 18.023453
62.895 17.819408
62.900 17.923361
62.905 17.599728
62.910 17.579609
62.915 18.175777
62.920 17.969618
62.925 18.218821
62.930 18.506737
62.935 18.844942
62.940 18.667555
62.945 18.369463
62.950 17.890852
62.955 17.444668
62.960 16.773546
62.965 16.370251
62.970 17.085043
62.975 17.904491
62.980 17.882603
62.985 17.757133
62.990 18.135651
62.995 18.503405
63.000 18.490419
63.005 18.047056
63.010 17.741621
63.015 18.127039
63.020 18.136095
63.025 17.899323
63.030 17.991274
63.035 18.611616
63.040 18.2167
63.045 18.204378
63.050 18.223343
63.055 18.253742
63.060 18.242674
63.065 17.641191
63.070 17.789
63.075 17.987915
63.080 18.523914
63.085 18.59374
63.090 18.66935
63.095 18.746758
63.100 18.643686
63.105 18.336548
63.110 18.26132
63.115 18.379551
63.120 18.599426
63.125 18.691124
63.130 18.925455
63.135 18.717304
63.140 19.255051
63.145 19.491066
63.150 18.786144
63.155 18.742794
63.160 18.209303
63.165 18.412086
63.170 19.34687
63.175 19.044687
63.180 18.987642
63.185 19.011454
63.190 18.932749
63.195 19.047386
63.200 18.598396
63.205 18.464266
63.210 19.016851
63.215 19.016802
63.220 18.746536
63.225 18.368889
63.230 18.620918
63.235 18.842684
63.240 18.583109
63.245 18.450293
63.250 18.339865
63.255 18.846449
63.260 19.279034
63.265 19.563072
63.270 19.551874
63.275 19.794075
63.280 19.381628
63.285 18.937416
63.290 18.817535
63.295 18.726648
63.300 18.47571
63.305 18.548542
63.310 18.68742
63.315 19.073994
63.320 19.06349
63.325 18.620386
63.330 18.705252
63.335 18.182892
63.340 17.715212
63.345 16.418573
63.350 15.725595
63.355 15.835698
63.360 16.179581
63.365 16.42561
63.370 17.451876
63.375 17.792782
63.380 18.769964
63.385 19.623228
63.390 19.342779
63.395 18.818487
63.400 18.812195
63.405 18.096636
63.410 17.702986
63.415 17.636795
63.420 17.196394
63.425 17.501448
63.430 17.543928
63.435 17.232714
63.440 17.474451
63.445 17.69145
63.450 17.655664
63.455 17.647762
63.460 17.892406
63.465 18.796146
63.470 19.373268
63.475 19.299103
63.480 19.300253
63.485 19.070915
63.490 19.525705
63.495 19.631659
63.500 19.635563
63.505 19.656076
63.510 20.020817
63.515 20.21348
63.520 20.433304
63.525 21.053431
63.530 20.794403
63.535 20.44384
63.540 20.214588
63.545 19.874483
63.550 19.551575
63.555 19.160397
63.560 18.518702
63.565 18.18873
63.570 17.199663
63.575 16.607576
63.580 16.809982
63.585 16.743231
63.590 16.624949
63.595 16.658707
63.600 17.391472
63.605 18.602087
63.610 19.71417
63.615 20.617365
63.620 21.114265
63.625 21.774555
63.630 21.884388
63.635 21.638556
63.640 20.660244
63.645 19.600174
63.650 18.6371
63.655 18.805859
63.660 19.468798
63.665 19.920586
63.670 20.331167
63.675 21.292549
63.680 21.179432
63.685 21.100855
63.690 20.86388
63.695 20.960052
63.700 20.341162
63.705 19.918627
63.710 20.250767
63.715 21.224422
63.720 21.823875
63.725 21.804373
63.730 21.04048
63.735 21.260618
63.740 21.568708
63.745 21.365387
63.750 21.143623
63.755 21.033476
63.760 21.215021
63.765 21.647404
63.770 22.405743
63.775 21.94705
63.780 22.168518
63.785 22.377729
63.790 22.496197
63.795 21.966806
63.800 21.777906
63.805 21.876066
63.810 22.252592
63.815 22.220362
63.820 21.899897
63.825 21.929518
63.830 22.302404
63.835 22.413727
63.840 22.355734
63.845 22.824646
63.850 22.976635
63.855 23.071726
63.860 23.587549
63.865 24.22813
63.870 23.867256
63.875 23.562006
63.880 23.591122
63.885 24.062506
63.890 24.385828
63.895 24.167234
63.900 23.233355
63.905 23.588345
63.910 24.341703
63.915 23.892067
63.920 23.425444
63.925 23.686792
63.930 24.359707
63.935 25.155468
63.940 24.962784
63.945 25.17091
63.950 25.251385
63.955 25.617157
63.960 25.407005
63.965 25.054956
63.970 25.243868
63.975 25.714428
63.980 26.117491
63.985 26.401337
63.990 26.445301
63.995 27.064213
64.000 28.013145
64.005 29.139408
64.010 29.647369
64.015 30.888405
64.020 32.768547
64.025 33.387772
64.030 33.445526
64.035 33.337605
64.040 32.878132
64.045 32.825386
64.050 32.163826
64.055 30.875427
64.060 30.272997
64.065 30.138557
64.070 30.640854
64.075 31.022863
64.080 31.022242
64.085 31.183201
64.090 31.353977
64.095 31.347456
64.100 31.490885
64.105 31.227695
64.110 30.821295
64.115 30.031906
64.120 28.954212
64.125 28.572865
64.130 29.128498
64.135 28.768867
64.140 28.819386
64.145 29.543228
64.150 31.17555
64.155 31.415951
64.160 32.060902
64.165 32.635338
64.170 32.88364
64.175 33.453072
64.180 33.414867
64.185 32.412281
64.190 32.945309
64.195 33.100964
64.200 32.28891
64.205 32.556087
64.210 31.975008
64.215 31.494246
64.220 31.76193
64.225 31.725491
64.230 30.613214
64.235 30.451162
64.240 30.156219
64.245 29.71961
64.250 29.900921
64.255 30.038694
64.260 29.926094
64.265 30.504372
64.270 30.043964
64.275 29.373358
64.280 28.906437
64.285 28.420952
64.290 28.711136
64.295 28.644533
64.300 28.533754
64.305 29.045376
64.310 29.708406
64.315 30.111944
64.320 29.57881
64.325 29.214561
64.330 29.113094
64.335 29.203087
64.340 29.630999
64.345 29.710726
64.350 30.124983
64.355 30.181297
64.360 29.474129
64.365 29.255478
64.370 28.391853
64.375 27.780378
64.380 27.031185
64.385 26.170296
64.390 26.316156
64.395 26.401482
64.400 26.053741
64.405 26.431782
64.410 26.404446
64.415 26.271992
64.420 26.463207
64.425 26.225502
64.430 26.185532
64.435 26.657518
64.440 26.825199
64.445 26.468771
64.450 26.263546
64.455 26.078823
64.460 26.268492
64.465 26.77759
64.470 26.328888
64.475 26.591511
64.480 27.055323
64.485 27.66983
64.490 27.806536
64.495 27.367865
64.500 26.625858
64.505 25.946671
64.510 25.143145
64.515 24.231831
64.520 24.045067
64.525 24.383379
64.530 24.03264
64.535 24.081839
64.540 24.624754
64.545 24.99003
64.550 25.071316
64.555 24.792816
64.560 24.434374
64.565 24.272038
64.570 24.385941
64.575 24.393282
64.580 24.006289
64.585 24.116877
64.590 23.987556
64.595 23.905518
64.600 24.247391
64.605 23.357376
64.610 22.66431
64.615 22.797903
64.620 22.815218
64.625 22.700888
64.630 22.575182
64.635 23.035116
64.640 24.063875
64.645 25.021692
64.650 24.821507
64.655 24.709982
64.660 24.920816
64.665 25.46987
64.670 24.627338
64.675 24.10346
64.680 23.769524
64.685 23.383135
64.690 23.246374
64.695 22.6805
64.700 22.42728
64.705 22.69236
64.710 22.472305
64.715 22.539762
64.720 22.929329
64.725 23.153036
64.730 23.198767
64.735 23.166334
64.740 23.386564
64.745 23.408218
64.750 23.18931
64.755 23.426775
64.760 23.685545
64.765 24.250135
64.770 24.159363
64.775 23.529266
64.780 23.333181
64.785 23.670351
64.790 23.211538
64.795 23.146801
64.800 23.113985
64.805 23.449713
64.810 24.399717
64.815 24.525846
64.820 24.542833
64.825 24.020895
64.830 24.368082
64.835 23.895672
64.840 22.940487
64.845 22.226688
64.850 21.759369
64.855 21.190691
64.860 21.09897
64.865 20.738026
64.870 20.774035
64.875 21.622007
64.880 21.836018
64.885 21.542747
64.890 21.707228
64.895 22.264969
64.900 21.658546
64.905 21.701828
64.910 20.774616
64.915 19.783913
64.920 20.221256
64.925 20.190702
64.930 20.125797
64.935 20.160511
64.940 19.78297
64.945 20.294613
64.950 20.594854
64.955 21.190264
64.960 21.482351
64.965 21.478828
64.970 21.682274
64.975 22.65506
64.980 23.208483
64.985 24.200357
64.990 24.301056
64.995 24.571335
65.000 24.733019
65.005 25.227648
65.010 25.27042
65.015 25.130484
65.020 25.684704
65.025 25.284063
65.030 24.892004
65.035 24.976719
65.040 24.602671
65.045 24.582386
65.050 25.062412
65.055 24.420633
65.060 24.462599
65.065 24.604918
65.070 24.016378
65.075 24.392538
65.080 24.195108
65.085 23.696163
65.090 23.91189
65.095 24.247078
65.100 24.515411
65.105 24.547253
65.110 24.371077
65.115 23.939991
65.120 23.870758
65.125 23.258808
65.130 23.471397
65.135 23.110468
65.140 22.947168
65.145 22.304113
65.150 21.954916
65.155 22.33917
65.160 22.240932
65.165 21.754999
65.170 21.988701
65.175 22.944891
65.180 24.063332
65.185 24.62458
65.190 24.505049
65.195 24.7969
65.200 24.937046
65.205 24.913382
65.210 24.140699
65.215 23.568352
65.220 23.518082
65.225 23.340744
65.230 23.271648
65.235 23.987892
65.240 24.607737
65.245 24.537682
65.250 23.653105
65.255 23.243279
65.260 23.332125
65.265 23.075275
65.270 22.413364
65.275 22.033829
65.280 22.544025
65.285 22.903574
65.290 22.915302
65.295 22.566847
65.300 21.904346
65.305 21.786203
65.310 21.841078
65.315 22.297775
65.320 22.62812
65.325 22.682558
65.330 23.106504
65.335 24.579617
65.340 24.596685
65.345 24.796043
65.350 24.648521
65.355 24.972498
65.360 24.904009
65.365 24.557524
65.370 24.407072
65.375 23.719664
65.380 23.903719
65.385 24.55187
65.390 24.737812
65.395 25.30888
65.400 25.271555
65.405 24.743395
65.410 25.043636
65.415 24.643291
65.420 24.674347
65.425 24.586411
65.430 24.965885
65.435 25.465944
65.440 25.831976
65.445 26.328156
65.450 26.008696
65.455 25.536802
65.460 25.12969
65.465 24.168579
65.470 24.508875
65.475 24.66679
65.480 24.292673
65.485 24.160671
65.490 24.236513
65.495 24.806152
65.500 25.423992
65.505 25.349525
65.510 25.508842
65.515 25.521914
65.520 25.422699
65.525 25.30641
65.530 24.964521
65.535 25.520666
65.540 25.549698
65.545 25.204304
65.550 25.826775
65.555 26.304892
65.560 26.938766
65.565 27.251339
65.570 27.19681
65.575 27.401659
65.580 27.64044
65.585 28.17065
65.590 28.336517
65.595 27.709431
65.600 27.577675
65.605 27.621864
65.610 27.666019
65.615 28.063501
65.620 27.673796
65.625 27.798826
65.630 28.1329
65.635 27.875607
65.640 27.539068
65.645 27.495913
65.650 27.301908
65.655 27.36845
65.660 26.844408
65.665 26.858208
65.670 26.841656
65.675 26.963463
65.680 27.026297
65.685 26.967159
65.690 27.620535
65.695 27.37241
65.700 27.275396
65.705 27.501966
65.710 27.120016
65.715 26.98744
65.720 27.08386
65.725 27.405869
65.730 28.589912
65.735 28.783337
65.740 28.237129
65.745 28.595404
65.750 28.922834
65.755 28.702385
65.760 27.573252
65.765 27.421976
65.770 27.656023
65.775 28.346718
65.780 28.916479
65.785 29.03853
65.790 29.40321
65.795 30.513105
65.800 30.927933
65.805 31.901327
65.810 32.405277
65.815 31.836779
65.820 32.91077
65.825 33.696259
65.830 33.385777
65.835 33.325527
65.840 33.11961
65.845 33.211864
65.850 33.670937
65.855 33.866158
65.860 34.171253
65.865 33.882206
65.870 33.694855
65.875 33.729195
65.880 33.244495
65.885 33.649242
65.890 34.194664
65.895 35.059521
65.900 36.083176
65.905 36.671703
65.910 36.364887
65.915 37.216824
65.920 37.055141
65.925 36.289837
65.930 35.645176
65.935 35.527004
65.940 35.36554
65.945 35.077332
65.950 35.309071
65.955 35.301228
65.960 35.219883
65.965 34.742554
65.970 35.226871
65.975 35.411079
65.980 35.701023
65.985 35.986275
65.990 36.334816
65.995 36.163143
66.000 36.313602
66.005 36.23653
66.010 36.593647
66.015 36.904778
66.020 36.629002
66.025 36.24881
66.030 36.877571
66.035 37.030361
66.040 36.950485
66.045 37.144348
66.050 37.756947
66.055 37.90379
66.060 38.079361
66.065 37.8997
66.070 37.55061
66.075 37.238869
66.080 37.053162
66.085 37.208057
66.090 36.738457
66.095 36.703323
66.100 37.08371
66.105 38.037273
66.110 38.140923
66.115 37.616833
66.120 37.047752
66.125 36.685764
66.130 37.459541
66.135 38.400257
66.140 38.277626
66.145 38.464092
66.150 38.861008
66.155 39.177307
66.160 40.336506
66.165 40.277916
66.170 40.452618
66.175 39.809277
66.180 40.157631
66.185 40.010338
66.190 39.813614
66.195 39.022289
66.200 38.326145
66.205 38.380005
66.210 39.269203
66.215 39.394051
66.220 39.497627
66.225 39.131302
66.230 39.118134
66.235 38.777622
66.240 37.538464
66.245 36.974018
66.250 36.653233
66.255 36.583271
66.260 36.642029
66.265 36.643612
66.270 36.870911
66.275 37.081425
66.280 37.078514
66.285 37.333241
66.290 37.636372
66.295 37.546818
66.300 37.510559
66.305 37.532429
66.310 37.172562
66.315 37.003666
66.320 36.91399
66.325 36.889931
66.330 37.546913
66.335 37.520233
66.340 37.414238
66.345 36.701355
66.350 36.0909
66.355 35.429924
66.360 35.082287
66.365 34.742401
66.370 34.945877
66.375 33.978809
66.380 34.084602
66.385 34.212505
66.390 34.382858
66.395 34.218166
66.400 33.576656
66.405 32.467854
66.410 32.25161
66.415 31.908043
66.420 31.516571
66.425 31.141996
66.430 30.802235
66.435 30.778713
66.440 31.314648
66.445 31.727922
66.450 31.716587
66.455 31.881094
66.460 31.729815
66.465 31.800043
66.470 31.477438
66.475 30.563364
66.480 30.318569
66.485 30.103527
66.490 29.771101
66.495 29.213886
66.500 28.078756
66.505 27.467636
66.510 27.011799
66.515 26.656122
66.520 26.589731
66.525 26.296103
66.530 26.495161
66.535 26.735682
66.540 26.982094
66.545 27.621346
66.550 27.088707
66.555 26.434973
66.560 26.651016
66.565 26.810558
66.570 26.439735
66.575 25.955221
66.580 25.033455
66.585 25.029758
66.590 25.215755
66.595 24.39226
66.600 23.714725
66.605 23.752226
66.610 24.286263
66.615 24.711525
66.620 24.868042
66.625 24.70532
66.630 24.709255
66.635 24.3412
66.640 24.45479
66.645 23.877375
66.650 23.664331
66.655 23.487379
66.660 23.120079
66.665 23.085306
66.670 23.136103
66.675 22.817842
66.680 22.782867
66.685 22.685436
66.690 22.485493
66.695 22.725779
66.700 22.666603
66.705 22.622326
66.710 22.340965
66.715 22.603243
66.720 21.952623
66.725 21.623753
66.730 20.973097
66.735 21.007587
66.740 21.058718
66.745 21.251852
66.750 21.117401
66.755 21.203239
66.760 21.439329
66.765 21.331087
66.770 21.034119
66.775 21.086691
66.780 20.667696
66.785 20.519382
66.790 20.391171
66.795 20.347805
66.800 20.51597
66.805 20.48785
66.810 19.718792
66.815 19.785286
66.820 19.897045
66.825 20.261549
66.830 19.686577
66.835 19.546804
66.840 19.60144
66.845 20.031731
66.850 19.900072
66.855 19.621311
66.860 19.27014
66.865 19.497452
66.870 19.444384
66.875 19.320425
66.880 19.685492
66.885 19.845715
66.890 19.573366
66.895 19.64996
66.900 19.990046
66.905 20.091852
66.910 20.380161
66.915 20.424633
66.920 21.006044
66.925 21.4527
66.930 21.543703
66.935 21.230934
66.940 22.026808
66.945 22.064842
66.950 21.474226
66.955 20.774427
66.960 20.444862
66.965 20.448692
66.970 20.162401
66.975 19.105755
66.980 19.241301
66.985 19.440584
66.990 19.774097
66.995 19.100523
67.000 19.229935
67.005 19.99008
67.010 20.303913
67.015 20.416426
67.020 20.157591
67.025 20.383175
67.030 21.126492
67.035 20.766947
67.040 20.230145
67.045 20.612982
67.050 20.859888
67.055 20.792145
67.060 20.237562
67.065 19.694172
67.070 19.608192
67.075 20.292648
67.080 20.437958
67.085 20.458925
67.090 20.509054
67.095 20.786058
67.100 21.409595
67.105 21.468616
67.110 20.589209
67.115 20.302988
67.120 20.491179
67.125 21.124172
67.130 21.798128
67.135 21.100204
67.140 20.595764
67.145 20.729696
67.150 20.417263
67.155 19.992977
67.160 19.240379
67.165 18.635481
67.170 19.08223
67.175 19.701542
67.180 19.54479
67.185 19.268864
67.190 19.45937
67.195 20.007486
67.200 20.200443
67.205 19.896788
67.210 19.208605
67.215 19.354567
67.220 19.683228
67.225 19.484663
67.230 19.730715
67.235 19.843512
67.240 19.327862
67.245 19.407732
67.250 20.168028
67.255 20.168831
67.260 20.459833
67.265 19.924843
67.270 19.793098
67.275 20.496557
67.280 20.6287
67.285 19.963423
67.290 19.36488
67.295 18.712738
67.300 19.203897
67.305 19.277853
67.310 19.463373
67.315 19.857424
67.320 19.577549
67.325 19.929018
67.330 19.899963
67.335 19.40958
67.340 19.454344
67.345 19.495646
67.350 19.450386
67.355 19.827686
67.360 20.097759
67.365 20.459846
67.370 20.680904
67.375 20.901653
67.380 20.319527
67.385 19.694084
67.390 20.021626
67.395 19.405626
67.400 19.077171
67.405 18.979036
67.410 18.910906
67.415 19.196156
67.420 19.551336
67.425 19.228191
67.430 19.708836
67.435 19.880651
67.440 19.989235
67.445 20.250357
67.450 20.238123
67.455 19.997585
67.460 19.842249
67.465 19.594505
67.470 19.531956
67.475 19.270672
67.480 19.03548
67.485 19.86751
67.490 20.420296
67.495 20.463524
67.500 20.512716
67.505 20.460291
67.510 20.985573
67.515 21.245668
67.520 20.658712
67.525 20.172785
67.530 19.967537
67.535 20.474449
67.540 20.149397
67.545 19.52042
67.550 18.487982
67.555 18.449139
67.560 19.521374
67.565 20.440069
67.570 20.439037
67.575 20.017658
67.580 20.045341
67.585 19.93471
67.590 18.902449
67.595 18.270041
67.600 17.623657
67.605 17.387295
67.610 17.991413
67.615 18.602428
67.620 19.538883
67.625 20.705877
67.630 20.627708
67.635 20.901152
67.640 20.809542
67.645 21.165712
67.650 21.295553
67.655 20.36491
67.660 19.564848
67.665 19.780508
67.670 19.578127
67.675 19.843945
67.680 19.389471
67.685 19.460487
67.690 20.499973
67.695 20.998621
67.700 20.826481
67.705 20.693733
67.710 20.68445
67.715 20.573311
67.720 20.496687
67.725 20.001129
67.730 19.625731
67.735 19.737368
67.740 19.8902
67.745 19.661161
67.750 19.91964
67.755 19.802353
67.760 20.470306
67.765 20.127689
67.770 20.031693
67.775 20.531078
67.780 20.756105
67.785 20.621529
67.790 20.280495
67.795 19.926689
67.800 20.261938
67.805 20.292984
67.810 20.058346
67.815 19.870686
67.820 19.965752
67.825 20.044201
67.830 19.87174
67.835 19.071671
67.840 18.731144
67.845 18.743359
67.850 19.11182
67.855 19.222549
67.860 19.048578
67.865 19.539284
67.870 20.50877
67.875 20.730635
67.880 21.152622
67.885 21.121557
67.890 20.832619
67.895 20.773733
67.900 20.652807
67.905 20.92223
67.910 20.78367
67.915 19.776791
67.920 19.104349
67.925 19.234222
67.930 19.19944
67.935 19.047297
67.940 19.054295
67.945 19.442839
67.950 20.220816
67.955 20.615969
67.960 20.945066
67.965 20.908998
67.970 21.279625
67.975 21.351095
67.980 21.249111
67.985 21.087296
67.990 21.163637
67.995 20.960728
68.000 21.025057
68.005 20.33287
68.010 19.807976
68.015 19.67898
68.020 19.36919
68.025 18.624784
68.030 18.485235
68.035 18.513271
68.040 18.607368
68.045 18.426664
68.050 18.655857
68.055 19.542942
68.060 19.985662
68.065 19.85993
68.070 19.80715
68.075 19.734888
68.080 19.815315
68.085 19.45517
68.090 18.749615
68.095 18.636366
68.100 18.66045
68.105 18.72331
68.110 18.720081
68.115 19.150681
68.120 19.47777
68.125 19.868423
68.130 19.695175
68.135 19.580057
68.140 19.705147
68.145 19.460997
68.150 19.541346
68.155 19.381289
68.160 19.209629
68.165 19.726763
68.170 19.860111
68.175 20.086346
68.180 20.511751
68.185 20.276428
68.190 20.239857
68.195 20.43878
68.200 20.453363
68.205 20.823383
68.210 20.665411
68.215 20.29994
68.220 20.307314
68.225 20.292948
68.230 20.60062
68.235 20.155735
68.240 19.757339
68.245 20.039904
68.250 20.157379
68.255 20.019865
68.260 19.715405
68.265 19.04038
68.270 19.440247
68.275 19.617941
68.280 19.330379
68.285 19.40523
68.290 19.388866
68.295 19.46587
68.300 19.890404
68.305 19.81531
68.310 20.06159
68.315 20.276041
68.320 20.11697
68.325 20.290386
68.330 20.067141
68.335 19.680696
68.340 19.775223
68.345 19.78993
68.350 19.952078
68.355 20.108418
68.360 20.654556
68.365 20.690414
68.370 21.002377
68.375 21.310989
68.380 21.344004
68.385 22.376083
68.390 22.240583
68.395 22.133043
68.400 22.830788
68.405 22.998621
68.410 22.784739
68.415 22.407103
68.420 21.463499
68.425 21.38073
68.430 21.535198
68.435 21.224005
68.440 21.05117
68.445 21.191322
68.450 21.403582
68.455 21.748774
68.460 22.001732
68.465 21.847734
68.470 22.072195
68.475 22.219959
68.480 22.012791
68.485 22.051474
68.490 21.774866
68.495 21.4021
68.500 21.08618
68.505 21.265148
68.510 21.693926
68.515 21.668533
68.520 21.858976
68.525 21.170444
68.530 21.194855
68.535 21.221842
68.540 20.803141
68.545 20.409271
68.550 19.828102
68.555 19.412779
68.560 19.808819
68.565 20.183775
68.570 20.541201
68.575 20.399475
68.580 20.810061
68.585 21.416498
68.590 21.719944
68.595 21.684042
68.600 21.861036
68.605 21.507811
68.610 21.797298
68.615 21.600477
68.620 21.430792
68.625 21.726673
68.630 21.639238
68.635 21.030964
68.640 21.253254
68.645 21.058012
68.650 21.048191
68.655 20.753006
68.660 20.550066
68.665 20.012857
68.670 20.05621
68.675 20.285069
68.680 20.319086
68.685 20.699318
68.690 21.004631
68.695 21.309673
68.700 21.679615
68.705 22.249456
68.710 21.949875
68.715 22.151039
68.720 21.725067
68.725 22.557632
68.730 23.449539
68.735 23.898634
68.740 23.938866
68.745 23.77899
68.750 23.613087
68.755 23.742359
68.760 23.508587
68.765 23.902077
68.770 24.304146
68.775 24.85647
68.780 25.438564
68.785 26.0488
68.790 26.218756
68.795 25.797806
68.800 25.488911
68.805 24.324715
68.810 23.690556
68.815 23.90884
68.820 23.879929
68.825 24.340515
68.830 24.449333
68.835 25.082588
68.840 25.881155
68.845 26.369362
68.850 26.03347
68.855 25.973686
68.860 25.675915
68.865 25.480328
68.870 25.099838
68.875 24.891218
68.880 24.511263
68.885 24.762175
68.890 24.708544
68.895 25.330427
68.900 25.999897
68.905 26.698988
68.910 26.953728
68.915 27.826849
68.920 28.457155
68.925 28.945326
68.930 29.437084
68.935 29.56859
68.940 29.294521
68.945 29.176126
68.950 29.057169
68.955 28.681244
68.960 28.047922
68.965 27.43936
68.970 27.236485
68.975 27.632441
68.980 27.781122
68.985 28.052355
68.990 28.65897
68.995 28.608109
69.000 28.779236
69.005 28.44915
69.010 28.311628
69.015 28.377031
69.020 27.955919
69.025 27.855394
69.030 28.297781
69.035 28.675571
69.040 29.235035
69.045 29.428762
69.050 29.205042
69.055 29.091061
69.060 29.591322
69.065 29.730778
69.070 29.842039
69.075 29.710091
69.080 29.866261
69.085 30.230608
69.090 30.663998
69.095 31.256441
69.100 31.872292
69.105 31.137577
69.110 31.377134
69.115 31.645399
69.120 31.446411
69.125 30.687565
69.130 30.239614
69.135 29.763992
69.140 30.909327
69.145 31.04907
69.150 30.773041
69.155 31.171135
69.160 31.237888
69.165 30.076429
69.170 29.794985
69.175 30.057507
69.180 30.389482
69.185 31.230391
69.190 31.698242
69.195 31.697287
69.200 32.858349
69.205 32.869942
69.210 33.219528
69.215 33.513374
69.220 32.854347
69.225 32.854786
69.230 33.117905
69.235 33.199333
69.240 33.36578
69.245 32.822968
69.250 32.549229
69.255 32.487659
69.260 32.478748
69.265 32.732384
69.270 33.151642
69.275 33.432827
69.280 33.717537
69.285 34.218475
69.290 34.958427
69.295 34.916523
69.300 34.631718
69.305 34.879429
69.310 35.095669
69.315 35.013771
69.320 34.853245
69.325 34.512859
69.330 35.194057
69.335 34.846279
69.340 34.453094
69.345 33.903538
69.350 33.8214
69.355 34.249981
69.360 34.305927
69.365 33.996956
69.370 34.461609
69.375 34.906151
69.380 35.47765
69.385 35.292412
69.390 34.723766
69.395 34.298294
69.400 34.480408
69.405 33.803177
69.410 33.079975
69.415 33.117352
69.420 33.781067
69.425 34.017536
69.430 34.378662
69.435 34.796574
69.440 35.211864
69.445 34.931145
69.450 34.30592
69.455 32.918797
69.460 32.555553
69.465 32.648941
69.470 32.478416
69.475 32.471626
69.480 32.444317
69.485 32.402718
69.490 33.037941
69.495 32.881378
69.500 33.266422
69.505 33.374447
69.510 33.579712
69.515 33.690666
69.520 33.304779
69.525 32.834499
69.530 32.56813
69.535 31.81171
69.540 31.296478
69.545 30.929653
69.550 30.950291
69.555 30.662764
69.560 30.959377
69.565 31.072399
69.570 31.452475
69.575 31.583132
69.580 32.270733
69.585 31.756514
69.590 32.100185
69.595 31.555376
69.600 30.728703
69.605 29.416855
69.610 28.875034
69.615 28.668983
69.620 29.235718
69.625 29.118839
69.630 29.326733
69.635 30.133411
69.640 30.843111
69.645 30.366354
69.650 29.497889
69.655 28.621447
69.660 28.661051
69.665 28.900816
69.670 28.460428
69.675 28.121983
69.680 28.633451
69.685 29.022903
69.690 29.428349
69.695 30.029385
69.700 29.792685
69.705 29.742502
69.710 29.834438
69.715 29.523966
69.720 29.489719
69.725 28.720278
69.730 28.069075
69.735 28.094187
69.740 28.296541
69.745 28.147608
69.750 27.836763
69.755 27.381073
69.760 27.612816
69.765 27.096172
69.770 25.962549
69.775 25.111668
69.780 25.164764
69.785 25.826458
69.790 26.280117
69.795 26.29818
69.800 26.476921
69.805 27.50543
69.810 28.073441
69.815 27.57357
69.820 27.270691
69.825 27.102905
69.830 26.533096
69.835 26.015409
69.840 25.382338
69.845 24.935301
69.850 24.798653
69.855 24.591986
69.860 23.686016
69.865 24.004833
69.870 23.830238
69.875 24.67905
69.880 25.140831
69.885 25.196577
69.890 25.223574
69.895 25.1411
69.900 24.995937
69.905 24.92753
69.910 24.221861
69.915 23.244734
69.920 23.209732
69.925 22.98521
69.930 22.909513
69.935 22.666632
69.940 22.064381
69.945 21.521181
69.950 21.248974
69.955 21.118282
69.960 21.064726
69.965 21.032625
69.970 20.896828
69.975 20.580181
69.980 20.787529
69.985 21.149158
69.990 21.024433
69.995 20.816916
70.000 20.437351
70.005 20.68008
70.010 20.987555
70.015 21.194456
70.020 21.635281
70.025 21.948355
70.030 22.260506
70.035 22.432652
70.040 22.567766
70.045 22.753654
70.050 22.592512
70.055 22.452316
70.060 22.122595
70.065 21.763607
70.070 21.438353
70.075 21.141342
70.080 20.564499
70.085 19.728073
70.090 19.750452
70.095 19.528778
70.100 19.270844
70.105 19.521971
70.110 19.770922
70.115 20.239864
70.120 20.755276
70.125 21.050333
70.130 21.381563
70.135 21.544701
70.140 21.335516
70.145 20.942627
70.150 20.670931
70.155 20.466076
70.160 20.454567
70.165 20.063482
70.170 19.783474
70.175 19.882954
70.180 20.28499
70.185 20.613743
70.190 21.10659
70.195 20.630735
70.200 20.789572
70.205 20.888199
70.210 20.428774
70.215 20.698484
70.220 20.184587
70.225 19.793594
70.230 19.517443
70.235 19.379971
70.240 18.91589
70.245 18.600168
70.250 18.487242
70.255 18.399042
70.260 18.262943
70.265 18.436956
70.270 18.394882
70.275 18.396303
70.280 18.130144
70.285 18.102097
70.290 17.826042
70.295 17.945211
70.300 18.082336
70.305 18.659222
70.310 18.99979
70.315 18.873844
70.320 19.222836
70.325 19.449032
70.330 19.579601
70.335 19.370258
70.340 19.029907
70.345 19.133865
70.350 19.366676
70.355 18.800562
70.360 18.810923
70.365 18.762119
70.370 18.495989
70.375 18.246429
70.380 18.20871
70.385 18.565798
70.390 18.856956
70.395 19.141216
70.400 19.541372
70.405 19.706329
70.410 20.129515
70.415 20.471949
70.420 20.168257
70.425 19.834661
70.430 19.599419
70.435 19.916937
70.440 19.939447
70.445 19.824932
70.450 20.108934
70.455 20.444078
70.460 20.154121
70.465 19.958967
70.470 19.617443
70.475 19.603056
70.480 19.598101
70.485 19.223547
70.490 19.31002
70.495 19.318777
70.500 19.407644
70.505 19.39003
70.510 19.802917
70.515 19.47735
70.520 19.753122
70.525 20.026499
70.530 19.789957
70.535 19.301075
70.540 19.523531
70.545 18.849186
70.550 18.470522
70.555 18.085655
70.560 17.796267
70.565 18.201365
70.570 18.260649
70.575 17.945925
70.580 18.325159
70.585 19.041126
70.590 19.051649
70.595 18.661869
70.600 18.514372
70.605 18.750462
70.610 19.363411
70.615 18.806267
70.620 18.789314
70.625 18.798317
70.630 18.880136
70.635 19.318054
70.640 19.461557
70.645 19.337021
70.650 19.489813
70.655 19.023779
70.660 19.66683
70.665 20.336819
70.670 19.691526
70.675 18.881304
70.680 18.638041
70.685 18.716314
70.690 19.097979
70.695 18.78657
70.700 18.325562
70.705 18.863836
70.710 19.346748
70.715 19.561325
70.720 19.757286
70.725 19.593555
70.730 19.850704
70.735 20.101204
70.740 19.659346
70.745 19.732698
70.750 19.170986
70.755 19.02018
70.760 18.599741
70.765 18.986767
70.770 19.183233
70.775 19.479914
70.780 18.951281
70.785 19.394993
70.790 19.194262
70.795 18.755018
70.800 17.870663
70.805 18.212015
70.810 18.212654
70.815 18.401796
70.820 18.594536
70.825 18.254395
70.830 18.299744
70.835 18.470806
70.840 17.990515
70.845 18.216608
70.850 18.199108
70.855 18.091017
70.860 18.603931
70.865 18.756653
70.870 18.932192
70.875 18.888317
70.880 18.694408
70.885 18.900587
70.890 18.774498
70.895 18.55155
70.900 18.343601
70.905 18.325935
70.910 18.443535
70.915 18.382189
70.920 18.716326
70.925 18.897377
70.930 19.163422
70.935 19.320471
70.940 18.924778
70.945 18.972231
70.950 19.522161
70.955 19.04612
70.960 18.972082
70.965 19.100157
70.970 19.280249
70.975 19.932737
70.980 19.500278
70.985 18.86652
70.990 19.310804
70.995 19.434481
71.000 19.1761
71.005 18.991901
71.010 18.730413
71.015 19.063971
71.020 19.338854
71.025 19.113501
71.030 19.118883
71.035 19.133354
71.040 19.143036
71.045 19.212646
71.050 19.02911
71.055 18.396364
71.060 18.949579
71.065 18.705
71.070 19.01058
71.075 18.883738
71.080 19.349529
71.085 20.026983
71.090 20.381701
71.095 20.757008
71.100 21.150883
71.105 20.95186
71.110 20.944256
71.115 20.211805
71.120 19.884983
71.125 19.601999
71.130 18.895567
71.135 18.816523
71.140 19.000597
71.145 18.563519
71.150 18.754839
71.155 18.358482
71.160 18.506557
71.165 18.755911
71.170 18.555082
71.175 18.22817
71.180 18.430195
71.185 18.703259
71.190 18.730427
71.195 18.364067
71.200 17.571104
71.205 17.932356
71.210 18.455772
71.215 18.017178
71.220 18.123409
71.225 18.19949
71.230 18.903254
71.235 19.244764
71.240 19.083145
71.245 19.332388
71.250 19.174313
71.255 19.027052
71.260 18.305901
71.265 17.796633
71.270 18.050478
71.275 18.330708
71.280 18.551882
71.285 18.723825
71.290 18.822639
71.295 18.804188
71.300 18.656122
71.305 18.200699
71.310 18.091797
71.315 18.614613
71.320 18.930145
71.325 19.101618
71.330 19.405985
71.335 19.240751
71.340 19.154415
71.345 19.032671
71.350 19.134077
71.355 18.937544
71.360 19.394638
71.365 19.526556
71.370 20.145489
71.375 20.345886
71.380 19.829784
71.385 19.488794
71.390 19.498968
71.395 19.08313
71.400 18.856064
71.405 18.641342
71.410 18.423187
71.415 18.30703
71.420 18.205919
71.425 18.225925
71.430 18.876379
71.435 18.506725
71.440 18.263704
71.445 18.583595
71.450 18.986824
71.455 19.520491
71.460 19.712019
71.465 18.933123
71.470 19.294098
71.475 19.859579
71.480 19.567667
71.485 19.186447
71.490 18.396547
71.495 18.158764
71.500 18.406044
71.505 18.395067
71.510 17.877663
71.515 17.862925
71.520 17.627333
71.525 17.798956
71.530 18.051474
71.535 18.496254
71.540 18.928829
71.545 19.340048
71.550 19.426197
71.555 19.244318
71.560 19.264431
71.565 19.18869
71.570 18.701424
71.575 17.814022
71.580 17.347651
71.585 17.68347
71.590 18.589188
71.595 18.518904
71.600 18.455172
71.605 19.053337
71.610 19.444954
71.615 19.182917
71.620 18.593187
71.625 18.329515
71.630 18.763193
71.635 18.561266
71.640 18.260954
71.645 18.004812
71.650 18.444838
71.655 18.282755
71.660 18.30106
71.665 17.991463
71.670 18.07548
71.675 18.268248
71.680 18.434835
71.685 18.295094
71.690 18.490606
71.695 18.507603
71.700 18.50086
71.705 18.439108
71.710 18.344383
71.715 18.378637
71.720 18.779716
71.725 19.26647
71.730 19.147528
71.735 19.18965
71.740 19.497604
71.745 19.830923
71.750 19.515491
71.755 19.202066
71.760 19.172634
71.765 19.333921
71.770 19.350023
71.775 18.585407
71.780 18.56382
71.785 18.927965
71.790 18.727909
71.795 18.161959
71.800 18.429615
71.805 18.760469
71.810 19.015217
71.815 19.209991
71.820 18.870096
71.825 19.102776
71.830 18.972719
71.835 18.562065
71.840 18.867151
71.845 18.828123
71.850 18.625063
71.855 18.789654
71.860 18.845842
71.865 19.415976
71.870 19.033045
71.875 18.444685
71.880 18.749441
71.885 19.403067
71.890 19.610991
71.895 19.451712
71.900 18.985935
71.905 19.711105
71.910 19.668909
71.915 19.311869
71.920 18.886103
71.925 18.563927
71.930 18.736176
71.935 18.813519
71.940 18.486069
71.945 18.477154
71.950 18.15485
71.955 17.730745
71.960 17.511526
71.965 17.41818
71.970 17.463808
71.975 17.611008
71.980 18.265816
71.985 18.389763
71.990 18.42832
71.995 18.539078
72.000 19.043613
72.005 18.984528
72.010 18.325912
72.015 18.080761
72.020 17.700232
72.025 18.391436
72.030 18.72583
72.035 18.545622
72.040 18.5681
72.045 18.584991
72.050 18.898903
72.055 19.236544
72.060 18.649357
72.065 18.158125
72.070 17.492918
72.075 17.65601
72.080 18.413445
72.085 18.256817
72.090 17.937931
72.095 17.884922
72.100 17.878555
72.105 17.751078
72.110 17.68997
72.115 16.974642
72.120 16.95775
72.125 17.237665
72.130 17.699728
72.135 18.38431
72.140 18.959892
72.145 19.114864
72.150 19.015799
72.155 18.388386
72.160 17.969433
72.165 17.363226
72.170 16.669168
72.175 16.08357
72.180 15.677896
72.185 15.817233
72.190 15.464393
72.195 15.237147
72.200 15.175362
72.205 15.047796
72.210 15.612986
72.215 15.754884
72.220 16.278229
72.225 17.32329
72.230 18.006872
72.235 18.253889
72.240 18.671419
72.245 18.888208
72.250 19.605745
72.255 19.914814
72.260 19.230694
72.265 19.253067
72.270 19.476126
72.275 19.238985
72.280 19.09697
72.285 18.407646
72.290 18.47603
72.295 18.673948
72.300 18.193586
72.305 18.298271
72.310 18.014057
72.315 18.422411
72.320 18.566957
72.325 18.052967
72.330 18.666676
72.335 19.099691
72.340 19.01688
72.345 19.032433
72.350 18.975143
72.355 18.832817
72.360 18.665173
72.365 17.984137
72.370 17.830425
72.375 18.232155
72.380 18.372467
72.385 17.68343
72.390 17.386084
72.395 18.215662
72.400 18.137596
72.405 18.129251
72.410 17.718243
72.415 17.564205
72.420 18.051628
72.425 17.872704
72.430 17.615686
72.435 17.688267
72.440 18.339088
72.445 17.911484
72.450 18.496809
72.455 18.891079
72.460 18.871367
72.465 18.784012
72.470 18.57925
72.475 18.190895
72.480 18.177111
72.485 17.909859
72.490 18.095434
72.495 18.67021
72.500 18.940077
72.505 18.660572
72.510 18.752523
72.515 18.653921
72.520 18.522615
72.525 17.915497
72.530 16.867397
72.535 16.918909
72.540 17.151644
72.545 17.03211
72.550 17.068567
72.555 16.958031
72.560 17.634098
72.565 18.094416
72.570 17.815781
72.575 17.670723
72.580 18.120241
72.585 18.807098
72.590 19.056025
72.595 18.897392
72.600 19.190285
72.605 19.403959
72.610 19.470663
72.615 19.190233
72.620 19.168148
72.625 19.226677
72.630 19.455662
72.635 18.816345
72.640 18.612089
72.645 18.630308
72.650 18.740053
72.655 17.81398
72.660 17.885748
72.665 17.507755
72.670 17.656937
72.675 17.836939
72.680 17.38409
72.685 16.853546
72.690 16.943651
72.695 17.20499
72.700 17.783428
72.705 18.065758
72.710 17.815231
72.715 17.410786
72.720 17.60498
72.725 17.732035
72.730 17.055607
72.735 17.41762
72.740 17.496267
72.745 17.716974
72.750 17.865124
72.755 17.125868
72.760 17.074646
72.765 16.84581
72.770 15.982676
72.775 16.188004
72.780 16.808418
72.785 17.098827
72.790 17.909952
72.795 18.149153
72.800 18.343019
72.805 18.349031
72.810 18.188568
72.815 18.185946
72.820 17.849775
72.825 18.184532
72.830 18.502604
72.835 18.789635
72.840 18.698517
72.845 18.131609
72.850 17.869616
72.855 17.735186
72.860 16.827719
72.865 16.331465
72.870 16.086233
72.875 16.604506
72.880 16.513199
72.885 16.444885
72.890 16.479534
72.895 17.106352
72.900 17.08765
72.905 17.27718
72.910 17.326284
72.915 18.017326
72.920 18.397213
72.925 18.402843
72.930 17.719063
72.935 17.287113
72.940 16.944197
72.945 16.33976
72.950 16.108658
72.955 15.939362
72.960 15.838406
72.965 15.678323
72.970 16.029268
72.975 16.494036
72.980 16.753012
72.985 16.666834
72.990 16.773487
72.995 16.713945
73.000 17.21405
