!@!!GADDS PLOTSO FILE: Chi integration type
!@!!Title/SampleName: map-143
!@!!Comment: ?
!@!!User: Bruker Instrument Administrator
!@!!Site: University of Illinois Chicago
!@!!Frame: map-143_01_000.gfrm
!@!!Wavelengths    1.54184   1.54056   1.54439
!@!!Frame angles: 2Theta: 63.000 Omega: 50.000 Phi: 0.000 Chi: 90.000
!@!!Integration range: 2Theta: 53.000 to 73.000  Gamma: -105.000 to -75.000
!@!!Integration method: bin normalized
!@!N
!@!SS
!@!M
!@!L 0.0 0.0 0.0 0.0
!@!XDegrees
!@!YCounts
53.000 9.3999
53.005 9.292184
53.010 9.351117
53.015 9.752988
53.020 9.439654
53.025 9.275669
53.030 8.773786
53.035 8.445715
53.040 8.459854
53.045 8.474731
53.050 8.346976
53.055 8.208725
53.060 7.978816
53.065 7.975232
53.070 8.225877
53.075 8.668391
53.080 8.463282
53.085 7.870797
53.090 7.605958
53.095 8.132505
53.100 8.43679
53.105 8.23951
53.110 7.869009
53.115 8.138726
53.120 9.158579
53.125 9.345754
53.130 8.899907
53.135 8.842032
53.140 8.679442
53.145 8.586447
53.150 8.148519
53.155 7.745632
53.160 7.640087
53.165 7.879057
53.170 8.303188
53.175 8.558357
53.180 8.607198
53.185 8.700779
53.190 8.969278
53.195 8.94531
53.200 8.652373
53.205 8.382514
53.210 8.636474
53.215 8.919816
53.220 9.557847
53.225 9.931357
53.230 10.483823
53.235 11.065322
53.240 11.319017
53.245 11.357434
53.250 10.949032
53.255 10.883159
53.260 10.622294
53.265 10.221827
53.270 9.852556
53.275 9.73106
53.280 10.150431
53.285 10.031423
53.290 9.507215
53.295 9.141578
53.300 8.954389
53.305 8.778932
53.310 8.497278
53.315 8.371811
53.320 8.451273
53.325 8.972623
53.330 9.375245
53.335 9.190564
53.340 9.140471
53.345 9.062303
53.350 8.823148
53.355 8.510942
53.360 8.061609
53.365 7.833754
53.370 8.175529
53.375 8.17054
53.380 8.260723
53.385 8.546222
53.390 9.023755
53.395 9.165449
53.400 8.906248
53.405 8.800549
53.410 8.872474
53.415 8.662752
53.420 8.451984
53.425 8.130222
53.430 8.513778
53.435 9.25758
53.440 9.404009
53.445 9.62461
53.450 9.934939
53.455 9.603744
53.460 9.5128
53.465 9.120542
53.470 9.252095
53.475 9.334182
53.480 9.423017
53.485 9.887028
53.490 10.744188
53.495 11.21549
53.500 11.211425
53.505 10.827787
53.510 11.038951
53.515 10.788193
53.520 10.503805
53.525 10.0744
53.530 9.49835
53.535 9.392951
53.540 9.153667
53.545 8.89721
53.550 8.986966
53.555 9.005924
53.560 8.95471
53.565 9.254007
53.570 9.65414
53.575 9.798737
53.580 9.860559
53.585 9.689678
53.590 9.494148
53.595 9.718459
53.600 10.089025
53.605 10.102922
53.610 9.816089
53.615 9.681397
53.620 9.901892
53.625 9.903576
53.630 9.7411
53.635 9.329341
53.640 9.203567
53.645 9.384142
53.650 9.157978
53.655 9.301437
53.660 9.488417
53.665 9.070129
53.670 9.313194
53.675 9.360524
53.680 9.529907
53.685 9.732241
53.690 9.675797
53.695 10.056578
53.700 10.10513
53.705 9.509262
53.710 9.346622
53.715 9.441669
53.720 9.734257
53.725 9.818516
53.730 9.873504
53.735 9.959514
53.740 10.630507
53.745 10.829535
53.750 10.958399
53.755 10.859603
53.760 10.291335
53.765 10.060425
53.770 10.003922
53.775 9.46857
53.780 9.334157
53.785 9.285799
53.790 9.392814
53.795 9.618014
53.800 9.818934
53.805 10.295237
53.810 10.360411
53.815 10.065696
53.820 9.755915
53.825 9.361795
53.830 9.350794
53.835 9.512954
53.840 9.415086
53.845 9.690743
53.850 10.156988
53.855 10.461009
53.860 10.972811
53.865 10.97055
53.870 10.596148
53.875 10.256252
53.880 9.84462
53.885 9.385494
53.890 9.393934
53.895 8.965835
53.900 8.518356
53.905 8.430129
53.910 8.437548
53.915 8.626011
53.920 8.693098
53.925 8.828629
53.930 9.695294
53.935 10.142382
53.940 10.556783
53.945 10.779779
53.950 10.714118
53.955 10.558141
53.960 9.68921
53.965 9.18408
53.970 9.180777
53.975 9.169007
53.980 9.633836
53.985 9.855935
53.990 9.984318
53.995 10.610518
54.000 11.018484
54.005 10.853081
54.010 10.544326
54.015 10.065735
54.020 10.22531
54.025 10.346006
54.030 10.395102
54.035 10.500666
54.040 10.714407
54.045 10.509277
54.050 10.48032
54.055 10.400688
54.060 10.29757
54.065 10.330432
54.070 9.962187
54.075 9.804937
54.080 9.759984
54.085 10.107524
54.090 10.573595
54.095 10.28121
54.100 9.723035
54.105 9.932535
54.110 10.739832
54.115 10.803414
54.120 10.386303
54.125 10.308044
54.130 10.852733
54.135 11.465939
54.140 11.140436
54.145 10.681754
54.150 11.08461
54.155 11.158247
54.160 10.764157
54.165 10.486856
54.170 10.650528
54.175 11.151411
54.180 11.666429
54.185 11.18681
54.190 11.267288
54.195 11.123855
54.200 10.568962
54.205 10.372312
54.210 10.192626
54.215 10.017713
54.220 10.215082
54.225 10.194184
54.230 10.401735
54.235 10.405015
54.240 9.914912
54.245 9.623788
54.250 9.581342
54.255 9.633595
54.260 9.775774
54.265 9.83354
54.270 10.366433
54.275 10.559093
54.280 10.508492
54.285 10.226291
54.290 10.143321
54.295 10.004613
54.300 10.329521
54.305 10.454111
54.310 10.100399
54.315 10.210461
54.320 10.283511
54.325 10.298597
54.330 10.172544
54.335 10.279054
54.340 10.403877
54.345 10.928135
54.350 10.688284
54.355 10.449677
54.360 10.14396
54.365 10.064639
54.370 9.639764
54.375 9.219934
54.380 9.468472
54.385 10.290698
54.390 11.04699
54.395 11.206909
54.400 11.082851
54.405 11.04408
54.410 11.714382
54.415 11.341276
54.420 10.68604
54.425 10.498902
54.430 10.611338
54.435 11.249335
54.440 11.141883
54.445 10.911745
54.450 11.1925
54.455 11.159482
54.460 11.484104
54.465 11.684257
54.470 11.339097
54.475 11.894889
54.480 12.359957
54.485 12.583847
54.490 12.749604
54.495 12.268799
54.500 11.985549
54.505 11.862486
54.510 11.297143
54.515 10.84798
54.520 10.428929
54.525 10.221789
54.530 10.405597
54.535 10.214478
54.540 9.626898
54.545 9.16806
54.550 9.07044
54.555 9.104539
54.560 9.046695
54.565 8.822374
54.570 9.440863
54.575 9.868561
54.580 9.571277
54.585 9.501584
54.590 9.855136
54.595 9.707352
54.600 9.401951
54.605 9.489655
54.610 10.245238
54.615 10.787631
54.620 10.801398
54.625 10.891716
54.630 11.176409
54.635 11.162666
54.640 10.682333
54.645 10.018682
54.650 9.812177
54.655 10.174526
54.660 10.635802
54.665 11.119342
54.670 11.709027
54.675 12.050782
54.680 12.94266
54.685 13.126996
54.690 12.389626
54.695 11.809502
54.700 11.323213
54.705 10.652504
54.710 10.527733
54.715 10.231111
54.720 9.898584
54.725 9.923791
54.730 9.861568
54.735 10.17494
54.740 10.659797
54.745 10.675493
54.750 11.047354
54.755 11.736834
54.760 12.126507
54.765 12.361711
54.770 12.470634
54.775 12.083691
54.780 11.768419
54.785 11.398245
54.790 11.551234
54.795 11.016289
54.800 10.882182
54.805 10.583513
54.810 10.381459
54.815 10.598083
54.820 10.479591
54.825 10.378832
54.830 10.533182
54.835 10.800744
54.840 11.025257
54.845 11.295754
54.850 10.995998
54.855 11.195971
54.860 11.121974
54.865 11.13461
54.870 11.059645
54.875 10.882044
54.880 11.051821
54.885 11.262668
54.890 11.294139
54.895 11.233589
54.900 11.403029
54.905 11.758514
54.910 11.982242
54.915 12.122278
54.920 11.763441
54.925 11.617984
54.930 11.699746
54.935 11.776645
54.940 11.456272
54.945 11.218508
54.950 10.848975
54.955 10.900377
54.960 11.240804
54.965 11.082613
54.970 10.728367
54.975 10.943954
54.980 11.051928
54.985 12.026887
54.990 12.296011
54.995 11.793105
55.000 11.978025
55.005 12.162763
55.010 12.046852
55.015 12.041974
55.020 11.351635
55.025 11.26018
55.030 11.351398
55.035 11.363086
55.040 11.511315
55.045 12.212107
55.050 12.639125
55.055 13.022565
55.060 13.229647
55.065 13.160758
55.070 13.048869
55.075 13.212234
55.080 12.89786
55.085 12.278938
55.090 12.000387
55.095 12.055113
55.100 12.177714
55.105 12.473132
55.110 11.969258
55.115 12.033961
55.120 11.816545
55.125 11.716554
55.130 11.971826
55.135 11.680251
55.140 11.469501
55.145 11.258068
55.150 11.228733
55.155 11.711896
55.160 11.458125
55.165 11.416322
55.170 11.597679
55.175 11.597838
55.180 11.509198
55.185 11.437098
55.190 11.488415
55.195 11.389375
55.200 11.790518
55.205 11.826089
55.210 11.387742
55.215 11.503335
55.220 11.198729
55.225 11.104074
55.230 11.287353
55.235 11.085975
55.240 11.184051
55.245 11.469862
55.250 11.590605
55.255 11.908515
55.260 11.630666
55.265 11.256901
55.270 11.457425
55.275 11.642542
55.280 11.353148
55.285 10.904106
55.290 11.111034
55.295 11.558281
55.300 12.010221
55.305 11.296881
55.310 11.014362
55.315 11.757713
55.320 12.111838
55.325 11.782331
55.330 11.131545
55.335 10.864509
55.340 11.277157
55.345 11.205948
55.350 10.877627
55.355 10.800409
55.360 11.484901
55.365 11.670246
55.370 11.900456
55.375 11.549911
55.380 11.578018
55.385 11.607388
55.390 11.687253
55.395 11.511857
55.400 11.484002
55.405 11.809316
55.410 11.81953
55.415 11.853925
55.420 11.499969
55.425 11.379759
55.430 12.004066
55.435 12.007318
55.440 11.652127
55.445 11.973895
55.450 12.517852
55.455 12.772083
55.460 12.067583
55.465 11.625429
55.470 12.220428
55.475 12.674766
55.480 12.24019
55.485 11.863179
55.490 12.11168
55.495 12.069387
55.500 11.504571
55.505 10.730849
55.510 10.802228
55.515 10.739076
55.520 10.394913
55.525 10.070854
55.530 10.609393
55.535 10.983189
55.540 11.104104
55.545 11.074818
55.550 11.793251
55.555 12.258353
55.560 12.700987
55.565 12.982983
55.570 13.059999
55.575 13.227199
55.580 13.142267
55.585 13.125781
55.590 12.870461
55.595 12.42502
55.600 12.335761
55.605 12.622997
55.610 12.355246
55.615 12.365805
55.620 12.149388
55.625 12.486113
55.630 12.777769
55.635 12.565824
55.640 12.466088
55.645 13.005813
55.650 13.096539
55.655 13.184385
55.660 12.836143
55.665 12.558543
55.670 12.047565
55.675 11.474877
55.680 10.752115
55.685 10.474465
55.690 10.345868
55.695 10.023445
55.700 9.759399
55.705 10.16066
55.710 10.538243
55.715 10.777783
55.720 10.928174
55.725 10.780384
55.730 11.498591
55.735 11.791376
55.740 11.817566
55.745 11.944616
55.750 12.434413
55.755 12.128014
55.760 12.040353
55.765 12.139661
55.770 11.928962
55.775 11.694647
55.780 11.320623
55.785 10.953991
55.790 11.636347
55.795 11.865479
55.800 11.702108
55.805 11.833779
55.810 11.853474
55.815 11.754856
55.820 11.675632
55.825 11.384778
55.830 11.383468
55.835 11.649797
55.840 12.170688
55.845 12.674781
55.850 12.849877
55.855 12.724066
55.860 12.714271
55.865 12.627903
55.870 12.908222
55.875 13.471504
55.880 13.38913
55.885 13.721983
55.890 13.705033
55.895 13.626113
55.900 13.484529
55.905 12.587265
55.910 11.690638
55.915 11.388179
55.920 11.130817
55.925 11.361894
55.930 11.619119
55.935 12.262815
55.940 12.771726
55.945 13.19012
55.950 13.316589
55.955 13.53766
55.960 13.116482
55.965 12.613962
55.970 12.102332
55.975 12.065036
55.980 12.237135
55.985 12.004934
55.990 11.434253
55.995 11.579252
56.000 11.591113
56.005 11.685283
56.010 10.884373
56.015 10.812865
56.020 11.429016
56.025 12.175197
56.030 12.435256
56.035 12.352763
56.040 12.340495
56.045 12.627777
56.050 13.069415
56.055 13.193223
56.060 12.897744
56.065 12.958523
56.070 12.385832
56.075 12.556699
56.080 12.434587
56.085 11.617652
56.090 11.526913
56.095 11.652724
56.100 11.65354
56.105 12.26982
56.110 11.919643
56.115 12.153484
56.120 12.544239
56.125 11.936253
56.130 11.914318
56.135 12.071042
56.140 11.854883
56.145 11.954921
56.150 11.677773
56.155 11.418731
56.160 11.532286
56.165 11.422394
56.170 11.640737
56.175 11.850972
56.180 12.290037
56.185 12.389573
56.190 12.826398
56.195 13.213383
56.200 13.663504
56.205 13.618145
56.210 13.989672
56.215 13.958323
56.220 13.893381
56.225 13.211217
56.230 13.210297
56.235 13.189306
56.240 12.927916
56.245 12.64792
56.250 12.765924
56.255 13.140804
56.260 13.268772
56.265 12.821853
56.270 12.334973
56.275 12.404925
56.280 12.38347
56.285 12.717694
56.290 12.579609
56.295 12.571649
56.300 12.984248
56.305 13.415152
56.310 13.590711
56.315 13.574917
56.320 13.146689
56.325 13.078096
56.330 13.027013
56.335 12.81036
56.340 12.5302
56.345 12.578036
56.350 12.038779
56.355 12.068181
56.360 12.570058
56.365 12.891774
56.370 12.643639
56.375 12.979843
56.380 13.311467
56.385 13.88664
56.390 13.767991
56.395 13.319116
56.400 13.654993
56.405 13.980815
56.410 13.402164
56.415 12.959234
56.420 12.869494
56.425 12.749482
56.430 12.723389
56.435 12.108407
56.440 12.008659
56.445 12.482219
56.450 12.33736
56.455 12.025105
56.460 12.489818
56.465 12.879972
56.470 13.406407
56.475 13.241055
56.480 12.749248
56.485 12.634908
56.490 12.668303
56.495 12.559368
56.500 12.424223
56.505 12.646523
56.510 12.705883
56.515 12.421816
56.520 12.507448
56.525 12.788005
56.530 13.116778
56.535 13.108513
56.540 12.40108
56.545 12.455684
56.550 12.995965
56.555 13.429498
56.560 13.719686
56.565 13.139848
56.570 12.96989
56.575 12.927067
56.580 12.658633
56.585 12.502317
56.590 12.035375
56.595 12.281438
56.600 12.97572
56.605 13.51073
56.610 13.802289
56.615 13.856481
56.620 13.994632
56.625 14.231206
56.630 13.479029
56.635 13.086743
56.640 12.382133
56.645 12.629875
56.650 13.036717
56.655 13.21548
56.660 13.128649
56.665 13.539296
56.670 14.053511
56.675 14.446218
56.680 14.560539
56.685 14.287627
56.690 14.586042
56.695 14.613304
56.700 14.481469
56.705 14.626153
56.710 14.714165
56.715 14.593289
56.720 14.80827
56.725 14.732589
56.730 14.708722
56.735 14.55608
56.740 14.382455
56.745 14.27815
56.750 14.645907
56.755 14.851224
56.760 14.596096
56.765 14.890904
56.770 14.592342
56.775 14.61224
56.780 14.261755
56.785 14.368487
56.790 13.930728
56.795 13.928457
56.800 13.707504
56.805 13.589716
56.810 14.106396
56.815 14.75081
56.820 14.587768
56.825 14.962519
56.830 14.817681
56.835 14.671189
56.840 14.588611
56.845 14.13328
56.850 13.92812
56.855 13.352758
56.860 12.969607
56.865 13.499772
56.870 14.010153
56.875 14.531649
56.880 14.328523
56.885 14.395408
56.890 15.025718
56.895 15.335095
56.900 14.948974
56.905 14.977595
56.910 14.318877
56.915 14.530301
56.920 14.459563
56.925 14.152283
56.930 14.336809
56.935 14.46953
56.940 14.065916
56.945 14.207882
56.950 13.879638
56.955 14.220148
56.960 14.580281
56.965 14.360442
56.970 14.203915
56.975 14.076308
56.980 14.184346
56.985 14.240322
56.990 14.139317
56.995 13.715689
57.000 13.678402
57.005 14.227627
57.010 14.664066
57.015 15.145522
57.020 15.148344
57.025 15.172994
57.030 15.494917
57.035 15.534019
57.040 15.167783
57.045 14.763005
57.050 14.441469
57.055 14.209326
57.060 14.034297
57.065 13.936645
57.070 14.242552
57.075 14.870247
57.080 14.923091
57.085 14.867616
57.090 15.107499
57.095 15.009056
57.100 14.919062
57.105 14.457529
57.110 14.14238
57.115 14.508878
57.120 14.476613
57.125 14.91754
57.130 14.955124
57.135 14.774075
57.140 14.66905
57.145 14.699196
57.150 14.575259
57.155 14.890163
57.160 14.874942
57.165 15.142489
57.170 15.359286
57.175 15.21931
57.180 15.40363
57.185 14.873757
57.190 14.214784
57.195 14.405578
57.200 14.260623
57.205 14.576669
57.210 14.485826
57.215 14.055966
57.220 14.570575
57.225 14.361531
57.230 14.039792
57.235 14.219466
57.240 14.341421
57.245 14.250741
57.250 14.477077
57.255 14.783257
57.260 15.056898
57.265 15.016676
57.270 14.826434
57.275 14.641624
57.280 14.447556
57.285 14.117008
57.290 14.152321
57.295 14.528042
57.300 14.574575
57.305 14.714453
57.310 14.826476
57.315 15.253065
57.320 15.29804
57.325 15.11313
57.330 14.47362
57.335 14.054447
57.340 13.959604
57.345 13.586426
57.350 13.192509
57.355 13.250351
57.360 13.666424
57.365 14.183773
57.370 14.413916
57.375 14.164729
57.380 14.731409
57.385 15.570451
57.390 15.369911
57.395 14.854218
57.400 14.944521
57.405 14.995213
57.410 14.715756
57.415 13.858207
57.420 13.405988
57.425 13.418337
57.430 14.034367
57.435 13.801921
57.440 13.809464
57.445 14.370584
57.450 14.890194
57.455 14.366581
57.460 13.859237
57.465 13.349173
57.470 13.348586
57.475 13.036539
57.480 13.100128
57.485 13.415263
57.490 14.167679
57.495 14.16692
57.500 14.305848
57.505 13.959636
57.510 14.129212
57.515 14.419813
57.520 14.131782
57.525 14.323359
57.530 14.582417
57.535 14.193095
57.540 14.53602
57.545 14.516527
57.550 14.092825
57.555 13.882373
57.560 13.887963
57.565 13.812987
57.570 13.998728
57.575 14.206443
57.580 14.116004
57.585 14.042839
57.590 14.180387
57.595 14.152043
57.600 14.31574
57.605 14.498847
57.610 14.801201
57.615 14.90993
57.620 14.75111
57.625 14.757146
57.630 14.237439
57.635 13.744821
57.640 13.866098
57.645 13.6613
57.650 13.846543
57.655 14.379793
57.660 14.350538
57.665 14.665044
57.670 14.493674
57.675 14.026809
57.680 14.222385
57.685 14.423494
57.690 14.561095
57.695 15.195044
57.700 15.982421
57.705 16.277792
57.710 16.186907
57.715 15.795187
57.720 15.833964
57.725 15.311625
57.730 14.410901
57.735 13.869905
57.740 14.024867
57.745 14.136554
57.750 14.798855
57.755 14.879972
57.760 14.934198
57.765 15.754578
57.770 15.80135
57.775 15.610373
57.780 15.339833
57.785 14.601241
57.790 14.680045
57.795 14.813127
57.800 13.942129
57.805 14.112456
57.810 14.682211
57.815 14.663911
57.820 14.654839
57.825 14.759938
57.830 14.733212
57.835 15.150591
57.840 15.512463
57.845 15.185543
57.850 15.426612
57.855 15.37828
57.860 14.91121
57.865 15.159677
57.870 15.118179
57.875 14.729255
57.880 15.08517
57.885 15.763049
57.890 16.115583
57.895 15.749435
57.900 15.841785
57.905 15.774578
57.910 15.704149
57.915 15.467389
57.920 15.206433
57.925 15.20083
57.930 15.089685
57.935 14.881069
57.940 14.795274
57.945 14.76382
57.950 14.977453
57.955 14.673676
57.960 14.621202
57.965 14.995035
57.970 14.960588
57.975 15.065042
57.980 15.0945
57.985 15.13443
57.990 15.094088
57.995 14.988362
58.000 14.948721
58.005 14.989857
58.010 15.063771
58.015 15.32366
58.020 15.253754
58.025 15.438843
58.030 15.507349
58.035 15.365349
58.040 14.779196
58.045 14.304454
58.050 13.815174
58.055 13.724916
58.060 14.277216
58.065 14.490055
58.070 14.655952
58.075 14.613227
58.080 15.098482
58.085 15.085609
58.090 15.388659
58.095 14.771104
58.100 14.550444
58.105 14.706266
58.110 15.24575
58.115 14.823452
58.120 15.381129
58.125 15.028386
58.130 15.157822
58.135 15.290929
58.140 15.219978
58.145 15.012084
58.150 15.238734
58.155 14.743303
58.160 14.882333
58.165 14.96677
58.170 15.530002
58.175 15.541016
58.180 15.643811
58.185 15.672372
58.190 15.83077
58.195 15.622914
58.200 15.348557
58.205 14.848428
58.210 14.98088
58.215 15.035635
58.220 14.627686
58.225 14.687952
58.230 14.674003
58.235 14.402424
58.240 14.591255
58.245 14.228585
58.250 14.072694
58.255 14.461139
58.260 14.629217
58.265 14.897645
58.270 15.286345
58.275 14.952715
58.280 15.713765
58.285 16.124855
58.290 16.134359
58.295 15.860574
58.300 16.00103
58.305 15.987652
58.310 15.81645
58.315 15.536752
58.320 15.329784
58.325 15.150765
58.330 14.875141
58.335 14.841389
58.340 14.733324
58.345 14.83786
58.350 15.367718
58.355 15.586887
58.360 15.945869
58.365 16.088161
58.370 16.310038
58.375 16.498428
58.380 16.270163
58.385 15.327725
58.390 14.773871
58.395 14.161208
58.400 14.554324
58.405 14.669738
58.410 14.599843
58.415 15.114116
58.420 15.509474
58.425 16.261768
58.430 16.569416
58.435 16.176708
58.440 16.081806
58.445 16.104671
58.450 16.394428
58.455 16.870409
58.460 16.37355
58.465 16.251825
58.470 16.174917
58.475 15.882152
58.480 15.533194
58.485 15.279377
58.490 15.261125
58.495 15.605834
58.500 15.635643
58.505 15.487357
58.510 15.61733
58.515 16.217127
58.520 15.986794
58.525 15.897127
58.530 15.482631
58.535 15.293573
58.540 15.608144
58.545 15.783861
58.550 15.832179
58.555 15.995354
58.560 15.980413
58.565 16.08629
58.570 15.919486
58.575 15.781028
58.580 16.019245
58.585 15.812723
58.590 15.372053
58.595 14.735052
58.600 14.842065
58.605 15.181888
58.610 14.57952
58.615 14.041444
58.620 14.192724
58.625 14.715486
58.630 15.710123
58.635 16.352175
58.640 16.147728
58.645 16.705109
58.650 16.910105
58.655 16.829025
58.660 16.470381
58.665 15.789897
58.670 15.631135
58.675 15.960958
58.680 16.001778
58.685 15.995963
58.690 16.077196
58.695 15.973645
58.700 16.05822
58.705 16.085899
58.710 15.807304
58.715 15.585713
58.720 16.242428
58.725 16.451574
58.730 16.399811
58.735 16.082869
58.740 16.06143
58.745 16.534727
58.750 16.526037
58.755 15.950023
58.760 16.286947
58.765 16.608974
58.770 16.900469
58.775 16.927813
58.780 17.00219
58.785 16.906786
58.790 16.601076
58.795 16.304102
58.800 16.15786
58.805 16.28838
58.810 16.331852
58.815 16.847111
58.820 16.982599
58.825 17.224209
58.830 17.18458
58.835 17.049776
58.840 16.797628
58.845 16.716625
58.850 16.022243
58.855 15.927901
58.860 15.738892
58.865 15.917126
58.870 15.922755
58.875 16.319408
58.880 16.963625
58.885 17.189663
58.890 17.001945
58.895 17.165392
58.900 16.959351
58.905 17.357897
58.910 17.108047
58.915 16.382145
58.920 16.267336
58.925 16.081646
58.930 15.726694
58.935 15.694243
58.940 15.482097
58.945 15.802201
58.950 16.14887
58.955 16.650473
58.960 16.593861
58.965 16.606634
58.970 16.520874
58.975 16.42082
58.980 15.981023
58.985 15.886414
58.990 16.053293
58.995 16.769611
59.000 16.790026
59.005 16.708788
59.010 16.777304
59.015 16.725143
59.020 16.13187
59.025 15.615713
59.030 15.276697
59.035 15.578628
59.040 16.289894
59.045 16.701473
59.050 16.495171
59.055 16.687832
59.060 16.679304
59.065 17.112543
59.070 17.2686
59.075 17.017939
59.080 17.208754
59.085 17.915808
59.090 18.295895
59.095 18.68948
59.100 18.159599
59.105 17.979649
59.110 17.443518
59.115 17.051096
59.120 16.51815
59.125 16.507757
59.130 16.732601
59.135 17.048845
59.140 16.802336
59.145 16.783724
59.150 16.288465
59.155 16.160618
59.160 16.200151
59.165 15.870614
59.170 15.976313
59.175 16.519016
59.180 16.943708
59.185 16.922203
59.190 16.589947
59.195 16.40617
59.200 15.978144
59.205 15.895949
59.210 15.653118
59.215 15.436696
59.220 16.314026
59.225 16.97542
59.230 17.376455
59.235 17.695232
59.240 17.454994
59.245 18.157215
59.250 18.882069
59.255 18.652613
59.260 18.169939
59.265 17.480049
59.270 17.246191
59.275 17.726679
59.280 17.794163
59.285 17.928461
59.290 18.183739
59.295 18.504002
59.300 18.602488
59.305 18.691265
59.310 18.141556
59.315 17.398575
59.320 16.556791
59.325 16.447447
59.330 16.602701
59.335 17.362707
59.340 17.823614
59.345 18.090639
59.350 18.057892
59.355 17.763041
59.360 17.778915
59.365 17.754293
59.370 17.678988
59.375 17.219889
59.380 16.982555
59.385 17.646427
59.390 19.085417
59.395 19.263472
59.400 19.48525
59.405 19.697214
59.410 20.075104
59.415 20.834312
59.420 21.243181
59.425 20.286228
59.430 20.388197
59.435 20.197447
59.440 20.013123
59.445 19.643837
59.450 19.054756
59.455 18.539751
59.460 18.57852
59.465 18.369049
59.470 17.726561
59.475 17.62882
59.480 17.870077
59.485 18.117998
59.490 18.227007
59.495 19.023188
59.500 19.066589
59.505 18.872656
59.510 18.34199
59.515 18.465775
59.520 18.258667
59.525 18.22464
59.530 17.452345
59.535 17.889153
59.540 19.004105
59.545 19.657305
59.550 19.245852
59.555 19.067209
59.560 18.829887
59.565 19.180723
59.570 18.759117
59.575 18.530701
59.580 18.217039
59.585 18.530384
59.590 18.849785
59.595 18.894115
59.600 18.523151
59.605 18.229666
59.610 18.502851
59.615 18.632343
59.620 18.719261
59.625 18.886482
59.630 18.938066
59.635 19.87129
59.640 20.390348
59.645 19.951971
59.650 19.810904
59.655 19.516434
59.660 19.261164
59.665 19.272518
59.670 19.27593
59.675 18.697842
59.680 18.826645
59.685 18.913803
59.690 18.894491
59.695 18.809685
59.700 18.750868
59.705 18.377401
59.710 18.409546
59.715 18.414406
59.720 18.557184
59.725 19.050444
59.730 19.111654
59.735 20.042561
59.740 19.886583
59.745 20.479837
59.750 21.38542
59.755 21.995798
59.760 21.963575
59.765 22.228601
59.770 21.388474
59.775 21.979221
59.780 22.216251
59.785 21.665741
59.790 21.696966
59.795 21.66552
59.800 21.627449
59.805 22.132563
59.810 22.308544
59.815 22.803894
59.820 22.688328
59.825 22.289484
59.830 22.146021
59.835 21.910423
59.840 21.451542
59.845 21.217983
59.850 20.400928
59.855 20.181133
59.860 20.289532
59.865 20.644707
59.870 21.230042
59.875 21.592571
59.880 21.889004
59.885 22.306345
59.890 22.249969
59.895 22.737085
59.900 22.432203
59.905 22.479361
59.910 22.947502
59.915 22.466404
59.920 22.400873
59.925 22.746403
59.930 22.153742
59.935 22.268282
59.940 22.181805
59.945 22.229744
59.950 22.563345
59.955 23.058687
59.960 22.957275
59.965 23.150686
59.970 22.728134
59.975 22.908464
59.980 23.141459
59.985 22.81576
59.990 22.400286
59.995 22.702635
60.000 22.690418
60.005 22.436487
60.010 22.03101
60.015 21.774874
60.020 21.725763
60.025 21.572973
60.030 21.494511
60.035 21.78578
60.040 22.947498
60.045 22.926151
60.050 22.776369
60.055 22.561293
60.060 22.80604
60.065 22.438957
60.070 21.981426
60.075 21.635559
60.080 21.58658
60.085 22.509846
60.090 23.181017
60.095 23.686268
60.100 24.361834
60.105 24.742186
60.110 24.707714
60.115 24.451742
60.120 24.092241
60.125 23.795286
60.130 23.091688
60.135 23.598959
60.140 23.855331
60.145 23.820356
60.150 23.955128
60.155 23.787041
60.160 23.802362
60.165 23.684935
60.170 22.815811
60.175 22.641273
60.180 22.746504
60.185 23.103622
60.190 23.808811
60.195 24.114639
60.200 23.89464
60.205 24.169359
60.210 23.825453
60.215 23.499104
60.220 22.952538
60.225 22.363543
60.230 22.142756
60.235 21.937969
60.240 20.877781
60.245 20.600904
60.250 20.368698
60.255 20.680017
60.260 20.836548
60.265 21.008003
60.270 21.508461
60.275 21.896297
60.280 22.037218
60.285 22.170801
60.290 21.440062
60.295 20.456432
60.300 19.966911
60.305 20.446457
60.310 20.353279
60.315 20.850323
60.320 21.068417
60.325 21.367201
60.330 21.910997
60.335 22.484732
60.340 21.990944
60.345 22.594198
60.350 22.139009
60.355 22.296158
60.360 21.991282
60.365 21.612619
60.370 21.161568
60.375 20.854874
60.380 20.395983
60.385 20.30372
60.390 19.993467
60.395 20.543776
60.400 20.780249
60.405 20.813274
60.410 20.974419
60.415 20.642103
60.420 20.789406
60.425 20.697798
60.430 20.052368
60.435 19.754473
60.440 19.545347
60.445 19.153587
60.450 18.896505
60.455 18.773487
60.460 18.67239
60.465 19.107714
60.470 19.699072
60.475 19.955399
60.480 19.995293
60.485 20.49523
60.490 20.549524
60.495 20.598194
60.500 20.592485
60.505 20.099989
60.510 20.039272
60.515 19.41473
60.520 18.563116
60.525 18.331852
60.530 18.084097
60.535 17.385067
60.540 16.682325
60.545 16.944075
60.550 18.057106
60.555 18.227243
60.560 18.125017
60.565 18.301725
60.570 18.627335
60.575 18.820723
60.580 18.518187
60.585 18.715677
60.590 18.869928
60.595 19.048857
60.600 19.189386
60.605 19.937826
60.610 20.29739
60.615 20.032747
60.620 19.782875
60.625 20.232962
60.630 19.709332
60.635 19.399261
60.640 18.578899
60.645 18.958567
60.650 19.110966
60.655 19.292278
60.660 19.211683
60.665 19.394016
60.670 19.197495
60.675 19.138474
60.680 18.837557
60.685 19.029537
60.690 18.520287
60.695 18.449003
60.700 18.774628
60.705 18.883633
60.710 18.927687
60.715 18.885281
60.720 18.89814
60.725 19.398575
60.730 19.847891
60.735 20.313011
60.740 20.39809
60.745 20.746738
60.750 20.484598
60.755 20.370378
60.760 20.195938
60.765 19.918003
60.770 19.635717
60.775 19.694538
60.780 18.98485
60.785 18.420496
60.790 17.510452
60.795 17.175827
60.800 16.522888
60.805 16.163193
60.810 15.859923
60.815 15.997925
60.820 16.156836
60.825 16.315981
60.830 16.388422
60.835 16.768393
60.840 17.043291
60.845 17.621185
60.850 17.789167
60.855 17.945774
60.860 18.112617
60.865 17.692293
60.870 17.438812
60.875 17.335066
60.880 16.946104
60.885 16.841755
60.890 16.6024
60.895 16.589449
60.900 16.940708
60.905 16.503113
60.910 15.713719
60.915 15.911903
60.920 16.66361
60.925 17.516605
60.930 17.460398
60.935 17.289141
60.940 18.006569
60.945 18.918762
60.950 18.529018
60.955 17.882484
60.960 17.764866
60.965 18.44591
60.970 19.084425
60.975 19.053352
60.980 19.002617
60.985 19.678326
60.990 19.60508
60.995 19.160669
61.000 18.603743
61.005 17.643681
61.010 17.638866
61.015 16.921412
61.020 15.594517
61.025 16.058325
61.030 16.361708
61.035 16.738731
61.040 17.606913
61.045 17.771399
61.050 18.268457
61.055 18.4893
61.060 18.243999
61.065 18.18453
61.070 18.265429
61.075 17.924257
61.080 17.367853
61.085 16.941498
61.090 17.163076
61.095 17.208582
61.100 17.187872
61.105 17.241871
61.110 17.038544
61.115 17.592146
61.120 17.854099
61.125 18.441504
61.130 18.268585
61.135 18.277519
61.140 18.306507
61.145 18.315857
61.150 17.999949
61.155 17.873474
61.160 17.554087
61.165 17.469645
61.170 17.357151
61.175 16.975222
61.180 17.083008
61.185 17.366013
61.190 17.176256
61.195 17.360033
61.200 16.961153
61.205 16.740236
61.210 16.300871
61.215 16.152122
61.220 16.299946
61.225 16.523376
61.230 16.644804
61.235 17.536003
61.240 17.660532
61.245 18.379702
61.250 18.923588
61.255 18.98159
61.260 18.744707
61.265 18.617964
61.270 18.183661
61.275 17.593781
61.280 17.173065
61.285 16.628603
61.290 16.42804
61.295 16.971361
61.300 16.727015
61.305 16.842564
61.310 17.374146
61.315 17.507303
61.320 17.10746
61.325 17.347322
61.330 17.301453
61.335 17.554247
61.340 18.022581
61.345 18.047142
61.350 17.96797
61.355 17.802332
61.360 17.769201
61.365 17.442888
61.370 17.238121
61.375 17.044777
61.380 16.743242
61.385 17.165968
61.390 17.904505
61.395 17.884029
61.400 17.859936
61.405 17.918211
61.410 17.588322
61.415 17.569073
61.420 16.848984
61.425 16.411861
61.430 16.281025
61.435 16.478857
61.440 16.136816
61.445 16.71553
61.450 17.280317
61.455 17.75798
61.460 17.788118
61.465 18.129623
61.470 18.313616
61.475 18.223717
61.480 17.642229
61.485 17.044394
61.490 16.860723
61.495 16.318478
61.500 15.496401
61.505 15.001659
61.510 15.348433
61.515 15.345382
61.520 15.519406
61.525 15.376964
61.530 15.928589
61.535 16.469666
61.540 16.602203
61.545 16.769564
61.550 17.271221
61.555 17.826456
61.560 18.205294
61.565 18.174885
61.570 18.510571
61.575 18.883411
61.580 18.609283
61.585 18.73908
61.590 18.178257
61.595 18.443493
61.600 18.138779
61.605 17.347727
61.610 17.315586
61.615 17.097038
61.620 16.910742
61.625 16.991629
61.630 17.315168
61.635 18.421101
61.640 18.490305
61.645 18.307091
61.650 18.801699
61.655 19.054996
61.660 19.246935
61.665 18.407141
61.670 17.722176
61.675 18.212173
61.680 17.943439
61.685 17.779329
61.690 17.51165
61.695 17.338861
61.700 17.588261
61.705 17.450809
61.710 17.168873
61.715 17.028069
61.720 16.775133
61.725 16.621178
61.730 16.342268
61.735 16.476192
61.740 17.055063
61.745 16.981598
61.750 16.758795
61.755 16.750408
61.760 16.475788
61.765 16.699385
61.770 16.573118
61.775 16.145609
61.780 16.043797
61.785 15.93102
61.790 15.906729
61.795 16.146374
61.800 15.976879
61.805 15.539523
61.810 15.826128
61.815 16.19857
61.820 17.342546
61.825 17.650728
61.830 17.445562
61.835 17.068172
61.840 16.884706
61.845 16.539442
61.850 16.389627
61.855 15.400805
61.860 15.215754
61.865 15.349178
61.870 15.893092
61.875 16.686539
61.880 17.426199
61.885 17.799541
61.890 18.567846
61.895 19.015297
61.900 19.287212
61.905 19.285852
61.910 18.898987
61.915 18.496359
61.920 18.113075
61.925 18.082676
61.930 17.603054
61.935 18.16662
61.940 18.743176
61.945 18.580257
61.950 18.39761
61.955 18.779549
61.960 19.139742
61.965 19.155596
61.970 18.546751
61.975 18.537247
61.980 18.601147
61.985 19.087648
61.990 19.214846
61.995 18.26405
62.000 18.882803
62.005 18.813242
62.010 18.169704
62.015 18.114077
62.020 17.624104
62.025 17.250673
62.030 17.60317
62.035 17.053684
62.040 17.166788
62.045 17.126122
62.050 17.309544
62.055 16.858376
62.060 16.421879
62.065 16.429438
62.070 16.637966
62.075 16.969318
62.080 17.214212
62.085 17.181673
62.090 17.63299
62.095 18.503056
62.100 18.717571
62.105 18.735712
62.110 18.01993
62.115 18.015484
62.120 18.371174
62.125 19.025629
62.130 18.922915
62.135 18.769588
62.140 19.101753
62.145 19.192839
62.150 18.813625
62.155 18.561426
62.160 17.911818
62.165 17.790581
62.170 17.647703
62.175 17.933783
62.180 18.271133
62.185 18.700695
62.190 19.093296
62.195 18.855545
62.200 18.073141
62.205 17.2118
62.210 16.46611
62.215 16.153084
62.220 15.886513
62.225 15.677328
62.230 15.927507
62.235 16.277649
62.240 17.208742
62.245 17.197668
62.250 17.163725
62.255 16.482622
62.260 15.792412
62.265 15.937579
62.270 16.774942
62.275 17.031527
62.280 17.074841
62.285 17.064711
62.290 17.537241
62.295 17.847225
62.300 17.577702
62.305 16.663738
62.310 16.50676
62.315 16.827091
62.320 17.187389
62.325 17.192492
62.330 16.994974
62.335 17.53336
62.340 17.523237
62.345 17.464775
62.350 17.195292
62.355 16.891495
62.360 16.877356
62.365 17.251709
62.370 17.095652
62.375 17.225353
62.380 17.243038
62.385 16.943119
62.390 16.980623
62.395 17.164431
62.400 16.888805
62.405 16.989237
62.410 17.440464
62.415 17.885099
62.420 18.111776
62.425 18.366077
62.430 18.863533
62.435 19.376196
62.440 19.225784
62.445 19.109671
62.450 18.773859
62.455 18.667496
62.460 19.046297
62.465 19.057545
62.470 18.424896
62.475 18.558231
62.480 18.007813
62.485 17.614943
62.490 17.099333
62.495 16.933348
62.500 16.888243
62.505 16.913
62.510 16.68865
62.515 16.26001
62.520 16.642914
62.525 17.02644
62.530 16.811972
62.535 16.234926
62.540 16.543106
62.545 16.726231
62.550 17.674891
62.555 17.81456
62.560 17.349773
62.565 16.558035
62.570 16.15947
62.575 15.577415
62.580 15.438108
62.585 14.904476
62.590 14.970859
62.595 15.991323
62.600 16.598543
62.605 16.789042
62.610 16.772671
62.615 16.867615
62.620 17.259043
62.625 16.825331
62.630 16.447386
62.635 16.272699
62.640 16.397343
62.645 16.167707
62.650 15.966216
62.655 15.5715
62.660 15.48338
62.665 15.826473
62.670 16.686359
62.675 17.095663
62.680 17.190731
62.685 17.473501
62.690 18.680458
62.695 18.866047
62.700 18.829887
62.705 18.544638
62.710 17.933477
62.715 18.530178
62.720 18.693501
62.725 18.210909
62.730 18.692911
62.735 18.489119
62.740 18.468407
62.745 19.205709
62.750 18.924664
62.755 18.585707
62.760 18.472921
62.765 17.765209
62.770 17.577587
62.775 17.578651
62.780 17.124353
62.785 16.94626
62.790 17.169941
62.795 16.806414
62.800 17.583513
62.805 17.928391
62.810 18.248032
62.815 18.483685
62.820 18.512323
62.825 18.610722
62.830 18.378122
62.835 17.989336
62.840 17.548189
62.845 16.759331
62.850 17.042089
62.855 17.164154
62.860 16.877085
62.865 16.255501
62.870 15.899441
62.875 15.938981
62.880 16.600294
62.885 16.134943
62.890 16.16168
62.895 16.739449
62.900 17.765036
62.905 17.466793
62.910 17.389086
62.915 16.956297
62.920 17.408073
62.925 17.456598
62.930 16.849625
62.935 16.712725
62.940 17.089573
62.945 17.052168
62.950 17.07773
62.955 16.302097
62.960 15.630946
62.965 15.962599
62.970 16.089315
62.975 15.961029
62.980 15.933806
62.985 16.52738
62.990 16.882839
62.995 17.409916
63.000 17.270164
63.005 17.148035
63.010 16.96818
63.015 16.620592
63.020 15.918223
63.025 16.2899
63.030 16.209793
63.035 16.132349
63.040 16.353958
63.045 16.928194
63.050 17.433022
63.055 17.786625
63.060 17.993408
63.065 18.703512
63.070 19.027203
63.075 18.875326
63.080 18.824854
63.085 18.888573
63.090 18.690804
63.095 17.732306
63.100 16.931261
63.105 16.773714
63.110 17.253189
63.115 17.112476
63.120 17.144547
63.125 18.083698
63.130 18.245705
63.135 18.274712
63.140 18.126038
63.145 17.701082
63.150 18.132612
63.155 18.055819
63.160 17.577641
63.165 18.239864
63.170 18.48419
63.175 18.831615
63.180 18.907043
63.185 18.848127
63.190 18.49371
63.195 18.29648
63.200 18.198099
63.205 18.104393
63.210 17.951403
63.215 17.721144
63.220 17.212843
63.225 17.293936
63.230 17.305819
63.235 17.307508
63.240 17.613129
63.245 17.35264
63.250 17.227276
63.255 17.475395
63.260 17.404194
63.265 17.250492
63.270 17.044439
63.275 16.878187
63.280 17.051346
63.285 17.610117
63.290 17.895422
63.295 18.115414
63.300 18.150269
63.305 17.854252
63.310 17.873547
63.315 18.087032
63.320 17.457586
63.325 17.312042
63.330 17.566204
63.335 17.157312
63.340 17.541033
63.345 17.296616
63.350 17.441191
63.355 17.645731
63.360 17.553741
63.365 17.31934
63.370 17.407309
63.375 17.123791
63.380 17.165838
63.385 17.520767
63.390 17.564152
63.395 17.2358
63.400 17.431833
63.405 17.55559
63.410 17.835215
63.415 18.016773
63.420 18.218431
63.425 18.996248
63.430 19.349531
63.435 19.6677
63.440 20.451036
63.445 20.15716
63.450 19.870359
63.455 19.19533
63.460 19.156389
63.465 18.950031
63.470 18.226694
63.475 17.708715
63.480 18.216759
63.485 18.25392
63.490 17.99054
63.495 17.404613
63.500 17.377344
63.505 17.416613
63.510 17.193008
63.515 16.447126
63.520 16.712622
63.525 17.286654
63.530 17.430424
63.535 17.674963
63.540 18.05834
63.545 18.045893
63.550 18.303619
63.555 18.24502
63.560 18.116749
63.565 18.247189
63.570 17.788368
63.575 17.816366
63.580 18.194057
63.585 17.891579
63.590 17.797943
63.595 17.392643
63.600 16.967997
63.605 17.69371
63.610 17.37606
63.615 17.754662
63.620 17.71677
63.625 17.38369
63.630 17.670864
63.635 17.521296
63.640 16.750599
63.645 16.70488
63.650 16.590574
63.655 17.305481
63.660 17.807501
63.665 17.753805
63.670 18.456268
63.675 19.553186
63.680 19.899883
63.685 19.716379
63.690 19.322989
63.695 18.875443
63.700 18.777731
63.705 18.378452
63.710 17.248175
63.715 16.436211
63.720 16.488211
63.725 17.200939
63.730 17.751484
63.735 17.741526
63.740 17.678766
63.745 18.4044
63.750 18.944712
63.755 18.979416
63.760 18.45472
63.765 18.14736
63.770 18.098949
63.775 18.263783
63.780 18.53101
63.785 18.614538
63.790 18.601822
63.795 18.973043
63.800 18.500708
63.805 18.309826
63.810 17.963972
63.815 17.572626
63.820 17.582975
63.825 17.530752
63.830 17.286121
63.835 18.33017
63.840 19.214687
63.845 19.204617
63.850 19.24959
63.855 19.121073
63.860 18.769417
63.865 19.034147
63.870 17.949499
63.875 17.387569
63.880 18.088615
63.885 17.922533
63.890 18.137615
63.895 18.17248
63.900 17.469257
63.905 18.429356
63.910 18.802082
63.915 18.143808
63.920 17.884804
63.925 17.840883
63.930 18.446041
63.935 18.661041
63.940 18.399792
63.945 18.605082
63.950 18.909184
63.955 19.271461
63.960 18.911951
63.965 18.615057
63.970 19.09746
63.975 18.492842
63.980 17.959469
63.985 17.733988
63.990 17.753635
63.995 17.999001
64.000 18.303667
64.005 18.672153
64.010 18.770351
64.015 18.482525
64.020 18.511787
64.025 18.608267
64.030 18.797516
64.035 18.553482
64.040 17.890238
64.045 18.203131
64.050 18.883318
64.055 19.407349
64.060 19.117941
64.065 18.962456
64.070 19.447491
64.075 19.798504
64.080 19.797518
64.085 19.579521
64.090 19.517204
64.095 19.695225
64.100 20.130814
64.105 20.03606
64.110 19.412184
64.115 19.07914
64.120 19.083328
64.125 18.944328
64.130 19.115755
64.135 18.601368
64.140 18.033281
64.145 18.240389
64.150 18.48045
64.155 18.419842
64.160 18.391724
64.165 18.284891
64.170 18.060907
64.175 17.999929
64.180 18.288296
64.185 17.818407
64.190 17.414007
64.195 17.200684
64.200 17.067297
64.205 17.385977
64.210 18.009039
64.215 17.752779
64.220 17.719042
64.225 17.709078
64.230 17.29022
64.235 17.331919
64.240 17.376814
64.245 17.419605
64.250 17.676306
64.255 17.61315
64.260 17.877644
64.265 18.369167
64.270 18.597767
64.275 18.792105
64.280 19.008795
64.285 19.2078
64.290 19.909561
64.295 19.941256
64.300 19.146837
64.305 18.624567
64.310 17.981491
64.315 17.370321
64.320 17.177114
64.325 16.487555
64.330 16.620352
64.335 17.357515
64.340 17.650337
64.345 17.530512
64.350 18.071213
64.355 18.552313
64.360 19.499519
64.365 19.971893
64.370 20.082413
64.375 20.379427
64.380 20.703552
64.385 20.552214
64.390 20.59226
64.395 20.57518
64.400 20.371449
64.405 20.745117
64.410 20.724434
64.415 21.035727
64.420 21.309816
64.425 21.209089
64.430 20.643471
64.435 20.088293
64.440 19.644548
64.445 19.370663
64.450 18.919233
64.455 18.788538
64.460 19.141935
64.465 19.517746
64.470 19.620502
64.475 19.454439
64.480 19.76066
64.485 20.020344
64.490 19.758535
64.495 19.684927
64.500 19.913317
64.505 20.59276
64.510 20.809839
64.515 20.495651
64.520 20.633911
64.525 20.866335
64.530 20.264292
64.535 19.943489
64.540 19.858887
64.545 20.114981
64.550 20.318996
64.555 19.96047
64.560 20.181257
64.565 20.132603
64.570 19.437523
64.575 19.614122
64.580 19.407423
64.585 19.303005
64.590 19.149761
64.595 19.241302
64.600 19.702097
64.605 19.512754
64.610 19.229134
64.615 19.80125
64.620 20.281178
64.625 19.987635
64.630 19.847969
64.635 19.736305
64.640 20.116211
64.645 19.834873
64.650 19.520166
64.655 19.738756
64.660 20.324516
64.665 20.193777
64.670 20.485704
64.675 20.020445
64.680 20.06901
64.685 19.986891
64.690 19.658134
64.695 18.933617
64.700 18.588375
64.705 18.921808
64.710 19.872625
64.715 20.015785
64.720 19.898767
64.725 19.731409
64.730 20.229698
64.735 20.433947
64.740 19.738562
64.745 19.39397
64.750 19.556084
64.755 19.349899
64.760 19.566948
64.765 19.547195
64.770 20.30715
64.775 21.652224
64.780 21.522221
64.785 21.575466
64.790 21.54579
64.795 21.581108
64.800 22.123482
64.805 21.574337
64.810 21.432995
64.815 22.30101
64.820 22.618496
64.825 22.540497
64.830 22.321337
64.835 21.937048
64.840 22.26037
64.845 22.071325
64.850 21.472589
64.855 21.713945
64.860 21.611294
64.865 21.352316
64.870 21.398434
64.875 21.585953
64.880 21.939787
64.885 22.103958
64.890 21.684961
64.895 22.556669
64.900 22.948481
64.905 22.715054
64.910 22.41151
64.915 22.298244
64.920 22.100363
64.925 21.922447
64.930 21.873745
64.935 22.322008
64.940 22.946594
64.945 22.985903
64.950 23.239618
64.955 23.623392
64.960 23.83029
64.965 24.178436
64.970 23.697004
64.975 23.085451
64.980 23.240347
64.985 23.046949
64.990 22.908731
64.995 23.023327
65.000 23.153019
65.005 23.776991
65.010 23.787603
65.015 23.412395
65.020 23.473763
65.025 23.779177
65.030 23.791395
65.035 23.87286
65.040 23.205797
65.045 23.091452
65.050 23.193972
65.055 23.780552
65.060 24.450012
65.065 25.042519
65.070 25.554472
65.075 26.834623
65.080 27.371033
65.085 27.846992
65.090 27.321043
65.095 26.217859
65.100 25.965813
65.105 25.878082
65.110 25.406351
65.115 25.316763
65.120 24.61475
65.125 25.274611
65.130 26.314592
65.135 26.120613
65.140 25.586138
65.145 25.734495
65.150 26.221663
65.155 27.260761
65.160 27.120483
65.165 27.266083
65.170 27.329676
65.175 27.051241
65.180 27.181358
65.185 26.731779
65.190 25.725819
65.195 25.182425
65.200 24.857449
65.205 24.451805
65.210 24.610216
65.215 24.394527
65.220 24.184406
65.225 24.289259
65.230 24.668837
65.235 24.859798
65.240 25.681078
65.245 25.554279
65.250 25.149616
65.255 25.219124
65.260 25.135307
65.265 25.181322
65.270 24.638935
65.275 24.377886
65.280 24.623228
65.285 24.776487
65.290 24.948849
65.295 24.825394
65.300 24.001402
65.305 24.091179
65.310 23.711746
65.315 23.159716
65.320 23.302559
65.325 23.058008
65.330 22.804815
65.335 23.178986
65.340 23.05727
65.345 23.168715
65.350 23.341604
65.355 23.5047
65.360 23.674459
65.365 23.760321
65.370 23.72646
65.375 23.617609
65.380 23.399395
65.385 23.021282
65.390 22.582985
65.395 23.034996
65.400 23.938244
65.405 24.35055
65.410 24.8986
65.415 25.471407
65.420 25.792606
65.425 25.905701
65.430 25.743839
65.435 24.918577
65.440 24.820562
65.445 24.719755
65.450 24.324921
65.455 24.728735
65.460 25.588383
65.465 25.606827
65.470 26.087965
65.475 26.02664
65.480 26.566849
65.485 26.952324
65.490 27.353508
65.495 27.023407
65.500 27.843632
65.505 27.306396
65.510 27.005898
65.515 26.802191
65.520 26.920307
65.525 26.423656
65.530 26.422977
65.535 26.198517
65.540 27.588531
65.545 28.353905
65.550 28.549564
65.555 28.339277
65.560 28.074858
65.565 28.080524
65.570 28.307096
65.575 27.8689
65.580 28.433353
65.585 29.262669
65.590 29.933853
65.595 30.285383
65.600 29.898687
65.605 29.9291
65.610 29.867119
65.615 29.442984
65.620 29.37463
65.625 29.421604
65.630 29.490356
65.635 29.967876
65.640 29.803318
65.645 30.375368
65.650 30.683191
65.655 30.469254
65.660 30.312973
65.665 30.142061
65.670 29.954317
65.675 30.044729
65.680 29.791998
65.685 30.432625
65.690 30.442616
65.695 30.220074
65.700 31.196192
65.705 31.891212
65.710 31.289431
65.715 30.542892
65.720 30.34503
65.725 30.906401
65.730 32.475986
65.735 32.468716
65.740 32.534912
65.745 33.236313
65.750 33.871849
65.755 34.002052
65.760 34.370171
65.765 34.370056
65.770 34.534313
65.775 34.739567
65.780 35.423084
65.785 35.73222
65.790 35.783905
65.795 35.298508
65.800 34.572136
65.805 34.993092
65.810 35.155758
65.815 34.695251
65.820 34.672104
65.825 34.794289
65.830 35.032074
65.835 34.69022
65.840 33.897469
65.845 35.21714
65.850 35.895916
65.855 36.540573
65.860 36.01675
65.865 36.156658
65.870 37.3741
65.875 37.605339
65.880 36.462139
65.885 36.8153
65.890 38.263012
65.895 38.651543
65.900 38.56448
65.905 38.146103
65.910 37.970387
65.915 37.73333
65.920 36.954712
65.925 35.783314
65.930 36.15958
65.935 36.742901
65.940 36.977818
65.945 37.160759
65.950 37.31242
65.955 37.479435
65.960 37.423023
65.965 37.403198
65.970 37.842247
65.975 37.841877
65.980 38.629715
65.985 39.431984
65.990 39.18116
65.995 38.667603
66.000 38.445827
66.005 37.880657
66.010 38.328033
66.015 38.509033
66.020 38.555466
66.025 39.444019
66.030 40.499008
66.035 40.241974
66.040 40.103512
66.045 40.12463
66.050 39.541534
66.055 39.333927
66.060 38.9077
66.065 39.162361
66.070 39.42432
66.075 38.612686
66.080 37.743942
66.085 38.276611
66.090 38.589157
66.095 38.74649
66.100 39.213547
66.105 38.653652
66.110 39.474308
66.115 39.517258
66.120 38.915882
66.125 38.982258
66.130 39.193203
66.135 38.403996
66.140 38.937981
66.145 38.825893
66.150 39.233746
66.155 39.554558
66.160 39.049549
66.165 38.631737
66.170 37.966965
66.175 37.084625
66.180 37.297405
66.185 37.342354
66.190 37.080734
66.195 37.123814
66.200 36.252483
66.205 36.672676
66.210 37.277126
66.215 36.960678
66.220 36.63345
66.225 36.519257
66.230 36.258507
66.235 37.596611
66.240 37.923153
66.245 37.505104
66.250 37.332771
66.255 37.522388
66.260 37.681023
66.265 37.460049
66.270 36.572105
66.275 36.20961
66.280 35.985703
66.285 36.222118
66.290 35.647682
66.295 34.85273
66.300 34.51548
66.305 34.622536
66.310 34.748474
66.315 34.673172
66.320 34.245689
66.325 34.241821
66.330 34.366924
66.335 33.84351
66.340 34.00935
66.345 33.523434
66.350 33.250656
66.355 32.672417
66.360 32.201839
66.365 31.592957
66.370 32.333382
66.375 31.69293
66.380 31.681679
66.385 32.317394
66.390 32.509945
66.395 32.791325
66.400 33.294884
66.405 33.01757
66.410 32.775139
66.415 32.627258
66.420 32.14579
66.425 33.006298
66.430 32.849781
66.435 32.320408
66.440 32.159645
66.445 31.624456
66.450 30.964495
66.455 30.349733
66.460 29.260923
66.465 29.275074
66.470 29.174809
66.475 29.015495
66.480 29.721403
66.485 30.134972
66.490 30.210663
66.495 29.795692
66.500 29.516848
66.505 30.017038
66.510 29.953928
66.515 29.875296
66.520 30.391941
66.525 30.433502
66.530 30.615721
66.535 31.023239
66.540 31.56819
66.545 31.13427
66.550 29.922729
66.555 28.904591
66.560 28.491222
66.565 27.987345
66.570 27.696161
66.575 26.576723
66.580 26.0725
66.585 26.203836
66.590 25.998848
66.595 26.051765
66.600 25.918699
66.605 25.486498
66.610 25.116806
66.615 25.597433
66.620 25.931831
66.625 25.84849
66.630 25.908991
66.635 26.083265
66.640 26.095081
66.645 26.495646
66.650 26.413548
66.655 26.452253
66.660 26.880821
66.665 26.437664
66.670 26.282314
66.675 25.746967
66.680 25.660082
66.685 25.003748
66.690 24.895981
66.695 24.736341
66.700 24.882181
66.705 24.66778
66.710 24.7327
66.715 24.932043
66.720 25.501358
66.725 25.478327
66.730 25.388607
66.735 25.260033
66.740 25.516207
66.745 25.551149
66.750 25.501413
66.755 25.324366
66.760 25.352049
66.765 25.27701
66.770 25.147791
66.775 24.755037
66.780 24.613792
66.785 24.497499
66.790 24.093382
66.795 23.258209
66.800 23.714346
66.805 24.489985
66.810 25.005901
66.815 24.831945
66.820 24.804831
66.825 24.615437
66.830 24.300606
66.835 23.779722
66.840 23.248272
66.845 22.917355
66.850 22.527195
66.855 21.9753
66.860 22.243881
66.865 22.400784
66.870 22.016342
66.875 21.610712
66.880 21.892168
66.885 22.117407
66.890 21.81319
66.895 21.363977
66.900 21.007511
66.905 20.75178
66.910 20.834444
66.915 21.09404
66.920 21.774868
66.925 22.50806
66.930 22.627167
66.935 23.213999
66.940 23.345251
66.945 23.082674
66.950 23.158634
66.955 23.087019
66.960 22.900156
66.965 23.320602
66.970 22.986097
66.975 23.442993
66.980 23.514715
66.985 22.602444
66.990 22.182495
66.995 22.292299
67.000 21.870422
67.005 21.854506
67.010 21.855318
67.015 21.321077
67.020 21.314535
67.025 20.986872
67.030 20.554197
67.035 20.874067
67.040 21.316187
67.045 21.658915
67.050 21.954969
67.055 21.989906
67.060 22.591518
67.065 22.873621
67.070 22.470802
67.075 22.366938
67.080 22.215635
67.085 22.688623
67.090 22.738474
67.095 22.915644
67.100 22.773603
67.105 22.396446
67.110 21.758333
67.115 21.776602
67.120 21.510796
67.125 21.423656
67.130 20.620438
67.135 20.852062
67.140 21.171329
67.145 22.300154
67.150 22.321638
67.155 22.576311
67.160 22.942951
67.165 23.670666
67.170 23.301445
67.175 22.549824
67.180 21.470467
67.185 20.836391
67.190 20.717779
67.195 20.478481
67.200 20.168438
67.205 20.939308
67.210 22.053194
67.215 22.7176
67.220 22.460243
67.225 21.807808
67.230 21.422331
67.235 21.674976
67.240 21.170513
67.245 20.361158
67.250 19.55187
67.255 19.831152
67.260 20.100109
67.265 20.604065
67.270 20.594034
67.275 20.580328
67.280 21.049238
67.285 21.912653
67.290 22.307739
67.295 22.629124
67.300 22.610527
67.305 22.842365
67.310 23.045729
67.315 22.597572
67.320 22.637579
67.325 22.419819
67.330 22.327879
67.335 21.872107
67.340 21.128704
67.345 21.194475
67.350 21.343838
67.355 20.775066
67.360 21.205475
67.365 21.015495
67.370 21.018957
67.375 21.644522
67.380 21.726639
67.385 21.668404
67.390 21.75037
67.395 21.287067
67.400 21.398367
67.405 21.165064
67.410 20.305071
67.415 20.050821
67.420 20.402794
67.425 20.331518
67.430 20.094877
67.435 20.153511
67.440 20.765915
67.445 21.066544
67.450 21.337118
67.455 21.268415
67.460 21.245749
67.465 21.32552
67.470 21.166616
67.475 20.727392
67.480 20.99803
67.485 21.076195
67.490 20.842215
67.495 20.869246
67.500 21.640993
67.505 21.709278
67.510 21.571424
67.515 21.010302
67.520 21.22333
67.525 20.979105
67.530 21.589334
67.535 21.473871
67.540 21.967558
67.545 22.234438
67.550 22.135328
67.555 21.899874
67.560 22.317194
67.565 21.599077
67.570 20.941614
67.575 20.561535
67.580 20.648624
67.585 20.952194
67.590 21.292698
67.595 21.349625
67.600 21.169542
67.605 21.289101
67.610 20.974415
67.615 20.623413
67.620 20.447384
67.625 20.25989
67.630 20.677704
67.635 21.344753
67.640 21.807419
67.645 21.983231
67.650 22.244793
67.655 22.654358
67.660 22.417925
67.665 21.99111
67.670 21.384266
67.675 21.103262
67.680 21.057976
67.685 20.867834
67.690 20.939878
67.695 21.330326
67.700 22.057375
67.705 22.22789
67.710 22.355665
67.715 22.591036
67.720 22.380114
67.725 21.56785
67.730 21.697035
67.735 21.098284
67.740 21.009741
67.745 20.909126
67.750 21.154467
67.755 21.045458
67.760 20.720108
67.765 20.59602
67.770 20.150978
67.775 20.27421
67.780 20.071901
67.785 19.450735
67.790 20.041101
67.795 19.73525
67.800 18.895845
67.805 18.827257
67.810 18.651867
67.815 18.561638
67.820 18.635656
67.825 18.280144
67.830 18.650375
67.835 19.097706
67.840 19.2798
67.845 19.009733
67.850 19.444763
67.855 19.946733
67.860 20.105272
67.865 20.199091
67.870 20.725101
67.875 20.90379
67.880 20.967293
67.885 20.893848
67.890 21.73608
67.895 22.305885
67.900 22.630999
67.905 22.805435
67.910 23.073517
67.915 23.005037
67.920 22.375063
67.925 21.586887
67.930 21.555426
67.935 21.259956
67.940 21.198109
67.945 21.500282
67.950 21.933535
67.955 22.224129
67.960 21.735283
67.965 21.70332
67.970 21.780327
67.975 21.655312
67.980 21.111822
67.985 20.640965
67.990 20.845255
67.995 21.421843
68.000 21.466101
68.005 20.970308
68.010 20.728746
68.015 20.785408
68.020 21.024776
68.025 20.878534
68.030 20.447252
68.035 20.842049
68.040 21.20462
68.045 20.990875
68.050 21.360779
68.055 22.323298
68.060 22.215727
68.065 21.907513
68.070 21.64019
68.075 21.711277
68.080 22.144728
68.085 22.319248
68.090 21.743513
68.095 21.993336
68.100 21.934708
68.105 22.149008
68.110 22.54752
68.115 22.556944
68.120 22.112808
68.125 21.968567
68.130 21.899405
68.135 21.945978
68.140 21.491137
68.145 21.923489
68.150 21.827423
68.155 21.397158
68.160 21.457829
68.165 21.262697
68.170 21.19776
68.175 20.999172
68.180 20.448225
68.185 20.494186
68.190 20.962044
68.195 20.87541
68.200 20.681835
68.205 20.994749
68.210 20.673058
68.215 20.429474
68.220 20.607651
68.225 20.922792
68.230 21.278652
68.235 20.94149
68.240 20.863888
68.245 20.772081
68.250 20.853863
68.255 20.534733
68.260 20.160963
68.265 20.382452
68.270 21.140446
68.275 21.489914
68.280 21.776901
68.285 21.486635
68.290 21.441753
68.295 21.799683
68.300 21.349583
68.305 20.813871
68.310 20.803383
68.315 20.806606
68.320 20.327475
68.325 20.24399
68.330 20.366819
68.335 20.48768
68.340 20.482828
68.345 20.122854
68.350 19.710285
68.355 19.429504
68.360 18.883347
68.365 18.722368
68.370 18.689049
68.375 18.587027
68.380 18.743332
68.385 19.35009
68.390 20.205894
68.395 21.017126
68.400 20.894878
68.405 21.657896
68.410 22.155855
68.415 22.451336
68.420 22.258184
68.425 22.11105
68.430 21.76642
68.435 21.599329
68.440 20.653408
68.445 20.699986
68.450 21.18186
68.455 20.892132
68.460 20.322386
68.465 20.351891
68.470 20.657644
68.475 20.894196
68.480 20.559341
68.485 19.908447
68.490 20.38789
68.495 20.801741
68.500 21.032564
68.505 20.689384
68.510 20.361629
68.515 20.14776
68.520 20.150087
68.525 20.779325
68.530 21.011267
68.535 20.787745
68.540 21.496595
68.545 21.86479
68.550 21.962645
68.555 22.008432
68.560 21.705244
68.565 21.47098
68.570 20.93368
68.575 20.48283
68.580 20.383663
68.585 20.402592
68.590 20.415918
68.595 20.452986
68.600 20.458694
68.605 20.740965
68.610 21.071459
68.615 21.368483
68.620 21.494909
68.625 21.891851
68.630 21.972271
68.635 22.49395
68.640 23.056751
68.645 23.480818
68.650 23.333965
68.655 23.501186
68.660 23.343479
68.665 23.300079
68.670 22.682396
68.675 22.471931
68.680 21.989851
68.685 21.917088
68.690 21.736168
68.695 21.764622
68.700 21.583786
68.705 21.899227
68.710 21.468483
68.715 21.754648
68.720 21.680943
68.725 22.333454
68.730 21.919926
68.735 22.094242
68.740 22.055971
68.745 22.139524
68.750 22.65687
68.755 22.957033
68.760 22.319639
68.765 22.698376
68.770 23.145777
68.775 23.078274
68.780 23.293211
68.785 23.028248
68.790 23.043119
68.795 23.042084
68.800 22.381603
68.805 22.380646
68.810 22.177586
68.815 22.707806
68.820 23.024981
68.825 22.860016
68.830 23.277796
68.835 22.812185
68.840 22.700504
68.845 22.989693
68.850 22.274439
68.855 22.186956
68.860 22.788742
68.865 23.161673
68.870 23.081898
68.875 22.845127
68.880 22.498339
68.885 22.280399
68.890 21.735025
68.895 21.434816
68.900 21.649477
68.905 22.621849
68.910 22.581129
68.915 22.43792
68.920 22.955584
68.925 23.081526
68.930 23.051422
68.935 23.836508
68.940 23.883011
68.945 23.963816
68.950 24.281307
68.955 23.948965
68.960 24.80698
68.965 24.828865
68.970 23.663324
68.975 23.171892
68.980 22.881323
68.985 22.773232
68.990 22.782993
68.995 21.73727
69.000 21.504513
69.005 21.958624
69.010 22.562168
69.015 22.997652
69.020 22.812914
69.025 22.449347
69.030 22.500643
69.035 22.77149
69.040 22.545118
69.045 22.331446
69.050 22.567713
69.055 23.248545
69.060 23.59601
69.065 23.594591
69.070 23.609972
69.075 24.36923
69.080 24.960287
69.085 24.80731
69.090 24.848177
69.095 25.657192
69.100 26.105381
69.105 25.900309
69.110 25.160248
69.115 25.377174
69.120 26.213713
69.125 26.417337
69.130 26.273054
69.135 25.957916
69.140 26.059313
69.145 26.274355
69.150 26.020443
69.155 25.994604
69.160 25.564041
69.165 25.640301
69.170 25.837605
69.175 26.130518
69.180 26.273132
69.185 25.540529
69.190 25.448519
69.195 25.483454
69.200 25.219543
69.205 25.011705
69.210 24.976688
69.215 24.936264
69.220 25.177147
69.225 25.187384
69.230 24.968767
69.235 25.327129
69.240 25.886024
69.245 25.652794
69.250 25.491108
69.255 25.72049
69.260 25.744307
69.265 26.542889
69.270 27.545052
69.275 27.762522
69.280 29.121752
69.285 29.460899
69.290 29.900167
69.295 30.302568
69.300 29.727022
69.305 29.241179
69.310 29.190874
69.315 28.795185
69.320 29.250082
69.325 28.204559
69.330 27.377773
69.335 27.151075
69.340 27.367832
69.345 28.023754
69.350 27.991758
69.355 27.542147
69.360 28.265411
69.365 28.953999
69.370 28.898933
69.375 27.955832
69.380 27.098505
69.385 27.895298
69.390 28.454477
69.395 28.669666
69.400 29.567051
69.405 29.969702
69.410 30.659628
69.415 30.902399
69.420 30.424608
69.425 29.976768
69.430 30.341223
69.435 30.695339
69.440 31.356802
69.445 31.566628
69.450 32.149731
69.455 32.607906
69.460 32.738441
69.465 31.7143
69.470 30.606617
69.475 29.713415
69.480 29.520151
69.485 29.16646
69.490 29.732281
69.495 29.550825
69.500 29.562424
69.505 29.607716
69.510 29.815287
69.515 29.963463
69.520 29.113857
69.525 28.769001
69.530 28.873968
69.535 29.134504
69.540 29.219954
69.545 29.971029
69.550 30.272146
69.555 31.034731
69.560 30.922361
69.565 31.195234
69.570 30.963875
69.575 31.042521
69.580 30.677414
69.585 30.626005
69.590 30.468475
69.595 30.828308
69.600 29.962208
69.605 30.167442
69.610 29.941132
69.615 29.490532
69.620 29.722162
69.625 28.775953
69.630 28.864643
69.635 29.851698
69.640 29.733284
69.645 28.964708
69.650 28.184633
69.655 27.728811
69.660 28.094658
69.665 28.126612
69.670 27.707434
69.675 27.468672
69.680 28.394911
69.685 29.120798
69.690 29.411566
69.695 29.227921
69.700 28.889381
69.705 28.879318
69.710 29.137804
69.715 28.242088
69.720 27.248152
69.725 26.566114
69.730 27.294292
69.735 27.997839
69.740 28.673378
69.745 29.66485
69.750 30.391806
69.755 31.200058
69.760 31.603939
69.765 30.686298
69.770 30.338678
69.775 29.477118
69.780 28.326624
69.785 27.962555
69.790 27.328793
69.795 26.995901
69.800 26.311407
69.805 25.902287
69.810 25.692553
69.815 25.403402
69.820 25.187037
69.825 25.634514
69.830 26.578268
69.835 27.046385
69.840 27.009638
69.845 27.334082
69.850 27.651859
69.855 27.660557
69.860 27.228628
69.865 26.58666
69.870 27.402956
69.875 27.766731
69.880 27.055975
69.885 27.19215
69.890 27.434692
69.895 27.412642
69.900 26.323879
69.905 25.600876
69.910 25.365803
69.915 25.603048
69.920 25.185423
69.925 25.05051
69.930 25.241461
69.935 25.881676
69.940 25.779634
69.945 25.530542
69.950 25.438671
69.955 25.286736
69.960 25.114407
69.965 24.46866
69.970 23.639765
69.975 23.463715
69.980 23.33028
69.985 23.602745
69.990 23.59886
69.995 22.931469
70.000 22.378094
70.005 22.368063
70.010 22.318457
70.015 22.652348
70.020 22.31917
70.025 22.618101
70.030 23.017984
70.035 23.364063
70.040 23.224724
70.045 22.853817
70.050 22.207134
70.055 22.091208
70.060 21.903164
70.065 22.278173
70.070 22.763149
70.075 23.025772
70.080 23.435776
70.085 23.798834
70.090 23.753376
70.095 23.311625
70.100 22.662384
70.105 22.493275
70.110 22.529356
70.115 22.435278
70.120 21.786345
70.125 21.37322
70.130 21.2169
70.135 21.199482
70.140 21.073547
70.145 20.559238
70.150 20.350733
70.155 20.754976
70.160 21.084562
70.165 20.652718
70.170 20.254284
70.175 20.031607
70.180 20.59267
70.185 20.751337
70.190 20.017801
70.195 20.299322
70.200 21.202297
70.205 21.196951
70.210 20.631081
70.215 20.178547
70.220 19.940626
70.225 20.159861
70.230 20.10816
70.235 20.086935
70.240 20.096003
70.245 20.206327
70.250 20.113018
70.255 20.43745
70.260 20.336613
70.265 20.329914
70.270 20.129122
70.275 19.922243
70.280 19.710884
70.285 19.877689
70.290 19.775364
70.295 19.746033
70.300 19.87764
70.305 20.543491
70.310 21.106928
70.315 20.31484
70.320 19.957111
70.325 19.68457
70.330 19.196426
70.335 18.463045
70.340 18.233356
70.345 18.858643
70.350 19.466732
70.355 19.740297
70.360 20.388504
70.365 20.632481
70.370 20.744001
70.375 20.264574
70.380 19.454397
70.385 19.831503
70.390 19.708775
70.395 19.442127
70.400 19.508013
70.405 19.262079
70.410 19.348732
70.415 19.78418
70.420 19.118387
70.425 19.164093
70.430 19.145407
70.435 19.130878
70.440 19.035259
70.445 18.171446
70.450 17.847685
70.455 18.262335
70.460 18.6703
70.465 19.15242
70.470 19.540428
70.475 19.887154
70.480 20.56694
70.485 20.405901
70.490 20.470764
70.495 20.470989
70.500 20.206427
70.505 20.392965
70.510 19.674061
70.515 19.758968
70.520 20.215347
70.525 19.434025
70.530 19.130272
70.535 19.039707
70.540 18.573885
70.545 19.108585
70.550 19.238842
70.555 19.895306
70.560 20.641003
70.565 20.786606
70.570 20.784304
70.575 20.971828
70.580 21.030712
70.585 21.058058
70.590 20.850273
70.595 20.528126
70.600 20.218895
70.605 19.978836
70.610 19.430912
70.615 18.50116
70.620 18.360968
70.625 17.707512
70.630 18.106684
70.635 18.947807
70.640 19.518389
70.645 19.87133
70.650 20.161409
70.655 20.200897
70.660 20.506388
70.665 19.546513
70.670 19.140114
70.675 19.085993
70.680 19.362932
70.685 19.604637
70.690 19.567528
70.695 20.183165
70.700 20.607563
70.705 20.98205
70.710 20.73406
70.715 20.876303
70.720 21.483253
70.725 21.027603
70.730 20.342402
70.735 19.646893
70.740 18.742386
70.745 18.510139
70.750 17.99383
70.755 17.58765
70.760 17.480055
70.765 17.38872
70.770 17.79084
70.775 18.165285
70.780 18.517305
70.785 18.498127
70.790 18.741661
70.795 18.861191
70.800 19.513391
70.805 19.371462
70.810 19.66453
70.815 19.641829
70.820 19.597252
70.825 19.538589
70.830 19.522272
70.835 19.314756
70.840 19.283514
70.845 19.066696
70.850 19.142082
70.855 19.066755
70.860 18.94488
70.865 19.403938
70.870 19.865683
70.875 19.959522
70.880 19.940872
70.885 19.773458
70.890 19.726686
70.895 18.913223
70.900 18.317919
70.905 17.671232
70.910 17.661219
70.915 17.681541
70.920 17.527668
70.925 17.633389
70.930 17.965582
70.935 18.16234
70.940 18.958149
70.945 19.23881
70.950 19.557899
70.955 19.88656
70.960 19.47863
70.965 19.219872
70.970 18.890736
70.975 18.563297
70.980 18.175461
70.985 17.530369
70.990 17.135069
70.995 18.153223
71.000 18.584057
71.005 18.67872
71.010 18.570793
71.015 19.02108
71.020 19.766596
71.025 19.959749
71.030 19.575117
71.035 18.971205
71.040 18.613972
71.045 18.466858
71.050 18.309595
71.055 18.5497
71.060 18.614956
71.065 18.856972
71.070 19.67787
71.075 19.90955
71.080 19.631447
71.085 19.530231
71.090 19.971659
71.095 20.530907
71.100 19.81292
71.105 19.747375
71.110 19.785559
71.115 20.080585
71.120 19.489174
71.125 18.496126
71.130 17.893269
71.135 18.332884
71.140 18.148125
71.145 17.604204
71.150 17.560118
71.155 17.748024
71.160 17.789658
71.165 17.96567
71.170 17.644682
71.175 17.798649
71.180 18.291943
71.185 17.921173
71.190 18.083313
71.195 18.420649
71.200 18.585581
71.205 18.719568
71.210 18.900522
71.215 18.272072
71.220 18.311544
71.225 17.29356
71.230 17.000263
71.235 16.951485
71.240 16.877569
71.245 16.943296
71.250 17.966249
71.255 17.979321
71.260 18.742231
71.265 18.858427
71.270 18.791451
71.275 18.602125
71.280 18.15818
71.285 18.194445
71.290 18.532091
71.295 18.281702
71.300 18.313185
71.305 18.65983
71.310 18.711369
71.315 18.659725
71.320 18.885906
71.325 18.766216
71.330 18.796778
71.335 19.12199
71.340 19.310516
71.345 19.702475
71.350 19.567547
71.355 19.551777
71.360 19.688005
71.365 19.619303
71.370 19.616934
71.375 19.155552
71.380 18.918726
71.385 18.428848
71.390 18.555187
71.395 18.951101
71.400 19.237597
71.405 19.298883
71.410 20.020933
71.415 20.66247
71.420 20.754269
71.425 20.428488
71.430 20.142397
71.435 19.280554
71.440 19.072708
71.445 19.105709
71.450 18.868176
71.455 19.029745
71.460 18.760729
71.465 18.932775
71.470 19.036648
71.475 18.776562
71.480 18.918169
71.485 19.296133
71.490 19.326582
71.495 19.261736
71.500 19.253242
71.505 19.420912
71.510 19.12207
71.515 19.089819
71.520 19.262794
71.525 19.715094
71.530 19.783504
71.535 19.609703
71.540 19.814503
71.545 19.195805
71.550 18.83563
71.555 18.29092
71.560 18.261356
71.565 18.080412
71.570 18.550591
71.575 19.042799
71.580 19.277243
71.585 18.78055
71.590 19.110394
71.595 19.659021
71.600 19.687971
71.605 19.489737
71.610 19.090113
71.615 18.825848
71.620 18.366179
71.625 18.168184
71.630 18.371208
71.635 18.535002
71.640 18.376141
71.645 18.574259
71.650 18.982805
71.655 19.641794
71.660 19.331167
71.665 18.838089
71.670 18.562664
71.675 18.565689
71.680 19.635332
71.685 19.58536
71.690 19.390823
71.695 19.137049
71.700 18.864143
71.705 18.955828
71.710 18.591276
71.715 18.139011
71.720 18.651375
71.725 18.717863
71.730 19.193428
71.735 19.722733
71.740 19.923372
71.745 20.028587
71.750 19.626156
71.755 19.618843
71.760 19.501652
71.765 19.866394
71.770 20.198235
71.775 19.675371
71.780 19.545158
71.785 19.319668
71.790 19.425985
71.795 19.842489
71.800 18.817663
71.805 18.975824
71.810 19.322903
71.815 19.085899
71.820 18.857115
71.825 19.048655
71.830 19.006678
71.835 19.472858
71.840 19.569946
71.845 19.859921
71.850 20.485615
71.855 20.512821
71.860 20.025745
71.865 20.073946
71.870 19.761967
71.875 19.58511
71.880 19.217148
71.885 19.09465
71.890 19.096684
71.895 18.660681
71.900 18.414619
71.905 18.341557
71.910 17.813639
71.915 17.879541
71.920 17.754492
71.925 18.385557
71.930 18.564804
71.935 18.52029
71.940 18.435005
71.945 18.742321
71.950 18.848192
71.955 18.515022
71.960 18.326376
71.965 18.133583
71.970 17.817816
71.975 17.971336
71.980 17.988026
71.985 18.448713
71.990 18.324823
71.995 17.952536
72.000 17.581713
72.005 17.609619
72.010 17.683006
72.015 17.709517
72.020 17.546179
72.025 17.535971
72.030 18.167473
72.035 18.860468
72.040 18.902472
72.045 18.891401
72.050 18.626932
72.055 18.792501
72.060 19.337694
72.065 18.990911
72.070 18.806717
72.075 18.720135
72.080 19.32996
72.085 19.510071
72.090 19.691641
72.095 19.594112
72.100 19.397882
72.105 19.014359
72.110 18.342888
72.115 17.714972
72.120 17.93808
72.125 17.141691
72.130 16.994123
72.135 17.560396
72.140 17.973751
72.145 18.436213
72.150 17.702972
72.155 17.37945
72.160 17.701332
72.165 17.75909
72.170 17.546984
72.175 17.596321
72.180 17.95719
72.185 18.281546
72.190 18.348955
72.195 17.944786
72.200 17.801771
72.205 17.992025
72.210 18.073412
72.215 17.837894
72.220 17.74518
72.225 18.489731
72.230 18.840351
72.235 19.124285
72.240 19.135597
72.245 18.805693
72.250 19.526903
72.255 19.455019
72.260 18.776087
72.265 18.806017
72.270 18.955013
72.275 19.593815
72.280 19.481361
72.285 18.849627
72.290 19.006292
72.295 19.021498
72.300 18.864769
72.305 18.130535
72.310 17.479261
72.315 18.000648
72.320 18.183186
72.325 18.464077
72.330 18.788042
72.335 18.919331
72.340 19.124561
72.345 19.169556
72.350 19.730495
72.355 19.652845
72.360 19.845058
72.365 19.404516
72.370 19.264372
72.375 19.400286
72.380 19.248491
72.385 18.463839
72.390 18.058495
72.395 17.954445
72.400 18.079275
72.405 18.151249
72.410 17.968399
72.415 18.149286
72.420 18.235888
72.425 17.939768
72.430 17.891865
72.435 17.314466
72.440 17.349476
72.445 17.415731
72.450 17.484459
72.455 17.274073
72.460 17.044456
72.465 17.405449
72.470 18.227634
72.475 18.316025
72.480 18.057251
72.485 17.923693
72.490 18.318216
72.495 18.517662
72.500 18.252504
72.505 18.057899
72.510 17.928661
72.515 18.238295
72.520 18.364698
72.525 18.417448
72.530 18.086952
72.535 17.85519
72.540 17.722099
72.545 17.668234
72.550 17.288115
72.555 17.390854
72.560 17.142448
72.565 17.165785
72.570 17.162767
72.575 17.194324
72.580 17.436693
72.585 17.725637
72.590 17.260984
72.595 17.984499
72.600 17.96921
72.605 18.229706
72.610 17.974678
72.615 17.864735
72.620 18.144209
72.625 18.31856
72.630 18.087894
72.635 17.934334
72.640 18.301304
72.645 18.199949
72.650 17.882286
72.655 17.710339
72.660 17.918798
72.665 17.449163
72.670 17.068268
72.675 16.850796
72.680 17.547285
72.685 17.52693
72.690 17.021685
72.695 16.65143
72.700 17.039034
72.705 17.090841
72.710 16.755186
72.715 16.568409
72.720 16.622549
72.725 17.653326
72.730 18.392429
72.735 18.754019
72.740 18.382027
72.745 18.451654
72.750 18.205854
72.755 17.863247
72.760 17.510572
72.765 16.974733
72.770 16.985601
72.775 17.219515
72.780 16.675966
72.785 16.6313
72.790 16.48163
72.795 16.054703
72.800 16.332304
72.805 16.69322
72.810 16.803108
72.815 17.445808
72.820 17.695505
72.825 18.032227
72.830 17.965836
72.835 17.808073
72.840 17.509058
72.845 17.204964
72.850 16.982008
72.855 17.153431
72.860 17.208885
72.865 17.640701
72.870 17.646513
72.875 17.57379
72.880 17.676258
72.885 17.43708
72.890 16.86171
72.895 16.262117
72.900 16.108618
72.905 16.340874
72.910 16.621256
72.915 16.508087
72.920 17.085472
72.925 17.85836
72.930 18.139349
72.935 18.025009
72.940 17.887287
72.945 18.084824
72.950 18.24251
72.955 17.846228
72.960 17.468143
72.965 17.20322
72.970 17.061415
72.975 17.124285
72.980 17.73316
72.985 18.282942
72.990 18.507065
72.995 19.223211
73.000 18.531879
