!@!!GADDS PLOTSO FILE: Chi integration type
!@!!Title/SampleName: map-f9
!@!!Comment: ?
!@!!User: Bruker Instrument Administrator
!@!!Site: University of Illinois Chicago
!@!!Frame: map-f9_01_000.gfrm
!@!!Wavelengths    1.54184   1.54056   1.54439
!@!!Frame angles: 2Theta: 63.000 Omega: 50.000 Phi: 0.000 Chi: 90.000
!@!!Integration range: 2Theta: 53.000 to 73.000  Gamma: -105.000 to -75.000
!@!!Integration method: bin normalized
!@!N
!@!SS
!@!M
!@!L 0.0 0.0 0.0 0.0
!@!XDegrees
!@!YCounts
53.000 6.962641
53.005 6.536589
53.010 6.07423
53.015 5.725198
53.020 5.917717
53.025 6.15261
53.030 5.917369
53.035 6.089209
53.040 6.251044
53.045 6.640358
53.050 6.720833
53.055 6.431407
53.060 6.177744
53.065 6.000415
53.070 5.649123
53.075 5.844813
53.080 5.592894
53.085 5.443767
53.090 5.365881
53.095 5.626871
53.100 6.00952
53.105 5.939007
53.110 6.084809
53.115 6.253061
53.120 6.478671
53.125 6.521327
53.130 6.1953
53.135 5.926293
53.140 5.968998
53.145 6.084537
53.150 6.455571
53.155 6.416368
53.160 6.581945
53.165 6.809963
53.170 7.016055
53.175 6.987861
53.180 7.154087
53.185 7.047233
53.190 6.856922
53.195 6.51625
53.200 5.947463
53.205 5.451287
53.210 5.637472
53.215 5.061578
53.220 4.831299
53.225 4.980918
53.230 5.374462
53.235 5.833923
53.240 6.305735
53.245 5.999454
53.250 6.166765
53.255 6.166715
53.260 6.065362
53.265 5.833835
53.270 5.853976
53.275 5.49864
53.280 5.445531
53.285 5.47666
53.290 5.533008
53.295 5.76301
53.300 5.928654
53.305 6.258945
53.310 6.352558
53.315 6.386649
53.320 6.347235
53.325 5.896213
53.330 5.747401
53.335 5.857249
53.340 5.49501
53.345 5.383496
53.350 5.669725
53.355 5.668709
53.360 6.020772
53.365 6.067402
53.370 5.986227
53.375 6.363245
53.380 6.471889
53.385 6.362259
53.390 6.717528
53.395 6.646586
53.400 6.840879
53.405 6.799394
53.410 6.570671
53.415 6.426788
53.420 6.424119
53.425 6.576334
53.430 6.60229
53.435 6.004277
53.440 5.841232
53.445 6.235404
53.450 6.325694
53.455 6.255211
53.460 6.067155
53.465 6.196848
53.470 6.424244
53.475 6.602299
53.480 6.933362
53.485 7.12893
53.490 7.11083
53.495 7.232549
53.500 7.017155
53.505 7.022552
53.510 6.843001
53.515 6.557061
53.520 6.213947
53.525 6.161261
53.530 6.482371
53.535 6.91046
53.540 6.912784
53.545 6.707629
53.550 7.076346
53.555 6.968106
53.560 6.72811
53.565 6.534922
53.570 6.477566
53.575 6.637043
53.580 6.748624
53.585 6.750585
53.590 7.238894
53.595 7.711279
53.600 8.073086
53.605 8.595484
53.610 8.830997
53.615 8.740755
53.620 8.577994
53.625 8.195368
53.630 7.871268
53.635 7.121111
53.640 6.29813
53.645 6.034501
53.650 6.34532
53.655 6.389349
53.660 6.341505
53.665 6.353938
53.670 6.753524
53.675 6.954185
53.680 6.83004
53.685 6.378653
53.690 6.017642
53.695 5.858381
53.700 5.70796
53.705 5.733494
53.710 5.712978
53.715 5.757668
53.720 6.180437
53.725 6.290197
53.730 6.501384
53.735 6.617706
53.740 6.674623
53.745 6.98792
53.750 7.251846
53.755 6.914776
53.760 7.185642
53.765 7.240809
53.770 7.244442
53.775 7.122536
53.780 6.882068
53.785 6.665839
53.790 6.893063
53.795 7.051297
53.800 7.139449
53.805 7.029619
53.810 7.074198
53.815 6.983216
53.820 7.174403
53.825 7.216914
53.830 7.160955
53.835 6.851727
53.840 6.829921
53.845 7.301902
53.850 7.248868
53.855 7.281847
53.860 7.151928
53.865 6.864836
53.870 7.113501
53.875 7.081271
53.880 7.059604
53.885 7.073811
53.890 6.90142
53.895 6.980931
53.900 7.110388
53.905 7.039423
53.910 6.795578
53.915 6.882281
53.920 6.915593
53.925 6.735064
53.930 6.850632
53.935 6.870586
53.940 6.984613
53.945 6.872513
53.950 6.323694
53.955 6.354599
53.960 6.526317
53.965 6.422483
53.970 6.236605
53.975 5.961646
53.980 5.973449
53.985 6.142701
53.990 6.171022
53.995 6.261499
54.000 6.545727
54.005 6.72257
54.010 7.179863
54.015 7.156542
54.020 7.270604
54.025 7.279562
54.030 7.683043
54.035 7.430439
54.040 7.370439
54.045 7.289512
54.050 7.387746
54.055 7.470825
54.060 7.281613
54.065 6.748383
54.070 7.199699
54.075 7.327042
54.080 7.892728
54.085 8.178964
54.090 7.954741
54.095 7.826278
54.100 7.33937
54.105 6.937522
54.110 6.812117
54.115 6.502797
54.120 6.355641
54.125 6.416018
54.130 6.785909
54.135 7.270587
54.140 7.681051
54.145 7.602431
54.150 7.642735
54.155 7.718796
54.160 7.848064
54.165 7.671787
54.170 7.386225
54.175 7.163317
54.180 7.239789
54.185 7.396177
54.190 7.42339
54.195 7.371932
54.200 7.59751
54.205 7.485719
54.210 7.320726
54.215 6.91646
54.220 6.668944
54.225 6.781739
54.230 6.98919
54.235 7.489168
54.240 8.038657
54.245 8.522674
54.250 8.938974
54.255 8.861206
54.260 8.741554
54.265 8.575401
54.270 8.219944
54.275 7.725945
54.280 7.560341
54.285 7.347678
54.290 7.406272
54.295 7.437601
54.300 7.394695
54.305 7.338229
54.310 7.541809
54.315 7.3408
54.320 7.733655
54.325 7.831906
54.330 7.956308
54.335 8.318295
54.340 8.532308
54.345 8.434847
54.350 8.026642
54.355 7.440711
54.360 7.367281
54.365 7.114089
54.370 6.822337
54.375 6.594779
54.380 6.406899
54.385 7.01189
54.390 7.14301
54.395 7.121035
54.400 7.028937
54.405 7.062845
54.410 7.282733
54.415 7.489719
54.420 7.130041
54.425 7.002777
54.430 7.056142
54.435 7.171345
54.440 7.260297
54.445 7.297492
54.450 7.473083
54.455 7.556444
54.460 7.570322
54.465 7.68188
54.470 7.637108
54.475 7.70751
54.480 7.617726
54.485 7.342873
54.490 7.965097
54.495 7.975549
54.500 8.226882
54.505 8.275048
54.510 8.119724
54.515 8.20142
54.520 8.260963
54.525 8.025455
54.530 7.988618
54.535 7.322457
54.540 7.051622
54.545 6.92638
54.550 7.118451
54.555 7.250533
54.560 7.453554
54.565 7.606718
54.570 7.791207
54.575 8.032375
54.580 8.289973
54.585 8.064004
54.590 7.702349
54.595 7.344615
54.600 7.545181
54.605 7.393204
54.610 7.099784
54.615 7.17212
54.620 7.186768
54.625 7.267552
54.630 7.321557
54.635 7.248533
54.640 7.420282
54.645 7.326418
54.650 7.271231
54.655 7.317353
54.660 7.757809
54.665 7.720554
54.670 7.732995
54.675 7.723316
54.680 7.459308
54.685 7.346578
54.690 7.717989
54.695 7.47336
54.700 7.692142
54.705 7.438432
54.710 7.661491
54.715 8.192912
54.720 8.682649
54.725 8.348533
54.730 7.890271
54.735 7.846516
54.740 8.050745
54.745 7.932932
54.750 7.222253
54.755 7.094823
54.760 7.51281
54.765 8.128385
54.770 8.888838
54.775 9.234136
54.780 9.511115
54.785 9.617794
54.790 9.216818
54.795 8.905714
54.800 8.588098
54.805 8.069506
54.810 7.688142
54.815 7.642163
54.820 7.485134
54.825 7.643554
54.830 7.888556
54.835 8.046231
54.840 7.933826
54.845 7.958832
54.850 8.33359
54.855 8.791154
54.860 9.138407
54.865 9.322154
54.870 9.351372
54.875 9.78939
54.880 10.467517
54.885 10.77165
54.890 10.773015
54.895 10.125116
54.900 9.757372
54.905 9.772669
54.910 9.572849
54.915 8.804857
54.920 8.636632
54.925 8.806014
54.930 8.864074
54.935 8.883995
54.940 8.54732
54.945 8.626931
54.950 8.60457
54.955 8.44333
54.960 7.780762
54.965 7.779921
54.970 7.658498
54.975 8.010135
54.980 8.007605
54.985 7.761753
54.990 7.507703
54.995 7.944609
55.000 8.161292
55.005 8.192307
55.010 7.668891
55.015 7.829255
55.020 7.91687
55.025 8.131759
55.030 8.178658
55.035 8.456176
55.040 8.65379
55.045 8.764071
55.050 9.007064
55.055 9.186418
55.060 9.474079
55.065 9.105278
55.070 8.521788
55.075 8.665528
55.080 9.02038
55.085 8.079019
55.090 7.876235
55.095 7.566245
55.100 7.657245
55.105 7.928852
55.110 7.965425
55.115 7.846296
55.120 8.066373
55.125 8.146748
55.130 8.515757
55.135 8.511987
55.140 8.359119
55.145 8.185061
55.150 8.275993
55.155 8.678702
55.160 8.618107
55.165 8.229647
55.170 8.200013
55.175 8.14545
55.180 8.521297
55.185 8.749917
55.190 8.990902
55.195 9.11287
55.200 9.380716
55.205 9.729423
55.210 9.900876
55.215 9.749478
55.220 9.478219
55.225 9.299391
55.230 9.377914
55.235 9.414355
55.240 8.857004
55.245 8.558846
55.250 8.442387
55.255 8.768781
55.260 8.575566
55.265 8.794746
55.270 9.090741
55.275 9.386831
55.280 9.290977
55.285 9.181321
55.290 8.691716
55.295 8.773823
55.300 8.708989
55.305 8.249187
55.310 8.244729
55.315 8.150229
55.320 8.6691
55.325 8.761119
55.330 8.766821
55.335 8.289029
55.340 8.422059
55.345 8.504553
55.350 8.747743
55.355 8.149997
55.360 8.164713
55.365 7.668169
55.370 7.786259
55.375 7.545962
55.380 7.33556
55.385 7.588416
55.390 8.153258
55.395 8.470938
55.400 8.868148
55.405 9.159565
55.410 9.160349
55.415 8.913957
55.420 8.250961
55.425 8.148574
55.430 7.913842
55.435 8.036731
55.440 7.882703
55.445 8.321101
55.450 9.042147
55.455 9.105636
55.460 8.842916
55.465 8.793014
55.470 8.859857
55.475 8.850778
55.480 8.366308
55.485 7.995965
55.490 8.197093
55.495 8.15403
55.500 8.26618
55.505 8.293731
55.510 8.031339
55.515 8.094204
55.520 8.57358
55.525 8.714112
55.530 9.198071
55.535 8.993371
55.540 8.835746
55.545 9.406655
55.550 10.011081
55.555 9.752727
55.560 9.243866
55.565 8.812654
55.570 9.43826
55.575 9.215109
55.580 8.610284
55.585 8.101178
55.590 8.477959
55.595 8.821858
55.600 8.891525
55.605 8.510261
55.610 9.098849
55.615 9.16424
55.620 9.050461
55.625 9.045488
55.630 8.578464
55.635 8.706855
55.640 8.600163
55.645 8.677027
55.650 9.097947
55.655 8.881525
55.660 8.778125
55.665 9.1961
55.670 9.030586
55.675 9.102365
55.680 9.200621
55.685 9.467741
55.690 9.609478
55.695 9.925623
55.700 10.20322
55.705 10.158027
55.710 10.241719
55.715 10.326557
55.720 10.657978
55.725 10.857809
55.730 10.850809
55.735 10.754935
55.740 10.914777
55.745 10.778603
55.750 10.377619
55.755 9.865585
55.760 9.924222
55.765 9.533206
55.770 9.375569
55.775 9.334109
55.780 9.364079
55.785 9.536156
55.790 9.409394
55.795 9.255742
55.800 9.348567
55.805 9.294095
55.810 9.34939
55.815 9.004847
55.820 8.69698
55.825 8.402899
55.830 8.380328
55.835 9.084993
55.840 9.478284
55.845 9.841542
55.850 10.110915
55.855 10.699926
55.860 11.499986
55.865 11.406346
55.870 10.488454
55.875 10.291631
55.880 10.40674
55.885 10.491755
55.890 10.099142
55.895 9.486774
55.900 9.695806
55.905 10.018561
55.910 10.007969
55.915 9.916404
55.920 9.707181
55.925 9.832293
55.930 9.992257
55.935 9.775846
55.940 9.876441
55.945 10.326258
55.950 10.417382
55.955 10.695254
55.960 10.73707
55.965 10.827467
55.970 10.808708
55.975 10.631171
55.980 10.623727
55.985 10.104678
55.990 9.947091
55.995 9.767747
56.000 10.168562
56.005 10.573754
56.010 10.362212
56.015 9.946478
56.020 10.196115
56.025 10.366464
56.030 10.418646
56.035 9.880845
56.040 9.3424
56.045 9.160882
56.050 9.273551
56.055 9.172812
56.060 9.19862
56.065 9.423781
56.070 9.300485
56.075 9.296001
56.080 9.566845
56.085 9.539119
56.090 9.513554
56.095 9.080373
56.100 8.633204
56.105 8.639546
56.110 9.114577
56.115 9.01358
56.120 9.05961
56.125 8.990817
56.130 9.284599
56.135 9.391835
56.140 9.376163
56.145 9.222498
56.150 9.481297
56.155 9.552583
56.160 9.684303
56.165 9.568704
56.170 9.600192
56.175 9.457928
56.180 9.501202
56.185 9.481375
56.190 9.556505
56.195 9.78132
56.200 10.287684
56.205 10.76944
56.210 11.273604
56.215 10.918735
56.220 10.729976
56.225 10.804871
56.230 10.527367
56.235 9.829611
56.240 9.341806
56.245 9.129405
56.250 9.245453
56.255 9.308135
56.260 9.51127
56.265 9.761954
56.270 10.161727
56.275 10.010335
56.280 9.873599
56.285 10.207561
56.290 10.243484
56.295 9.842453
56.300 9.901734
56.305 10.180998
56.310 10.425073
56.315 10.786128
56.320 10.427045
56.325 10.32145
56.330 10.456
56.335 10.457082
56.340 10.513205
56.345 10.702213
56.350 10.286345
56.355 10.235065
56.360 9.869198
56.365 9.917158
56.370 9.443107
56.375 9.144422
56.380 9.235
56.385 9.223069
56.390 9.298892
56.395 9.359464
56.400 9.338874
56.405 10.043299
56.410 9.898929
56.415 10.019774
56.420 10.144813
56.425 10.103951
56.430 10.665907
56.435 10.886098
56.440 10.713591
56.445 10.956132
56.450 11.132189
56.455 11.101926
56.460 11.277855
56.465 11.139312
56.470 10.757915
56.475 10.331542
56.480 9.98511
56.485 9.584887
56.490 9.577806
56.495 9.301378
56.500 8.932708
56.505 8.907201
56.510 9.034999
56.515 9.080616
56.520 9.031989
56.525 8.736566
56.530 8.607948
56.535 8.884908
56.540 8.968224
56.545 9.014558
56.550 9.083632
56.555 9.410832
56.560 10.031371
56.565 10.881447
56.570 10.885189
56.575 10.932944
56.580 11.458809
56.585 11.650742
56.590 11.71142
56.595 11.589088
56.600 11.232709
56.605 11.551786
56.610 11.254855
56.615 10.627788
56.620 10.423622
56.625 10.256018
56.630 10.319877
56.635 10.195376
56.640 9.609033
56.645 9.639009
56.650 9.847511
56.655 9.778393
56.660 9.599314
56.665 9.286219
56.670 9.382583
56.675 9.800743
56.680 10.052542
56.685 9.925982
56.690 9.89505
56.695 10.347438
56.700 10.478901
56.705 10.147826
56.710 10.077974
56.715 10.012257
56.720 9.872126
56.725 10.01048
56.730 10.42927
56.735 10.73622
56.740 10.906568
56.745 11.031815
56.750 11.053064
56.755 11.079749
56.760 11.233557
56.765 10.612924
56.770 10.6999
56.775 10.637382
56.780 11.003965
56.785 11.052223
56.790 11.188286
56.795 11.068178
56.800 10.815087
56.805 10.871696
56.810 10.490129
56.815 10.085465
56.820 10.105258
56.825 9.879686
56.830 9.611197
56.835 9.580925
56.840 9.516882
56.845 10.026671
56.850 10.0453
56.855 10.011974
56.860 9.824635
56.865 10.0639
56.870 10.505802
56.875 10.510645
56.880 10.32023
56.885 10.468047
56.890 10.675283
56.895 10.43939
56.900 10.372828
56.905 10.255825
56.910 10.351483
56.915 10.76902
56.920 10.754615
56.925 11.226278
56.930 11.787694
56.935 11.579508
56.940 11.352321
56.945 11.14303
56.950 11.055326
56.955 10.919168
56.960 10.692225
56.965 10.736718
56.970 10.941653
56.975 11.532423
56.980 11.74107
56.985 11.760267
56.990 11.569978
56.995 11.450429
57.000 11.264606
57.005 10.975178
57.010 10.590027
57.015 10.271853
57.020 10.418292
57.025 10.813063
57.030 10.87066
57.035 10.970635
57.040 10.760338
57.045 11.036498
57.050 11.058739
57.055 10.806776
57.060 10.671095
57.065 11.091625
57.070 11.671555
57.075 12.199938
57.080 11.940809
57.085 11.657607
57.090 11.537003
57.095 11.268819
57.100 10.835581
57.105 10.457241
57.110 10.234332
57.115 10.189536
57.120 10.340683
57.125 10.563043
57.130 10.416154
57.135 10.35418
57.140 10.336386
57.145 9.942564
57.150 10.029487
57.155 10.346484
57.160 10.185971
57.165 10.600097
57.170 10.420517
57.175 10.414356
57.180 10.859409
57.185 10.747465
57.190 10.630176
57.195 10.605997
57.200 10.378381
57.205 10.426569
57.210 10.186852
57.215 10.371855
57.220 10.587082
57.225 10.485447
57.230 10.348967
57.235 10.671998
57.240 10.93967
57.245 11.242023
57.250 10.563507
57.255 10.229278
57.260 10.291796
57.265 10.664696
57.270 10.977725
57.275 10.995807
57.280 11.405356
57.285 12.026473
57.290 12.212421
57.295 12.527397
57.300 12.269502
57.305 11.858669
57.310 11.710389
57.315 11.0123
57.320 10.714688
57.325 10.39947
57.330 10.421099
57.335 10.492406
57.340 10.607085
57.345 10.877892
57.350 11.145145
57.355 11.650678
57.360 11.907221
57.365 12.059504
57.370 12.570355
57.375 12.5481
57.380 12.917268
57.385 13.336263
57.390 13.683956
57.395 13.788282
57.400 13.697431
57.405 13.687195
57.410 13.500248
57.415 13.083601
57.420 12.300042
57.425 11.589398
57.430 10.724298
57.435 10.470545
57.440 10.325034
57.445 10.449168
57.450 10.537689
57.455 10.680918
57.460 10.834213
57.465 11.60225
57.470 11.585809
57.475 11.760705
57.480 12.204772
57.485 12.671811
57.490 13.035364
57.495 13.642873
57.500 13.558414
57.505 13.342582
57.510 13.036795
57.515 12.494786
57.520 11.884027
57.525 11.250789
57.530 10.929153
57.535 11.376564
57.540 11.660944
57.545 11.681463
57.550 11.453054
57.555 11.852072
57.560 12.242224
57.565 12.250204
57.570 12.43316
57.575 12.343718
57.580 12.431713
57.585 12.583142
57.590 13.083005
57.595 12.825797
57.600 12.668149
57.605 12.34979
57.610 12.721875
57.615 12.593542
57.620 12.852711
57.625 11.97372
57.630 12.538074
57.635 13.044303
57.640 13.036996
57.645 12.562302
57.650 12.402173
57.655 12.568724
57.660 13.350585
57.665 12.555099
57.670 12.126728
57.675 11.967626
57.680 11.641596
57.685 11.547076
57.690 11.066497
57.695 10.722156
57.700 11.404238
57.705 11.161193
57.710 11.309039
57.715 11.956453
57.720 11.965525
57.725 12.139109
57.730 12.582905
57.735 12.480698
57.740 12.261134
57.745 12.164783
57.750 11.736914
57.755 11.813492
57.760 11.807243
57.765 11.160776
57.770 10.677006
57.775 10.94716
57.780 10.983902
57.785 11.293078
57.790 11.489931
57.795 11.71335
57.800 12.193851
57.805 12.349248
57.810 12.089908
57.815 12.161557
57.820 12.478854
57.825 12.421816
57.830 12.150632
57.835 12.017157
57.840 12.062624
57.845 12.100694
57.850 12.117138
57.855 11.627627
57.860 11.145647
57.865 10.869786
57.870 10.493827
57.875 10.726783
57.880 10.902294
57.885 10.909433
57.890 11.144507
57.895 11.639759
57.900 12.384164
57.905 12.9712
57.910 12.933695
57.915 13.141933
57.920 13.398339
57.925 14.266053
57.930 13.957346
57.935 13.541667
57.940 13.52541
57.945 13.551
57.950 13.506639
57.955 12.893792
57.960 12.178898
57.965 12.092442
57.970 12.186027
57.975 11.780744
57.980 11.577277
57.985 11.628862
57.990 11.91167
57.995 12.379136
58.000 12.694473
58.005 12.74885
58.010 13.242233
58.015 13.572202
58.020 13.624278
58.025 13.584221
58.030 13.273533
58.035 13.222578
58.040 13.298429
58.045 12.864971
58.050 12.818085
58.055 12.911901
58.060 13.032636
58.065 13.054699
58.070 13.657134
58.075 14.429175
58.080 14.490922
58.085 14.181969
58.090 13.922578
58.095 14.122654
58.100 14.338287
58.105 13.492998
58.110 13.119534
58.115 13.223888
58.120 13.291469
58.125 13.414344
58.130 13.22983
58.135 13.049206
58.140 13.626481
58.145 13.804234
58.150 13.996612
58.155 14.20305
58.160 14.619452
58.165 14.841831
58.170 15.07907
58.175 15.277729
58.180 15.190311
58.185 15.338078
58.190 15.474957
58.195 15.171093
58.200 14.706207
58.205 13.992908
58.210 13.453581
58.215 13.222669
58.220 13.011278
58.225 12.673598
58.230 12.837299
58.235 13.168777
58.240 13.376519
58.245 12.953387
58.250 13.038497
58.255 13.152214
58.260 13.174666
58.265 13.397819
58.270 13.56982
58.275 13.656522
58.280 13.72947
58.285 13.295707
58.290 13.361986
58.295 13.51173
58.300 13.579955
58.305 14.007352
58.310 14.597142
58.315 15.188132
58.320 15.500973
58.325 15.160069
58.330 14.645799
58.335 14.553379
58.340 14.285978
58.345 14.194255
58.350 14.584003
58.355 14.445817
58.360 14.452075
58.365 14.413268
58.370 14.040054
58.375 13.882296
58.380 14.284801
58.385 13.769853
58.390 14.525237
58.395 14.856327
58.400 15.481133
58.405 16.079002
58.410 16.246626
58.415 15.749561
58.420 17.39259
58.425 17.394991
58.430 17.593109
58.435 17.612494
58.440 17.775024
58.445 17.776815
58.450 17.588003
58.455 16.721899
58.460 17.727383
58.465 17.974165
58.470 18.031113
58.475 17.957474
58.480 18.601358
58.485 19.762171
58.490 20.662975
58.495 21.075329
58.500 21.71018
58.505 22.347847
58.510 22.984884
58.515 23.049944
58.520 22.916555
58.525 23.222343
58.530 23.268442
58.535 23.501009
58.540 23.672415
58.545 24.374519
58.550 25.035898
58.555 25.619244
58.560 25.729637
58.565 25.727819
58.570 25.820503
58.575 26.538401
58.580 26.238575
58.585 26.015268
58.590 25.764292
58.595 25.78352
58.600 26.145048
58.605 26.053856
58.610 25.915194
58.615 26.415798
58.620 26.516886
58.625 27.202238
58.630 27.673067
58.635 27.568977
58.640 27.612471
58.645 27.437496
58.650 27.074245
58.655 27.106085
58.660 27.10763
58.665 26.579794
58.670 26.640381
58.675 27.480022
58.680 27.582214
58.685 27.593363
58.690 28.222261
58.695 28.691622
58.700 29.131945
58.705 29.134558
58.710 28.360455
58.715 27.999062
58.720 28.012175
58.725 27.695591
58.730 27.752998
58.735 27.996033
58.740 28.268047
58.745 28.693102
58.750 29.063196
58.755 29.101353
58.760 29.122904
58.765 29.230749
58.770 29.286236
58.775 29.266769
58.780 29.045357
58.785 28.900398
58.790 28.152033
58.795 27.621481
58.800 26.958441
58.805 27.033377
58.810 26.639317
58.815 27.005247
58.820 27.049097
58.825 26.894081
58.830 26.13442
58.835 24.880087
58.840 24.527517
58.845 24.520395
58.850 23.50363
58.855 22.539421
58.860 22.096819
58.865 22.171963
58.870 22.154295
58.875 21.564194
58.880 20.365948
58.885 20.820471
58.890 21.841154
58.895 21.638544
58.900 21.549887
58.905 20.425335
58.910 19.857868
58.915 20.232475
58.920 19.763256
58.925 19.294817
58.930 19.265398
58.935 18.619717
58.940 18.824575
58.945 18.503773
58.950 18.19632
58.955 17.493719
58.960 17.106489
58.965 16.664829
58.970 17.048685
58.975 16.756643
58.980 16.563246
58.985 16.153692
58.990 15.978341
58.995 15.626463
59.000 15.675431
59.005 15.8079
59.010 15.8237
59.015 15.701146
59.020 15.702797
59.025 16.096466
59.030 16.61974
59.035 16.436563
59.040 16.377163
59.045 16.424431
59.050 16.825516
59.055 16.136681
59.060 15.370679
59.065 14.754246
59.070 14.958381
59.075 14.344381
59.080 14.168779
59.085 14.023844
59.090 14.255505
59.095 14.393107
59.100 14.191814
59.105 14.092398
59.110 14.141169
59.115 13.8419
59.120 13.207902
59.125 13.171172
59.130 13.66666
59.135 14.083611
59.140 13.745108
59.145 13.418638
59.150 13.26446
59.155 14.143498
59.160 14.404615
59.165 13.980637
59.170 13.738945
59.175 14.121818
59.180 14.182569
59.185 13.747425
59.190 13.393981
59.195 13.608961
59.200 13.328154
59.205 13.199097
59.210 12.902517
59.215 13.377612
59.220 14.125599
59.225 14.143842
59.230 13.78826
59.235 14.233513
59.240 14.562885
59.245 14.329535
59.250 13.518157
59.255 12.922694
59.260 12.587891
59.265 12.647165
59.270 12.760226
59.275 12.606133
59.280 13.053845
59.285 13.393658
59.290 13.335592
59.295 13.562781
59.300 13.436449
59.305 13.362979
59.310 13.19401
59.315 13.347355
59.320 13.7652
59.325 13.995341
59.330 14.25848
59.335 14.283763
59.340 14.206703
59.345 13.8921
59.350 13.288195
59.355 13.156078
59.360 13.280107
59.365 13.164493
59.370 13.293615
59.375 13.035567
59.380 13.320796
59.385 13.748652
59.390 14.075647
59.395 14.040447
59.400 13.55908
59.405 12.801589
59.410 12.576146
59.415 12.968669
59.420 12.934575
59.425 12.482502
59.430 12.49557
59.435 12.296562
59.440 13.029633
59.445 13.483807
59.450 13.013705
59.455 12.938396
59.460 13.124308
59.465 13.006142
59.470 13.109726
59.475 12.706072
59.480 12.61348
59.485 12.633353
59.490 12.837954
59.495 12.840301
59.500 13.139738
59.505 13.444262
59.510 13.879638
59.515 13.946848
59.520 14.033906
59.525 13.872699
59.530 13.733002
59.535 13.426361
59.540 13.28135
59.545 13.2734
59.550 13.463052
59.555 13.277687
59.560 13.521816
59.565 13.395133
59.570 13.511936
59.575 13.921102
59.580 13.821918
59.585 14.016647
59.590 13.757291
59.595 13.274854
59.600 13.136132
59.605 13.035018
59.610 12.773769
59.615 12.630663
59.620 12.260941
59.625 12.572539
59.630 13.250771
59.635 13.74198
59.640 13.652497
59.645 13.721824
59.650 13.45413
59.655 13.019507
59.660 12.847424
59.665 12.165646
59.670 12.004109
59.675 12.044164
59.680 12.269787
59.685 12.764297
59.690 13.262052
59.695 13.325709
59.700 13.494721
59.705 13.433261
59.710 13.790156
59.715 13.110106
59.720 12.940303
59.725 12.762082
59.730 12.793529
59.735 12.945328
59.740 13.519229
59.745 13.463219
59.750 13.848114
59.755 13.676309
59.760 13.337293
59.765 13.144299
59.770 12.88002
59.775 12.198476
59.780 12.554899
59.785 12.463998
59.790 12.750326
59.795 12.918365
59.800 12.881659
59.805 12.857256
59.810 12.997798
59.815 12.60951
59.820 12.85344
59.825 13.116702
59.830 13.273272
59.835 13.281301
59.840 12.750462
59.845 12.40326
59.850 12.27995
59.855 12.697384
59.860 12.615776
59.865 12.801133
59.870 12.990993
59.875 13.520006
59.880 13.846717
59.885 13.544868
59.890 13.560832
59.895 13.623624
59.900 13.129256
59.905 12.971622
59.910 12.516615
59.915 12.565944
59.920 12.793285
59.925 12.018679
59.930 11.632833
59.935 12.391115
59.940 12.58585
59.945 12.965289
59.950 12.641967
59.955 13.108907
59.960 13.463207
59.965 13.819775
59.970 13.790045
59.975 13.979986
59.980 13.47211
59.985 13.524957
59.990 13.301932
59.995 13.431232
60.000 13.572321
60.005 13.444146
60.010 13.597794
60.015 14.250447
60.020 14.464981
60.025 14.053749
60.030 13.486306
60.035 12.926922
60.040 12.870653
60.045 12.767138
60.050 12.806377
60.055 13.128606
60.060 13.872469
60.065 14.197428
60.070 14.225924
60.075 14.025351
60.080 13.511017
60.085 13.390355
60.090 12.905326
60.095 12.245436
60.100 12.11127
60.105 12.166677
60.110 12.351377
60.115 12.939786
60.120 13.711587
60.125 14.281694
60.130 14.706948
60.135 14.77853
60.140 14.950069
60.145 14.82164
60.150 14.28817
60.155 13.093475
60.160 12.928421
60.165 12.835078
60.170 13.169412
60.175 13.365735
60.180 13.0917
60.185 12.927285
60.190 13.181669
60.195 12.793159
60.200 12.41361
60.205 12.198029
60.210 12.035765
60.215 12.475213
60.220 12.907358
60.225 13.066283
60.230 13.302544
60.235 14.050365
60.240 14.053441
60.245 14.605329
60.250 14.418725
60.255 14.380923
60.260 14.510899
60.265 14.393794
60.270 13.913581
60.275 14.299042
60.280 13.956253
60.285 13.830079
60.290 13.563166
60.295 13.245902
60.300 13.464781
60.305 13.630576
60.310 13.454902
60.315 13.240665
60.320 12.937067
60.325 13.091746
60.330 13.343138
60.335 13.491046
60.340 12.981043
60.345 12.956515
60.350 13.277801
60.355 13.557618
60.360 13.410909
60.365 13.092777
60.370 12.819369
60.375 13.120622
60.380 12.839048
60.385 12.461374
60.390 12.610346
60.395 13.221081
60.400 13.416498
60.405 12.970675
60.410 12.547949
60.415 12.315219
60.420 12.746504
60.425 12.270329
60.430 11.854732
60.435 11.946545
60.440 12.41768
60.445 12.712401
60.450 13.178863
60.455 12.968501
60.460 13.530283
60.465 13.593101
60.470 13.88271
60.475 14.005023
60.480 13.912575
60.485 13.552772
60.490 13.666863
60.495 13.439574
60.500 13.395063
60.505 13.159371
60.510 12.905269
60.515 12.947345
60.520 13.306709
60.525 13.179425
60.530 13.194786
60.535 12.980397
60.540 12.859471
60.545 13.258059
60.550 13.480589
60.555 13.168756
60.560 12.857771
60.565 12.518867
60.570 12.525934
60.575 12.259094
60.580 11.908955
60.585 11.749572
60.590 11.827387
60.595 12.194388
60.600 12.141786
60.605 12.276754
60.610 12.478091
60.615 12.57826
60.620 12.878711
60.625 13.252265
60.630 13.316151
60.635 13.181582
60.640 13.717175
60.645 13.771042
60.650 13.988274
60.655 13.925159
60.660 13.49414
60.665 13.674881
60.670 14.539822
60.675 13.973101
60.680 13.61138
60.685 13.325844
60.690 12.91552
60.695 13.119633
60.700 12.908068
60.705 12.559614
60.710 12.503255
60.715 12.95622
60.720 13.293878
60.725 13.756449
60.730 14.005631
60.735 13.96016
60.740 13.776739
60.745 13.994246
60.750 14.126867
60.755 13.83577
60.760 13.72466
60.765 13.412268
60.770 13.239935
60.775 13.337844
60.780 13.054868
60.785 13.035255
60.790 12.862542
60.795 13.261081
60.800 13.555977
60.805 13.853515
60.810 13.826079
60.815 13.486383
60.820 13.285316
60.825 13.58386
60.830 13.858109
60.835 14.268466
60.840 14.031177
60.845 13.792039
60.850 14.49513
60.855 14.579866
60.860 14.05656
60.865 13.24286
60.870 12.692259
60.875 12.914018
60.880 13.015967
60.885 12.647944
60.890 12.757175
60.895 13.153509
60.900 13.294265
60.905 13.661042
60.910 13.841985
60.915 14.084322
60.920 14.612952
60.925 14.589398
60.930 14.391697
60.935 14.365474
60.940 14.002333
60.945 14.012749
60.950 14.547526
60.955 14.017982
60.960 13.881642
60.965 14.223204
60.970 14.560103
60.975 14.459569
60.980 14.248413
60.985 14.209615
60.990 14.730147
60.995 14.880789
61.000 14.744448
61.005 15.060716
61.010 15.210121
61.015 15.046503
61.020 14.788785
61.025 14.659682
61.030 14.696302
61.035 14.302689
61.040 14.101436
61.045 14.071164
61.050 13.719524
61.055 13.019138
61.060 12.649424
61.065 12.248906
61.070 12.158471
61.075 11.581113
61.080 11.510798
61.085 12.100974
61.090 12.376018
61.095 12.166026
61.100 12.611573
61.105 13.087045
61.110 13.738363
61.115 13.989517
61.120 13.897044
61.125 13.978923
61.130 14.374353
61.135 14.423169
61.140 14.267157
61.145 13.883094
61.150 13.699681
61.155 13.445798
61.160 13.620998
61.165 13.676376
61.170 13.887984
61.175 14.387587
61.180 14.560207
61.185 14.700484
61.190 14.956629
61.195 15.104804
61.200 15.428944
61.205 15.580226
61.210 15.347377
61.215 15.127004
61.220 15.369227
61.225 15.284443
61.230 15.154843
61.235 14.588017
61.240 13.806378
61.245 13.594113
61.250 13.544586
61.255 13.491392
61.260 13.731037
61.265 14.173072
61.270 14.256974
61.275 14.581391
61.280 14.689514
61.285 14.809826
61.290 14.500875
61.295 14.298155
61.300 14.319049
61.305 14.176044
61.310 13.766068
61.315 13.623754
61.320 13.710307
61.325 13.737357
61.330 13.756394
61.335 13.566702
61.340 13.571982
61.345 13.5473
61.350 13.656502
61.355 13.614459
61.360 13.905632
61.365 14.275415
61.370 14.114443
61.375 14.314306
61.380 14.728703
61.385 15.175965
61.390 15.097121
61.395 14.628892
61.400 13.852646
61.405 13.59583
61.410 13.899349
61.415 13.902004
61.420 13.741446
61.425 13.808802
61.430 13.94184
61.435 13.992784
61.440 13.836743
61.445 13.616895
61.450 13.730887
61.455 13.24707
61.460 13.070269
61.465 13.51638
61.470 13.72411
61.475 13.852427
61.480 13.734481
61.485 13.467861
61.490 13.425911
61.495 14.065176
61.500 14.070838
61.505 14.443899
61.510 14.529233
61.515 14.644062
61.520 14.458936
61.525 14.491367
61.530 14.103696
61.535 13.992383
61.540 13.848733
61.545 13.954845
61.550 14.476839
61.555 15.385596
61.560 15.774042
61.565 15.908078
61.570 15.797097
61.575 15.555635
61.580 15.318027
61.585 14.154224
61.590 13.512985
61.595 13.444658
61.600 13.188451
61.605 13.525267
61.610 13.738214
61.615 13.954601
61.620 14.362463
61.625 13.807745
61.630 13.214333
61.635 12.956236
61.640 12.650852
61.645 12.221707
61.650 12.039478
61.655 12.244061
61.660 12.509874
61.665 12.819683
61.670 12.813611
61.675 12.993808
61.680 13.227388
61.685 13.549238
61.690 13.492051
61.695 13.912698
61.700 14.147582
61.705 14.282284
61.710 14.098188
61.715 14.454615
61.720 14.78105
61.725 15.113891
61.730 14.788243
61.735 14.937594
61.740 14.96296
61.745 15.019395
61.750 14.760525
61.755 14.34547
61.760 14.372688
61.765 14.837876
61.770 14.79954
61.775 14.539063
61.780 14.492557
61.785 14.876648
61.790 14.909215
61.795 14.371588
61.800 14.29386
61.805 14.499037
61.810 14.596759
61.815 14.569477
61.820 14.455642
61.825 14.910711
61.830 15.25964
61.835 14.665315
61.840 14.546033
61.845 14.643104
61.850 15.219738
61.855 15.259016
61.860 14.89672
61.865 15.13819
61.870 15.758456
61.875 16.200596
61.880 16.310553
61.885 16.03817
61.890 15.848558
61.895 15.623572
61.900 15.442793
61.905 14.608017
61.910 13.768576
61.915 13.727918
61.920 13.582754
61.925 13.581954
61.930 13.637565
61.935 13.613275
61.940 13.901294
61.945 14.220536
61.950 14.127306
61.955 14.259199
61.960 14.11699
61.965 13.510015
61.970 13.274706
61.975 13.723952
61.980 13.87883
61.985 13.994987
61.990 13.669624
61.995 14.275461
62.000 14.911012
62.005 15.039982
62.010 14.82017
62.015 14.613475
62.020 14.122076
62.025 14.688953
62.030 14.831303
62.035 15.15008
62.040 14.993307
62.045 14.77411
62.050 14.773586
62.055 15.030045
62.060 14.58599
62.065 13.799928
62.070 12.949334
62.075 12.79217
62.080 13.095211
62.085 12.962639
62.090 12.455881
62.095 12.523754
62.100 12.760686
62.105 13.272814
62.110 13.0656
62.115 12.879002
62.120 13.22081
62.125 13.371427
62.130 13.523338
62.135 13.499754
62.140 13.728942
62.145 14.210247
62.150 14.433887
62.155 14.690184
62.160 15.236666
62.165 14.873331
62.170 14.947073
62.175 14.787845
62.180 14.649443
62.185 14.718794
62.190 14.22591
62.195 13.998178
62.200 14.010117
62.205 13.877884
62.210 14.055577
62.215 14.241558
62.220 14.348283
62.225 14.369322
62.230 14.200541
62.235 14.13458
62.240 14.294231
62.245 14.312586
62.250 14.133453
62.255 13.767687
62.260 13.952027
62.265 14.316357
62.270 14.36429
62.275 14.421911
62.280 14.352678
62.285 14.695718
62.290 14.664153
62.295 14.914779
62.300 15.157956
62.305 15.941175
62.310 16.582962
62.315 16.222424
62.320 16.341738
62.325 16.456041
62.330 15.97656
62.335 15.626576
62.340 14.589668
62.345 14.184365
62.350 14.262007
62.355 14.171403
62.360 14.580663
62.365 14.479198
62.370 14.577577
62.375 14.229528
62.380 13.667384
62.385 13.565193
62.390 13.374907
62.395 13.450964
62.400 13.997116
62.405 13.866652
62.410 14.601496
62.415 14.899766
62.420 14.74763
62.425 14.480655
62.430 14.023786
62.435 13.711825
62.440 13.481247
62.445 13.480728
62.450 13.759646
62.455 14.569984
62.460 14.963531
62.465 14.797036
62.470 14.855774
62.475 15.230861
62.480 15.706802
62.485 15.769802
62.490 15.147851
62.495 14.83094
62.500 15.210036
62.505 15.332491
62.510 15.309275
62.515 14.553601
62.520 14.451367
62.525 14.777273
62.530 14.739696
62.535 14.799594
62.540 14.445433
62.545 14.303444
62.550 14.233887
62.555 14.249301
62.560 14.16859
62.565 14.302043
62.570 13.88593
62.575 13.866282
62.580 13.612154
62.585 13.420671
62.590 13.561365
62.595 13.94174
62.600 14.283668
62.605 14.849514
62.610 15.006375
62.615 15.265883
62.620 15.692243
62.625 16.242964
62.630 16.46011
62.635 16.389023
62.640 15.790852
62.645 15.994374
62.650 15.692328
62.655 15.116779
62.660 14.103537
62.665 13.322341
62.670 12.883487
62.675 13.489473
62.680 13.576061
62.685 14.144637
62.690 14.573607
62.695 14.843122
62.700 15.183394
62.705 15.70652
62.710 15.400116
62.715 15.360651
62.720 15.633215
62.725 15.547643
62.730 15.377185
62.735 15.163157
62.740 15.215994
62.745 15.410618
62.750 15.215151
62.755 14.99616
62.760 15.620696
62.765 15.687754
62.770 15.603789
62.775 15.234134
62.780 14.853315
62.785 14.729692
62.790 14.504747
62.795 14.427407
62.800 14.498433
62.805 14.775613
62.810 15.056528
62.815 15.372702
62.820 15.823704
62.825 15.863712
62.830 15.980775
62.835 16.240191
62.840 16.483572
62.845 16.252317
62.850 16.316586
62.855 16.150318
62.860 16.270544
62.865 15.806395
62.870 15.353541
62.875 15.041986
62.880 15.272681
62.885 15.056148
62.890 14.897079
62.895 14.61263
62.900 14.427134
62.905 14.027849
62.910 13.270863
62.915 13.233047
62.920 13.071053
62.925 13.227693
62.930 13.297874
62.935 13.860555
62.940 14.682892
62.945 15.095345
62.950 15.40671
62.955 15.437678
62.960 15.282361
62.965 15.345299
62.970 15.309482
62.975 15.836978
62.980 16.042587
62.985 15.815504
62.990 16.201002
62.995 16.315084
63.000 16.651485
63.005 16.041002
63.010 15.314269
63.015 15.223493
63.020 15.306193
63.025 15.583724
63.030 14.979959
63.035 14.445466
63.040 14.769134
63.045 14.82746
63.050 14.930188
63.055 14.740346
63.060 14.444482
63.065 14.770409
63.070 15.623927
63.075 15.89315
63.080 15.456716
63.085 15.331972
63.090 15.140172
63.095 15.30612
63.100 15.680691
63.105 14.977501
63.110 15.304799
63.115 15.249664
63.120 15.456214
63.125 15.784256
63.130 15.306019
63.135 14.758991
63.140 14.363616
63.145 14.300436
63.150 14.661543
63.155 14.809166
63.160 14.564023
63.165 15.102218
63.170 15.88063
63.175 15.88042
63.180 15.629898
63.185 16.078871
63.190 15.871719
63.195 15.870433
63.200 15.324609
63.205 14.966126
63.210 15.04955
63.215 15.630151
63.220 15.905557
63.225 16.297287
63.230 16.703518
63.235 16.554415
63.240 16.357817
63.245 16.752148
63.250 15.946996
63.255 15.267603
63.260 15.028073
63.265 14.786491
63.270 15.188515
63.275 15.807947
63.280 16.470238
63.285 16.94664
63.290 16.637949
63.295 16.431244
63.300 16.563097
63.305 16.627455
63.310 15.81267
63.315 15.224895
63.320 15.084494
63.325 15.493878
63.330 15.772907
63.335 15.655521
63.340 15.701733
63.345 16.122593
63.350 16.138947
63.355 16.366085
63.360 16.251698
63.365 16.240839
63.370 16.621353
63.375 16.427776
63.380 16.108511
63.385 15.776556
63.390 15.910009
63.395 16.069517
63.400 15.771574
63.405 15.053474
63.410 14.80374
63.415 15.070446
63.420 15.182092
63.425 14.999878
63.430 15.148601
63.435 15.484315
63.440 15.764417
63.445 15.964807
63.450 15.912577
63.455 16.053347
63.460 16.134439
63.465 16.354568
63.470 16.268438
63.475 16.43491
63.480 16.509399
63.485 16.355156
63.490 16.304148
63.495 15.470248
63.500 14.98765
63.505 15.063055
63.510 14.925294
63.515 14.841002
63.520 14.531253
63.525 14.633677
63.530 15.806068
63.535 16.6353
63.540 16.907158
63.545 17.099321
63.550 16.841232
63.555 17.010815
63.560 16.987146
63.565 16.204716
63.570 15.172232
63.575 14.838898
63.580 14.765926
63.585 14.988549
63.590 14.957269
63.595 15.569843
63.600 15.617532
63.605 16.076546
63.610 16.141556
63.615 16.349365
63.620 16.635807
63.625 16.383007
63.630 15.378154
63.635 15.544442
63.640 15.452739
63.645 15.363425
63.650 15.210572
63.655 15.081276
63.660 15.193438
63.665 15.194209
63.670 14.924949
63.675 14.95301
63.680 15.222755
63.685 15.503135
63.690 15.453382
63.695 15.619122
63.700 15.799316
63.705 16.135515
63.710 15.932848
63.715 16.189655
63.720 16.084246
63.725 16.214647
63.730 16.647051
63.735 16.79933
63.740 16.754091
63.745 16.30604
63.750 15.755707
63.755 15.643953
63.760 15.61235
63.765 15.130417
63.770 14.984219
63.775 14.721579
63.780 14.823915
63.785 14.656229
63.790 14.732865
63.795 14.812036
63.800 14.98562
63.805 15.198938
63.810 15.227662
63.815 15.830098
63.820 16.56535
63.825 16.981024
63.830 17.145098
63.835 17.22901
63.840 17.232851
63.845 17.367546
63.850 16.991327
63.855 16.321119
63.860 16.08968
63.865 15.821879
63.870 15.61942
63.875 15.849008
63.880 15.840878
63.885 16.351398
63.890 16.497576
63.895 16.628195
63.900 16.874866
63.905 17.216667
63.910 17.419147
63.915 17.59816
63.920 17.207338
63.925 17.095972
63.930 17.0235
63.935 16.890522
63.940 16.798717
63.945 16.522701
63.950 16.497519
63.955 16.583519
63.960 17.080107
63.965 17.522064
63.970 17.764008
63.975 17.974827
63.980 18.080561
63.985 18.301743
63.990 18.717075
63.995 18.22056
64.000 17.682417
64.005 17.745113
64.010 17.768196
64.015 18.205383
64.020 18.662483
64.025 19.083441
64.030 19.307804
64.035 19.458296
64.040 19.053877
64.045 19.530005
64.050 19.776936
64.055 19.203562
64.060 18.389086
64.065 18.607325
64.070 18.884562
64.075 19.705267
64.080 19.501316
64.085 19.44422
64.090 19.710735
64.095 20.002079
64.100 19.947035
64.105 20.244873
64.110 20.072802
64.115 20.72934
64.120 21.426378
64.125 21.345457
64.130 21.663363
64.135 21.918835
64.140 22.186331
64.145 22.339828
64.150 22.175827
64.155 21.94733
64.160 22.487514
64.165 22.958181
64.170 23.272585
64.175 23.563398
64.180 23.431517
64.185 23.813135
64.190 24.454823
64.195 25.026842
64.200 25.237818
64.205 25.872498
64.210 26.354794
64.215 26.821936
64.220 26.983084
64.225 28.154219
64.230 29.096186
64.235 29.67893
64.240 30.027956
64.245 30.083239
64.250 30.687906
64.255 32.103115
64.260 32.168736
64.265 32.35886
64.270 32.904591
64.275 33.420124
64.280 33.526917
64.285 33.938118
64.290 33.880108
64.295 34.286808
64.300 35.097855
64.305 35.595253
64.310 35.692245
64.315 36.91679
64.320 37.099464
64.325 36.941929
64.330 37.135765
64.335 37.121433
64.340 37.833668
64.345 38.318859
64.350 37.777805
64.355 38.255505
64.360 39.233654
64.365 40.128727
64.370 41.052608
64.375 41.651962
64.380 42.947914
64.385 44.361752
64.390 45.3633
64.395 46.29734
64.400 45.955132
64.405 46.263531
64.410 46.707554
64.415 46.085091
64.420 45.572803
64.425 45.104874
64.430 44.889004
64.435 45.792782
64.440 46.535107
64.445 46.406975
64.450 45.973156
64.455 45.916695
64.460 45.851749
64.465 46.307449
64.470 46.61338
64.475 45.640362
64.480 46.003281
64.485 47.605183
64.490 48.290977
64.495 48.3521
64.500 47.708668
64.505 46.539822
64.510 45.847572
64.515 45.123676
64.520 43.740223
64.525 42.294712
64.530 41.780537
64.535 42.099213
64.540 41.752472
64.545 41.756306
64.550 41.15596
64.555 41.088043
64.560 41.139515
64.565 41.447327
64.570 41.506325
64.575 40.82412
64.580 39.765575
64.585 39.382473
64.590 39.404835
64.595 39.738579
64.600 38.849277
64.605 36.842236
64.610 36.509018
64.615 36.324928
64.620 36.244041
64.625 35.96191
64.630 35.262978
64.635 34.45998
64.640 33.935539
64.645 33.456173
64.650 32.741932
64.655 32.083687
64.660 31.251284
64.665 30.099634
64.670 30.32309
64.675 30.00598
64.680 29.873758
64.685 29.633377
64.690 29.141184
64.695 28.987293
64.700 29.183897
64.705 28.875536
64.710 28.951761
64.715 27.982119
64.720 27.356524
64.725 27.16419
64.730 27.342697
64.735 26.644543
64.740 25.902908
64.745 25.083315
64.750 25.218943
64.755 24.381901
64.760 23.221474
64.765 22.333437
64.770 22.486471
64.775 22.399387
64.780 22.271214
64.785 22.221039
64.790 23.088524
64.795 23.635332
64.800 23.83783
64.805 23.845541
64.810 23.050222
64.815 22.744717
64.820 22.08387
64.825 21.594439
64.830 21.244305
64.835 20.619482
64.840 20.783087
64.845 21.079813
64.850 21.202463
64.855 21.759731
64.860 21.82769
64.865 21.696587
64.870 21.55541
64.875 21.306849
64.880 21.134478
64.885 20.949636
64.890 20.628929
64.895 19.899466
64.900 20.118753
64.905 20.853405
64.910 20.949705
64.915 21.562511
64.920 21.65604
64.925 21.511547
64.930 22.054337
64.935 22.081242
64.940 21.402294
64.945 21.297585
64.950 21.223429
64.955 21.591089
64.960 21.461102
64.965 21.175489
64.970 21.229023
64.975 21.602987
64.980 22.354757
64.985 22.542196
64.990 22.686773
64.995 23.61521
65.000 24.158371
65.005 24.605297
65.010 24.796507
65.015 24.077152
65.020 23.946033
65.025 24.479235
65.030 24.929491
65.035 25.613667
65.040 26.142368
65.045 26.825588
65.050 27.584826
65.055 27.895281
65.060 28.04055
65.065 28.440468
65.070 28.311693
65.075 28.309065
65.080 28.310408
65.085 28.531782
65.090 28.701656
65.095 28.419472
65.100 28.126122
65.105 27.626942
65.110 27.338156
65.115 27.417492
65.120 27.183411
65.125 27.376238
65.130 26.921188
65.135 26.812145
65.140 27.180988
65.145 27.071575
65.150 26.804592
65.155 27.114981
65.160 26.758839
65.165 27.802023
65.170 28.228928
65.175 28.027487
65.180 28.603874
65.185 29.06731
65.190 29.522472
65.195 30.50362
65.200 30.088345
65.205 30.7689
65.210 30.777147
65.215 30.915945
65.220 30.823036
65.225 31.126427
65.230 31.900448
65.235 32.898895
65.240 33.278912
65.245 33.777851
65.250 33.690979
65.255 34.223366
65.260 33.957539
65.265 33.891064
65.270 33.220833
65.275 33.179226
65.280 33.301132
65.285 33.352303
65.290 33.076927
65.295 33.429565
65.300 33.634556
65.305 34.514423
65.310 35.350754
65.315 36.7285
65.320 37.757019
65.325 37.922283
65.330 38.40184
65.335 38.420078
65.340 37.83968
65.345 37.710243
65.350 37.489208
65.355 36.728321
65.360 37.148098
65.365 36.855492
65.370 36.846245
65.375 37.186676
65.380 37.612679
65.385 37.621891
65.390 38.031773
65.395 38.322788
65.400 39.37347
65.405 40.258186
65.410 40.551914
65.415 40.357361
65.420 40.911758
65.425 41.277702
65.430 41.023792
65.435 40.56636
65.440 41.146381
65.445 40.749176
65.450 40.227211
65.455 39.823254
65.460 39.79755
65.465 39.568573
65.470 39.099377
65.475 38.325386
65.480 38.823704
65.485 39.523861
65.490 39.511887
65.495 38.878574
65.500 38.360878
65.505 39.086506
65.510 39.265221
65.515 38.247398
65.520 37.576748
65.525 37.220253
65.530 37.624622
65.535 38.172676
65.540 37.22039
65.545 36.474049
65.550 37.208775
65.555 37.665039
65.560 37.449558
65.565 37.17971
65.570 36.911652
65.575 37.336578
65.580 38.182064
65.585 37.541386
65.590 37.234333
65.595 37.245293
65.600 37.501957
65.605 37.810276
65.610 38.194057
65.615 37.917953
65.620 37.064739
65.625 36.610165
65.630 36.245106
65.635 35.27507
65.640 34.274136
65.645 32.975716
65.650 32.329052
65.655 32.420509
65.660 31.854158
65.665 31.804911
65.670 32.165253
65.675 32.03957
65.680 31.346338
65.685 30.653772
65.690 31.21603
65.695 31.494804
65.700 31.603249
65.705 32.02409
65.710 32.382633
65.715 32.582809
65.720 31.696995
65.725 30.561224
65.730 30.41
65.735 29.725353
65.740 28.225786
65.745 27.595266
65.750 27.032944
65.755 27.145233
65.760 26.758223
65.765 26.438648
65.770 26.323469
65.775 26.3477
65.780 26.288399
65.785 25.840067
65.790 25.674946
65.795 25.72407
65.800 25.523775
65.805 25.433321
65.810 25.0278
65.815 24.48884
65.820 24.75573
65.825 24.849445
65.830 24.337912
65.835 23.581614
65.840 23.809225
65.845 24.466408
65.850 24.848213
65.855 23.929527
65.860 23.472176
65.865 23.344479
65.870 23.297075
65.875 22.9053
65.880 22.677486
65.885 22.643398
65.890 22.653744
65.895 21.800892
65.900 21.856483
65.905 22.126057
65.910 22.00436
65.915 21.565672
65.920 20.815176
65.925 20.914358
65.930 21.760744
65.935 21.751589
65.940 21.231226
65.945 20.723627
65.950 20.594484
65.955 20.589188
65.960 20.722111
65.965 20.355141
65.970 19.570841
65.975 19.419409
65.980 19.740013
65.985 20.104223
65.990 20.241457
65.995 19.862652
66.000 19.830193
66.005 19.785299
66.010 19.878595
66.015 18.976414
66.020 18.655838
66.025 18.388159
66.030 18.255348
66.035 18.007181
66.040 17.987932
66.045 17.472897
66.050 17.660788
66.055 17.627775
66.060 17.273285
66.065 17.297091
66.070 17.795647
66.075 17.721613
66.080 18.436878
66.085 18.29612
66.090 18.490925
66.095 18.564701
66.100 18.918634
66.105 18.605368
66.110 18.803757
66.115 18.506411
66.120 18.402636
66.125 18.387098
66.130 18.034668
66.135 17.683306
66.140 17.474913
66.145 17.196239
66.150 17.212677
66.155 17.137159
66.160 17.210236
66.165 17.580086
66.170 17.511938
66.175 18.196459
66.180 18.542358
66.185 19.318726
66.190 19.763857
66.195 19.688675
66.200 19.407209
66.205 19.512411
66.210 19.259274
66.215 19.005079
66.220 18.222492
66.225 17.638206
66.230 17.517487
66.235 18.126289
66.240 17.682764
66.245 17.464466
66.250 16.797407
66.255 16.858418
66.260 17.071733
66.265 17.068556
66.270 16.704388
66.275 16.864502
66.280 16.481621
66.285 17.259417
66.290 17.265224
66.295 17.261023
66.300 17.104034
66.305 17.323708
66.310 17.666607
66.315 17.836149
66.320 17.808043
66.325 18.102036
66.330 18.147453
66.335 17.84763
66.340 17.17565
66.345 17.181755
66.350 17.175158
66.355 17.091576
66.360 16.893513
66.365 17.050432
66.370 17.492882
66.375 17.42712
66.380 17.070541
66.385 17.345791
66.390 17.133329
66.395 17.036945
66.400 16.930607
66.405 16.846773
66.410 16.991255
66.415 16.963081
66.420 16.514658
66.425 16.817955
66.430 16.740688
66.435 16.501076
66.440 16.646484
66.445 16.591736
66.450 16.300915
66.455 16.369528
66.460 16.622835
66.465 16.787741
66.470 16.619431
66.475 16.5368
66.480 16.511774
66.485 16.60549
66.490 16.577215
66.495 16.272697
66.500 16.038523
66.505 16.074821
66.510 15.824375
66.515 16.552927
66.520 16.826874
66.525 16.933979
66.530 16.902678
66.535 17.182041
66.540 16.712557
66.545 16.254066
66.550 16.241642
66.555 16.146929
66.560 16.027964
66.565 16.008652
66.570 16.253366
66.575 16.462484
66.580 16.679115
66.585 16.56662
66.590 16.511236
66.595 16.743349
66.600 16.600979
66.605 16.768721
66.610 17.20645
66.615 17.430733
66.620 17.307657
66.625 17.482405
66.630 17.227741
66.635 17.049646
66.640 17.157879
66.645 17.163391
66.650 17.030956
66.655 17.081163
66.660 16.566244
66.665 16.780321
66.670 16.697104
66.675 16.433756
66.680 16.786142
66.685 17.096537
66.690 16.768675
66.695 16.656641
66.700 15.931512
66.705 16.136272
66.710 16.814114
66.715 16.435978
66.720 16.022373
66.725 15.9719
66.730 16.369766
66.735 16.67403
66.740 16.631571
66.745 16.023064
66.750 15.867157
66.755 15.786447
66.760 15.917769
66.765 16.376839
66.770 16.632505
66.775 16.534286
66.780 16.397041
66.785 16.484289
66.790 17.070734
66.795 17.437208
66.800 17.002239
66.805 16.874432
66.810 16.85932
66.815 16.876074
66.820 17.072464
66.825 17.310602
66.830 18.300728
66.835 18.586643
66.840 18.480644
66.845 18.093019
66.850 18.328283
66.855 18.017609
66.860 17.458893
66.865 16.853737
66.870 16.555387
66.875 16.553886
66.880 17.13475
66.885 16.973364
66.890 17.347038
66.895 17.282974
66.900 17.127686
66.905 16.854132
66.910 16.850275
66.915 16.426884
66.920 16.263437
66.925 16.099419
66.930 15.449742
66.935 15.564366
66.940 16.129154
66.945 16.340317
66.950 16.024704
66.955 16.10548
66.960 16.737286
66.965 17.306519
66.970 16.783108
66.975 16.915644
66.980 16.999668
66.985 17.499399
66.990 17.156391
66.995 16.519506
67.000 16.600811
67.005 17.150105
67.010 17.440811
67.015 17.301748
67.020 17.190754
67.025 17.184923
67.030 17.32662
67.035 17.150118
67.040 16.929003
67.045 16.681231
67.050 16.258785
67.055 16.118097
67.060 16.599491
67.065 17.176994
67.070 17.332253
67.075 17.188328
67.080 17.339361
67.085 17.896547
67.090 17.999775
67.095 17.391689
67.100 16.755873
67.105 16.677242
67.110 17.122595
67.115 16.720819
67.120 16.561523
67.125 16.422745
67.130 16.697176
67.135 16.829536
67.140 16.806667
67.145 16.494238
67.150 16.406078
67.155 16.728453
67.160 16.869156
67.165 16.833456
67.170 16.610878
67.175 16.60833
67.180 16.308857
67.185 16.045763
67.190 16.393539
67.195 16.983162
67.200 17.213442
67.205 16.845413
67.210 16.60647
67.215 17.018459
67.220 17.316889
67.225 17.14677
67.230 16.795877
67.235 17.062426
67.240 16.961861
67.245 17.447496
67.250 17.719406
67.255 17.732088
67.260 17.595188
67.265 17.195988
67.270 16.926283
67.275 17.430574
67.280 16.744465
67.285 16.515533
67.290 16.271421
67.295 15.874178
67.300 15.797036
67.305 15.663948
67.310 15.482915
67.315 15.996176
67.320 15.963208
67.325 15.949142
67.330 16.56702
67.335 17.173672
67.340 17.315443
67.345 17.639191
67.350 17.240961
67.355 17.75161
67.360 18.10144
67.365 17.761612
67.370 17.589603
67.375 17.610086
67.380 17.802485
67.385 17.754568
67.390 17.7229
67.395 17.620718
67.400 17.546793
67.405 17.655968
67.410 17.571592
67.415 17.146311
67.420 17.385462
67.425 17.162653
67.430 17.306452
67.435 17.122398
67.440 17.372269
67.445 17.46133
67.450 17.809292
67.455 17.99704
67.460 17.82501
67.465 17.334646
67.470 17.559175
67.475 17.448965
67.480 17.68745
67.485 17.263285
67.490 17.138897
67.495 16.856106
67.500 17.173477
67.505 17.03451
67.510 16.882072
67.515 16.760206
67.520 16.689863
67.525 17.001986
67.530 16.904669
67.535 16.965302
67.540 17.129124
67.545 17.06415
67.550 17.50773
67.555 18.208055
67.560 18.130259
67.565 18.721138
67.570 18.784124
67.575 19.134153
67.580 19.522129
67.585 19.301464
67.590 18.56398
67.595 18.52404
67.600 17.937515
67.605 18.031263
67.610 17.616495
67.615 17.347122
67.620 16.702051
67.625 16.438316
67.630 17.00853
67.635 17.281458
67.640 16.692196
67.645 16.596189
67.650 16.871176
67.655 17.362436
67.660 17.159389
67.665 16.172995
67.670 16.318762
67.675 16.572338
67.680 16.769011
67.685 16.441521
67.690 16.609032
67.695 17.017717
67.700 17.815929
67.705 17.381126
67.710 17.216803
67.715 16.798277
67.720 16.670254
67.725 16.890627
67.730 17.424889
67.735 16.998047
67.740 17.153505
67.745 17.013016
67.750 17.229548
67.755 17.424833
67.760 17.195126
67.765 16.907553
67.770 17.16869
67.775 17.152298
67.780 17.737459
67.785 17.774689
67.790 17.794889
67.795 17.713827
67.800 17.171244
67.805 16.870726
67.810 16.884005
67.815 16.249887
67.820 15.792956
67.825 15.342006
67.830 15.126107
67.835 15.54261
67.840 15.586971
67.845 15.354475
67.850 15.892698
67.855 16.117443
67.860 16.585882
67.865 16.844002
67.870 17.222773
67.875 16.995716
67.880 16.632765
67.885 16.085804
67.890 16.091042
67.895 16.173883
67.900 16.197334
67.905 16.155466
67.910 16.516802
67.915 17.285051
67.920 17.412951
67.925 17.503677
67.930 17.610914
67.935 17.678829
67.940 17.633488
67.945 17.372812
67.950 16.98897
67.955 16.847303
67.960 17.110346
67.965 17.118834
67.970 17.32032
67.975 17.60759
67.980 17.694763
67.985 18.026884
67.990 18.302942
67.995 17.875305
68.000 17.693911
68.005 17.731888
68.010 17.581533
68.015 18.226366
68.020 18.592714
68.025 18.65097
68.030 18.632259
68.035 18.484344
68.040 18.161663
68.045 18.224075
68.050 17.671045
68.055 17.339111
68.060 16.643339
68.065 16.431067
68.070 17.095736
68.075 16.895052
68.080 17.174599
68.085 17.24474
68.090 17.431993
68.095 18.722494
68.100 19.516249
68.105 19.040659
68.110 19.536766
68.115 18.893829
68.120 18.741844
68.125 18.298136
68.130 17.596792
68.135 16.59004
68.140 16.080427
68.145 15.860048
68.150 16.615805
68.155 17.213091
68.160 17.732075
68.165 17.241934
68.170 18.333691
68.175 18.893209
68.180 19.274254
68.185 19.208935
68.190 19.211079
68.195 19.39435
68.200 19.443821
68.205 19.358767
68.210 19.895378
68.215 19.872065
68.220 20.487684
68.225 20.358103
68.230 20.434595
68.235 20.766077
68.240 20.789442
68.245 20.284672
68.250 20.150867
68.255 19.858305
68.260 19.925667
68.265 20.32003
68.270 20.177441
68.275 20.172604
68.280 20.847231
68.285 20.91625
68.290 20.987322
68.295 21.2328
68.300 20.994818
68.305 21.107708
68.310 20.745457
68.315 21.116413
68.320 21.539202
68.325 21.898567
68.330 21.604895
68.335 22.354889
68.340 23.082521
68.345 23.813051
68.350 24.082218
68.355 24.080744
68.360 23.799288
68.365 24.480043
68.370 24.538189
68.375 24.692463
68.380 24.909319
68.385 24.712553
68.390 24.80345
68.395 25.181953
68.400 25.074493
68.405 24.797976
68.410 25.297653
68.415 25.552212
68.420 25.866636
68.425 26.223454
68.430 26.572624
68.435 27.441086
68.440 27.712337
68.445 27.411203
68.450 28.179214
68.455 28.186113
68.460 28.169317
68.465 28.700996
68.470 28.65637
68.475 28.693712
68.480 28.673475
68.485 29.167248
68.490 29.519865
68.495 29.912556
68.500 30.255476
68.505 31.04649
68.510 31.463923
68.515 31.861919
68.520 32.276379
68.525 32.650578
68.530 33.217335
68.535 32.642265
68.540 32.188358
68.545 32.235401
68.550 31.725561
68.555 30.799696
68.560 30.995386
68.565 30.349812
68.570 30.455435
68.575 30.895075
68.580 31.086441
68.585 31.345375
68.590 31.189917
68.595 30.856691
68.600 31.351347
68.605 31.493338
68.610 31.339334
68.615 30.931164
68.620 31.129446
68.625 31.518509
68.630 31.871178
68.635 31.579191
68.640 31.188232
68.645 31.190735
68.650 31.724855
68.655 32.702877
68.660 33.025764
68.665 32.654305
68.670 33.247448
68.675 33.7295
68.680 34.3946
68.685 35.275761
68.690 35.053104
68.695 35.341385
68.700 35.414043
68.705 35.736149
68.710 35.820358
68.715 35.337803
68.720 34.449123
68.725 34.258881
68.730 34.553436
68.735 34.833233
68.740 34.857006
68.745 35.27095
68.750 34.946503
68.755 34.477215
68.760 34.448849
68.765 34.435959
68.770 34.112831
68.775 34.148521
68.780 34.488884
68.785 34.889305
68.790 35.939407
68.795 35.684048
68.800 35.598854
68.805 36.006191
68.810 36.094055
68.815 35.327667
68.820 35.27084
68.825 35.123131
68.830 35.527206
68.835 35.287781
68.840 34.55542
68.845 33.828957
68.850 33.634136
68.855 33.536701
68.860 32.636372
68.865 31.978542
68.870 31.576571
68.875 31.22076
68.880 31.506689
68.885 31.72562
68.890 31.849575
68.895 31.72805
68.900 31.742884
68.905 32.042698
68.910 32.009621
68.915 31.47703
68.920 30.754438
68.925 30.24913
68.930 30.114395
68.935 29.933485
68.940 29.310753
68.945 28.947529
68.950 29.687052
68.955 30.095469
68.960 29.800171
68.965 29.710203
68.970 29.385082
68.975 29.236078
68.980 28.881418
68.985 27.734358
68.990 27.271511
68.995 27.186333
69.000 26.866703
69.005 26.46117
69.010 26.299091
69.015 26.362715
69.020 26.008711
69.025 25.726128
69.030 25.664297
69.035 25.091022
69.040 25.036648
69.045 24.462355
69.050 24.085062
69.055 24.346405
69.060 24.40468
69.065 24.548424
69.070 24.653873
69.075 24.964373
69.080 25.30913
69.085 25.739948
69.090 25.55888
69.095 24.826021
69.100 24.571127
69.105 24.362589
69.110 24.180864
69.115 23.543736
69.120 22.62837
69.125 21.219231
69.130 20.987263
69.135 19.875389
69.140 18.874218
69.145 17.78965
69.150 17.683653
69.155 18.145292
69.160 19.161482
69.165 20.183052
69.170 20.79574
69.175 20.738291
69.180 20.837324
69.185 20.642075
69.190 20.517078
69.195 20.106558
69.200 19.166155
69.205 19.497833
69.210 20.11804
69.215 19.760418
69.220 20.108683
69.225 20.025074
69.230 20.196703
69.235 20.063906
69.240 19.597456
69.245 18.923357
69.250 19.043991
69.255 18.945848
69.260 18.488115
69.265 18.414701
69.270 18.405876
69.275 18.44669
69.280 18.952065
69.285 19.483976
69.290 19.202747
69.295 18.989876
69.300 19.097652
69.305 19.139267
69.310 19.349928
69.315 18.972303
69.320 18.086096
69.325 18.02079
69.330 17.804295
69.335 17.605843
69.340 17.433746
69.345 17.396175
69.350 17.692493
69.355 18.419348
69.360 19.204496
69.365 19.659586
69.370 20.084095
69.375 20.279934
69.380 20.113407
69.385 19.975328
69.390 19.850349
69.395 19.355997
69.400 19.067007
69.405 18.570965
69.410 18.033766
69.415 17.862247
69.420 17.506899
69.425 17.255342
69.430 17.220997
69.435 17.853773
69.440 18.389408
69.445 18.024488
69.450 17.78331
69.455 17.490486
69.460 17.38373
69.465 17.470257
69.470 17.237162
69.475 17.323452
69.480 17.378183
69.485 17.664793
69.490 18.522526
69.495 18.736736
69.500 18.885805
69.505 18.046333
69.510 17.620438
69.515 18.158613
69.520 17.84071
69.525 17.606796
69.530 17.288916
69.535 17.028086
69.540 17.61755
69.545 17.588825
69.550 17.84268
69.555 18.25099
69.560 18.938984
69.565 18.970432
69.570 18.803049
69.575 18.674345
69.580 18.209869
69.585 17.388876
69.590 17.162777
69.595 16.641436
69.600 16.806122
69.605 16.531471
69.610 16.77693
69.615 17.126719
69.620 17.672174
69.625 17.430296
69.630 16.879427
69.635 17.21851
69.640 17.86236
69.645 17.651964
69.650 17.745375
69.655 17.137457
69.660 16.727842
69.665 16.487343
69.670 15.947414
69.675 16.090801
69.680 16.279657
69.685 16.669134
69.690 17.208559
69.695 17.884974
69.700 18.707432
69.705 18.748463
69.710 18.542049
69.715 18.604826
69.720 18.349661
69.725 17.961691
69.730 17.973536
69.735 18.285069
69.740 18.511728
69.745 18.507917
69.750 18.655991
69.755 18.257053
69.760 18.352684
69.765 18.482069
69.770 17.986145
69.775 18.081909
69.780 17.847151
69.785 17.805544
69.790 18.394917
69.795 18.026443
69.800 17.347363
69.805 17.563351
69.810 17.877617
69.815 17.886448
69.820 17.530043
69.825 17.355659
69.830 17.836987
69.835 18.294563
69.840 18.34133
69.845 18.301006
69.850 18.272648
69.855 18.551096
69.860 17.751541
69.865 17.50197
69.870 17.278109
69.875 17.110878
69.880 17.023867
69.885 16.976019
69.890 17.188223
69.895 18.129585
69.900 18.331398
69.905 18.35767
69.910 18.060936
69.915 17.33346
69.920 17.030903
69.925 16.897324
69.930 16.486952
69.935 16.142797
69.940 15.699567
69.945 15.835666
69.950 16.761282
69.955 16.577221
69.960 16.605978
69.965 16.650837
69.970 17.074409
69.975 17.59433
69.980 17.285475
69.985 17.031635
69.990 17.371298
69.995 17.044781
70.000 16.886065
70.005 15.951803
70.010 15.290291
70.015 15.24474
70.020 15.354622
70.025 15.684497
70.030 15.508298
70.035 15.508743
70.040 16.105988
70.045 16.49081
70.050 16.670464
70.055 16.760452
70.060 16.832344
70.065 17.079012
70.070 17.727022
70.075 18.09543
70.080 18.589899
70.085 18.939156
70.090 18.708672
70.095 18.886116
70.100 18.684357
70.105 18.366985
70.110 18.2463
70.115 18.093287
70.120 17.511829
70.125 17.045313
70.130 17.023033
70.135 16.931374
70.140 16.823101
70.145 16.595257
70.150 16.166397
70.155 16.560658
70.160 17.241888
70.165 17.011995
70.170 17.024988
70.175 17.099833
70.180 17.187241
70.185 17.43166
70.190 16.985384
70.195 16.650295
70.200 17.428167
70.205 18.086021
70.210 18.003696
70.215 18.273592
70.220 18.351799
70.225 18.365433
70.230 18.21262
70.235 17.203892
70.240 16.814692
70.245 17.020769
70.250 17.139578
70.255 17.878843
70.260 17.850189
70.265 17.701954
70.270 18.188801
70.275 18.386713
70.280 17.828585
70.285 17.216038
70.290 16.745249
70.295 17.010948
70.300 16.683235
70.305 16.355852
70.310 16.235355
70.315 17.034986
70.320 16.929661
70.325 17.00672
70.330 17.33922
70.335 17.68742
70.340 17.506493
70.345 17.451998
70.350 17.160149
70.355 17.629419
70.360 17.83075
70.365 17.886429
70.370 18.110331
70.375 18.194391
70.380 18.05887
70.385 17.911003
70.390 17.705927
70.395 17.77033
70.400 17.698727
70.405 17.729214
70.410 17.704536
70.415 17.51519
70.420 17.452065
70.425 17.020597
70.430 16.656157
70.435 16.509897
70.440 16.426155
70.445 16.416386
70.450 16.350176
70.455 16.340277
70.460 16.382513
70.465 16.57583
70.470 16.770653
70.475 16.014191
70.480 15.65941
70.485 15.407754
70.490 15.531539
70.495 15.505959
70.500 15.498908
70.505 15.363393
70.510 16.421297
70.515 17.25486
70.520 17.663168
70.525 17.599329
70.530 17.646097
70.535 17.196432
70.540 17.183752
70.545 17.459862
70.550 17.157076
70.555 17.294302
70.560 17.433367
70.565 17.812824
70.570 18.667458
70.575 19.027588
70.580 18.848347
70.585 18.668877
70.590 18.124403
70.595 17.819862
70.600 17.672453
70.605 17.416056
70.610 17.103149
70.615 16.627893
70.620 17.328878
70.625 18.041384
70.630 18.08403
70.635 18.152065
70.640 18.385202
70.645 18.382671
70.650 18.804817
70.655 18.187637
70.660 17.941839
70.665 17.994949
70.670 17.980423
70.675 17.657177
70.680 18.105993
70.685 18.043655
70.690 18.149485
70.695 18.093945
70.700 17.938107
70.705 17.411972
70.710 17.360796
70.715 17.277821
70.720 17.800861
70.725 17.251453
70.730 17.322018
70.735 17.175451
70.740 17.184095
70.745 16.924803
70.750 16.427725
70.755 16.3932
70.760 16.682547
70.765 16.382498
70.770 16.542419
70.775 16.545389
70.780 16.534931
70.785 16.358725
70.790 16.327908
70.795 16.333359
70.800 16.568151
70.805 16.614891
70.810 16.533899
70.815 16.661631
70.820 16.5341
70.825 16.57826
70.830 16.494787
70.835 16.24255
70.840 16.344776
70.845 16.476364
70.850 16.357006
70.855 16.19245
70.860 16.438877
70.865 16.444511
70.870 16.624899
70.875 16.263832
70.880 16.204597
70.885 16.289032
70.890 16.323517
70.895 16.035763
70.900 15.930595
70.905 16.046743
70.910 16.375538
70.915 16.428932
70.920 16.166637
70.925 15.637623
70.930 15.746119
70.935 15.494564
70.940 15.495447
70.945 15.358515
70.950 15.353135
70.955 15.874902
70.960 16.603582
70.965 16.335798
70.970 16.509581
70.975 16.949686
70.980 17.44203
70.985 17.361317
70.990 16.469387
70.995 16.153189
71.000 16.266069
71.005 15.676288
71.010 14.981599
71.015 15.005894
71.020 15.345856
71.025 15.580934
71.030 15.17325
71.035 15.67407
71.040 16.643122
71.045 16.958176
71.050 16.811909
71.055 16.773022
71.060 17.49132
71.065 18.181211
71.070 17.807455
71.075 17.615982
71.080 17.239567
71.085 17.269123
71.090 17.279751
71.095 16.611586
71.100 15.921329
71.105 16.130812
71.110 15.932218
71.115 16.562574
71.120 16.529585
71.125 16.850203
71.130 16.915331
71.135 17.075777
71.140 16.954874
71.145 16.625776
71.150 16.309813
71.155 16.106897
71.160 15.085459
71.165 15.097906
71.170 15.602266
71.175 15.559989
71.180 15.958233
71.185 15.805149
71.190 16.13792
71.195 16.401882
71.200 16.272797
71.205 16.190825
71.210 17.163229
71.215 17.38139
71.220 17.517366
71.225 17.49155
71.230 17.725538
71.235 17.492571
71.240 17.054672
71.245 15.785384
71.250 15.555011
71.255 15.937319
71.260 16.167265
71.265 16.525244
71.270 16.867603
71.275 17.394703
71.280 18.0082
71.285 18.296232
71.290 17.802841
71.295 17.621489
71.300 17.286694
71.305 17.215351
71.310 17.214666
71.315 17.015642
71.320 16.639723
71.325 16.660603
71.330 17.757782
71.335 18.846569
71.340 18.199924
71.345 18.074514
71.350 18.386864
71.355 18.616873
71.360 18.732296
71.365 17.525013
71.370 16.967712
71.375 17.069704
71.380 16.829721
71.385 16.541542
71.390 16.033525
71.395 15.837756
71.400 16.07209
71.405 16.429857
71.410 16.850931
71.415 16.766422
71.420 16.645811
71.425 16.721786
71.430 17.201654
71.435 16.809797
71.440 16.879587
71.445 16.696571
71.450 16.923977
71.455 17.118322
71.460 17.858259
71.465 17.969294
71.470 18.038227
71.475 17.8605
71.480 17.735151
71.485 17.047407
71.490 16.176235
71.495 15.498867
71.500 15.555156
71.505 15.05703
71.510 14.657943
71.515 14.671937
71.520 15.358079
71.525 15.94823
71.530 15.309565
71.535 15.473484
71.540 16.119179
71.545 16.808121
71.550 17.353567
71.555 17.313095
71.560 17.361822
71.565 17.11874
71.570 16.860332
71.575 16.419724
71.580 16.25939
71.585 15.868411
71.590 15.955803
71.595 16.417366
71.600 17.147278
71.605 16.988668
71.610 16.655516
71.615 16.208437
71.620 16.103083
71.625 15.85991
71.630 15.434877
71.635 15.635415
71.640 16.327974
71.645 16.419704
71.650 16.968298
71.655 17.382456
71.660 17.331728
71.665 17.140909
71.670 16.378939
71.675 16.042852
71.680 16.502876
71.685 16.740164
71.690 16.897188
71.695 16.905611
71.700 17.341848
71.705 17.433022
71.710 17.070599
71.715 16.310472
71.720 16.05875
71.725 15.689357
71.730 15.565371
71.735 15.72524
71.740 15.913107
71.745 16.830326
71.750 17.030697
71.755 17.353046
71.760 17.665005
71.765 17.917431
71.770 18.098745
71.775 17.814356
71.780 17.129236
71.785 17.390352
71.790 17.401138
71.795 17.817501
71.800 18.225069
71.805 18.143553
71.810 18.568348
71.815 18.469398
71.820 18.191769
71.825 17.895157
71.830 17.394638
71.835 16.858034
71.840 17.160913
71.845 17.256424
71.850 17.072783
71.855 16.797132
71.860 16.92067
71.865 16.886684
71.870 16.585896
71.875 16.588745
71.880 16.058565
71.885 15.964453
71.890 16.221174
71.895 16.191153
71.900 16.203123
71.905 16.536566
71.910 16.918814
71.915 17.391623
71.920 17.630987
71.925 17.766073
71.930 17.545179
71.935 17.616297
71.940 17.151356
71.945 16.64843
71.950 16.788822
71.955 16.905872
71.960 16.580227
71.965 16.870125
71.970 17.301048
71.975 17.673647
71.980 18.533554
71.985 18.962158
71.990 19.059484
71.995 19.192616
72.000 18.7959
72.005 18.323463
72.010 17.812689
72.015 17.188055
72.020 17.124741
72.025 16.906805
72.030 16.847338
72.035 16.787516
72.040 16.852051
72.045 16.365709
72.050 15.968493
72.055 15.415539
72.060 15.054223
72.065 15.290241
72.070 15.501671
72.075 15.408848
72.080 15.310229
72.085 15.720256
72.090 15.971734
72.095 15.993494
72.100 16.435211
72.105 16.398945
72.110 16.396633
72.115 16.229696
72.120 15.866774
72.125 16.556742
72.130 16.281153
72.135 16.452803
72.140 16.528206
72.145 16.367086
72.150 16.364471
72.155 16.124958
72.160 16.180691
72.165 15.879457
72.170 15.790091
72.175 15.977026
72.180 16.457684
72.185 16.054201
72.190 16.160788
72.195 17.033276
72.200 17.101862
72.205 17.148123
72.210 17.10737
72.215 17.071472
72.220 17.445944
72.225 16.797359
72.230 16.436623
72.235 16.139788
72.240 16.062916
72.245 16.134699
72.250 16.458889
72.255 16.733429
72.260 16.498266
72.265 16.275738
72.270 16.55423
72.275 16.819839
72.280 16.828333
72.285 16.518854
72.290 16.337915
72.295 16.34741
72.300 16.328573
72.305 15.814745
72.310 15.302773
72.315 15.57739
72.320 16.637306
72.325 17.242794
72.330 17.00024
72.335 17.070066
72.340 17.30468
72.345 18.035378
72.350 18.117912
72.355 17.290323
72.360 16.964788
72.365 17.100313
72.370 16.927425
72.375 16.850801
72.380 16.617823
72.385 16.608515
72.390 16.606668
72.395 16.884853
72.400 17.64814
72.405 18.18541
72.410 17.921227
72.415 18.037598
72.420 18.01906
72.425 17.969845
72.430 17.675545
72.435 16.769531
72.440 16.811005
72.445 16.994043
72.450 16.710583
72.455 16.534456
72.460 16.14155
72.465 15.733542
72.470 15.886044
72.475 15.895711
72.480 15.922748
72.485 15.459598
72.490 15.558412
72.495 16.127798
72.500 16.365126
72.505 15.95815
72.510 15.441505
72.515 15.469374
72.520 16.301601
72.525 16.240292
72.530 16.761427
72.535 16.881113
72.540 17.221148
72.545 17.311932
72.550 17.072639
72.555 17.127056
72.560 17.034626
72.565 16.078695
72.570 16.406324
72.575 16.638103
72.580 17.209244
72.585 17.173973
72.590 16.719492
72.595 16.765079
72.600 17.278835
72.605 17.488926
72.610 16.913549
72.615 16.179108
72.620 16.411983
72.625 16.856039
72.630 17.335728
72.635 17.214306
72.640 16.510717
72.645 16.530506
72.650 16.264801
72.655 15.942953
72.660 15.698047
72.665 15.462978
72.670 16.179857
72.675 16.1535
72.680 16.077002
72.685 15.905828
72.690 15.620397
72.695 15.714725
72.700 15.246659
72.705 14.767946
72.710 14.950737
72.715 15.264694
72.720 15.354753
72.725 15.490975
72.730 15.214402
72.735 14.740644
72.740 14.656384
72.745 14.418768
72.750 14.261134
72.755 14.22848
72.760 14.216228
72.765 14.831684
72.770 15.92131
72.775 16.353069
72.780 16.259508
72.785 16.610058
72.790 16.843977
72.795 17.407701
72.800 17.123127
72.805 16.432098
72.810 16.476759
72.815 16.991709
72.820 16.894209
72.825 16.410286
72.830 15.222407
72.835 15.265505
72.840 15.483519
72.845 15.629159
72.850 15.470654
72.855 15.735997
72.860 16.675583
72.865 17.164688
72.870 17.339413
72.875 17.152336
72.880 16.605274
72.885 16.288157
72.890 16.049025
72.895 15.471288
72.900 15.07711
72.905 14.583486
72.910 14.802819
72.915 15.285619
72.920 15.477641
72.925 15.054214
72.930 15.278358
72.935 15.461867
72.940 15.76731
72.945 15.629232
72.950 15.237082
72.955 15.529178
72.960 15.814939
72.965 15.431664
72.970 15.096988
72.975 14.7067
72.980 14.56019
72.985 14.563787
72.990 14.042385
72.995 14.450119
73.000 15.138646
