!@!!GADDS PLOTSO FILE: Chi integration type
!@!!Title/SampleName: map-c8
!@!!Comment: ?
!@!!User: Bruker Instrument Administrator
!@!!Site: University of Illinois Chicago
!@!!Frame: map-c8_01_000.gfrm
!@!!Wavelengths    1.54184   1.54056   1.54439
!@!!Frame angles: 2Theta: 63.000 Omega: 50.000 Phi: 0.000 Chi: 90.000
!@!!Integration range: 2Theta: 53.000 to 73.000  Gamma: -105.000 to -75.000
!@!!Integration method: bin normalized
!@!N
!@!SS
!@!M
!@!L 0.0 0.0 0.0 0.0
!@!XDegrees
!@!YCounts
53.000 7.154841
53.005 6.695065
53.010 6.591441
53.015 6.191185
53.020 6.082018
53.025 5.738259
53.030 5.739233
53.035 5.87455
53.040 5.69813
53.045 5.402953
53.050 5.543555
53.055 5.520326
53.060 5.111733
53.065 4.910196
53.070 5.134097
53.075 5.240293
53.080 5.457863
53.085 5.217799
53.090 5.579915
53.095 6.12475
53.100 6.554309
53.105 6.874088
53.110 7.240331
53.115 7.509611
53.120 7.897166
53.125 7.679426
53.130 7.469212
53.135 7.217575
53.140 7.408914
53.145 7.032366
53.150 6.454915
53.155 6.358669
53.160 6.445073
53.165 6.453579
53.170 5.815503
53.175 5.436343
53.180 5.722222
53.185 6.306834
53.190 6.121889
53.195 6.218663
53.200 6.73167
53.205 7.257127
53.210 7.327963
53.215 7.159682
53.220 7.279718
53.225 7.453335
53.230 7.31945
53.235 7.414474
53.240 7.602355
53.245 7.605957
53.250 7.028036
53.255 6.406596
53.260 6.574858
53.265 6.17785
53.270 5.832217
53.275 5.844883
53.280 5.96797
53.285 6.265997
53.290 6.304221
53.295 6.617416
53.300 7.019935
53.305 7.044787
53.310 6.946535
53.315 7.14418
53.320 7.759938
53.325 8.017576
53.330 7.923744
53.335 7.608754
53.340 7.113983
53.345 7.226292
53.350 7.628405
53.355 7.328821
53.360 6.892033
53.365 6.973834
53.370 7.216318
53.375 7.315191
53.380 7.020214
53.385 6.270802
53.390 6.139189
53.395 6.371316
53.400 6.337124
53.405 6.220868
53.410 6.186103
53.415 6.092968
53.420 6.13017
53.425 6.111934
53.430 5.779678
53.435 6.029496
53.440 6.387404
53.445 6.560426
53.450 6.568983
53.455 6.634997
53.460 7.137889
53.465 7.307665
53.470 7.18997
53.475 7.200242
53.480 7.366158
53.485 7.433899
53.490 7.536149
53.495 7.178663
53.500 7.037279
53.505 6.475151
53.510 6.27774
53.515 6.390957
53.520 6.565968
53.525 6.038587
53.530 5.874957
53.535 6.280129
53.540 6.7822
53.545 6.962792
53.550 6.99905
53.555 7.220772
53.560 7.760052
53.565 8.23598
53.570 8.202484
53.575 8.255859
53.580 8.162782
53.585 7.951328
53.590 7.801108
53.595 7.764169
53.600 7.32603
53.605 7.245808
53.610 7.009735
53.615 6.918545
53.620 6.982705
53.625 6.795242
53.630 6.67263
53.635 6.989484
53.640 6.967436
53.645 7.167997
53.650 7.253281
53.655 7.423923
53.660 7.360621
53.665 6.963792
53.670 7.013062
53.675 6.860659
53.680 6.516941
53.685 6.724256
53.690 6.595204
53.695 7.018415
53.700 7.3961
53.705 7.420387
53.710 7.570195
53.715 7.794171
53.720 7.432514
53.725 7.338464
53.730 7.117887
53.735 6.599546
53.740 6.587066
53.745 6.357442
53.750 6.200327
53.755 5.968335
53.760 6.36871
53.765 6.272827
53.770 6.410447
53.775 6.800232
53.780 7.388998
53.785 7.506721
53.790 7.55524
53.795 7.473532
53.800 7.683021
53.805 7.662463
53.810 7.492801
53.815 6.952944
53.820 7.374795
53.825 7.435503
53.830 7.690197
53.835 7.739209
53.840 7.59288
53.845 7.647309
53.850 7.45835
53.855 7.528968
53.860 7.477956
53.865 6.866581
53.870 6.692119
53.875 7.025949
53.880 7.294859
53.885 7.31795
53.890 7.102613
53.895 7.017778
53.900 7.29169
53.905 7.472075
53.910 7.057837
53.915 6.837638
53.920 7.250251
53.925 7.310481
53.930 7.274037
53.935 7.500521
53.940 7.34377
53.945 7.429957
53.950 7.397857
53.955 7.175092
53.960 7.614509
53.965 8.095112
53.970 8.266645
53.975 8.608724
53.980 8.598345
53.985 8.598054
53.990 8.498879
53.995 8.58431
54.000 8.381441
54.005 8.147237
54.010 7.612792
54.015 7.679752
54.020 8.022765
54.025 7.999494
54.030 7.370283
54.035 7.246539
54.040 7.337353
54.045 7.647677
54.050 7.599382
54.055 7.739453
54.060 7.7714
54.065 7.93444
54.070 7.712251
54.075 7.703467
54.080 7.920521
54.085 7.677254
54.090 7.469605
54.095 7.562634
54.100 7.676341
54.105 7.983347
54.110 7.949376
54.115 7.801276
54.120 7.974328
54.125 7.923322
54.130 7.749967
54.135 7.477876
54.140 6.982764
54.145 6.863381
54.150 6.640004
54.155 6.388277
54.160 6.29832
54.165 6.576549
54.170 6.740997
54.175 7.439735
54.180 7.936805
54.185 8.098066
54.190 8.481984
54.195 8.334323
54.200 8.610271
54.205 8.859993
54.210 7.984278
54.215 7.984106
54.220 7.557233
54.225 7.532452
54.230 7.70713
54.235 7.607375
54.240 7.558687
54.245 7.622365
54.250 7.602294
54.255 7.969234
54.260 8.103119
54.265 8.366401
54.270 8.526267
54.275 8.69234
54.280 9.046433
54.285 9.108981
54.290 9.368283
54.295 9.484417
54.300 9.007079
54.305 8.527384
54.310 8.417366
54.315 8.268088
54.320 8.459614
54.325 8.495536
54.330 8.528669
54.335 8.305848
54.340 8.800282
54.345 8.60672
54.350 8.464774
54.355 7.953977
54.360 7.340765
54.365 7.161325
54.370 7.691203
54.375 7.829426
54.380 8.001538
54.385 7.850689
54.390 8.067227
54.395 8.061225
54.400 7.914829
54.405 7.544243
54.410 7.257266
54.415 7.317077
54.420 7.383911
54.425 7.41748
54.430 7.554835
54.435 7.68188
54.440 7.491951
54.445 7.418164
54.450 7.682034
54.455 7.565281
54.460 7.703927
54.465 7.97394
54.470 8.140053
54.475 8.719969
54.480 8.96363
54.485 8.851398
54.490 8.96351
54.495 9.157958
54.500 9.022282
54.505 8.973956
54.510 8.511962
54.515 8.428505
54.520 8.734369
54.525 8.669926
54.530 8.267764
54.535 7.952883
54.540 7.708828
54.545 8.364567
54.550 8.066094
54.555 7.351381
54.560 7.120612
54.565 7.396155
54.570 7.796199
54.575 7.94386
54.580 7.252604
54.585 7.57309
54.590 8.055245
54.595 8.325263
54.600 8.089251
54.605 7.854253
54.610 7.578638
54.615 7.524195
54.620 7.50401
54.625 7.59857
54.630 7.521852
54.635 7.495992
54.640 7.432115
54.645 7.727346
54.650 7.841371
54.655 7.876986
54.660 7.727445
54.665 7.371489
54.670 7.300426
54.675 7.469007
54.680 7.45406
54.685 7.236756
54.690 7.055989
54.695 7.719422
54.700 8.236913
54.705 8.449296
54.710 8.427383
54.715 8.35147
54.720 8.367513
54.725 8.354242
54.730 8.166449
54.735 8.348209
54.740 8.047284
54.745 8.212598
54.750 8.742551
54.755 9.370466
54.760 9.318175
54.765 9.06318
54.770 9.010941
54.775 9.007196
54.780 9.135993
54.785 8.763406
54.790 8.05577
54.795 8.274767
54.800 8.151524
54.805 8.270606
54.810 8.408984
54.815 8.117873
54.820 8.006416
54.825 8.450596
54.830 8.372664
54.835 8.471673
54.840 9.088461
54.845 9.263429
54.850 9.506072
54.855 9.415709
54.860 9.544598
54.865 9.806637
54.870 9.442363
54.875 8.799941
54.880 8.526356
54.885 8.365723
54.890 8.320519
54.895 8.061679
54.900 7.647371
54.905 7.493453
54.910 7.208037
54.915 7.416014
54.920 7.608389
54.925 8.150326
54.930 8.365005
54.935 8.427312
54.940 8.75351
54.945 8.964732
54.950 9.407663
54.955 9.357421
54.960 9.019518
54.965 8.846289
54.970 8.961113
54.975 8.843474
54.980 8.61118
54.985 8.168764
54.990 8.10977
54.995 8.130738
55.000 7.992757
55.005 7.938948
55.010 8.050703
55.015 7.972156
55.020 7.83639
55.025 7.704891
55.030 7.473722
55.035 7.350272
55.040 7.531461
55.045 7.43858
55.050 7.207709
55.055 7.057386
55.060 6.998986
55.065 7.121657
55.070 7.005411
55.075 7.091228
55.080 7.520807
55.085 8.016113
55.090 8.241128
55.095 8.577689
55.100 9.192778
55.105 9.650735
55.110 9.453409
55.115 9.143519
55.120 8.585768
55.125 8.486814
55.130 7.997573
55.135 7.691518
55.140 7.406204
55.145 7.614891
55.150 7.835733
55.155 8.170396
55.160 8.409973
55.165 8.952026
55.170 9.219356
55.175 9.229151
55.180 9.261473
55.185 9.620881
55.190 9.940718
55.195 9.930979
55.200 10.35815
55.205 10.358425
55.210 10.370056
55.215 10.153484
55.220 9.93696
55.225 9.660498
55.230 9.159567
55.235 8.55158
55.240 8.758041
55.245 9.204005
55.250 9.642893
55.255 9.301218
55.260 9.116631
55.265 8.964247
55.270 8.651054
55.275 8.438496
55.280 7.702328
55.285 7.385385
55.290 7.533778
55.295 7.714409
55.300 8.542017
55.305 8.522224
55.310 8.318012
55.315 8.768584
55.320 8.951519
55.325 9.012047
55.330 9.244061
55.335 8.911712
55.340 8.787223
55.345 8.592212
55.350 8.423787
55.355 8.26147
55.360 8.179071
55.365 7.687441
55.370 7.579766
55.375 7.921489
55.380 8.344409
55.385 8.40068
55.390 8.627882
55.395 8.907091
55.400 9.280262
55.405 9.338898
55.410 9.726051
55.415 9.788579
55.420 10.260985
55.425 10.594057
55.430 11.073082
55.435 10.723309
55.440 10.35291
55.445 9.817518
55.450 9.632308
55.455 9.073388
55.460 8.472422
55.465 8.262802
55.470 8.704701
55.475 9.092219
55.480 9.000681
55.485 9.109089
55.490 9.295424
55.495 9.25351
55.500 8.996447
55.505 9.014947
55.510 9.194801
55.515 9.217027
55.520 8.851524
55.525 8.640072
55.530 8.291041
55.535 8.135491
55.540 7.838402
55.545 7.734325
55.550 7.963032
55.555 8.285676
55.560 8.718415
55.565 9.097232
55.570 9.607305
55.575 9.905935
55.580 9.662767
55.585 9.605772
55.590 9.237626
55.595 9.240535
55.600 9.555418
55.605 9.548777
55.610 9.45943
55.615 9.511944
55.620 9.480167
55.625 9.323007
55.630 9.129528
55.635 8.826721
55.640 8.280893
55.645 8.250393
55.650 8.259013
55.655 8.556601
55.660 9.006999
55.665 8.428268
55.670 8.145124
55.675 8.361812
55.680 8.267649
55.685 8.563796
55.690 8.501781
55.695 8.360181
55.700 8.975015
55.705 9.223497
55.710 9.442931
55.715 9.898132
55.720 9.804257
55.725 9.635494
55.730 9.962567
55.735 10.096258
55.740 10.377156
55.745 10.363749
55.750 10.58461
55.755 11.109073
55.760 11.183708
55.765 10.637361
55.770 10.070779
55.775 9.910317
55.780 9.846676
55.785 9.366666
55.790 8.811479
55.795 9.177258
55.800 10.183336
55.805 10.745472
55.810 10.466189
55.815 10.357555
55.820 10.524531
55.825 10.727365
55.830 10.578339
55.835 10.24673
55.840 10.437494
55.845 10.9711
55.850 10.876252
55.855 10.753917
55.860 10.904468
55.865 11.091014
55.870 11.44404
55.875 11.146915
55.880 11.032429
55.885 10.951559
55.890 11.053881
55.895 10.922305
55.900 10.362724
55.905 10.029384
55.910 10.308722
55.915 10.198973
55.920 10.086982
55.925 9.755485
55.930 9.697034
55.935 10.300392
55.940 10.25953
55.945 10.036745
55.950 10.511623
55.955 10.67575
55.960 10.984758
55.965 11.043933
55.970 11.105498
55.975 11.400724
55.980 11.0615
55.985 10.655611
55.990 10.428152
55.995 10.362325
56.000 10.809315
56.005 10.414314
56.010 9.980415
56.015 10.16611
56.020 10.032986
56.025 10.296409
56.030 10.47639
56.035 9.901807
56.040 9.901978
56.045 10.014267
56.050 10.190022
56.055 10.942729
56.060 10.773479
56.065 10.063332
56.070 10.193445
56.075 10.00777
56.080 10.098759
56.085 10.109276
56.090 9.114218
56.095 9.10307
56.100 8.819913
56.105 8.824217
56.110 8.74784
56.115 8.539576
56.120 8.400242
56.125 8.912355
56.130 9.388735
56.135 10.57043
56.140 10.643263
56.145 11.2514
56.150 11.211998
56.155 11.316219
56.160 11.053806
56.165 10.936089
56.170 10.574836
56.175 10.379933
56.180 9.975001
56.185 10.34763
56.190 10.295386
56.195 10.374644
56.200 10.198322
56.205 9.869627
56.210 10.049711
56.215 10.07668
56.220 9.919948
56.225 9.760413
56.230 9.965616
56.235 10.012142
56.240 10.583299
56.245 10.243901
56.250 10.096028
56.255 10.010935
56.260 10.261771
56.265 10.454626
56.270 10.432152
56.275 10.013931
56.280 9.896298
56.285 9.898309
56.290 10.126045
56.295 10.154648
56.300 9.688986
56.305 9.838676
56.310 10.262891
56.315 10.555045
56.320 10.950802
56.325 10.835119
56.330 10.850729
56.335 10.835592
56.340 10.565239
56.345 10.520402
56.350 10.362017
56.355 10.230627
56.360 10.210341
56.365 10.226343
56.370 10.24888
56.375 10.209323
56.380 10.107992
56.385 9.815307
56.390 9.302691
56.395 8.817305
56.400 8.489855
56.405 8.234366
56.410 8.48364
56.415 8.379035
56.420 8.695549
56.425 8.861201
56.430 9.396435
56.435 9.723532
56.440 9.921172
56.445 9.778995
56.450 10.090689
56.455 10.415436
56.460 10.235075
56.465 9.879577
56.470 9.795897
56.475 9.772427
56.480 9.786852
56.485 9.494938
56.490 9.440167
56.495 9.702751
56.500 9.620796
56.505 9.497445
56.510 9.583545
56.515 9.637161
56.520 9.443685
56.525 9.457875
56.530 9.720858
56.535 9.832107
56.540 9.467784
56.545 8.884052
56.550 9.151193
56.555 9.896411
56.560 10.006154
56.565 10.188898
56.570 10.007277
56.575 10.364014
56.580 10.294762
56.585 10.394289
56.590 10.254445
56.595 10.205209
56.600 10.155639
56.605 10.886614
56.610 11.305663
56.615 11.723933
56.620 11.399893
56.625 11.409508
56.630 11.469067
56.635 10.759875
56.640 10.191101
56.645 10.33183
56.650 10.206008
56.655 10.247659
56.660 10.119612
56.665 10.480424
56.670 11.326923
56.675 11.45079
56.680 11.16804
56.685 11.328133
56.690 11.545906
56.695 11.563915
56.700 11.26289
56.705 11.224756
56.710 11.23585
56.715 10.991877
56.720 11.175892
56.725 11.214627
56.730 11.312436
56.735 11.011496
56.740 10.71744
56.745 10.688655
56.750 10.846784
56.755 10.412542
56.760 10.684717
56.765 10.338759
56.770 10.251403
56.775 10.728333
56.780 10.68059
56.785 10.884237
56.790 10.612316
56.795 10.515865
56.800 11.165272
56.805 11.833899
56.810 11.85327
56.815 12.244374
56.820 12.244054
56.825 12.499381
56.830 12.457663
56.835 12.42237
56.840 12.160292
56.845 11.847454
56.850 11.381794
56.855 10.958305
56.860 10.974113
56.865 10.574145
56.870 10.136
56.875 9.874869
56.880 9.539685
56.885 9.798798
56.890 9.92118
56.895 9.974852
56.900 10.424684
56.905 10.429657
56.910 10.728253
56.915 10.937688
56.920 11.068152
56.925 11.210191
56.930 11.019904
56.935 10.399076
56.940 10.67857
56.945 10.674685
56.950 10.27963
56.955 10.215281
56.960 9.78622
56.965 9.899868
56.970 10.172599
56.975 9.620711
56.980 9.747894
56.985 10.021651
56.990 10.134494
56.995 10.485744
57.000 10.318031
57.005 9.557248
57.010 10.132433
57.015 10.540394
57.020 11.093688
57.025 11.188296
57.030 11.459454
57.035 11.584733
57.040 12.179624
57.045 11.666327
57.050 11.338207
57.055 11.408746
57.060 11.410777
57.065 10.980967
57.070 11.002414
57.075 10.73063
57.080 10.898134
57.085 10.444347
57.090 9.865323
57.095 9.52613
57.100 10.070929
57.105 10.191467
57.110 10.296208
57.115 10.191155
57.120 10.434231
57.125 10.477443
57.130 10.381948
57.135 9.864244
57.140 9.505078
57.145 10.032023
57.150 10.45803
57.155 10.846475
57.160 11.360306
57.165 12.209161
57.170 12.761463
57.175 13.172722
57.180 12.965645
57.185 12.194094
57.190 11.526975
57.195 11.18879
57.200 10.829762
57.205 10.649713
57.210 11.099915
57.215 11.89185
57.220 12.530226
57.225 12.742977
57.230 12.510643
57.235 11.914547
57.240 12.085154
57.245 11.319186
57.250 10.588501
57.255 10.402267
57.260 10.423029
57.265 10.533656
57.270 10.952826
57.275 11.098632
57.280 11.167213
57.285 10.973147
57.290 11.122095
57.295 10.871014
57.300 10.78548
57.305 10.38776
57.310 9.966775
57.315 9.7584
57.320 10.02299
57.325 9.937971
57.330 10.202361
57.335 10.424971
57.340 10.879408
57.345 10.917057
57.350 11.254189
57.355 11.386397
57.360 11.337325
57.365 11.386317
57.370 11.367463
57.375 11.712831
57.380 11.867448
57.385 11.72541
57.390 11.577853
57.395 12.129484
57.400 11.894998
57.405 11.842934
57.410 11.599432
57.415 11.61695
57.420 11.593898
57.425 11.24594
57.430 10.777157
57.435 10.388379
57.440 9.795876
57.445 9.53559
57.450 9.432757
57.455 9.798639
57.460 9.990498
57.465 10.005701
57.470 10.393177
57.475 10.61452
57.480 10.949602
57.485 11.262782
57.490 11.268453
57.495 11.746066
57.500 12.060924
57.505 12.430352
57.510 12.913021
57.515 12.969899
57.520 12.782085
57.525 12.690063
57.530 12.22355
57.535 12.276699
57.540 12.372862
57.545 12.257981
57.550 11.837037
57.555 11.610343
57.560 11.818527
57.565 11.886575
57.570 11.878365
57.575 11.568889
57.580 11.158626
57.585 11.526493
57.590 11.545176
57.595 11.19163
57.600 11.448766
57.605 11.096887
57.610 10.585404
57.615 10.683845
57.620 10.890919
57.625 11.480982
57.630 11.605887
57.635 11.649832
57.640 11.868958
57.645 12.41709
57.650 12.532372
57.655 11.910801
57.660 11.4477
57.665 11.01739
57.670 10.766145
57.675 10.742845
57.680 10.581196
57.685 10.483422
57.690 10.696495
57.695 11.034195
57.700 11.780231
57.705 11.988724
57.710 12.336471
57.715 12.881182
57.720 13.277757
57.725 13.533415
57.730 13.369689
57.735 12.787807
57.740 12.644806
57.745 12.614412
57.750 12.50053
57.755 12.227272
57.760 11.99591
57.765 12.136255
57.770 12.615464
57.775 12.768621
57.780 12.610378
57.785 12.122912
57.790 12.17527
57.795 12.519432
57.800 12.561254
57.805 12.551574
57.810 12.934187
57.815 13.282073
57.820 13.25269
57.825 13.36799
57.830 13.056511
57.835 12.697786
57.840 12.153625
57.845 11.442788
57.850 11.018683
57.855 10.921831
57.860 10.84547
57.865 11.135887
57.870 11.409921
57.875 11.451135
57.880 11.804481
57.885 12.119582
57.890 12.442854
57.895 12.581728
57.900 12.561769
57.905 12.452419
57.910 13.085521
57.915 13.119205
57.920 13.30782
57.925 13.741758
57.930 13.679137
57.935 13.925511
57.940 14.065393
57.945 13.560776
57.950 13.360896
57.955 12.887874
57.960 12.318423
57.965 12.482141
57.970 12.564622
57.975 13.116538
57.980 13.175643
57.985 12.870922
57.990 13.113761
57.995 12.994435
58.000 12.757969
58.005 12.590164
58.010 12.600036
58.015 12.69575
58.020 12.965788
58.025 13.447488
58.030 13.819645
58.035 14.337406
58.040 14.212542
58.045 14.267978
58.050 14.428514
58.055 14.498871
58.060 13.815796
58.065 13.782866
58.070 13.500718
58.075 13.854984
58.080 13.647423
58.085 13.095247
58.090 13.200454
58.095 13.662983
58.100 13.94388
58.105 13.775179
58.110 13.160783
58.115 12.558588
58.120 13.189448
58.125 13.545176
58.130 13.454674
58.135 13.054428
58.140 12.787862
58.145 13.075269
58.150 13.59453
58.155 13.606788
58.160 13.163219
58.165 13.203853
58.170 13.297893
58.175 14.325607
58.180 15.1971
58.185 14.988863
58.190 14.388196
58.195 14.211301
58.200 14.244237
58.205 14.44396
58.210 13.617685
58.215 12.961507
58.220 13.005972
58.225 13.422992
58.230 13.194985
58.235 13.042704
58.240 13.054739
58.245 13.235909
58.250 13.219584
58.255 13.343414
58.260 13.334156
58.265 13.384168
58.270 13.928154
58.275 14.273842
58.280 14.744098
58.285 14.860788
58.290 15.024414
58.295 15.384578
58.300 15.725415
58.305 15.662995
58.310 15.131802
58.315 14.796266
58.320 15.006844
58.325 15.519513
58.330 15.47954
58.335 15.735468
58.340 15.669744
58.345 15.926478
58.350 15.370667
58.355 15.409401
58.360 15.418657
58.365 15.995638
58.370 16.119709
58.375 16.176018
58.380 16.233416
58.385 16.585518
58.390 16.932924
58.395 16.771645
58.400 16.519135
58.405 16.670143
58.410 17.194569
58.415 17.753393
58.420 17.874449
58.425 17.936375
58.430 18.696421
58.435 19.244408
58.440 18.914892
58.445 18.848618
58.450 19.2393
58.455 20.024021
58.460 20.321156
58.465 20.347912
58.470 20.246418
58.475 20.035778
58.480 19.745369
58.485 20.086758
58.490 20.499311
58.495 20.511251
58.500 20.811018
58.505 21.54775
58.510 22.156803
58.515 22.468023
58.520 22.406242
58.525 22.462717
58.530 22.269587
58.535 22.804411
58.540 22.840031
58.545 23.072714
58.550 23.165121
58.555 23.136509
58.560 23.865744
58.565 24.520409
58.570 24.693283
58.575 25.165976
58.580 25.294579
58.585 25.843487
58.590 26.83824
58.595 27.375982
58.600 28.08338
58.605 27.945944
58.610 29.223906
58.615 29.807192
58.620 30.304775
58.625 31.397383
58.630 31.265207
58.635 29.939201
58.640 30.10253
58.645 29.354229
58.650 29.538286
58.655 29.355356
58.660 28.500122
58.665 29.084276
58.670 29.916126
58.675 29.261316
58.680 29.046789
58.685 28.296621
58.690 27.871828
58.695 28.643135
58.700 28.442055
58.705 28.527063
58.710 28.260548
58.715 28.529886
58.720 29.403265
58.725 29.535347
58.730 28.401857
58.735 27.883873
58.740 27.932634
58.745 28.308258
58.750 27.753172
58.755 27.515354
58.760 27.214899
58.765 27.616379
58.770 28.142935
58.775 27.712454
58.780 27.218128
58.785 26.850574
58.790 26.655474
58.795 26.145882
58.800 25.42507
58.805 24.227556
58.810 24.140961
58.815 24.721798
58.820 25.099543
58.825 24.618296
58.830 24.263964
58.835 23.308348
58.840 22.985878
58.845 21.907375
58.850 20.312551
58.855 19.539396
58.860 19.507597
58.865 19.333565
58.870 19.125471
58.875 19.356512
58.880 19.69977
58.885 19.740618
58.890 19.311489
58.895 19.130217
58.900 19.182766
58.905 18.903622
58.910 18.188049
58.915 18.19381
58.920 18.006657
58.925 18.063118
58.930 17.636385
58.935 17.64966
58.940 18.207138
58.945 18.770649
58.950 18.505451
58.955 18.040041
58.960 17.804628
58.965 17.67519
58.970 17.050026
58.975 15.908008
58.980 15.600157
58.985 16.259672
58.990 16.90797
58.995 17.134521
59.000 17.068745
59.005 17.046181
59.010 17.308624
59.015 16.849106
59.020 16.613544
59.025 16.243773
59.030 15.744859
59.035 15.819679
59.040 15.927883
59.045 15.356281
59.050 14.960862
59.055 14.515039
59.060 14.436123
59.065 14.516373
59.070 13.999044
59.075 13.867865
59.080 14.369767
59.085 14.324965
59.090 14.320879
59.095 14.3833
59.100 14.326083
59.105 14.508672
59.110 13.933937
59.115 13.384899
59.120 13.572644
59.125 13.429055
59.130 13.24954
59.135 13.039136
59.140 13.248732
59.145 13.583
59.150 13.56413
59.155 13.56174
59.160 13.446153
59.165 13.509075
59.170 13.416607
59.175 13.324493
59.180 13.323512
59.185 13.661659
59.190 13.516698
59.195 13.798635
59.200 13.574096
59.205 13.553448
59.210 13.715537
59.215 13.579638
59.220 13.23922
59.225 12.697063
59.230 12.144916
59.235 12.244683
59.240 12.641973
59.245 12.710369
59.250 12.615825
59.255 13.200427
59.260 13.666411
59.265 14.266051
59.270 14.06503
59.275 13.508022
59.280 13.333338
59.285 13.411588
59.290 13.011874
59.295 13.094015
59.300 13.047862
59.305 13.346628
59.310 13.900681
59.315 13.740016
59.320 14.276698
59.325 14.01554
59.330 13.61206
59.335 13.185428
59.340 13.2175
59.345 13.036414
59.350 12.649876
59.355 12.310652
59.360 12.69253
59.365 12.95593
59.370 13.228483
59.375 13.103131
59.380 12.946212
59.385 13.40268
59.390 13.792778
59.395 14.363441
59.400 14.394566
59.405 14.321638
59.410 14.08456
59.415 14.152504
59.420 13.956456
59.425 13.611747
59.430 12.912852
59.435 13.060035
59.440 13.064226
59.445 13.595262
59.450 13.653466
59.455 13.588147
59.460 13.876169
59.465 14.317883
59.470 13.787928
59.475 14.378204
59.480 14.460485
59.485 14.479794
59.490 14.272225
59.495 14.1459
59.500 14.347119
59.505 14.509377
59.510 13.690167
59.515 13.115318
59.520 13.089572
59.525 13.647156
59.530 13.298024
59.535 12.910751
59.540 12.984333
59.545 13.129063
59.550 13.041965
59.555 13.378899
59.560 13.020003
59.565 13.050898
59.570 12.885164
59.575 12.958689
59.580 13.338403
59.585 13.530923
59.590 12.938645
59.595 12.476519
59.600 12.54028
59.605 12.735521
59.610 12.71853
59.615 12.75395
59.620 12.819917
59.625 13.214642
59.630 13.936661
59.635 13.766099
59.640 13.572867
59.645 13.683359
59.650 13.671473
59.655 13.935349
59.660 13.720637
59.665 13.471623
59.670 13.134858
59.675 13.345039
59.680 13.414854
59.685 13.335018
59.690 13.304911
59.695 13.632399
59.700 14.457622
59.705 14.851411
59.710 14.488939
59.715 14.315289
59.720 14.05351
59.725 13.677493
59.730 13.633108
59.735 13.389368
59.740 13.655646
59.745 13.757342
59.750 13.737713
59.755 14.036495
59.760 13.704341
59.765 13.404897
59.770 13.481469
59.775 13.65859
59.780 13.447106
59.785 13.17433
59.790 13.154429
59.795 13.340249
59.800 13.339593
59.805 12.190179
59.810 11.5833
59.815 11.951899
59.820 12.003036
59.825 11.912122
59.830 12.098401
59.835 12.211138
59.840 12.690191
59.845 13.132352
59.850 13.214284
59.855 13.703049
59.860 14.285256
59.865 14.103003
59.870 13.841673
59.875 13.872376
59.880 13.570693
59.885 13.581776
59.890 13.159622
59.895 12.837368
59.900 12.922386
59.905 13.29936
59.910 13.784694
59.915 13.743299
59.920 13.767531
59.925 13.463118
59.930 12.827837
59.935 12.437511
59.940 12.100929
59.945 11.491243
59.950 11.896915
59.955 11.709409
59.960 11.999836
59.965 13.097659
59.970 13.854666
59.975 14.127525
59.980 14.406091
59.985 13.782606
59.990 14.166414
59.995 14.758795
60.000 14.5837
60.005 14.066157
60.010 13.833355
60.015 13.778605
60.020 13.96057
60.025 13.768771
60.030 13.225365
60.035 12.849381
60.040 12.940755
60.045 13.125414
60.050 13.16098
60.055 13.102079
60.060 13.340528
60.065 13.342158
60.070 13.118753
60.075 13.033434
60.080 13.259788
60.085 14.075146
60.090 14.265325
60.095 13.705022
60.100 13.521148
60.105 14.019894
60.110 14.020948
60.115 13.607587
60.120 13.049926
60.125 13.235734
60.130 13.705784
60.135 13.699237
60.140 13.468411
60.145 13.863158
60.150 14.295217
60.155 14.305083
60.160 14.028801
60.165 14.156288
60.170 14.464576
60.175 14.390054
60.180 13.709666
60.185 13.250655
60.190 13.320972
60.195 13.683211
60.200 13.401476
60.205 13.056717
60.210 13.065346
60.215 13.551538
60.220 13.561857
60.225 12.960534
60.230 12.908383
60.235 13.374104
60.240 13.221328
60.245 13.418709
60.250 13.415403
60.255 13.371424
60.260 13.776937
60.265 13.527686
60.270 12.910151
60.275 13.128064
60.280 13.197981
60.285 13.295815
60.290 13.198312
60.295 12.841523
60.300 12.717241
60.305 13.172055
60.310 13.205809
60.315 12.66717
60.320 12.38276
60.325 12.434279
60.330 12.689866
60.335 12.801366
60.340 12.939923
60.345 13.520824
60.350 14.108702
60.355 14.576947
60.360 15.266212
60.365 15.370502
60.370 15.849277
60.375 15.817983
60.380 15.543175
60.385 15.302341
60.390 15.35011
60.395 15.695229
60.400 15.549917
60.405 15.633305
60.410 15.231084
60.415 15.132929
60.420 15.192584
60.425 15.015682
60.430 14.733336
60.435 14.30212
60.440 13.306228
60.445 13.235011
60.450 12.56029
60.455 12.450825
60.460 12.532816
60.465 12.972019
60.470 13.875847
60.475 14.396955
60.480 14.217436
60.485 14.236552
60.490 14.010125
60.495 13.943312
60.500 13.565761
60.505 13.38836
60.510 13.247489
60.515 13.157899
60.520 13.42604
60.525 13.75542
60.530 13.432415
60.535 12.879836
60.540 12.463531
60.545 13.051869
60.550 13.353006
60.555 13.271755
60.560 13.113917
60.565 13.217896
60.570 13.525333
60.575 14.04266
60.580 13.864184
60.585 14.105361
60.590 14.372388
60.595 14.541106
60.600 14.587363
60.605 14.575918
60.610 14.364079
60.615 14.450979
60.620 14.800996
60.625 14.514882
60.630 14.225321
60.635 14.234217
60.640 14.278314
60.645 13.901084
60.650 14.067522
60.655 13.766253
60.660 13.706181
60.665 13.537763
60.670 13.97804
60.675 14.604486
60.680 14.811563
60.685 14.396073
60.690 14.482917
60.695 14.202508
60.700 13.850556
60.705 13.515962
60.710 13.234529
60.715 12.949667
60.720 12.905333
60.725 13.11095
60.730 13.984831
60.735 14.678303
60.740 14.628687
60.745 14.336686
60.750 14.40282
60.755 14.477849
60.760 14.082341
60.765 13.941305
60.770 13.721821
60.775 13.039047
60.780 13.077007
60.785 13.428887
60.790 13.298975
60.795 13.515542
60.800 13.2601
60.805 13.259321
60.810 13.936653
60.815 14.006274
60.820 13.814664
60.825 13.919757
60.830 14.36787
60.835 14.589918
60.840 14.342144
60.845 14.13059
60.850 13.995759
60.855 14.022035
60.860 13.905967
60.865 13.246424
60.870 13.340367
60.875 13.303783
60.880 12.768609
60.885 12.922739
60.890 12.920684
60.895 13.006699
60.900 13.024205
60.905 12.42041
60.910 12.433481
60.915 12.83114
60.920 12.684464
60.925 12.660217
60.930 12.991235
60.935 13.184807
60.940 13.59614
60.945 14.031771
60.950 14.432536
60.955 14.900706
60.960 15.493249
60.965 15.478788
60.970 15.234169
60.975 15.007729
60.980 14.790585
60.985 13.948246
60.990 13.239288
60.995 12.636473
61.000 11.910074
61.005 12.34017
61.010 12.421412
61.015 12.405114
61.020 12.691112
61.025 12.849854
61.030 13.095285
61.035 13.7417
61.040 14.005834
61.045 13.642348
61.050 13.484882
61.055 13.509493
61.060 13.81987
61.065 14.25024
61.070 14.066938
61.075 13.81029
61.080 14.143028
61.085 13.810068
61.090 13.667461
61.095 13.425976
61.100 13.064131
61.105 13.334141
61.110 13.562379
61.115 13.575079
61.120 14.113826
61.125 13.999995
61.130 14.289852
61.135 14.6668
61.140 14.44636
61.145 14.576593
61.150 14.854065
61.155 15.043638
61.160 15.54535
61.165 15.005342
61.170 14.615096
61.175 14.640066
61.180 14.607476
61.185 14.692703
61.190 14.629248
61.195 14.318111
61.200 14.486293
61.205 14.772082
61.210 14.693885
61.215 14.980478
61.220 14.993545
61.225 15.171341
61.230 15.459042
61.235 15.480657
61.240 15.023453
61.245 14.866903
61.250 14.302647
61.255 14.278081
61.260 14.50595
61.265 15.116499
61.270 15.581502
61.275 15.456641
61.280 15.869494
61.285 16.110537
61.290 15.988746
61.295 15.988687
61.300 15.730536
61.305 15.834507
61.310 16.631863
61.315 16.494513
61.320 16.245823
61.325 16.367273
61.330 16.274734
61.335 15.997087
61.340 15.4189
61.345 14.928565
61.350 14.445084
61.355 14.43724
61.360 13.919821
61.365 13.793044
61.370 13.790929
61.375 14.192608
61.380 14.441859
61.385 14.615276
61.390 14.742898
61.395 14.956369
61.400 15.010801
61.405 14.805578
61.410 14.517526
61.415 14.037114
61.420 14.370553
61.425 14.193057
61.430 14.132742
61.435 13.390864
61.440 13.829913
61.445 14.291921
61.450 14.723647
61.455 14.722829
61.460 14.824675
61.465 15.013108
61.470 15.669366
61.475 15.072554
61.480 14.711514
61.485 14.637748
61.490 14.473502
61.495 14.44567
61.500 14.220856
61.505 14.315781
61.510 14.430901
61.515 14.492321
61.520 14.698496
61.525 14.600995
61.530 14.845196
61.535 14.830908
61.540 14.934175
61.545 14.977759
61.550 14.996302
61.555 15.567629
61.560 15.846448
61.565 15.331817
61.570 15.644342
61.575 15.697534
61.580 16.0126
61.585 15.876344
61.590 14.753906
61.595 14.373061
61.600 14.194345
61.605 13.448786
61.610 12.892516
61.615 12.501304
61.620 13.061167
61.625 13.424123
61.630 13.660182
61.635 13.957509
61.640 14.397853
61.645 15.051199
61.650 15.524353
61.655 15.286732
61.660 15.452042
61.665 15.349214
61.670 15.175285
61.675 15.240175
61.680 14.551329
61.685 14.061247
61.690 14.118466
61.695 14.256047
61.700 14.57754
61.705 14.821856
61.710 14.907564
61.715 15.645626
61.720 15.340569
61.725 15.038344
61.730 14.844754
61.735 15.005632
61.740 15.031677
61.745 14.661015
61.750 14.617908
61.755 14.623786
61.760 14.479249
61.765 14.320122
61.770 14.08487
61.775 14.376543
61.780 14.929785
61.785 13.970474
61.790 14.016164
61.795 13.723178
61.800 13.633658
61.805 13.505642
61.810 13.554023
61.815 13.847852
61.820 14.469108
61.825 14.799677
61.830 14.675955
61.835 14.713878
61.840 14.501937
61.845 14.136325
61.850 13.864746
61.855 14.351688
61.860 14.51113
61.865 15.428206
61.870 16.2043
61.875 16.905874
61.880 17.244198
61.885 17.124722
61.890 17.464071
61.895 17.676409
61.900 17.411146
61.905 17.264071
61.910 16.970282
61.915 17.074045
61.920 17.11581
61.925 16.163044
61.930 16.047991
61.935 16.146814
61.940 15.836582
61.945 15.965092
61.950 15.666656
61.955 15.289264
61.960 15.318099
61.965 14.819143
61.970 14.614274
61.975 14.74037
61.980 14.424082
61.985 14.207741
61.990 14.351623
61.995 14.563014
62.000 14.671351
62.005 14.536477
62.010 14.319188
62.015 14.801347
62.020 15.175575
62.025 15.242789
62.030 15.590675
62.035 15.641445
62.040 15.655411
62.045 15.852201
62.050 15.626724
62.055 14.937244
62.060 14.496053
62.065 13.762859
62.070 13.964644
62.075 14.565195
62.080 14.830309
62.085 14.581792
62.090 14.656343
62.095 14.395627
62.100 14.876886
62.105 14.641689
62.110 14.213403
62.115 13.95468
62.120 14.283278
62.125 15.091582
62.130 15.218706
62.135 15.433583
62.140 15.690063
62.145 15.868997
62.150 15.968823
62.155 15.885322
62.160 16.071276
62.165 16.524372
62.170 16.663761
62.175 16.83881
62.180 16.896515
62.185 17.158316
62.190 17.061943
62.195 16.52787
62.200 16.186569
62.205 15.91111
62.210 15.567153
62.215 15.231039
62.220 15.12747
62.225 15.19726
62.230 15.093999
62.235 15.268427
62.240 15.187423
62.245 15.25459
62.250 15.738955
62.255 15.604803
62.260 15.37415
62.265 15.920883
62.270 15.762928
62.275 15.593746
62.280 15.416738
62.285 15.086243
62.290 15.104973
62.295 15.736747
62.300 15.404305
62.305 15.266024
62.310 14.884078
62.315 15.014181
62.320 15.074459
62.325 14.834435
62.330 14.098522
62.335 13.792965
62.340 13.674892
62.345 14.019558
62.350 14.233809
62.355 14.146523
62.360 13.992801
62.365 14.439877
62.370 15.346091
62.375 15.378895
62.380 15.516344
62.385 15.377919
62.390 15.382759
62.395 15.475839
62.400 15.198696
62.405 14.863279
62.410 15.385869
62.415 14.963252
62.420 15.018941
62.425 14.951176
62.430 14.852866
62.435 14.64007
62.440 14.613194
62.445 14.405026
62.450 14.331079
62.455 14.312372
62.460 14.672541
62.465 15.023277
62.470 15.092278
62.475 15.660076
62.480 15.784345
62.485 16.125158
62.490 15.760743
62.495 15.582354
62.500 15.649482
62.505 15.774278
62.510 15.375807
62.515 15.418327
62.520 15.325678
62.525 15.654866
62.530 15.142271
62.535 14.331557
62.540 14.233666
62.545 13.833819
62.550 13.652518
62.555 13.386488
62.560 13.175011
62.565 13.524655
62.570 13.937386
62.575 14.025718
62.580 14.365304
62.585 14.3974
62.590 14.558061
62.595 14.720963
62.600 14.671541
62.605 14.8995
62.610 14.642421
62.615 14.62909
62.620 14.396736
62.625 14.341224
62.630 14.508601
62.635 14.732534
62.640 14.467493
62.645 14.844795
62.650 14.594524
62.655 14.641357
62.660 14.314714
62.665 14.419476
62.670 14.711068
62.675 15.71383
62.680 15.789108
62.685 16.097887
62.690 16.355339
62.695 16.816486
62.700 16.335007
62.705 16.050114
62.710 15.392303
62.715 15.438652
62.720 15.614675
62.725 15.581179
62.730 15.681795
62.735 16.262064
62.740 16.485723
62.745 16.550941
62.750 16.170206
62.755 15.862621
62.760 16.132998
62.765 16.18685
62.770 15.8527
62.775 15.475337
62.780 15.473581
62.785 15.243268
62.790 15.283952
62.795 15.028857
62.800 14.64739
62.805 15.069996
62.810 15.009786
62.815 15.0613
62.820 15.017142
62.825 14.77527
62.830 14.884049
62.835 14.973927
62.840 14.693767
62.845 14.79297
62.850 14.961013
62.855 15.540955
62.860 16.165962
62.865 16.132061
62.870 16.28153
62.875 16.002737
62.880 15.992078
62.885 15.688936
62.890 15.682712
62.895 15.402512
62.900 15.503295
62.905 15.200092
62.910 15.602934
62.915 15.809056
62.920 15.863664
62.925 15.342163
62.930 15.475227
62.935 15.373954
62.940 15.354858
62.945 15.371076
62.950 15.030543
62.955 15.034423
62.960 15.430134
62.965 15.138513
62.970 15.569518
62.975 15.904757
62.980 16.314959
62.985 16.274115
62.990 16.51689
62.995 16.55134
63.000 16.935911
63.005 16.633574
63.010 16.393833
63.015 15.982372
63.020 15.609672
63.025 15.396916
63.030 14.999158
63.035 14.856542
63.040 14.692501
63.045 13.873764
63.050 13.613474
63.055 14.543373
63.060 14.567704
63.065 14.67877
63.070 14.629116
63.075 14.899267
63.080 15.405055
63.085 15.408172
63.090 14.703345
63.095 15.403434
63.100 15.475697
63.105 15.50195
63.110 14.826268
63.115 15.227157
63.120 16.039993
63.125 16.585867
63.130 15.736351
63.135 15.895482
63.140 15.82315
63.145 16.433409
63.150 16.449348
63.155 16.021391
63.160 16.247459
63.165 16.32148
63.170 16.08147
63.175 15.950267
63.180 15.394964
63.185 15.19073
63.190 15.458343
63.195 14.808455
63.200 14.726701
63.205 14.670576
63.210 14.72439
63.215 15.075543
63.220 14.427741
63.225 14.03159
63.230 14.273115
63.235 14.171037
63.240 14.385281
63.245 14.42149
63.250 14.43247
63.255 14.259481
63.260 14.126259
63.265 14.38816
63.270 14.66151
63.275 14.682726
63.280 14.724322
63.285 15.126266
63.290 16.081867
63.295 16.037037
63.300 15.704526
63.305 15.634044
63.310 15.429848
63.315 15.272905
63.320 15.320234
63.325 15.226983
63.330 15.100335
63.335 15.559566
63.340 15.626851
63.345 15.637625
63.350 15.552499
63.355 15.350017
63.360 15.506544
63.365 15.876067
63.370 16.076639
63.375 16.554338
63.380 17.096518
63.385 16.782558
63.390 16.476288
63.395 16.774649
63.400 16.643909
63.405 16.392485
63.410 15.918288
63.415 15.423486
63.420 16.078653
63.425 16.257269
63.430 15.691452
63.435 15.9194
63.440 16.067047
63.445 16.191143
63.450 16.213343
63.455 16.365984
63.460 16.508171
63.465 16.753996
63.470 16.861198
63.475 17.036619
63.480 16.888054
63.485 16.827978
63.490 16.795485
63.495 16.697596
63.500 16.214769
63.505 15.731032
63.510 15.310901
63.515 15.679853
63.520 15.903441
63.525 16.218794
63.530 16.104223
63.535 16.214548
63.540 16.344069
63.545 16.541975
63.550 16.639771
63.555 16.45829
63.560 15.626482
63.565 15.713552
63.570 15.144958
63.575 15.134877
63.580 15.275939
63.585 15.327644
63.590 15.322744
63.595 16.088074
63.600 16.739998
63.605 17.196619
63.610 16.746611
63.615 16.671349
63.620 16.870672
63.625 17.17955
63.630 17.294884
63.635 17.210924
63.640 17.435202
63.645 18.375885
63.650 18.333752
63.655 18.483284
63.660 18.405386
63.665 17.997908
63.670 17.886461
63.675 18.00001
63.680 17.077461
63.685 17.201937
63.690 17.118649
63.695 16.945444
63.700 16.812365
63.705 16.648472
63.710 16.126137
63.715 16.633688
63.720 16.410093
63.725 16.362974
63.730 16.618908
63.735 16.809284
63.740 17.135187
63.745 17.708025
63.750 17.749687
63.755 17.83374
63.760 17.473831
63.765 17.389046
63.770 17.025526
63.775 17.058348
63.780 16.864073
63.785 17.073414
63.790 17.291494
63.795 17.30542
63.800 17.22785
63.805 17.519543
63.810 17.369181
63.815 17.409679
63.820 16.748892
63.825 16.192183
63.830 16.19404
63.835 16.650965
63.840 16.793756
63.845 16.638798
63.850 16.597485
63.855 16.423645
63.860 16.657467
63.865 16.535425
63.870 16.214302
63.875 15.448312
63.880 15.441759
63.885 15.56672
63.890 16.178534
63.895 16.312569
63.900 16.492317
63.905 16.535145
63.910 16.766146
63.915 16.395626
63.920 16.357811
63.925 16.159763
63.930 16.49309
63.935 16.853991
63.940 17.203901
63.945 17.903217
63.950 18.906948
63.955 18.809992
63.960 18.940058
63.965 18.618656
63.970 17.843016
63.975 17.817699
63.980 18.076635
63.985 17.942223
63.990 18.191168
63.995 17.75001
64.000 17.919847
64.005 19.078472
64.010 19.336143
64.015 19.789049
64.020 20.317078
64.025 20.610569
64.030 21.823256
64.035 22.113327
64.040 21.672718
64.045 21.314034
64.050 21.185276
64.055 21.092251
64.060 20.812109
64.065 20.601803
64.070 20.710176
64.075 21.729105
64.080 22.505596
64.085 22.699776
64.090 22.666945
64.095 23.329895
64.100 22.963112
64.105 22.374752
64.110 21.660343
64.115 21.559168
64.120 21.934778
64.125 22.452194
64.130 22.920181
64.135 23.842752
64.140 24.547052
64.145 24.708893
64.150 24.51815
64.155 24.267719
64.160 24.05862
64.165 23.785534
64.170 24.22084
64.175 24.465166
64.180 25.000029
64.185 25.517628
64.190 26.297359
64.195 27.344412
64.200 27.731743
64.205 28.455681
64.210 29.194046
64.215 29.17635
64.220 29.815931
64.225 30.137383
64.230 30.675001
64.235 30.941172
64.240 31.594671
64.245 33.090252
64.250 34.087536
64.255 34.390564
64.260 35.5429
64.265 36.015549
64.270 36.536953
64.275 36.06551
64.280 34.940014
64.285 35.135017
64.290 36.497223
64.295 36.314808
64.300 36.861622
64.305 37.390816
64.310 37.600239
64.315 37.93898
64.320 37.941353
64.325 37.501396
64.330 37.782249
64.335 37.839508
64.340 38.007313
64.345 38.818005
64.350 39.672302
64.355 40.185287
64.360 40.674088
64.365 41.203289
64.370 41.171494
64.375 41.937111
64.380 42.422962
64.385 42.579956
64.390 43.091663
64.395 43.534618
64.400 43.22007
64.405 43.647942
64.410 44.123951
64.415 44.069187
64.420 44.054703
64.425 44.422649
64.430 45.106236
64.435 45.882343
64.440 46.419746
64.445 46.4659
64.450 46.924179
64.455 46.791843
64.460 46.05619
64.465 45.826878
64.470 45.623482
64.475 44.960144
64.480 44.523193
64.485 43.912407
64.490 43.714546
64.495 43.882652
64.500 43.207352
64.505 43.254555
64.510 41.992802
64.515 41.102112
64.520 40.919792
64.525 40.930172
64.530 40.565273
64.535 40.000816
64.540 38.872009
64.545 38.569923
64.550 37.970108
64.555 37.083694
64.560 35.91074
64.565 35.185368
64.570 34.305695
64.575 33.972969
64.580 33.817616
64.585 33.919838
64.590 33.68314
64.595 33.666145
64.600 33.179897
64.605 32.781105
64.610 32.886902
64.615 32.125607
64.620 31.189253
64.625 30.487501
64.630 29.665167
64.635 29.545483
64.640 29.581081
64.645 28.810085
64.650 28.708353
64.655 28.91853
64.660 28.807251
64.665 29.114096
64.670 28.805971
64.675 28.006433
64.680 27.757185
64.685 27.596798
64.690 27.354477
64.695 26.658281
64.700 26.256178
64.705 25.863504
64.710 26.413866
64.715 26.650255
64.720 25.950935
64.725 25.133688
64.730 25.125187
64.735 25.079399
64.740 24.090122
64.745 23.015326
64.750 22.638515
64.755 22.725685
64.760 23.377819
64.765 23.577488
64.770 23.337008
64.775 23.179407
64.780 22.86198
64.785 23.016121
64.790 22.758226
64.795 22.986345
64.800 22.978691
64.805 23.160339
64.810 23.739712
64.815 23.440203
64.820 22.259676
64.825 21.852703
64.830 20.524462
64.835 19.87471
64.840 19.145557
64.845 18.997984
64.850 19.278404
64.855 19.880058
64.860 20.397198
64.865 20.748041
64.870 21.194391
64.875 21.255072
64.880 20.763849
64.885 20.547636
64.890 20.496775
64.895 20.321507
64.900 20.179708
64.905 19.504351
64.910 19.502066
64.915 19.400671
64.920 19.496368
64.925 19.532001
64.930 19.739338
64.935 20.082453
64.940 20.548983
64.945 20.438461
64.950 21.239376
64.955 21.430084
64.960 21.337494
64.965 21.210577
64.970 21.494349
64.975 21.47086
64.980 21.657909
64.985 21.216661
64.990 21.164671
64.995 20.73403
65.000 20.713892
65.005 21.168892
65.010 21.892651
65.015 22.682541
65.020 23.627087
65.025 24.228104
65.030 25.157013
65.035 25.572021
65.040 25.437084
65.045 25.014406
65.050 24.990288
65.055 24.800541
65.060 24.981279
65.065 25.789289
65.070 25.803692
65.075 26.382753
65.080 27.592117
65.085 27.861034
65.090 27.889511
65.095 28.229027
65.100 27.67067
65.105 28.403851
65.110 28.54027
65.115 28.325912
65.120 28.208233
65.125 28.509523
65.130 28.215017
65.135 28.19508
65.140 27.297211
65.145 26.814728
65.150 26.385111
65.155 26.410898
65.160 26.116053
65.165 25.750126
65.170 26.101881
65.175 26.759809
65.180 26.719572
65.185 26.968164
65.190 27.44964
65.195 28.241564
65.200 29.308973
65.205 29.093914
65.210 28.858109
65.215 28.688131
65.220 28.448109
65.225 28.715069
65.230 28.543743
65.235 28.322245
65.240 29.145206
65.245 29.164816
65.250 29.438753
65.255 30.04533
65.260 30.257421
65.265 31.126722
65.270 30.918056
65.275 30.95775
65.280 31.687082
65.285 32.037033
65.290 32.07486
65.295 32.149963
65.300 32.492264
65.305 33.69912
65.310 34.154995
65.315 34.051575
65.320 34.666553
65.325 34.669731
65.330 34.865604
65.335 35.425816
65.340 35.271046
65.345 35.389637
65.350 36.513725
65.355 36.899361
65.360 37.110542
65.365 36.532116
65.370 36.400009
65.375 36.666489
65.380 37.165321
65.385 37.288734
65.390 37.307693
65.395 37.367023
65.400 37.98534
65.405 37.767159
65.410 37.501778
65.415 37.688103
65.420 37.63892
65.425 37.089733
65.430 37.499775
65.435 37.54298
65.440 37.599361
65.445 37.646801
65.450 36.952942
65.455 36.825615
65.460 37.643192
65.465 37.575073
65.470 37.682552
65.475 38.355919
65.480 38.518902
65.485 38.583965
65.490 37.91753
65.495 37.567192
65.500 37.525402
65.505 37.185741
65.510 37.00222
65.515 36.97533
65.520 37.266357
65.525 37.954815
65.530 37.991802
65.535 38.140636
65.540 38.230831
65.545 37.92506
65.550 37.81934
65.555 37.61829
65.560 37.603024
65.565 37.153549
65.570 37.071655
65.575 37.350544
65.580 38.451557
65.585 38.594467
65.590 39.337852
65.595 39.345451
65.600 39.615547
65.605 40.473824
65.610 40.200153
65.615 40.140186
65.620 40.29372
65.625 40.436653
65.630 40.316525
65.635 40.27454
65.640 38.984081
65.645 38.362511
65.650 38.098537
65.655 37.125614
65.660 35.891407
65.665 35.762997
65.670 35.949001
65.675 35.53257
65.680 34.165367
65.685 33.736279
65.690 34.061588
65.695 33.964626
65.700 33.651264
65.705 33.512501
65.710 33.748474
65.715 34.368416
65.720 33.414211
65.725 32.860367
65.730 33.067448
65.735 32.409393
65.740 31.427828
65.745 32.012028
65.750 31.756676
65.755 31.22447
65.760 30.590696
65.765 30.77722
65.770 31.795469
65.775 32.114502
65.780 31.543259
65.785 30.902824
65.790 31.03451
65.795 30.800781
65.800 29.505098
65.805 28.58646
65.810 28.725407
65.815 28.574854
65.820 29.081348
65.825 28.80311
65.830 28.758408
65.835 29.068731
65.840 28.832134
65.845 28.29781
65.850 27.60076
65.855 27.873404
65.860 28.24176
65.865 28.531317
65.870 28.869314
65.875 28.45545
65.880 28.180079
65.885 28.103146
65.890 27.016382
65.895 26.579334
65.900 25.511106
65.905 24.767532
65.910 24.675005
65.915 24.960579
65.920 24.796997
65.925 25.26281
65.930 25.675932
65.935 26.136154
65.940 26.295498
65.945 26.029516
65.950 25.349318
65.955 25.569836
65.960 24.701265
65.965 23.447592
65.970 22.608543
65.975 21.561874
65.980 21.595871
65.985 21.726942
65.990 20.888269
65.995 20.708244
66.000 21.117634
66.005 21.466068
66.010 21.861448
66.015 21.775694
66.020 21.818275
66.025 22.381763
66.030 23.061556
66.035 23.181656
66.040 22.92868
66.045 22.829884
66.050 22.64908
66.055 22.387259
66.060 22.145348
66.065 21.324284
66.070 20.764544
66.075 20.900499
66.080 20.34947
66.085 20.363901
66.090 20.074755
66.095 20.424725
66.100 19.818058
66.105 19.36702
66.110 19.007635
66.115 19.050972
66.120 18.410852
66.125 18.421942
66.130 17.837042
66.135 17.842419
66.140 18.025724
66.145 18.533722
66.150 18.774357
66.155 18.935112
66.160 18.891695
66.165 18.744656
66.170 18.905333
66.175 18.014528
66.180 17.747948
66.185 17.567972
66.190 17.426565
66.195 17.056305
66.200 17.4699
66.205 17.958323
66.210 18.3018
66.215 18.462124
66.220 18.658871
66.225 18.336332
66.230 18.001123
66.235 17.508677
66.240 17.239187
66.245 17.645823
66.250 17.167624
66.255 16.6213
66.260 17.489407
66.265 18.181684
66.270 18.048853
66.275 17.642183
66.280 16.959862
66.285 16.940062
66.290 17.310831
66.295 16.848785
66.300 16.451508
66.305 16.377407
66.310 16.50429
66.315 16.327032
66.320 16.397549
66.325 15.925314
66.330 16.143106
66.335 16.434551
66.340 16.597582
66.345 16.63151
66.350 17.27042
66.355 17.897619
66.360 18.234711
66.365 17.576488
66.370 17.48905
66.375 17.65341
66.380 17.831287
66.385 17.558403
66.390 16.807646
66.395 16.724819
66.400 17.056479
66.405 16.716515
66.410 16.098682
66.415 16.541348
66.420 16.685522
66.425 17.098753
66.430 17.407162
66.435 16.929729
66.440 17.105804
66.445 17.748234
66.450 17.267019
66.455 17.163397
66.460 17.015331
66.465 16.673164
66.470 16.962702
66.475 17.233999
66.480 17.383886
66.485 17.258736
66.490 17.847591
66.495 17.797506
66.500 18.54957
66.505 18.607403
66.510 18.541733
66.515 18.051613
66.520 17.918203
66.525 18.010662
66.530 17.882219
66.535 17.777546
66.540 18.034306
66.545 17.776848
66.550 17.831083
66.555 17.47221
66.560 17.311821
66.565 17.49489
66.570 17.147089
66.575 16.793583
66.580 16.745258
66.585 17.25012
66.590 17.948751
66.595 18.063368
66.600 18.2714
66.605 18.196478
66.610 18.577072
66.615 19.131834
66.620 19.131592
66.625 19.144348
66.630 19.474672
66.635 19.2878
66.640 19.583857
66.645 19.117001
66.650 18.433659
66.655 18.512768
66.660 18.064529
66.665 17.501459
66.670 17.413965
66.675 17.51914
66.680 18.287392
66.685 18.535011
66.690 18.406015
66.695 18.245632
66.700 17.603117
66.705 17.469364
66.710 17.170147
66.715 16.70801
66.720 16.292973
66.725 16.254137
66.730 16.214857
66.735 16.807854
66.740 16.729958
66.745 16.967485
66.750 16.946045
66.755 17.493008
66.760 17.125378
66.765 17.076418
66.770 17.055241
66.775 17.126732
66.780 16.316168
66.785 16.305496
66.790 15.863334
66.795 15.656491
66.800 15.309217
66.805 15.147706
66.810 15.732699
66.815 16.676594
66.820 16.478117
66.825 16.881186
66.830 17.557981
66.835 18.37628
66.840 18.328167
66.845 17.640568
66.850 16.982052
66.855 16.916262
66.860 15.939217
66.865 15.533248
66.870 15.220628
66.875 15.190902
66.880 14.851441
66.885 14.548133
66.890 14.630713
66.895 15.367014
66.900 15.52708
66.905 15.516844
66.910 15.926079
66.915 16.267063
66.920 16.966202
66.925 17.096178
66.930 17.183691
66.935 17.719536
66.940 17.746527
66.945 17.788925
66.950 17.855993
66.955 17.501741
66.960 17.635468
66.965 16.820059
66.970 16.652309
66.975 17.032574
66.980 16.767969
66.985 16.939238
66.990 17.128616
66.995 16.826176
67.000 17.057577
67.005 16.560341
67.010 16.151278
67.015 16.376331
67.020 16.473541
67.025 16.856091
67.030 16.986921
67.035 17.560274
67.040 17.829493
67.045 17.899033
67.050 18.092237
67.055 18.198141
67.060 18.509314
67.065 18.461956
67.070 18.155409
67.075 17.928125
67.080 17.403982
67.085 16.750023
67.090 16.251791
67.095 15.640844
67.100 15.966238
67.105 16.219444
67.110 16.481047
67.115 17.108374
67.120 17.723436
67.125 17.599051
67.130 17.900827
67.135 18.254982
67.140 18.412607
67.145 18.60742
67.150 18.579142
67.155 18.837517
67.160 19.081366
67.165 18.623669
67.170 17.85552
67.175 17.091124
67.180 16.619436
67.185 16.466242
67.190 16.239012
67.195 16.039614
67.200 16.192608
67.205 16.432865
67.210 16.857006
67.215 17.224546
67.220 17.089022
67.225 16.46212
67.230 16.362394
67.235 16.067152
67.240 16.059387
67.245 15.993549
67.250 16.320501
67.255 16.224743
67.260 16.26969
67.265 16.401796
67.270 16.233236
67.275 16.278358
67.280 16.558157
67.285 16.482853
67.290 17.065268
67.295 17.859505
67.300 18.035465
67.305 18.110456
67.310 18.315393
67.315 18.013277
67.320 17.676842
67.325 17.282162
67.330 17.216188
67.335 17.103296
67.340 17.096788
67.345 17.300072
67.350 17.441483
67.355 17.816208
67.360 17.538223
67.365 17.431179
67.370 17.297859
67.375 17.375515
67.380 16.795671
67.385 16.547819
67.390 16.174011
67.395 16.405531
67.400 16.741455
67.405 17.232925
67.410 17.034264
67.415 17.360262
67.420 17.304142
67.425 17.241882
67.430 17.387495
67.435 16.975849
67.440 17.323784
67.445 17.625011
67.450 17.479044
67.455 17.387501
67.460 17.148203
67.465 16.749346
67.470 16.815701
67.475 16.197336
67.480 16.547785
67.485 17.010445
67.490 17.539778
67.495 17.365728
67.500 17.225973
67.505 17.418127
67.510 17.837694
67.515 17.105736
67.520 16.625666
67.525 16.374447
67.530 17.124792
67.535 17.162394
67.540 16.481714
67.545 15.939185
67.550 16.085835
67.555 16.438257
67.560 16.469521
67.565 16.663858
67.570 17.077951
67.575 17.31628
67.580 17.334162
67.585 16.797125
67.590 16.883419
67.595 16.784389
67.600 16.228163
67.605 16.670439
67.610 16.89476
67.615 17.231379
67.620 17.662647
67.625 17.589058
67.630 17.598989
67.635 17.397261
67.640 17.227509
67.645 17.606073
67.650 17.874067
67.655 18.093159
67.660 17.770519
67.665 17.57263
67.670 17.525049
67.675 16.752008
67.680 16.399681
67.685 16.293453
67.690 16.148664
67.695 16.815807
67.700 17.5553
67.705 17.58362
67.710 18.057878
67.715 18.380659
67.720 18.212622
67.725 17.79105
67.730 17.545748
67.735 17.467749
67.740 17.754644
67.745 17.729481
67.750 17.571226
67.755 17.622288
67.760 17.782719
67.765 17.570932
67.770 17.828304
67.775 17.865696
67.780 17.12051
67.785 17.019897
67.790 17.045694
67.795 17.468151
67.800 17.398912
67.805 16.744829
67.810 16.694733
67.815 17.257889
67.820 17.519358
67.825 17.68989
67.830 17.338697
67.835 17.263468
67.840 17.589108
67.845 17.328308
67.850 16.779268
67.855 16.965509
67.860 16.543114
67.865 16.468653
67.870 16.240355
67.875 16.1458
67.880 16.222527
67.885 16.164099
67.890 16.259611
67.895 16.39352
67.900 16.170429
67.905 16.303659
67.910 16.511152
67.915 17.14612
67.920 17.138268
67.925 17.105059
67.930 16.579226
67.935 16.691109
67.940 16.67712
67.945 16.350525
67.950 16.62529
67.955 17.176462
67.960 17.130564
67.965 17.2959
67.970 17.138823
67.975 16.944525
67.980 17.325659
67.985 16.796358
67.990 16.624315
67.995 17.052246
68.000 17.038744
68.005 16.88653
68.010 17.014025
68.015 16.611359
68.020 16.590441
68.025 16.732529
68.030 16.225372
68.035 16.363298
68.040 16.854822
68.045 17.211842
68.050 17.34038
68.055 17.332653
68.060 17.174755
68.065 17.578249
68.070 18.060585
68.075 17.957567
68.080 17.803061
68.085 17.889448
68.090 17.91263
68.095 18.079233
68.100 17.968132
68.105 18.148247
68.110 17.816668
68.115 17.874004
68.120 17.572918
68.125 18.020615
68.130 18.07214
68.135 18.005127
68.140 18.707439
68.145 19.26158
68.150 19.013414
68.155 18.869987
68.160 18.629486
68.165 19.112574
68.170 19.035677
68.175 18.23155
68.180 17.994848
68.185 18.604139
68.190 19.07954
68.195 18.991447
68.200 18.424829
68.205 18.278675
68.210 18.517073
68.215 18.072531
68.220 18.129236
68.225 18.716122
68.230 18.862799
68.235 18.964199
68.240 19.137169
68.245 19.616798
68.250 20.035597
68.255 19.733566
68.260 19.9196
68.265 20.275951
68.270 20.63109
68.275 21.475483
68.280 21.497753
68.285 21.913256
68.290 21.49719
68.295 20.694992
68.300 20.14333
68.305 19.904129
68.310 19.356117
68.315 19.81476
68.320 20.189865
68.325 20.875013
68.330 21.343739
68.335 21.669243
68.340 22.012918
68.345 22.078283
68.350 22.13308
68.355 22.440825
68.360 22.206921
68.365 22.104141
68.370 22.444891
68.375 22.912743
68.380 23.443529
68.385 23.330046
68.390 23.146646
68.395 23.394428
68.400 23.795033
68.405 24.097006
68.410 24.047319
68.415 23.957785
68.420 24.155609
68.425 24.54187
68.430 25.446211
68.435 25.843275
68.440 25.598888
68.445 25.544224
68.450 26.014156
68.455 26.214367
68.460 25.958805
68.465 25.64077
68.470 25.474474
68.475 25.082092
68.480 25.136595
68.485 25.113117
68.490 25.109625
68.495 25.475708
68.500 25.2922
68.505 25.916456
68.510 26.48382
68.515 27.466721
68.520 27.846886
68.525 28.421972
68.530 29.064632
68.535 29.581537
68.540 28.593796
68.545 28.811918
68.550 28.321672
68.555 29.227654
68.560 29.53385
68.565 29.378983
68.570 29.787361
68.575 30.418165
68.580 30.749437
68.585 31.047356
68.590 30.368902
68.595 30.791885
68.600 30.896532
68.605 31.650236
68.610 32.666553
68.615 32.934582
68.620 33.414848
68.625 32.902172
68.630 32.102009
68.635 32.344826
68.640 31.72266
68.645 31.231041
68.650 31.03174
68.655 30.602068
68.660 31.131926
68.665 31.914602
68.670 31.896746
68.675 31.523972
68.680 31.800859
68.685 32.187504
68.690 32.844795
68.695 32.996616
68.700 32.869446
68.705 33.038494
68.710 33.379246
68.715 34.008587
68.720 34.35955
68.725 34.444626
68.730 34.286644
68.735 33.867794
68.740 34.059765
68.745 34.694462
68.750 34.296638
68.755 33.273071
68.760 34.008327
68.765 34.236683
68.770 35.670368
68.775 36.434631
68.780 36.16758
68.785 36.652435
68.790 37.17186
68.795 36.992096
68.800 36.80994
68.805 35.827656
68.810 34.972622
68.815 35.239815
68.820 34.915203
68.825 35.241215
68.830 35.467373
68.835 35.34618
68.840 34.813976
68.845 34.464451
68.850 33.711094
68.855 33.677891
68.860 32.526947
68.865 32.180901
68.870 31.715916
68.875 31.872194
68.880 32.212482
68.885 32.69017
68.890 32.893246
68.895 33.000149
68.900 32.848969
68.905 33.429646
68.910 33.410374
68.915 32.57156
68.920 32.235802
68.925 32.165726
68.930 31.950336
68.935 31.304367
68.940 31.466383
68.945 31.595463
68.950 31.659372
68.955 30.842888
68.960 30.101162
68.965 31.157364
68.970 31.831488
68.975 30.953146
68.980 30.909546
68.985 31.003912
68.990 31.839655
68.995 31.931839
69.000 31.128664
69.005 31.035583
69.010 30.842236
69.015 30.61286
69.020 30.542679
69.025 30.225845
69.030 30.105364
69.035 29.409864
69.040 29.429779
69.045 29.485491
69.050 28.893867
69.055 28.545786
69.060 28.108856
69.065 28.311169
69.070 27.629154
69.075 26.507986
69.080 26.597673
69.085 26.926069
69.090 26.352039
69.095 25.819311
69.100 25.847799
69.105 26.669724
69.110 26.984453
69.115 26.810976
69.120 26.479334
69.125 26.72291
69.130 26.931692
69.135 25.95043
69.140 25.431709
69.145 24.909855
69.150 24.118923
69.155 24.980129
69.160 24.902206
69.165 24.989985
69.170 25.33234
69.175 24.297087
69.180 24.547935
69.185 24.661123
69.190 23.879314
69.195 23.42131
69.200 22.883417
69.205 22.654266
69.210 22.405743
69.215 22.37735
69.220 22.164291
69.225 21.732895
69.230 21.453171
69.235 21.436747
69.240 21.637388
69.245 21.36138
69.250 20.756302
69.255 20.413057
69.260 20.588402
69.265 20.978003
69.270 20.465624
69.275 20.410166
69.280 20.332043
69.285 19.75477
69.290 20.323849
69.295 19.705942
69.300 19.811789
69.305 20.214056
69.310 20.013571
69.315 19.765337
69.320 19.58428
69.325 18.539627
69.330 18.524443
69.335 18.404705
69.340 17.62295
69.345 17.473837
69.350 17.970234
69.355 18.086901
69.360 18.344141
69.365 18.550665
69.370 18.425982
69.375 18.071291
69.380 17.667645
69.385 16.900503
69.390 16.72192
69.395 16.423687
69.400 16.23712
69.405 16.310295
69.410 16.694433
69.415 17.329754
69.420 18.106514
69.425 18.527973
69.430 19.272779
69.435 19.833076
69.440 19.89983
69.445 19.659599
69.450 19.634565
69.455 19.019135
69.460 18.731205
69.465 17.695637
69.470 17.257231
69.475 16.882837
69.480 16.988623
69.485 16.737888
69.490 17.416473
69.495 17.758339
69.500 18.306772
69.505 18.518066
69.510 19.145054
69.515 19.338293
69.520 19.96093
69.525 19.419224
69.530 19.150921
69.535 19.330725
69.540 19.577927
69.545 18.988174
69.550 18.603298
69.555 18.512661
69.560 18.905853
69.565 19.146688
69.570 19.154421
69.575 19.157663
69.580 19.311483
69.585 19.694197
69.590 19.593279
69.595 18.832012
69.600 18.59112
69.605 18.42223
69.610 18.59849
69.615 18.624683
69.620 18.501999
69.625 18.474091
69.630 19.016689
69.635 18.704035
69.640 18.793627
69.645 18.668339
69.650 18.5014
69.655 18.437138
69.660 18.021862
69.665 17.572027
69.670 17.728617
69.675 17.45784
69.680 17.022703
69.685 16.811552
69.690 16.740587
69.695 17.527164
69.700 17.802326
69.705 17.812588
69.710 17.730455
69.715 18.241512
69.720 18.794676
69.725 19.021151
69.730 18.544615
69.735 18.011688
69.740 17.465681
69.745 17.267885
69.750 17.042433
69.755 16.476089
69.760 16.49221
69.765 16.92931
69.770 17.621824
69.775 17.984617
69.780 18.153717
69.785 17.931341
69.790 17.740347
69.795 16.906805
69.800 16.43854
69.805 16.206718
69.810 16.340437
69.815 16.394848
69.820 16.761251
69.825 17.095375
69.830 17.813044
69.835 17.735134
69.840 17.169828
69.845 17.274084
69.850 17.039204
69.855 17.252462
69.860 17.530354
69.865 17.665228
69.870 17.537537
69.875 17.739038
69.880 17.983124
69.885 17.732599
69.890 17.479721
69.895 17.036604
69.900 17.233818
69.905 17.861103
69.910 18.020435
69.915 17.841461
69.920 18.121456
69.925 18.080555
69.930 17.942278
69.935 17.77496
69.940 17.666819
69.945 17.356949
69.950 17.128405
69.955 17.146912
69.960 17.560486
69.965 17.728395
69.970 17.341709
69.975 17.330585
69.980 17.474176
69.985 17.368828
69.990 17.102333
69.995 17.144705
70.000 17.58246
70.005 17.597168
70.010 17.87966
70.015 17.62369
70.020 17.755934
70.025 17.899445
70.030 18.304232
70.035 17.712551
70.040 16.691458
70.045 16.263285
70.050 16.123659
70.055 15.975503
70.060 15.819202
70.065 15.779327
70.070 16.358727
70.075 17.022301
70.080 17.366274
70.085 17.425711
70.090 17.436895
70.095 17.02223
70.100 16.285839
70.105 16.431131
70.110 16.719601
70.115 16.41563
70.120 17.069378
70.125 17.385059
70.130 17.513168
70.135 17.25013
70.140 17.109339
70.145 17.279722
70.150 17.348005
70.155 16.935486
70.160 16.626732
70.165 16.542133
70.170 16.621609
70.175 16.681295
70.180 16.900229
70.185 17.102501
70.190 16.242628
70.195 16.719297
70.200 16.699629
70.205 16.344528
70.210 16.005095
70.215 15.979276
70.220 16.002041
70.225 16.433216
70.230 16.404589
70.235 16.706715
70.240 17.109283
70.245 17.13415
70.250 17.692802
70.255 17.768753
70.260 17.629606
70.265 17.404037
70.270 17.341827
70.275 17.549828
70.280 17.260353
70.285 16.217323
70.290 15.633275
70.295 15.405862
70.300 15.923194
70.305 15.589893
70.310 15.166141
70.315 15.394929
70.320 15.775993
70.325 16.122122
70.330 16.059546
70.335 15.875905
70.340 16.716234
70.345 16.305126
70.350 16.190151
70.355 16.346622
70.360 16.248205
70.365 16.274681
70.370 16.09263
70.375 16.119362
70.380 16.65616
70.385 16.532894
70.390 16.552557
70.395 16.936382
70.400 16.972317
70.405 16.705158
70.410 16.64966
70.415 16.923792
70.420 16.680117
70.425 17.386911
70.430 17.406635
70.435 17.654852
70.440 17.629887
70.445 16.744701
70.450 16.412058
70.455 16.247692
70.460 15.585896
70.465 15.221097
70.470 15.172034
70.475 15.656473
70.480 16.361866
70.485 16.69483
70.490 17.249577
70.495 17.206848
70.500 17.339727
70.505 17.269836
70.510 17.152237
70.515 17.019222
70.520 17.180334
70.525 17.016205
70.530 17.252298
70.535 17.585691
70.540 17.386852
70.545 16.971676
70.550 17.244759
70.555 17.358343
70.560 17.398371
70.565 17.187677
70.570 17.000908
70.575 17.333572
70.580 17.503601
70.585 17.406872
70.590 17.191929
70.595 16.797205
70.600 16.403303
70.605 16.237871
70.610 15.915793
70.615 15.139047
70.620 14.99659
70.625 14.96475
70.630 15.865461
70.635 16.846571
70.640 16.803553
70.645 17.104456
70.650 17.478935
70.655 17.596071
70.660 17.437828
70.665 16.701191
70.670 16.003868
70.675 15.920677
70.680 16.102919
70.685 16.134264
70.690 16.174786
70.695 16.708405
70.700 17.043184
70.705 17.090452
70.710 17.283918
70.715 17.084875
70.720 17.011568
70.725 16.570944
70.730 16.026524
70.735 16.108078
70.740 16.514668
70.745 16.165188
70.750 16.884706
70.755 16.80315
70.760 17.025917
70.765 17.256535
70.770 17.199717
70.775 16.829798
70.780 16.997452
70.785 17.268412
70.790 17.657833
70.795 17.329943
70.800 16.962755
70.805 16.925381
70.810 17.128567
70.815 16.504507
70.820 16.73555
70.825 17.441538
70.830 17.787989
70.835 17.528492
70.840 17.02618
70.845 17.514099
70.850 17.833246
70.855 17.32559
70.860 16.419256
70.865 16.634785
70.870 17.344856
70.875 17.652933
70.880 17.505552
70.885 17.108227
70.890 16.546864
70.895 16.458597
70.900 16.398352
70.905 16.913771
70.910 17.07098
70.915 16.952412
70.920 17.317104
70.925 17.913868
70.930 18.383385
70.935 18.772814
70.940 18.422981
70.945 18.736843
70.950 18.871124
70.955 18.42156
70.960 18.764757
70.965 18.625042
70.970 18.487461
70.975 18.364492
70.980 17.775606
70.985 17.852728
70.990 18.022097
70.995 17.186954
71.000 17.18203
71.005 16.76302
71.010 16.316982
71.015 16.704594
71.020 16.786961
71.025 16.378736
71.030 16.513208
71.035 16.69982
71.040 17.043123
71.045 16.836559
71.050 16.56176
71.055 16.746492
71.060 17.763876
71.065 17.904766
71.070 17.945156
71.075 17.863176
71.080 18.279362
71.085 19.051592
71.090 19.429665
71.095 18.794413
71.100 18.493715
71.105 17.988443
71.110 18.144478
71.115 17.766624
71.120 17.209373
71.125 16.726273
71.130 16.601927
71.135 16.999701
71.140 17.758038
71.145 17.944445
71.150 17.75703
71.155 17.712349
71.160 17.50029
71.165 17.50284
71.170 17.022936
71.175 16.423965
71.180 16.221478
71.185 16.241215
71.190 16.156586
71.195 16.107695
71.200 16.206293
71.205 16.127434
71.210 16.325563
71.215 16.402714
71.220 16.425291
71.225 16.814735
71.230 16.924946
71.235 16.419535
71.240 16.334679
71.245 16.213335
71.250 16.636387
71.255 16.903612
71.260 16.311295
71.265 16.326729
71.270 16.567383
71.275 16.439445
71.280 16.500153
71.285 15.842488
71.290 15.954213
71.295 16.012611
71.300 15.883709
71.305 16.322067
71.310 16.550959
71.315 16.146309
71.320 16.08506
71.325 16.019897
71.330 15.550832
71.335 15.920163
71.340 16.155006
71.345 16.425385
71.350 16.726387
71.355 16.510668
71.360 16.227871
71.365 17.143007
71.370 15.881554
71.375 14.898104
71.380 14.525036
71.385 14.29843
71.390 14.310742
71.395 14.557896
71.400 15.143886
71.405 16.183504
71.410 17.102455
71.415 17.283581
71.420 17.628693
71.425 17.887671
71.430 17.398584
71.435 16.443607
71.440 16.472414
71.445 16.104692
71.450 16.262693
71.455 16.230547
71.460 15.748412
71.465 16.065224
71.470 16.151709
71.475 15.97436
71.480 16.263889
71.485 16.131329
71.490 16.125128
71.495 16.34366
71.500 17.137878
71.505 17.573393
71.510 17.601425
71.515 17.452909
71.520 17.738457
71.525 17.908421
71.530 17.534721
71.535 17.140026
71.540 16.6968
71.545 16.724211
71.550 16.71373
71.555 16.666746
71.560 16.435606
71.565 16.430145
71.570 16.283201
71.575 16.290188
71.580 15.982848
71.585 16.164209
71.590 16.088062
71.595 16.439514
71.600 16.416151
71.605 16.643066
71.610 17.102139
71.615 17.330103
71.620 17.486456
71.625 17.577564
71.630 17.363005
71.635 17.6395
71.640 17.158485
71.645 17.044146
71.650 16.840471
71.655 16.299566
71.660 16.072556
71.665 16.288006
71.670 15.854579
71.675 16.257191
71.680 15.95645
71.685 16.031506
71.690 16.687185
71.695 16.800035
71.700 16.546558
71.705 16.358017
71.710 16.476404
71.715 16.232897
71.720 15.908767
71.725 16.049829
71.730 16.557957
71.735 16.922844
71.740 17.559166
71.745 18.142286
71.750 18.27647
71.755 18.118048
71.760 17.580618
71.765 17.113859
71.770 17.089273
71.775 17.018682
71.780 16.719358
71.785 17.147926
71.790 17.197952
71.795 17.11895
71.800 17.46726
71.805 17.66247
71.810 17.787359
71.815 17.592251
71.820 17.7565
71.825 17.519863
71.830 17.736858
71.835 17.432961
71.840 17.242987
71.845 17.364605
71.850 17.172619
71.855 17.258873
71.860 17.596546
71.865 17.364309
71.870 17.523058
71.875 17.888783
71.880 17.401953
71.885 17.266569
71.890 17.261814
71.895 17.690439
71.900 17.950487
71.905 17.426863
71.910 17.08313
71.915 17.940245
71.920 17.833914
71.925 17.358498
71.930 17.225458
71.935 16.941631
71.940 17.041483
71.945 16.256926
71.950 16.012987
71.955 16.107574
71.960 16.814405
71.965 16.573702
71.970 16.936209
71.975 17.297558
71.980 16.928831
71.985 16.771671
71.990 16.533123
71.995 15.545541
72.000 15.687246
72.005 15.830105
72.010 16.013609
72.015 16.323532
72.020 16.900127
72.025 17.053802
72.030 17.406857
72.035 17.373531
72.040 17.333973
72.045 17.264679
72.050 17.455643
72.055 17.546555
72.060 17.553373
72.065 17.887287
72.070 17.464813
72.075 16.912521
72.080 16.448416
72.085 16.372431
72.090 16.491394
72.095 16.608252
72.100 16.562859
72.105 16.776114
72.110 16.362694
72.115 16.147383
72.120 16.148859
72.125 16.457205
72.130 16.416084
72.135 15.717407
72.140 15.983215
72.145 16.65621
72.150 17.231375
72.155 17.037289
72.160 16.888954
72.165 16.818537
72.170 17.060993
72.175 17.216539
72.180 17.276705
72.185 16.893091
72.190 16.675428
72.195 16.496477
72.200 16.241777
72.205 16.203402
72.210 16.023598
72.215 16.695671
72.220 16.910019
72.225 16.8095
72.230 17.299412
72.235 17.479265
72.240 17.832996
72.245 17.783232
72.250 17.142481
72.255 17.555059
72.260 17.461456
72.265 17.458445
72.270 17.480093
72.275 17.488617
72.280 17.666409
72.285 17.699974
72.290 17.36776
72.295 17.306055
72.300 16.925508
72.305 16.864609
72.310 16.449471
72.315 16.712927
72.320 17.224016
72.325 17.758869
72.330 18.164557
72.335 17.942659
72.340 18.104229
72.345 17.852623
72.350 17.774752
72.355 17.119402
72.360 16.613539
72.365 16.482126
72.370 16.329767
72.375 16.041351
72.380 15.975031
72.385 15.947099
72.390 15.686535
72.395 15.603139
72.400 16.209999
72.405 16.53599
72.410 16.885406
72.415 16.970331
72.420 17.012783
72.425 17.103779
72.430 16.637741
72.435 16.646921
72.440 16.809011
72.445 16.740845
72.450 16.698463
72.455 16.780373
72.460 16.934303
72.465 17.112495
72.470 17.531553
72.475 17.25325
72.480 17.336575
72.485 17.253088
72.490 16.72694
72.495 16.73138
72.500 16.685028
72.505 16.159952
72.510 16.002056
72.515 15.653165
72.520 15.776593
72.525 16.640984
72.530 16.37373
72.535 16.744255
72.540 17.048532
72.545 17.341192
72.550 17.541914
72.555 17.602821
72.560 18.037449
72.565 17.490816
72.570 16.801041
72.575 16.709692
72.580 17.045912
72.585 16.698137
72.590 16.49946
72.595 16.050177
72.600 17.166332
72.605 17.536558
72.610 17.719427
72.615 17.756727
72.620 17.744965
72.625 18.02301
72.630 17.629082
72.635 17.346806
72.640 17.197052
72.645 16.754423
72.650 16.379105
72.655 16.494684
72.660 16.597387
72.665 16.823059
72.670 16.964378
72.675 16.981722
72.680 17.241337
72.685 16.969452
72.690 16.522537
72.695 16.409166
72.700 16.314575
72.705 15.749301
72.710 15.795645
72.715 15.619562
72.720 15.910105
72.725 15.566248
72.730 15.60419
72.735 15.706316
72.740 15.356735
72.745 15.348329
72.750 15.131205
72.755 15.138576
72.760 15.629444
72.765 15.548001
72.770 15.743753
72.775 16.285536
72.780 16.587997
72.785 16.858046
72.790 16.975487
72.795 16.902697
72.800 17.164103
72.805 17.041832
72.810 16.431906
72.815 16.68952
72.820 16.761274
72.825 16.709044
72.830 16.554304
72.835 16.039103
72.840 15.984706
72.845 15.633858
72.850 14.841012
72.855 14.538592
72.860 14.451809
72.865 14.173759
72.870 14.035276
72.875 14.032978
72.880 14.251762
72.885 14.766215
72.890 14.626738
72.895 14.152693
72.900 14.706822
72.905 15.237499
72.910 15.158303
72.915 15.442337
72.920 15.49006
72.925 16.093691
72.930 16.543404
72.935 16.498837
72.940 16.877243
72.945 17.663435
72.950 18.114628
72.955 17.79995
72.960 17.313684
72.965 16.918188
72.970 16.709839
72.975 16.102102
72.980 15.57694
72.985 15.178334
72.990 15.621503
72.995 15.829685
73.000 15.590876
