!@!!GADDS PLOTSO FILE: Chi integration type
!@!!Title/SampleName: map-18b
!@!!Comment: ?
!@!!User: Bruker Instrument Administrator
!@!!Site: University of Illinois Chicago
!@!!Frame: map-18b_01_000.gfrm
!@!!Wavelengths    1.54184   1.54056   1.54439
!@!!Frame angles: 2Theta: 63.000 Omega: 50.000 Phi: 0.000 Chi: 90.000
!@!!Integration range: 2Theta: 53.000 to 73.000  Gamma: -105.000 to -75.000
!@!!Integration method: bin normalized
!@!N
!@!SS
!@!M
!@!L 0.0 0.0 0.0 0.0
!@!XDegrees
!@!YCounts
53.000 9.793955
53.005 9.916441
53.010 9.669398
53.015 9.601161
53.020 9.576388
53.025 9.444609
53.030 9.513873
53.035 9.326559
53.040 9.342779
53.045 9.384018
53.050 9.325122
53.055 9.659361
53.060 9.786211
53.065 9.671408
53.070 9.553963
53.075 9.441685
53.080 9.16401
53.085 8.834484
53.090 8.50301
53.095 8.746435
53.100 8.720866
53.105 9.349032
53.110 9.715508
53.115 10.013167
53.120 9.817006
53.125 9.405548
53.130 9.180957
53.135 9.209073
53.140 8.506977
53.145 8.007157
53.150 7.918072
53.155 8.386863
53.160 8.635302
53.165 9.13861
53.170 9.354372
53.175 9.947311
53.180 10.489051
53.185 10.492661
53.190 10.245116
53.195 9.980331
53.200 9.481203
53.205 9.282043
53.210 9.222172
53.215 9.189879
53.220 9.376526
53.225 9.526723
53.230 9.655451
53.235 9.539358
53.240 9.098643
53.245 8.700683
53.250 8.509645
53.255 8.508972
53.260 8.874878
53.265 8.972189
53.270 9.148682
53.275 9.330409
53.280 9.708199
53.285 9.61806
53.290 9.204394
53.295 8.729149
53.300 8.640689
53.305 8.797883
53.310 8.71264
53.315 8.568411
53.320 8.973691
53.325 9.21435
53.330 9.615449
53.335 10.3377
53.340 10.006028
53.345 10.063355
53.350 10.333591
53.355 10.504224
53.360 10.452919
53.365 10.239325
53.370 10.00247
53.375 9.830359
53.380 9.569582
53.385 8.755415
53.390 8.145248
53.395 8.37558
53.400 7.809485
53.405 7.865366
53.410 8.152493
53.415 8.307774
53.420 8.977818
53.425 9.376258
53.430 9.018689
53.435 9.029599
53.440 9.038519
53.445 9.335036
53.450 9.803793
53.455 9.482348
53.460 9.308249
53.465 9.782128
53.470 9.802757
53.475 10.234378
53.480 9.641396
53.485 9.083997
53.490 8.985743
53.495 9.137769
53.500 9.55007
53.505 9.143355
53.510 8.791647
53.515 9.254859
53.520 9.565147
53.525 10.016198
53.530 9.900309
53.535 9.390862
53.540 9.683161
53.545 9.395452
53.550 9.249055
53.555 8.956795
53.560 8.44179
53.565 8.302711
53.570 8.341548
53.575 8.371633
53.580 8.45847
53.585 8.192545
53.590 8.528805
53.595 8.592207
53.600 8.576052
53.605 8.746971
53.610 9.296064
53.615 10.065489
53.620 10.290635
53.625 10.511499
53.630 10.497924
53.635 10.595452
53.640 10.610362
53.645 10.227878
53.650 9.649561
53.655 9.666539
53.660 9.825714
53.665 9.764115
53.670 9.918656
53.675 9.895303
53.680 10.154329
53.685 10.241616
53.690 9.676796
53.695 9.625417
53.700 10.106447
53.705 10.391322
53.710 10.552013
53.715 10.514947
53.720 10.629368
53.725 10.660665
53.730 10.780871
53.735 10.734295
53.740 10.144188
53.745 9.405938
53.750 9.617137
53.755 9.821969
53.760 9.509474
53.765 9.457265
53.770 9.195909
53.775 9.564973
53.780 10.060396
53.785 10.514775
53.790 11.020883
53.795 11.317881
53.800 11.336555
53.805 12.056505
53.810 12.065708
53.815 11.611241
53.820 10.846353
53.825 10.630481
53.830 10.395423
53.835 10.219619
53.840 9.715381
53.845 10.037745
53.850 10.091883
53.855 10.045703
53.860 9.905319
53.865 9.840835
53.870 9.898009
53.875 9.993343
53.880 9.860287
53.885 10.382052
53.890 10.37997
53.895 10.804127
53.900 10.854161
53.905 10.470203
53.910 10.224148
53.915 9.732598
53.920 9.340384
53.925 9.134649
53.930 8.905338
53.935 8.826357
53.940 8.803267
53.945 8.786072
53.950 9.244293
53.955 9.304863
53.960 9.097348
53.965 9.548265
53.970 9.73709
53.975 9.863516
53.980 9.430581
53.985 8.998525
53.990 9.378907
53.995 9.403663
54.000 8.625953
54.005 8.255236
54.010 8.435088
54.015 9.057775
54.020 9.079788
54.025 8.891636
54.030 9.198584
54.035 9.412813
54.040 9.554307
54.045 9.387923
54.050 9.323458
54.055 9.115127
54.060 8.766044
54.065 8.825165
54.070 9.181403
54.075 9.233907
54.080 9.005424
54.085 9.038062
54.090 9.730966
54.095 10.044944
54.100 9.925321
54.105 9.538162
54.110 9.717717
54.115 9.940494
54.120 9.873323
54.125 9.994628
54.130 9.967489
54.135 9.837745
54.140 10.269047
54.145 10.349782
54.150 10.446357
54.155 10.441368
54.160 9.9537
54.165 9.771436
54.170 9.642655
54.175 9.144965
54.180 9.106874
54.185 8.774317
54.190 8.656868
54.195 8.853477
54.200 8.834404
54.205 8.913568
54.210 8.558696
54.215 8.292798
54.220 8.330138
54.225 8.095784
54.230 8.403853
54.235 8.728436
54.240 8.989558
54.245 9.149352
54.250 9.116647
54.255 9.20514
54.260 9.072059
54.265 8.717327
54.270 8.824382
54.275 8.965996
54.280 9.182045
54.285 9.248673
54.290 9.057321
54.295 9.132576
54.300 9.125646
54.305 9.266202
54.310 9.199162
54.315 9.722032
54.320 10.233335
54.325 10.645343
54.330 10.604506
54.335 10.382455
54.340 10.680545
54.345 10.389984
54.350 9.858584
54.355 9.666445
54.360 9.386024
54.365 9.036223
54.370 9.0433
54.375 8.661775
54.380 8.526276
54.385 8.433895
54.390 7.923312
54.395 8.310591
54.400 9.032453
54.405 9.303562
54.410 9.577407
54.415 9.385331
54.420 9.621945
54.425 9.877995
54.430 9.669502
54.435 9.622076
54.440 9.200686
54.445 9.235476
54.450 9.87184
54.455 9.810331
54.460 9.738837
54.465 9.865049
54.470 9.632496
54.475 9.860456
54.480 10.015693
54.485 9.717849
54.490 10.200014
54.495 10.3897
54.500 10.190401
54.505 9.768681
54.510 9.193493
54.515 9.057986
54.520 9.341898
54.525 9.375459
54.530 9.248804
54.535 9.129416
54.540 9.373245
54.545 10.008262
54.550 10.072507
54.555 9.628855
54.560 9.303967
54.565 9.416708
54.570 9.612803
54.575 9.34077
54.580 9.052896
54.585 9.068335
54.590 9.315829
54.595 9.570273
54.600 9.756633
54.605 9.570136
54.610 9.988246
54.615 10.065495
54.620 9.979115
54.625 10.271958
54.630 10.364146
54.635 10.303592
54.640 10.03649
54.645 9.470891
54.650 9.445159
54.655 9.17867
54.660 8.820612
54.665 8.659546
54.670 9.111586
54.675 9.439224
54.680 9.677205
54.685 9.85871
54.690 9.847273
54.695 9.415924
54.700 9.003267
54.705 8.98734
54.710 9.480849
54.715 9.947905
54.720 10.332317
54.725 10.416958
54.730 10.461652
54.735 10.644152
54.740 10.380296
54.745 10.089266
54.750 9.724869
54.755 9.298029
54.760 9.653563
54.765 10.231505
54.770 10.410843
54.775 10.889789
54.780 10.909951
54.785 10.83318
54.790 10.539831
54.795 10.108984
54.800 10.193522
54.805 10.439095
54.810 9.958179
54.815 9.988117
54.820 9.580199
54.825 9.924184
54.830 10.010829
54.835 9.912225
54.840 10.045071
54.845 10.229406
54.850 9.925371
54.855 10.133141
54.860 9.82908
54.865 9.476599
54.870 9.31845
54.875 9.297718
54.880 9.634368
54.885 9.976469
54.890 10.089231
54.895 10.032022
54.900 10.018782
54.905 9.729129
54.910 9.614965
54.915 9.984311
54.920 10.266718
54.925 10.280421
54.930 10.716848
54.935 10.829366
54.940 11.0034
54.945 11.01827
54.950 10.636462
54.955 10.536458
54.960 10.811377
54.965 11.120652
54.970 11.244927
54.975 10.828478
54.980 10.655811
54.985 10.898802
54.990 11.153525
54.995 10.72764
55.000 10.418238
55.005 10.317348
55.010 10.743148
55.015 10.548673
55.020 10.350311
55.025 10.44313
55.030 10.302961
55.035 10.185214
55.040 10.005438
55.045 9.650876
55.050 9.956696
55.055 9.691113
55.060 9.678073
55.065 9.694308
55.070 9.449207
55.075 9.511957
55.080 9.623936
55.085 9.718269
55.090 9.803416
55.095 9.764665
55.100 9.543001
55.105 9.637045
55.110 9.531626
55.115 9.443232
55.120 9.096722
55.125 9.160341
55.130 9.434774
55.135 10.168382
55.140 10.390915
55.145 10.432224
55.150 10.076928
55.155 10.099316
55.160 9.841062
55.165 9.734317
55.170 9.839121
55.175 9.726332
55.180 9.849396
55.185 9.947075
55.190 10.208216
55.195 10.400482
55.200 10.622549
55.205 10.688605
55.210 10.65504
55.215 10.993857
55.220 10.768299
55.225 10.088561
55.230 10.235047
55.235 9.947238
55.240 9.980842
55.245 9.558997
55.250 9.04086
55.255 9.776818
55.260 10.291034
55.265 9.983365
55.270 9.922983
55.275 9.832814
55.280 10.015841
55.285 10.194123
55.290 10.073476
55.295 10.045402
55.300 10.176179
55.305 10.345905
55.310 10.605748
55.315 10.782625
55.320 11.20072
55.325 11.106652
55.330 10.880569
55.335 10.304435
55.340 10.190825
55.345 9.864697
55.350 9.596176
55.355 8.857352
55.360 8.964494
55.365 9.422491
55.370 10.126369
55.375 10.040746
55.380 10.061541
55.385 10.482865
55.390 10.431788
55.395 10.174647
55.400 9.879884
55.405 9.40061
55.410 9.632053
55.415 9.555199
55.420 9.282622
55.425 9.658182
55.430 9.523838
55.435 9.82643
55.440 9.995626
55.445 9.714621
55.450 9.76
55.455 10.183067
55.460 10.18453
55.465 10.399718
55.470 9.836548
55.475 9.703849
55.480 9.513113
55.485 9.309618
55.490 8.886493
55.495 9.046765
55.500 8.75299
55.505 9.162674
55.510 9.304022
55.515 9.288821
55.520 9.359897
55.525 9.566648
55.530 9.525675
55.535 9.702512
55.540 9.325542
55.545 9.390602
55.550 9.587133
55.555 9.852821
55.560 9.785338
55.565 9.637975
55.570 9.471469
55.575 9.117366
55.580 9.337245
55.585 9.258555
55.590 8.912927
55.595 8.848933
55.600 8.861012
55.605 8.657091
55.610 8.704674
55.615 8.399279
55.620 8.23734
55.625 8.007537
55.630 8.083334
55.635 8.83555
55.640 9.355147
55.645 9.528918
55.650 9.940377
55.655 10.145622
55.660 10.095779
55.665 9.623367
55.670 9.278537
55.675 9.368153
55.680 9.61631
55.685 9.855165
55.690 10.27439
55.695 10.706836
55.700 10.641314
55.705 10.53473
55.710 10.478853
55.715 10.280901
55.720 9.834406
55.725 9.44135
55.730 9.230217
55.735 8.974365
55.740 8.814526
55.745 8.709959
55.750 9.023796
55.755 9.230216
55.760 9.408391
55.765 10.037872
55.770 10.705966
55.775 10.360679
55.780 10.467394
55.785 10.705517
55.790 10.615283
55.795 10.501798
55.800 9.938264
55.805 9.457223
55.810 9.596653
55.815 9.329563
55.820 9.359408
55.825 9.723927
55.830 9.511131
55.835 9.629975
55.840 10.313085
55.845 10.79202
55.850 10.849879
55.855 10.248322
55.860 10.14326
55.865 10.346115
55.870 10.714899
55.875 10.842797
55.880 10.72502
55.885 10.973323
55.890 10.568506
55.895 10.010908
55.900 9.706097
55.905 9.173374
55.910 9.269322
55.915 9.39218
55.920 9.553379
55.925 9.940876
55.930 10.648395
55.935 11.076383
55.940 10.873592
55.945 10.105052
55.950 9.779683
55.955 9.603838
55.960 9.601551
55.965 9.455814
55.970 9.647307
55.975 9.680908
55.980 9.687795
55.985 9.375899
55.990 9.300749
55.995 9.120697
56.000 8.723186
56.005 8.595604
56.010 8.616223
56.015 8.644602
56.020 8.395965
56.025 8.3278
56.030 8.849888
56.035 8.83119
56.040 8.830388
56.045 8.941822
56.050 9.401957
56.055 9.885654
56.060 9.984845
56.065 9.501615
56.070 10.049144
56.075 9.974581
56.080 10.274666
56.085 10.302557
56.090 10.298626
56.095 9.966259
56.100 9.670659
56.105 9.333313
56.110 9.541361
56.115 9.410898
56.120 9.374164
56.125 9.570596
56.130 9.948503
56.135 10.497145
56.140 10.566195
56.145 10.500941
56.150 10.214385
56.155 9.9022
56.160 9.875301
56.165 10.022992
56.170 10.029051
56.175 10.06854
56.180 10.063791
56.185 9.996246
56.190 10.067015
56.195 9.91411
56.200 9.789642
56.205 9.672796
56.210 9.790375
56.215 9.810508
56.220 9.811378
56.225 9.685221
56.230 9.537668
56.235 9.206828
56.240 9.049644
56.245 8.916874
56.250 9.15447
56.255 9.575397
56.260 9.44304
56.265 9.333883
56.270 9.464971
56.275 9.502428
56.280 9.372491
56.285 9.64153
56.290 9.756589
56.295 10.01815
56.300 10.739377
56.305 11.068975
56.310 10.893931
56.315 11.190236
56.320 10.404623
56.325 9.984751
56.330 10.046789
56.335 9.83612
56.340 9.893554
56.345 10.193683
56.350 10.134986
56.355 10.342249
56.360 10.39242
56.365 10.42281
56.370 10.237341
56.375 10.557615
56.380 10.818848
56.385 10.882147
56.390 10.936776
56.395 11.244167
56.400 11.015584
56.405 10.863628
56.410 10.936835
56.415 10.767991
56.420 10.854994
56.425 11.067517
56.430 11.216914
56.435 11.305551
56.440 11.395669
56.445 10.744048
56.450 10.297018
56.455 11.039399
56.460 11.142065
56.465 10.969755
56.470 11.424386
56.475 11.679536
56.480 12.541013
56.485 12.910755
56.490 12.802669
56.495 13.032145
56.500 12.929009
56.505 12.933555
56.510 12.511578
56.515 12.227564
56.520 12.16422
56.525 11.714573
56.530 12.108795
56.535 12.336906
56.540 12.207142
56.545 12.614587
56.550 12.65407
56.555 12.833782
56.560 13.043213
56.565 12.459224
56.570 12.634872
56.575 12.946926
56.580 12.970804
56.585 13.349313
56.590 13.266262
56.595 12.78568
56.600 13.016398
56.605 12.939198
56.610 12.486309
56.615 12.181753
56.620 12.19394
56.625 12.239405
56.630 12.392731
56.635 11.992536
56.640 11.908982
56.645 12.028329
56.650 12.004499
56.655 11.748832
56.660 11.418395
56.665 11.30868
56.670 10.99254
56.675 10.973211
56.680 10.835922
56.685 10.787271
56.690 10.736733
56.695 10.373069
56.700 10.349058
56.705 10.513762
56.710 10.057179
56.715 9.68792
56.720 9.640337
56.725 9.370546
56.730 9.420749
56.735 9.520686
56.740 9.18586
56.745 9.255274
56.750 9.176053
56.755 9.458353
56.760 9.525385
56.765 9.677638
56.770 9.721834
56.775 9.771773
56.780 9.868846
56.785 10.023601
56.790 9.990574
56.795 10.066155
56.800 9.685027
56.805 9.531179
56.810 9.887324
56.815 9.926732
56.820 10.207254
56.825 9.980129
56.830 10.288037
56.835 10.479092
56.840 10.243803
56.845 10.224441
56.850 10.143587
56.855 9.519677
56.860 9.350983
56.865 9.241769
56.870 9.505327
56.875 9.517019
56.880 9.604929
56.885 9.815408
56.890 10.30624
56.895 10.44431
56.900 10.484578
56.905 10.482228
56.910 10.318913
56.915 10.118111
56.920 10.255806
56.925 10.309093
56.930 10.277069
56.935 10.04614
56.940 9.993626
56.945 10.179342
56.950 9.879266
56.955 9.684929
56.960 9.450404
56.965 9.256452
56.970 9.197214
56.975 9.296806
56.980 9.29318
56.985 9.2793
56.990 9.450826
56.995 9.784338
57.000 9.695344
57.005 9.479223
57.010 9.169079
57.015 9.112403
57.020 8.905173
57.025 8.639749
57.030 8.609141
57.035 8.679832
57.040 8.908294
57.045 9.055305
57.050 8.969168
57.055 9.402978
57.060 9.611282
57.065 9.625494
57.070 9.745502
57.075 9.672959
57.080 9.93928
57.085 10.11082
57.090 9.786594
57.095 9.569528
57.100 9.909712
57.105 10.166561
57.110 10.204475
57.115 10.569987
57.120 10.427807
57.125 10.625175
57.130 10.313787
57.135 9.696722
57.140 9.407338
57.145 9.326061
57.150 8.680644
57.155 8.567928
57.160 8.101884
57.165 8.17188
57.170 8.423506
57.175 8.585911
57.180 8.614651
57.185 8.599043
57.190 9.138074
57.195 9.47947
57.200 9.813837
57.205 9.81415
57.210 9.590584
57.215 9.293044
57.220 9.428126
57.225 9.15668
57.230 9.076636
57.235 8.581718
57.240 8.222395
57.245 8.296968
57.250 8.532475
57.255 8.530296
57.260 8.340562
57.265 8.55508
57.270 9.166349
57.275 9.570329
57.280 9.760294
57.285 10.025673
57.290 10.536398
57.295 10.679405
57.300 10.493334
57.305 10.663652
57.310 10.574843
57.315 10.713932
57.320 10.4552
57.325 10.081452
57.330 9.901456
57.335 9.811605
57.340 9.521015
57.345 9.452467
57.350 9.30115
57.355 9.557698
57.360 9.636989
57.365 9.655847
57.370 9.469841
57.375 9.42058
57.380 9.817971
57.385 9.488964
57.390 9.445853
57.395 9.647388
57.400 10.023449
57.405 10.790199
57.410 11.055881
57.415 10.302685
57.420 10.233562
57.425 10.080664
57.430 10.091371
57.435 9.66275
57.440 8.860326
57.445 8.711517
57.450 8.83991
57.455 8.871798
57.460 9.16312
57.465 9.354805
57.470 9.667496
57.475 10.097508
57.480 10.271984
57.485 10.357357
57.490 10.466407
57.495 10.311792
57.500 10.40862
57.505 10.312673
57.510 9.911158
57.515 9.747128
57.520 10.06805
57.525 10.094991
57.530 9.668718
57.535 9.286942
57.540 9.564483
57.545 9.774174
57.550 9.611394
57.555 9.151188
57.560 9.300274
57.565 9.581326
57.570 9.532533
57.575 9.369582
57.580 9.832927
57.585 10.104023
57.590 10.528074
57.595 10.534223
57.600 10.624444
57.605 10.921786
57.610 10.90741
57.615 10.464424
57.620 10.328954
57.625 10.791306
57.630 10.365284
57.635 10.152003
57.640 9.94569
57.645 9.709734
57.650 9.760432
57.655 9.752564
57.660 8.574832
57.665 8.656233
57.670 8.717813
57.675 8.932812
57.680 8.983043
57.685 9.064075
57.690 8.991663
57.695 9.146198
57.700 9.289704
57.705 8.875523
57.710 8.579519
57.715 8.416448
57.720 8.450755
57.725 8.562361
57.730 8.962
57.735 9.220346
57.740 9.835006
57.745 10.082534
57.750 10.199861
57.755 9.953437
57.760 9.803913
57.765 10.242902
57.770 10.254951
57.775 9.963378
57.780 9.8958
57.785 9.814282
57.790 10.273471
57.795 10.937988
57.800 10.457062
57.805 10.074736
57.810 10.006569
57.815 10.21473
57.820 10.464238
57.825 10.10429
57.830 9.453892
57.835 9.478903
57.840 9.383642
57.845 9.139314
57.850 9.083101
57.855 8.949582
57.860 8.832766
57.865 8.88458
57.870 9.176711
57.875 9.376184
57.880 9.464607
57.885 9.121023
57.890 9.228889
57.895 9.522032
57.900 9.557344
57.905 9.730503
57.910 10.126455
57.915 10.256533
57.920 10.208977
57.925 10.310876
57.930 10.425279
57.935 10.310427
57.940 9.813024
57.945 9.684344
57.950 9.721507
57.955 9.727688
57.960 9.442038
57.965 9.2969
57.970 9.278496
57.975 9.289936
57.980 9.419501
57.985 9.435398
57.990 9.538873
57.995 9.631863
58.000 9.748823
58.005 9.741782
58.010 9.521978
58.015 9.42877
58.020 9.447147
58.025 9.526405
58.030 9.76602
58.035 9.453973
58.040 9.697676
58.045 10.002713
58.050 10.296738
58.055 10.433761
58.060 10.337431
58.065 10.524062
58.070 10.844541
58.075 10.538679
58.080 9.800351
58.085 9.127027
58.090 8.970874
58.095 8.827985
58.100 8.529248
58.105 8.549432
58.110 9.009186
58.115 9.551858
58.120 9.635347
58.125 9.843924
58.130 9.765805
58.135 9.549468
58.140 9.644228
58.145 10.11019
58.150 10.167208
58.155 10.094351
58.160 10.040368
58.165 10.433229
58.170 10.527672
58.175 10.11777
58.180 9.256635
58.185 9.355712
58.190 9.439492
58.195 9.06302
58.200 8.609057
58.205 8.44037
58.210 8.380687
58.215 8.399225
58.220 8.363007
58.225 8.605474
58.230 8.794467
58.235 9.201928
58.240 9.477256
58.245 9.714506
58.250 9.852236
58.255 10.260347
58.260 10.841041
58.265 11.129414
58.270 11.171329
58.275 10.745146
58.280 10.757286
58.285 10.34164
58.290 9.797798
58.295 9.720766
58.300 9.553521
58.305 9.371918
58.310 9.232399
58.315 9.275931
58.320 9.52052
58.325 9.396762
58.330 8.95645
58.335 9.146679
58.340 9.335301
58.345 9.627785
58.350 9.447166
58.355 9.280609
58.360 8.886388
58.365 8.921696
58.370 8.709886
58.375 8.899656
58.380 9.076142
58.385 9.391409
58.390 9.19446
58.395 9.835158
58.400 9.937049
58.405 10.183069
58.410 10.11265
58.415 9.868211
58.420 9.6783
58.425 9.856174
58.430 9.595311
58.435 9.266031
58.440 8.939186
58.445 8.641275
58.450 8.530008
58.455 9.008159
58.460 9.049867
58.465 8.86494
58.470 9.19842
58.475 9.589445
58.480 10.243587
58.485 10.310126
58.490 10.393319
58.495 11.356527
58.500 12.051138
58.505 12.034374
58.510 11.718282
58.515 11.335027
58.520 11.491528
58.525 11.118182
58.530 10.189596
58.535 10.260306
58.540 10.407162
58.545 10.98608
58.550 11.535158
58.555 11.684157
58.560 12.188307
58.565 12.166295
58.570 11.92765
58.575 11.649741
58.580 10.957277
58.585 10.660056
58.590 11.02162
58.595 10.744166
58.600 10.61618
58.605 10.574629
58.610 10.281737
58.615 10.331691
58.620 10.016651
58.625 9.421465
58.630 9.422877
58.635 9.391669
58.640 9.451583
58.645 9.722535
58.650 9.913321
58.655 10.035249
58.660 10.068583
58.665 10.069994
58.670 9.888807
58.675 10.158186
58.680 9.901628
58.685 9.671313
58.690 9.561835
58.695 9.888684
58.700 10.016591
58.705 10.322565
58.710 9.974887
58.715 10.322686
58.720 10.536995
58.725 11.032829
58.730 10.989541
58.735 11.29737
58.740 11.505967
58.745 12.13061
58.750 12.210431
58.755 12.348828
58.760 12.189271
58.765 12.173514
58.770 11.905997
58.775 11.931027
58.780 11.623227
58.785 11.080908
58.790 10.586272
58.795 10.656328
58.800 11.041182
58.805 10.990247
58.810 11.275926
58.815 11.199389
58.820 11.536981
58.825 11.831983
58.830 11.418113
58.835 11.011405
58.840 10.963755
58.845 10.287311
58.850 10.252775
58.855 10.281568
58.860 10.229768
58.865 10.285014
58.870 10.358878
58.875 9.976526
58.880 10.566185
58.885 10.820983
58.890 11.132049
58.895 11.083305
58.900 11.576833
58.905 11.466895
58.910 11.22686
58.915 10.700719
58.920 10.076476
58.925 9.559473
58.930 9.273819
58.935 8.732499
58.940 8.800315
58.945 8.793408
58.950 8.467
58.955 8.966692
58.960 9.189205
58.965 9.536087
58.970 9.992701
58.975 11.361158
58.980 11.667435
58.985 12.081034
58.990 12.237051
58.995 12.253334
59.000 12.554379
59.005 12.23801
59.010 11.067694
59.015 11.111858
59.020 11.300041
59.025 11.289376
59.030 10.71296
59.035 10.518602
59.040 10.504891
59.045 10.707305
59.050 10.440588
59.055 9.81563
59.060 9.4579
59.065 9.60378
59.070 9.76719
59.075 9.634937
59.080 9.658805
59.085 9.679626
59.090 9.494498
59.095 10.058322
59.100 10.108356
59.105 9.897026
59.110 9.935402
59.115 9.626997
59.120 10.132547
59.125 10.491671
59.130 10.282869
59.135 10.615936
59.140 10.536555
59.145 10.512861
59.150 10.339566
59.155 10.112553
59.160 10.309761
59.165 10.236457
59.170 9.782249
59.175 9.916267
59.180 9.779111
59.185 9.871004
59.190 9.641573
59.195 9.048379
59.200 8.892414
59.205 9.223288
59.210 9.46779
59.215 9.128456
59.220 8.634911
59.225 8.567354
59.230 8.818132
59.235 8.878087
59.240 8.626116
59.245 8.038721
59.250 8.569592
59.255 8.795974
59.260 8.708862
59.265 8.455046
59.270 8.675045
59.275 9.055072
59.280 9.298368
59.285 9.589815
59.290 10.098673
59.295 10.35305
59.300 10.541939
59.305 10.345312
59.310 10.069139
59.315 10.077392
59.320 9.853069
59.325 9.991592
59.330 9.923392
59.335 9.936909
59.340 9.751887
59.345 9.632152
59.350 9.439906
59.355 9.289234
59.360 8.809196
59.365 8.853247
59.370 8.728041
59.375 8.883131
59.380 8.996918
59.385 8.724507
59.390 8.411516
59.395 8.209933
59.400 8.185858
59.405 8.087897
59.410 8.00976
59.415 8.156258
59.420 8.67052
59.425 9.413454
59.430 9.695498
59.435 10.202493
59.440 10.815723
59.445 10.680903
59.450 10.227898
59.455 9.9206
59.460 10.025693
59.465 10.10541
59.470 9.52537
59.475 9.105126
59.480 9.283958
59.485 10.003064
59.490 10.391662
59.495 10.484667
59.500 10.478733
59.505 10.696538
59.510 10.919662
59.515 10.52454
59.520 10.288221
59.525 9.973855
59.530 9.497981
59.535 8.982611
59.540 8.877022
59.545 8.687239
59.550 9.100635
59.555 9.146028
59.560 9.173517
59.565 9.162247
59.570 9.377572
59.575 9.344248
59.580 9.519509
59.585 9.2811
59.590 8.837791
59.595 8.490398
59.600 8.368834
59.605 8.77277
59.610 8.842958
59.615 9.012025
59.620 9.230622
59.625 9.628167
59.630 9.981489
59.635 9.452138
59.640 8.940355
59.645 9.047378
59.650 8.611688
59.655 8.588049
59.660 8.580306
59.665 8.806857
59.670 9.426485
59.675 9.617059
59.680 9.548929
59.685 9.740159
59.690 9.947778
59.695 10.008553
59.700 10.176501
59.705 10.330096
59.710 9.979661
59.715 9.728687
59.720 9.473553
59.725 9.392089
59.730 9.254649
59.735 9.266171
59.740 9.775552
59.745 10.263299
59.750 10.74239
59.755 11.008726
59.760 10.993554
59.765 11.235042
59.770 10.923141
59.775 10.732335
59.780 10.512547
59.785 10.490451
59.790 10.799608
59.795 10.713333
59.800 10.643958
59.805 10.884231
59.810 10.800273
59.815 11.159691
59.820 10.907511
59.825 10.69766
59.830 10.511041
59.835 10.547979
59.840 10.760356
59.845 10.801041
59.850 10.603269
59.855 10.5535
59.860 10.664911
59.865 10.715787
59.870 10.407329
59.875 9.475103
59.880 8.978134
59.885 8.896506
59.890 9.063155
59.895 9.097328
59.900 9.400894
59.905 9.492852
59.910 9.86313
59.915 10.060047
59.920 9.963394
59.925 9.90309
59.930 9.646126
59.935 9.478565
59.940 9.849504
59.945 9.868663
59.950 10.092813
59.955 10.147675
59.960 10.260688
59.965 10.509552
59.970 10.74332
59.975 10.192992
59.980 10.055859
59.985 10.151943
59.990 10.011569
59.995 10.273859
60.000 10.155865
60.005 9.944686
60.010 10.438559
60.015 10.876318
60.020 10.830765
60.025 10.547742
60.030 10.198688
60.035 10.127585
60.040 10.057581
60.045 9.910284
60.050 9.357611
60.055 9.379018
60.060 9.695048
60.065 9.788568
60.070 10.18434
60.075 9.997305
60.080 9.889558
60.085 10.069309
60.090 9.960932
60.095 10.374599
60.100 10.145026
60.105 9.604125
60.110 9.800415
60.115 9.677812
60.120 9.947648
60.125 9.897465
60.130 9.722495
60.135 10.238396
60.140 10.454902
60.145 10.563496
60.150 10.455254
60.155 10.250405
60.160 10.232447
60.165 9.961985
60.170 9.165401
60.175 8.829556
60.180 8.354683
60.185 8.213408
60.190 8.188539
60.195 8.016086
60.200 8.187854
60.205 8.46343
60.210 8.982406
60.215 9.218182
60.220 9.492244
60.225 9.571185
60.230 9.594586
60.235 9.562267
60.240 9.185349
60.245 8.970808
60.250 9.144897
60.255 9.194627
60.260 9.594392
60.265 10.177735
60.270 10.269465
60.275 10.522975
60.280 10.502192
60.285 10.412239
60.290 9.849227
60.295 9.413563
60.300 9.197885
60.305 9.042062
60.310 9.07652
60.315 9.036549
60.320 8.734041
60.325 8.899047
60.330 8.96603
60.335 8.712417
60.340 8.657494
60.345 8.817835
60.350 9.144456
60.355 9.584249
60.360 9.729814
60.365 9.356309
60.370 9.444616
60.375 9.613276
60.380 9.430354
60.385 9.439513
60.390 9.520533
60.395 9.709619
60.400 10.20595
60.405 10.064713
60.410 10.302029
60.415 10.320881
60.420 10.59903
60.425 10.534106
60.430 10.41359
60.435 10.419139
60.440 10.478376
60.445 10.172697
60.450 9.87162
60.455 9.732699
60.460 9.814181
60.465 9.947098
60.470 9.799688
60.475 10.029207
60.480 9.964555
60.485 10.215851
60.490 10.140678
60.495 10.172724
60.500 9.882588
60.505 9.889306
60.510 9.750512
60.515 9.979311
60.520 9.758903
60.525 9.499886
60.530 9.369687
60.535 9.37323
60.540 9.421464
60.545 9.434275
60.550 9.157157
60.555 8.901397
60.560 9.06263
60.565 8.96722
60.570 9.238362
60.575 9.007603
60.580 9.254193
60.585 9.55197
60.590 9.955124
60.595 9.83809
60.600 9.786255
60.605 9.63488
60.610 10.006695
60.615 9.829474
60.620 9.567972
60.625 9.474137
60.630 9.440731
60.635 9.749656
60.640 9.925146
60.645 9.878949
60.650 10.060218
60.655 10.08236
60.660 10.004509
60.665 9.854784
60.670 9.771962
60.675 9.995648
60.680 9.591949
60.685 9.715258
60.690 9.555599
60.695 9.368357
60.700 9.147904
60.705 9.253777
60.710 9.144051
60.715 9.133313
60.720 8.708205
60.725 8.775004
60.730 8.822574
60.735 9.228994
60.740 8.76396
60.745 8.428571
60.750 8.319111
60.755 8.191332
60.760 8.271672
60.765 8.370239
60.770 8.409089
60.775 8.442042
60.780 8.500758
60.785 8.713082
60.790 9.092726
60.795 9.078088
60.800 9.050706
60.805 8.989792
60.810 9.436948
60.815 9.628079
60.820 9.514449
60.825 9.442323
60.830 9.70064
60.835 9.914166
60.840 10.408788
60.845 10.330193
60.850 11.163298
60.855 11.866377
60.860 11.622058
60.865 11.161795
60.870 10.869145
60.875 10.320685
60.880 10.151547
60.885 9.071403
60.890 8.525772
60.895 8.689951
60.900 8.981066
60.905 8.502898
60.910 8.192216
60.915 8.29228
60.920 9.307385
60.925 9.281669
60.930 9.433307
60.935 9.461199
60.940 10.08682
60.945 10.586139
60.950 10.288494
60.955 10.089172
60.960 10.240462
60.965 9.962953
60.970 9.680499
60.975 9.128259
60.980 9.006111
60.985 9.177116
60.990 8.628676
60.995 8.973694
61.000 9.053146
61.005 9.393158
61.010 9.51918
61.015 9.4513
61.020 9.461783
61.025 9.766047
61.030 9.479955
61.035 9.554894
61.040 9.240041
61.045 9.447936
61.050 9.36356
61.055 8.752312
61.060 8.362267
61.065 8.079678
61.070 8.055584
61.075 8.139502
61.080 8.281975
61.085 9.076254
61.090 9.376655
61.095 9.770823
61.100 9.868099
61.105 9.904405
61.110 10.207174
61.115 10.227765
61.120 9.297942
61.125 9.113124
61.130 8.809835
61.135 8.939162
61.140 8.980549
61.145 8.727154
61.150 8.452227
61.155 9.232324
61.160 9.791092
61.165 9.559114
61.170 9.378444
61.175 9.762815
61.180 9.961654
61.185 9.867422
61.190 9.443408
61.195 9.584642
61.200 10.049416
61.205 10.442041
61.210 10.221991
61.215 10.00954
61.220 10.109451
61.225 10.038754
61.230 9.771648
61.235 9.396992
61.240 9.050906
61.245 9.220394
61.250 9.306163
61.255 9.238728
61.260 8.912791
61.265 8.844141
61.270 8.827545
61.275 9.005546
61.280 9.073432
61.285 9.022011
61.290 9.213223
61.295 9.066449
61.300 9.342642
61.305 10.013145
61.310 10.069798
61.315 9.39741
61.320 9.487254
61.325 9.288081
61.330 9.515853
61.335 9.066479
61.340 8.451567
61.345 8.436345
61.350 9.125136
61.355 9.15715
61.360 9.63464
61.365 9.940752
61.370 9.987613
61.375 10.136004
61.380 9.928102
61.385 9.38553
61.390 9.16363
61.395 8.868124
61.400 8.833522
61.405 8.727777
61.410 8.683807
61.415 8.714314
61.420 8.779554
61.425 8.621086
61.430 8.416929
61.435 8.536506
61.440 8.663425
61.445 8.578421
61.450 8.596304
61.455 9.152825
61.460 9.512609
61.465 9.733464
61.470 9.581995
61.475 10.108686
61.480 10.379517
61.485 10.317213
61.490 9.890943
61.495 9.949117
61.500 9.591724
61.505 9.534756
61.510 9.22849
61.515 9.342279
61.520 9.492341
61.525 9.426065
61.530 8.888766
61.535 9.098287
61.540 9.321622
61.545 9.213242
61.550 9.048965
61.555 9.279152
61.560 9.722375
61.565 10.385293
61.570 10.896528
61.575 10.868828
61.580 10.58153
61.585 10.364411
61.590 10.455005
61.595 10.123568
61.600 9.868714
61.605 9.740862
61.610 9.70932
61.615 9.818773
61.620 10.030452
61.625 9.497375
61.630 9.26793
61.635 9.225907
61.640 8.724195
61.645 8.435263
61.650 8.520107
61.655 8.299425
61.660 8.300976
61.665 8.017182
61.670 8.042548
61.675 8.474203
61.680 9.07004
61.685 9.024066
61.690 9.126522
61.695 9.526991
61.700 9.742894
61.705 9.264455
61.710 8.744362
61.715 8.928807
61.720 9.039926
61.725 8.846252
61.730 8.752955
61.735 9.278885
61.740 9.880356
61.745 10.265718
61.750 9.630126
61.755 9.535111
61.760 9.362287
61.765 9.279743
61.770 8.84787
61.775 9.196564
61.780 9.166982
61.785 9.526409
61.790 9.689887
61.795 9.718131
61.800 9.726924
61.805 9.636862
61.810 9.25614
61.815 9.339296
61.820 9.217511
61.825 9.189865
61.830 9.42902
61.835 9.577284
61.840 9.784489
61.845 9.450233
61.850 9.184431
61.855 9.052174
61.860 9.474366
61.865 9.647114
61.870 9.293944
61.875 9.452227
61.880 9.981503
61.885 10.058055
61.890 10.332359
61.895 10.00034
61.900 9.921252
61.905 9.946961
61.910 9.477122
61.915 9.597075
61.920 9.569822
61.925 9.578057
61.930 9.300941
61.935 9.180974
61.940 9.407829
61.945 9.146178
61.950 8.738286
61.955 8.786743
61.960 8.810518
61.965 8.675857
61.970 8.704657
61.975 8.978936
61.980 9.416515
61.985 9.946253
61.990 9.775749
61.995 10.206537
62.000 10.505842
62.005 10.626391
62.010 10.55693
62.015 10.356183
62.020 10.306046
62.025 10.432536
62.030 9.956635
62.035 10.024301
62.040 9.721508
62.045 9.815987
62.050 9.631694
62.055 9.326037
62.060 9.282538
62.065 9.339321
62.070 9.141794
62.075 9.240905
62.080 8.85702
62.085 9.077895
62.090 8.984715
62.095 8.845219
62.100 8.704471
62.105 8.871527
62.110 9.211377
62.115 9.672745
62.120 9.566663
62.125 9.815982
62.130 10.086983
62.135 10.174656
62.140 10.231089
62.145 10.170111
62.150 10.143098
62.155 10.363306
62.160 10.575667
62.165 10.754229
62.170 10.93877
62.175 11.215398
62.180 11.397022
62.185 11.662503
62.190 11.203164
62.195 10.595273
62.200 10.377811
62.205 10.166737
62.210 10.133239
62.215 9.683227
62.220 9.158193
62.225 9.284144
62.230 9.145854
62.235 9.064553
62.240 8.968238
62.245 8.435585
62.250 8.446069
62.255 8.512017
62.260 8.694996
62.265 8.90332
62.270 8.899055
62.275 9.025096
62.280 9.318678
62.285 9.177006
62.290 8.872294
62.295 8.903669
62.300 8.777228
62.305 8.577477
62.310 8.626281
62.315 8.494867
62.320 8.561334
62.325 8.939863
62.330 8.866221
62.335 9.094218
62.340 9.345556
62.345 8.931778
62.350 8.882504
62.355 9.043139
62.360 9.299358
62.365 9.623476
62.370 9.577868
62.375 9.312
62.380 9.962513
62.385 9.85807
62.390 9.610809
62.395 9.621383
62.400 9.456395
62.405 9.292526
62.410 9.411228
62.415 9.258155
62.420 9.682656
62.425 9.831098
62.430 9.828625
62.435 10.072669
62.440 10.468822
62.445 10.784684
62.450 10.983118
62.455 10.982995
62.460 11.258007
62.465 11.002598
62.470 10.697903
62.475 10.824734
62.480 10.915674
62.485 10.594275
62.490 10.445317
62.495 10.395638
62.500 10.383017
62.505 10.15977
62.510 10.081462
62.515 9.843026
62.520 9.850498
62.525 9.530288
62.530 9.177627
62.535 9.235751
62.540 9.312486
62.545 8.965724
62.550 9.101689
62.555 9.265651
62.560 9.33017
62.565 9.568471
62.570 9.959643
62.575 10.239717
62.580 10.28112
62.585 9.830459
62.590 9.516283
62.595 9.782578
62.600 10.012907
62.605 9.988788
62.610 9.975818
62.615 10.253197
62.620 10.845561
62.625 10.865498
62.630 10.718491
62.635 10.919518
62.640 11.019217
62.645 11.044378
62.650 10.887978
62.655 10.698452
62.660 11.478431
62.665 11.482654
62.670 11.208014
62.675 11.084149
62.680 11.093293
62.685 11.416424
62.690 11.930418
62.695 11.392026
62.700 11.416688
62.705 11.52608
62.710 11.634819
62.715 12.116018
62.720 11.763663
62.725 11.382832
62.730 11.984128
62.735 12.555884
62.740 12.297651
62.745 12.224019
62.750 11.532843
62.755 11.530586
62.760 11.510865
62.765 11.393175
62.770 10.901509
62.775 11.295016
62.780 11.153672
62.785 11.419303
62.790 11.62332
62.795 11.891993
62.800 11.283772
62.805 11.112489
62.810 10.955809
62.815 10.827912
62.820 10.892373
62.825 10.947062
62.830 11.316717
62.835 11.546914
62.840 11.548221
62.845 11.554346
62.850 11.956074
62.855 11.91553
62.860 11.869108
62.865 11.903561
62.870 12.32698
62.875 12.223911
62.880 11.950479
62.885 11.91059
62.890 11.599952
62.895 11.384466
62.900 11.255877
62.905 11.297475
62.910 11.549364
62.915 11.88985
62.920 11.615965
62.925 12.05528
62.930 12.050201
62.935 11.505434
62.940 11.306343
62.945 11.135692
62.950 11.084055
62.955 11.153466
62.960 10.540472
62.965 10.477928
62.970 10.354956
62.975 10.502262
62.980 10.652918
62.985 10.352149
62.990 10.270972
62.995 10.935092
63.000 10.924429
63.005 10.817431
63.010 10.153039
63.015 10.197416
63.020 10.442231
63.025 10.11379
63.030 9.561679
63.035 9.232375
63.040 9.02796
63.045 9.134318
63.050 8.729223
63.055 8.719095
63.060 8.926975
63.065 9.030087
63.070 8.985302
63.075 9.272107
63.080 9.404422
63.085 9.226834
63.090 9.031014
63.095 8.995749
63.100 9.013709
63.105 9.15541
63.110 9.024825
63.115 9.348969
63.120 9.5925
63.125 9.817514
63.130 9.774143
63.135 9.706516
63.140 10.234464
63.145 10.235686
63.150 10.402973
63.155 10.434048
63.160 10.417467
63.165 10.195247
63.170 10.208408
63.175 9.894327
63.180 9.510091
63.185 9.13621
63.190 9.144707
63.195 9.100415
63.200 9.304599
63.205 9.23274
63.210 9.226996
63.215 9.53156
63.220 9.549791
63.225 9.116056
63.230 9.345595
63.235 9.619496
63.240 9.895389
63.245 9.691634
63.250 9.452708
63.255 9.272243
63.260 9.27438
63.265 8.83224
63.270 8.64546
63.275 8.555866
63.280 8.848388
63.285 9.179997
63.290 9.862803
63.295 10.729323
63.300 10.661465
63.305 10.815121
63.310 11.100657
63.315 11.292529
63.320 11.113433
63.325 10.496751
63.330 10.128442
63.335 10.462533
63.340 10.219679
63.345 10.034496
63.350 10.344818
63.355 10.626485
63.360 10.659624
63.365 10.88961
63.370 10.821214
63.375 10.754194
63.380 10.504268
63.385 10.430375
63.390 10.163786
63.395 10.004916
63.400 9.964761
63.405 9.989115
63.410 9.927672
63.415 10.116391
63.420 10.387803
63.425 10.60715
63.430 10.850741
63.435 10.703146
63.440 10.609716
63.445 11.252647
63.450 11.480648
63.455 11.329268
63.460 11.71979
63.465 12.089207
63.470 12.582834
63.475 12.684346
63.480 12.358701
63.485 12.173319
63.490 12.028302
63.495 11.287061
63.500 10.788445
63.505 10.626685
63.510 10.93013
63.515 10.879583
63.520 10.881676
63.525 10.896723
63.530 11.021878
63.535 10.811772
63.540 10.66403
63.545 10.332451
63.550 10.263025
63.555 10.200922
63.560 10.342245
63.565 10.507029
63.570 10.5233
63.575 10.72488
63.580 10.796937
63.585 10.869817
63.590 10.461165
63.595 10.189427
63.600 9.676172
63.605 9.224524
63.610 9.000282
63.615 8.815961
63.620 8.326868
63.625 8.404035
63.630 8.188087
63.635 8.281062
63.640 8.293745
63.645 8.079169
63.650 8.061338
63.655 8.178393
63.660 8.392825
63.665 8.924213
63.670 9.27484
63.675 9.970172
63.680 10.124593
63.685 10.49804
63.690 10.508313
63.695 10.49591
63.700 10.460546
63.705 10.403403
63.710 9.948967
63.715 9.783006
63.720 9.830658
63.725 9.729647
63.730 9.496079
63.735 8.912301
63.740 8.696029
63.745 8.746602
63.750 8.57822
63.755 8.381436
63.760 8.518983
63.765 9.094595
63.770 9.888623
63.775 10.490429
63.780 10.922297
63.785 11.498415
63.790 11.465148
63.795 11.403185
63.800 11.201861
63.805 10.513338
63.810 10.163473
63.815 9.935365
63.820 9.468125
63.825 9.630555
63.830 9.447103
63.835 9.173209
63.840 9.486541
63.845 9.239535
63.850 8.855839
63.855 8.763281
63.860 8.847322
63.865 9.269023
63.870 9.175658
63.875 9.025381
63.880 9.186031
63.885 9.763871
63.890 10.200146
63.895 10.187551
63.900 10.080145
63.905 10.326594
63.910 10.751642
63.915 10.827967
63.920 10.452368
63.925 9.973127
63.930 9.759279
63.935 9.755186
63.940 9.82813
63.945 9.407568
63.950 9.455052
63.955 9.592765
63.960 10.225578
63.965 10.328656
63.970 10.422275
63.975 10.844839
63.980 11.22933
63.985 11.262578
63.990 10.87197
63.995 10.451352
64.000 10.769579
64.005 10.523928
64.010 10.146048
64.015 9.683917
64.020 9.476665
64.025 9.592104
64.030 9.727356
64.035 9.414601
64.040 9.633655
64.045 9.534769
64.050 9.569981
64.055 9.175044
64.060 8.890388
64.065 8.766775
64.070 8.849315
64.075 9.202116
64.080 9.155586
64.085 9.254684
64.090 9.582609
64.095 10.158532
64.100 9.944426
64.105 9.652245
64.110 9.103041
64.115 9.109687
64.120 9.407705
64.125 9.399059
64.130 9.22026
64.135 9.395695
64.140 9.225952
64.145 9.537395
64.150 9.6439
64.155 9.457155
64.160 9.787498
64.165 9.693341
64.170 9.846697
64.175 9.993776
64.180 9.736696
64.185 9.852458
64.190 10.069061
64.195 9.879576
64.200 9.426686
64.205 9.135301
64.210 9.345062
64.215 9.116174
64.220 8.582406
64.225 8.341622
64.230 8.821839
64.235 9.027794
64.240 9.299626
64.245 9.341423
64.250 9.870282
64.255 10.146629
64.260 10.231451
64.265 9.852922
64.270 10.244523
64.275 10.176003
64.280 9.855744
64.285 9.864427
64.290 10.061075
64.295 9.459031
64.300 9.423182
64.305 9.247317
64.310 9.452074
64.315 9.707359
64.320 9.427806
64.325 9.885388
64.330 10.765268
64.335 10.984962
64.340 10.934252
64.345 11.067706
64.350 10.937625
64.355 10.965654
64.360 10.515788
64.365 10.141765
64.370 9.903405
64.375 9.701654
64.380 9.576948
64.385 9.581251
64.390 9.394341
64.395 9.220497
64.400 9.205194
64.405 9.16604
64.410 8.881752
64.415 8.596352
64.420 8.55108
64.425 9.234489
64.430 9.743235
64.435 10.029359
64.440 10.311698
64.445 10.920739
64.450 11.140815
64.455 11.37855
64.460 10.983829
64.465 10.258172
64.470 9.899936
64.475 9.976827
64.480 10.226421
64.485 10.573301
64.490 10.603059
64.495 10.945364
64.500 11.388509
64.505 11.583271
64.510 11.847126
64.515 11.798629
64.520 11.435766
64.525 11.233334
64.530 10.996269
64.535 10.774837
64.540 10.660174
64.545 10.033388
64.550 10.048759
64.555 10.034952
64.560 10.188043
64.565 10.774533
64.570 11.434778
64.575 11.877596
64.580 11.771355
64.585 11.331515
64.590 11.510481
64.595 11.443811
64.600 11.128059
64.605 10.895896
64.610 10.929982
64.615 11.031686
64.620 10.734461
64.625 10.892278
64.630 10.91748
64.635 10.674351
64.640 10.463086
64.645 10.382752
64.650 11.266103
64.655 11.693871
64.660 11.555047
64.665 11.296757
64.670 11.431864
64.675 11.635973
64.680 11.816228
64.685 11.222132
64.690 11.077255
64.695 11.281378
64.700 11.504222
64.705 11.624131
64.710 11.741568
64.715 11.49585
64.720 11.89537
64.725 12.215905
64.730 12.048905
64.735 11.850878
64.740 11.494043
64.745 11.302253
64.750 11.037442
64.755 10.668398
64.760 10.337924
64.765 10.103665
64.770 10.150448
64.775 10.210097
64.780 10.063875
64.785 10.301586
64.790 11.027857
64.795 11.271519
64.800 11.867548
64.805 11.973665
64.810 12.374264
64.815 12.516877
64.820 12.325633
64.825 11.9053
64.830 12.026571
64.835 12.11711
64.840 12.466058
64.845 12.869045
64.850 13.427111
64.855 13.406116
64.860 13.442198
64.865 13.999949
64.870 14.147669
64.875 13.842253
64.880 13.188375
64.885 13.196266
64.890 13.427105
64.895 13.330973
64.900 12.941297
64.905 12.563082
64.910 12.752119
64.915 13.015697
64.920 12.707046
64.925 12.933044
64.930 12.935698
64.935 13.218676
64.940 13.357672
64.945 13.64241
64.950 14.255575
64.955 14.646828
64.960 14.84938
64.965 15.104052
64.970 15.146661
64.975 15.143521
64.980 15.091087
64.985 15.011231
64.990 15.439738
64.995 14.972738
65.000 15.438492
65.005 16.020067
65.010 15.910208
65.015 15.908078
65.020 15.807301
65.025 16.241529
65.030 16.855856
65.035 16.715818
65.040 16.300688
65.045 16.358746
65.050 16.10532
65.055 15.902576
65.060 15.438352
65.065 15.069057
65.070 14.760107
65.075 14.662293
65.080 14.828009
65.085 14.921067
65.090 14.824787
65.095 14.635465
65.100 14.522912
65.105 14.662983
65.110 14.668014
65.115 15.165196
65.120 15.293655
65.125 15.636798
65.130 16.005634
65.135 16.104527
65.140 15.560037
65.145 15.377192
65.150 14.769861
65.155 14.638797
65.160 14.133009
65.165 13.685492
65.170 13.862721
65.175 14.55091
65.180 14.410517
65.185 14.401801
65.190 14.103223
65.195 14.122912
65.200 13.732214
65.205 13.404629
65.210 12.98266
65.215 12.889384
65.220 12.69391
65.225 12.982128
65.230 13.145438
65.235 13.285723
65.240 13.407618
65.245 13.313622
65.250 13.401913
65.255 13.533854
65.260 13.150712
65.265 12.626225
65.270 12.628126
65.275 12.193427
65.280 12.125079
65.285 11.926875
65.290 11.594063
65.295 11.645908
65.300 11.823421
65.305 11.81708
65.310 12.174524
65.315 11.987323
65.320 12.301955
65.325 12.25484
65.330 12.181931
65.335 12.030587
65.340 11.359541
65.345 10.923598
65.350 11.239367
65.355 11.039907
65.360 11.211519
65.365 11.229985
65.370 11.044371
65.375 11.399624
65.380 11.778181
65.385 11.162304
65.390 11.061716
65.395 11.287918
65.400 10.994081
65.405 10.981831
65.410 10.55237
65.415 9.901195
65.420 9.99532
65.425 9.826185
65.430 9.630774
65.435 9.40679
65.440 9.325512
65.445 9.565483
65.450 9.880339
65.455 9.643125
65.460 9.638166
65.465 9.543463
65.470 9.965682
65.475 9.878222
65.480 9.381476
65.485 9.29724
65.490 9.794366
65.495 9.765691
65.500 9.88325
65.505 9.713895
65.510 10.072616
65.515 10.443954
65.520 10.685358
65.525 10.55588
65.530 10.477107
65.535 10.221636
65.540 10.14879
65.545 10.151081
65.550 10.26338
65.555 9.845456
65.560 9.727865
65.565 9.854521
65.570 10.08931
65.575 10.136763
65.580 10.157295
65.585 10.186882
65.590 10.628074
65.595 10.620864
65.600 10.487247
65.605 10.093889
65.610 10.393789
65.615 10.383068
65.620 10.109878
65.625 9.950643
65.630 10.076703
65.635 10.184333
65.640 10.372325
65.645 9.874831
65.650 9.537648
65.655 9.562181
65.660 9.29283
65.665 9.162996
65.670 8.981285
65.675 8.812225
65.680 8.679732
65.685 8.929396
65.690 9.009611
65.695 9.08783
65.700 9.12727
65.705 9.511827
65.710 9.743091
65.715 9.726666
65.720 9.731246
65.725 9.761822
65.730 9.75059
65.735 10.021709
65.740 9.766224
65.745 9.71824
65.750 10.182681
65.755 10.522344
65.760 10.939668
65.765 11.071455
65.770 10.931124
65.775 10.980931
65.780 11.14589
65.785 11.173127
65.790 10.648146
65.795 9.954989
65.800 9.735338
65.805 9.411006
65.810 9.036903
65.815 8.709774
65.820 8.820663
65.825 9.533094
65.830 9.551981
65.835 9.429696
65.840 9.852083
65.845 10.05507
65.850 10.392755
65.855 9.682205
65.860 9.441844
65.865 9.723194
65.870 10.006015
65.875 9.808728
65.880 10.047791
65.885 10.021017
65.890 10.430323
65.895 10.713388
65.900 10.90429
65.905 10.949341
65.910 10.674358
65.915 10.579175
65.920 10.706811
65.925 10.073764
65.930 9.546521
65.935 9.476772
65.940 9.215796
65.945 9.567801
65.950 9.563474
65.955 9.520983
65.960 10.522219
65.965 10.670824
65.970 10.628562
65.975 11.104374
65.980 11.192743
65.985 11.081908
65.990 10.887553
65.995 10.506438
66.000 10.752119
66.005 11.011926
66.010 10.870427
66.015 10.508698
66.020 10.362908
66.025 10.436542
66.030 10.563154
66.035 10.485482
66.040 10.132255
66.045 9.650222
66.050 9.591189
66.055 9.819828
66.060 9.73049
66.065 9.079506
66.070 8.738939
66.075 8.819418
66.080 9.166607
66.085 9.211561
66.090 8.954064
66.095 9.240803
66.100 10.057017
66.105 10.07073
66.110 9.908939
66.115 9.77916
66.120 9.866305
66.125 10.346884
66.130 10.26759
66.135 9.920952
66.140 10.297143
66.145 10.442992
66.150 10.558702
66.155 10.794886
66.160 10.845234
66.165 11.369843
66.170 11.587517
66.175 11.868146
66.180 12.28654
66.185 12.446722
66.190 12.472316
66.195 12.017593
66.200 11.747507
66.205 11.620436
66.210 11.500604
66.215 11.313847
66.220 10.900179
66.225 11.164742
66.230 11.351478
66.235 11.228173
66.240 11.431919
66.245 11.646502
66.250 11.480327
66.255 11.585667
66.260 10.923724
66.265 10.694205
66.270 10.923682
66.275 10.978426
66.280 10.599422
66.285 10.430938
66.290 10.594582
66.295 11.015785
66.300 10.968227
66.305 10.216673
66.310 9.422185
66.315 9.895698
66.320 10.232038
66.325 10.426929
66.330 10.664816
66.335 10.64055
66.340 11.070838
66.345 11.107296
66.350 10.756288
66.355 10.509179
66.360 9.927964
66.365 9.432872
66.370 9.371807
66.375 9.423435
66.380 9.558681
66.385 9.428026
66.390 9.440086
66.395 9.782077
66.400 9.900683
66.405 10.123857
66.410 10.530242
66.415 10.988025
66.420 11.082986
66.425 10.892489
66.430 10.868884
66.435 11.122937
66.440 11.073998
66.445 10.152153
66.450 9.71493
66.455 9.757559
66.460 9.736984
66.465 9.908503
66.470 9.920212
66.475 9.667492
66.480 9.808876
66.485 10.12598
66.490 9.981971
66.495 10.115326
66.500 9.749356
66.505 9.620933
66.510 9.542551
66.515 9.432282
66.520 9.113285
66.525 9.217384
66.530 9.290936
66.535 9.527589
66.540 9.883388
66.545 10.122051
66.550 10.137842
66.555 10.325473
66.560 10.693153
66.565 10.607476
66.570 10.264551
66.575 9.930941
66.580 10.329235
66.585 10.641726
66.590 10.646544
66.595 11.016665
66.600 11.468808
66.605 11.555485
66.610 11.503968
66.615 11.040255
66.620 11.121218
66.625 10.972027
66.630 10.379264
66.635 10.0875
66.640 10.129718
66.645 10.312805
66.650 10.742966
66.655 10.627242
66.660 10.632892
66.665 10.551617
66.670 10.403296
66.675 10.460578
66.680 10.493821
66.685 9.913896
66.690 9.433302
66.695 9.151566
66.700 9.11109
66.705 8.782239
66.710 8.554356
66.715 8.370424
66.720 8.638323
66.725 8.753059
66.730 8.829809
66.735 8.721256
66.740 8.707406
66.745 8.760175
66.750 8.618566
66.755 9.263282
66.760 9.506261
66.765 9.440029
66.770 9.858058
66.775 10.450889
66.780 10.531615
66.785 10.545115
66.790 9.881755
66.795 9.68049
66.800 10.017261
66.805 9.804417
66.810 9.453066
66.815 9.533519
66.820 9.493338
66.825 9.338531
66.830 9.514996
66.835 9.239974
66.840 9.011982
66.845 8.895682
66.850 8.647037
66.855 8.47467
66.860 8.865424
66.865 9.010789
66.870 8.706291
66.875 8.767516
66.880 9.062645
66.885 9.186721
66.890 9.779006
66.895 9.531307
66.900 9.578705
66.905 9.49416
66.910 9.248034
66.915 8.997282
66.920 8.520596
66.925 7.882617
66.930 7.520552
66.935 7.701259
66.940 8.360427
66.945 8.287769
66.950 8.435989
66.955 8.711616
66.960 9.272225
66.965 9.477406
66.970 9.273108
66.975 8.937004
66.980 8.88417
66.985 8.967248
66.990 8.89984
66.995 8.689198
67.000 8.309341
67.005 8.201049
67.010 8.246371
67.015 9.146274
67.020 9.224144
67.025 9.192145
67.030 9.367639
67.035 9.924946
67.040 10.019218
67.045 10.210568
67.050 9.499119
67.055 9.404342
67.060 9.429882
67.065 9.000999
67.070 8.870676
67.075 9.069148
67.080 9.080468
67.085 9.294702
67.090 9.142406
67.095 8.900248
67.100 8.791595
67.105 8.379251
67.110 8.101194
67.115 7.969296
67.120 8.09373
67.125 8.334105
67.130 8.533375
67.135 8.561431
67.140 8.634748
67.145 8.856695
67.150 8.890746
67.155 8.899445
67.160 8.841674
67.165 8.887725
67.170 9.29219
67.175 9.150119
67.180 9.036538
67.185 8.968891
67.190 9.165633
67.195 9.18927
67.200 9.721032
67.205 9.812486
67.210 10.472176
67.215 10.792441
67.220 10.825502
67.225 10.480598
67.230 10.569697
67.235 10.135854
67.240 10.389873
67.245 10.091036
67.250 9.72631
67.255 9.839338
67.260 10.045606
67.265 10.160534
67.270 10.114411
67.275 9.646814
67.280 9.253481
67.285 8.854275
67.290 8.761401
67.295 8.350991
67.300 8.073773
67.305 8.073993
67.310 8.328282
67.315 8.584365
67.320 8.91037
67.325 8.959403
67.330 8.896057
67.335 8.841
67.340 8.591925
67.345 8.395105
67.350 8.547573
67.355 8.655984
67.360 8.970413
67.365 9.062043
67.370 8.722839
67.375 8.641844
67.380 9.069036
67.385 9.20151
67.390 9.333692
67.395 9.579161
67.400 10.307093
67.405 10.925328
67.410 11.275267
67.415 10.947014
67.420 10.737932
67.425 10.009952
67.430 9.461099
67.435 9.24419
67.440 9.084689
67.445 8.824763
67.450 9.109187
67.455 9.587935
67.460 10.059175
67.465 10.270894
67.470 10.198003
67.475 10.141677
67.480 10.29411
67.485 10.07175
67.490 9.74082
67.495 9.537942
67.500 9.388344
67.505 9.149014
67.510 9.243571
67.515 9.050064
67.520 8.876577
67.525 8.905354
67.530 8.593181
67.535 8.665715
67.540 9.144382
67.545 9.167595
67.550 9.370097
67.555 10.043072
67.560 10.205116
67.565 10.583047
67.570 10.219636
67.575 10.130287
67.580 10.284482
67.585 10.282812
67.590 9.38203
67.595 8.755751
67.600 8.656071
67.605 8.56926
67.610 8.222298
67.615 8.226641
67.620 8.088902
67.625 8.447748
67.630 8.884317
67.635 8.859281
67.640 9.124688
67.645 8.897721
67.650 8.800938
67.655 8.936192
67.660 9.117776
67.665 9.560419
67.670 9.70895
67.675 9.75772
67.680 9.740271
67.685 9.703717
67.690 9.111411
67.695 9.09337
67.700 8.489737
67.705 8.103054
67.710 8.028647
67.715 8.144807
67.720 8.224542
67.725 8.278516
67.730 8.431689
67.735 8.668736
67.740 9.124901
67.745 9.497809
67.750 9.703
67.755 9.985091
67.760 10.108843
67.765 10.154193
67.770 10.210403
67.775 10.072523
67.780 9.722398
67.785 9.709661
67.790 10.017076
67.795 10.475575
67.800 10.45349
67.805 10.986518
67.810 11.296987
67.815 11.34325
67.820 11.574203
67.825 11.459838
67.830 11.170011
67.835 11.152853
67.840 10.743747
67.845 10.702607
67.850 10.592925
67.855 10.51095
67.860 10.608131
67.865 10.744655
67.870 10.726862
67.875 11.175573
67.880 11.211128
67.885 11.335631
67.890 11.288244
67.895 11.403491
67.900 11.4396
67.905 11.751693
67.910 11.571132
67.915 11.568491
67.920 11.687626
67.925 11.556548
67.930 11.443244
67.935 11.669188
67.940 11.552555
67.945 11.755363
67.950 11.965939
67.955 11.975688
67.960 11.760678
67.965 11.515244
67.970 11.25963
67.975 10.738812
67.980 10.531257
67.985 10.214213
67.990 9.436105
67.995 9.281252
68.000 9.138323
68.005 9.698027
68.010 9.872739
68.015 9.719757
68.020 10.197447
68.025 10.73006
68.030 10.895282
68.035 10.885238
68.040 10.509399
68.045 10.184094
68.050 9.891124
68.055 9.785935
68.060 9.758266
68.065 9.837104
68.070 9.575398
68.075 9.627288
68.080 10.080513
68.085 10.676697
68.090 10.562603
68.095 10.93397
68.100 11.013249
68.105 11.147511
68.110 10.617116
68.115 10.050157
68.120 10.340683
68.125 10.13868
68.130 9.633898
68.135 9.384727
68.140 9.210833
68.145 9.568247
68.150 9.938565
68.155 9.118302
68.160 9.133499
68.165 9.244695
68.170 9.2687
68.175 9.697396
68.180 9.634947
68.185 9.567388
68.190 9.547089
68.195 9.436556
68.200 9.177638
68.205 9.019137
68.210 8.753264
68.215 8.868138
68.220 9.107776
68.225 8.994292
68.230 8.909538
68.235 8.830414
68.240 8.926408
68.245 9.291028
68.250 9.261914
68.255 9.20606
68.260 9.397157
68.265 9.350634
68.270 9.461844
68.275 9.122623
68.280 9.313432
68.285 9.110511
68.290 9.078547
68.295 9.478893
68.300 9.328607
68.305 9.564905
68.310 9.679075
68.315 8.9786
68.320 8.549918
68.325 8.685781
68.330 8.607577
68.335 8.835351
68.340 8.723874
68.345 8.53256
68.350 9.007994
68.355 9.266517
68.360 9.237632
68.365 9.385026
68.370 9.610902
68.375 9.816569
68.380 10.090777
68.385 10.218142
68.390 10.02564
68.395 9.78692
68.400 9.60334
68.405 9.544534
68.410 9.486897
68.415 9.320492
68.420 9.735888
68.425 10.03672
68.430 9.930309
68.435 10.091336
68.440 9.660212
68.445 9.777302
68.450 9.48714
68.455 8.890026
68.460 8.935328
68.465 8.949494
68.470 8.991733
68.475 9.041504
68.480 8.969771
68.485 8.847719
68.490 8.949666
68.495 8.921564
68.500 8.904295
68.505 8.691868
68.510 8.698807
68.515 9.263901
68.520 9.773581
68.525 9.532011
68.530 9.380509
68.535 9.410747
68.540 9.837354
68.545 9.742988
68.550 9.534733
68.555 9.481539
68.560 9.878042
68.565 10.153535
68.570 10.188514
68.575 10.0248
68.580 10.057551
68.585 10.148575
68.590 9.979312
68.595 9.761845
68.600 9.702642
68.605 9.603792
68.610 9.539625
68.615 9.922618
68.620 9.677653
68.625 9.823279
68.630 9.98245
68.635 9.968619
68.640 9.856265
68.645 10.05313
68.650 9.578901
68.655 9.471115
68.660 9.441478
68.665 9.231423
68.670 9.444474
68.675 9.966033
68.680 10.146725
68.685 10.518504
68.690 11.008215
68.695 11.290486
68.700 11.553096
68.705 11.643909
68.710 11.059514
68.715 10.664207
68.720 10.438058
68.725 10.441166
68.730 10.289086
68.735 10.172252
68.740 9.696464
68.745 9.364156
68.750 9.230767
68.755 9.281673
68.760 9.342637
68.765 9.383167
68.770 9.426886
68.775 9.919507
68.780 10.145173
68.785 10.110745
68.790 9.891843
68.795 9.7625
68.800 9.598362
68.805 9.256159
68.810 9.086397
68.815 9.294497
68.820 9.347587
68.825 9.372464
68.830 8.927133
68.835 9.566196
68.840 9.974987
68.845 10.080158
68.850 10.031367
68.855 9.95661
68.860 9.768195
68.865 10.11833
68.870 9.506411
68.875 9.496245
68.880 9.60607
68.885 9.963534
68.890 10.033868
68.895 9.958518
68.900 9.421093
68.905 9.27894
68.910 8.882944
68.915 8.536808
68.920 8.302851
68.925 8.33633
68.930 8.2158
68.935 8.22351
68.940 8.351714
68.945 8.649857
68.950 9.389812
68.955 9.42944
68.960 9.191977
68.965 9.255705
68.970 9.785454
68.975 10.279492
68.980 10.390409
68.985 10.016718
68.990 10.133869
68.995 10.646554
69.000 11.014817
69.005 10.515299
69.010 10.474709
69.015 10.256063
69.020 9.588563
69.025 9.449828
69.030 9.215125
69.035 9.069031
69.040 8.838205
69.045 8.791398
69.050 9.29354
69.055 9.628215
69.060 9.883823
69.065 9.905565
69.070 9.920815
69.075 10.196824
69.080 10.129138
69.085 9.717791
69.090 9.774179
69.095 9.96019
69.100 10.210758
69.105 10.631091
69.110 10.549498
69.115 10.337293
69.120 10.590554
69.125 10.89272
69.130 10.834613
69.135 10.761878
69.140 10.803858
69.145 11.053968
69.150 11.268604
69.155 11.656183
69.160 11.724471
69.165 11.417487
69.170 11.261689
69.175 10.880805
69.180 10.827415
69.185 11.121681
69.190 10.583401
69.195 10.514591
69.200 10.809726
69.205 11.036116
69.210 10.855147
69.215 11.031549
69.220 10.816745
69.225 10.881653
69.230 10.392506
69.235 10.333491
69.240 10.077977
69.245 10.138884
69.250 9.326554
69.255 8.940406
69.260 8.797372
69.265 8.478091
69.270 8.143529
69.275 8.142148
69.280 8.210472
69.285 9.059999
69.290 9.464279
69.295 9.791865
69.300 10.540635
69.305 10.959729
69.310 10.844672
69.315 10.682856
69.320 10.274857
69.325 10.067842
69.330 9.518032
69.335 8.732404
69.340 8.448522
69.345 8.954801
69.350 9.17783
69.355 9.148432
69.360 8.941102
69.365 9.167471
69.370 9.813842
69.375 10.102241
69.380 9.917105
69.385 9.731912
69.390 9.984766
69.395 9.909948
69.400 9.6398
69.405 9.384506
69.410 9.13029
69.415 9.232139
69.420 9.148096
69.425 8.988083
69.430 9.317257
69.435 9.959885
69.440 10.228762
69.445 10.155783
69.450 10.294144
69.455 10.125167
69.460 10.280492
69.465 10.213815
69.470 9.753509
69.475 9.608161
69.480 9.576269
69.485 9.374887
69.490 9.633486
69.495 9.419191
69.500 9.504636
69.505 9.110262
69.510 8.929188
69.515 8.912325
69.520 8.892234
69.525 8.923151
69.530 9.098352
69.535 9.201044
69.540 9.835707
69.545 9.567643
69.550 9.428281
69.555 9.133812
69.560 9.145787
69.565 9.334853
69.570 9.313236
69.575 8.86674
69.580 8.917121
69.585 8.810193
69.590 8.865808
69.595 8.897825
69.600 9.034621
69.605 9.162183
69.610 9.763109
69.615 10.194098
69.620 10.488394
69.625 11.121073
69.630 10.874286
69.635 10.454263
69.640 10.25718
69.645 10.162369
69.650 9.766701
69.655 9.993274
69.660 9.264814
69.665 9.293627
69.670 9.411247
69.675 9.372045
69.680 9.614788
69.685 9.837752
69.690 9.218167
69.695 9.634718
69.700 9.906551
69.705 10.058402
69.710 9.81558
69.715 9.240985
69.720 9.115633
69.725 8.934735
69.730 8.671096
69.735 8.434523
69.740 8.437832
69.745 8.88671
69.750 9.075343
69.755 9.748641
69.760 10.222946
69.765 10.198668
69.770 10.180987
69.775 10.124705
69.780 9.921431
69.785 10.126679
69.790 9.938182
69.795 9.979087
69.800 10.124245
69.805 9.991944
69.810 9.89234
69.815 10.671857
69.820 10.590089
69.825 10.306035
69.830 10.333846
69.835 10.17643
69.840 10.392329
69.845 10.094326
69.850 9.385896
69.855 9.714972
69.860 9.667471
69.865 9.33424
69.870 9.159701
69.875 9.451874
69.880 9.713874
69.885 9.731918
69.890 9.575006
69.895 9.996456
69.900 10.180697
69.905 10.259463
69.910 9.896755
69.915 9.701518
69.920 9.607248
69.925 9.404302
69.930 9.33999
69.935 9.509226
69.940 9.356056
69.945 9.346155
69.950 9.570922
69.955 9.481889
69.960 9.375124
69.965 9.48306
69.970 9.373448
69.975 9.597611
69.980 9.465462
69.985 9.101462
69.990 9.281955
69.995 9.377657
70.000 9.130362
70.005 9.66657
70.010 9.935205
70.015 9.948956
70.020 10.226924
70.025 10.36834
70.030 10.177981
70.035 9.614307
70.040 9.004688
70.045 8.922092
70.050 9.025278
70.055 8.794951
70.060 8.610251
70.065 8.609031
70.070 9.00592
70.075 9.169036
70.080 8.970256
70.085 8.944738
70.090 9.210649
70.095 9.4597
70.100 9.874613
70.105 9.628983
70.110 9.768508
70.115 10.376348
70.120 10.55993
70.125 10.222099
70.130 10.175284
70.135 10.231607
70.140 10.222147
70.145 10.253452
70.150 9.889791
70.155 10.024023
70.160 9.86185
70.165 9.705217
70.170 9.6665
70.175 10.200863
70.180 9.838323
70.185 9.404457
70.190 9.194004
70.195 9.306314
70.200 9.0241
70.205 9.125549
70.210 9.064311
70.215 9.116717
70.220 9.032829
70.225 8.859415
70.230 9.140846
70.235 9.570729
70.240 9.233519
70.245 9.002291
70.250 9.202436
70.255 9.965944
70.260 10.248279
70.265 10.133576
70.270 9.977667
70.275 10.626855
70.280 10.956414
70.285 10.938325
70.290 10.613383
70.295 10.471704
70.300 10.470181
70.305 10.501988
70.310 9.947391
70.315 9.870505
70.320 9.578992
70.325 9.635306
70.330 9.613486
70.335 10.183645
70.340 10.366775
70.345 10.409178
70.350 10.058205
70.355 10.124967
70.360 10.115212
70.365 10.381317
70.370 9.779118
70.375 9.571698
70.380 9.707785
70.385 10.01037
70.390 10.270021
70.395 10.369723
70.400 9.977535
70.405 10.145908
70.410 9.758474
70.415 9.695139
70.420 9.783736
70.425 9.515479
70.430 9.312222
70.435 9.51368
70.440 9.946414
70.445 10.590495
70.450 11.083194
70.455 10.958559
70.460 11.03192
70.465 10.836846
70.470 10.637859
70.475 10.428554
70.480 9.85385
70.485 9.34984
70.490 9.0166
70.495 8.875578
70.500 9.236516
70.505 9.318172
70.510 9.325671
70.515 9.309452
70.520 9.672033
70.525 10.154981
70.530 10.785523
70.535 10.337787
70.540 10.109612
70.545 10.031749
70.550 9.771479
70.555 9.388474
70.560 8.720864
70.565 7.884713
70.570 8.045159
70.575 7.810829
70.580 8.114378
70.585 8.150494
70.590 8.312988
70.595 8.74641
70.600 9.060235
70.605 9.249084
70.610 9.541052
70.615 9.762209
70.620 10.146544
70.625 10.157083
70.630 10.259568
70.635 9.879163
70.640 9.931632
70.645 9.963335
70.650 9.995515
70.655 10.268338
70.660 10.440448
70.665 10.341316
70.670 10.514636
70.675 10.125094
70.680 9.820213
70.685 9.562238
70.690 9.526159
70.695 9.441101
70.700 9.8393
70.705 9.762409
70.710 9.340466
70.715 9.267277
70.720 9.093456
70.725 8.430657
70.730 8.180888
70.735 7.954528
70.740 8.275563
70.745 8.794634
70.750 9.084587
70.755 9.327264
70.760 9.447117
70.765 9.367805
70.770 9.172513
70.775 8.987051
70.780 8.929899
70.785 8.442163
70.790 8.557591
70.795 8.838126
70.800 8.890723
70.805 8.972383
70.810 9.425752
70.815 9.133473
70.820 9.177334
70.825 8.921801
70.830 8.853603
70.835 8.567479
70.840 8.931167
70.845 8.46986
70.850 8.977162
70.855 9.102302
70.860 8.940587
70.865 9.042491
70.870 9.445133
70.875 9.108835
70.880 9.141725
70.885 9.146908
70.890 9.352828
70.895 9.862312
70.900 10.133938
70.905 9.821135
70.910 10.118637
70.915 10.335693
70.920 10.098105
70.925 9.797147
70.930 9.416103
70.935 8.864155
70.940 9.135757
70.945 9.057904
70.950 8.682789
70.955 8.337147
70.960 8.008697
70.965 8.026797
70.970 8.639525
70.975 8.76262
70.980 8.747389
70.985 8.829988
70.990 9.121703
70.995 9.17697
71.000 9.078168
71.005 8.630148
71.010 8.154169
71.015 8.005178
71.020 7.932843
71.025 7.957341
71.030 7.849533
71.035 7.946495
71.040 7.890562
71.045 8.222727
71.050 8.423142
71.055 8.466253
71.060 8.607989
71.065 8.947309
71.070 8.634718
71.075 8.631384
71.080 8.541908
71.085 8.432052
71.090 8.389852
71.095 8.400407
71.100 8.592323
71.105 8.823051
71.110 8.947539
71.115 9.026972
71.120 9.190646
71.125 9.242177
71.130 9.10626
71.135 8.734501
71.140 8.762258
71.145 8.849615
71.150 8.983287
71.155 9.053768
71.160 9.357635
71.165 9.922031
71.170 10.475158
71.175 10.290322
71.180 9.841589
71.185 9.722082
71.190 9.614908
71.195 9.360921
71.200 8.911285
71.205 8.859019
71.210 9.207818
71.215 9.366551
71.220 9.205937
71.225 8.970213
71.230 8.66866
71.235 8.670229
71.240 8.528097
71.245 8.315014
71.250 8.215623
71.255 8.483641
71.260 8.739209
71.265 8.725181
71.270 8.761198
71.275 8.93351
71.280 8.789778
71.285 8.733622
71.290 8.282586
71.295 8.002407
71.300 8.147558
71.305 8.316803
71.310 8.042807
71.315 8.198688
71.320 8.307879
71.325 8.401167
71.330 8.360098
71.335 8.302249
71.340 7.95058
71.345 8.040334
71.350 8.281767
71.355 8.228089
71.360 8.315887
71.365 8.159872
71.370 7.755741
71.375 7.794276
71.380 7.989913
71.385 8.216244
71.390 8.515742
71.395 8.53424
71.400 8.844764
71.405 9.03357
71.410 9.21008
71.415 9.122603
71.420 9.164961
71.425 9.461871
71.430 9.539798
71.435 9.637796
71.440 9.454995
71.445 9.121071
71.450 9.218934
71.455 9.063101
71.460 8.754724
71.465 9.199147
71.470 9.53192
71.475 9.87631
71.480 9.938758
71.485 9.257607
71.490 9.090542
71.495 9.396768
71.500 9.117344
71.505 8.925886
71.510 8.73596
71.515 8.950371
71.520 9.686712
71.525 9.913651
71.530 9.426658
71.535 9.503714
71.540 9.496535
71.545 9.418859
71.550 9.210083
71.555 8.682412
71.560 8.363033
71.565 8.162529
71.570 8.014189
71.575 7.860336
71.580 7.663009
71.585 7.622516
71.590 7.474105
71.595 7.942592
71.600 7.822013
71.605 7.897479
71.610 8.304296
71.615 8.618526
71.620 9.020045
71.625 9.170886
71.630 9.116161
71.635 9.15402
71.640 8.981751
71.645 8.845666
71.650 8.511163
71.655 7.864947
71.660 7.908556
71.665 7.794899
71.670 7.754992
71.675 7.909499
71.680 8.351763
71.685 8.685014
71.690 8.838634
71.695 8.747295
71.700 8.871759
71.705 8.933179
71.710 8.57898
71.715 8.289948
71.720 8.440914
71.725 8.176579
71.730 8.728258
71.735 8.703668
71.740 9.204169
71.745 9.260735
71.750 9.00575
71.755 8.880548
71.760 8.763948
71.765 8.191323
71.770 8.571947
71.775 8.554578
71.780 8.963632
71.785 9.522262
71.790 10.173874
71.795 10.622497
71.800 10.424928
71.805 10.028449
71.810 10.300872
71.815 10.127407
71.820 9.700262
71.825 9.066449
71.830 9.140408
71.835 9.385488
71.840 9.752692
71.845 9.277552
71.850 9.239782
71.855 9.112398
71.860 9.296372
71.865 9.449647
71.870 9.335174
71.875 9.221939
71.880 9.365021
71.885 9.455343
71.890 9.848787
71.895 9.768582
71.900 9.581433
71.905 9.304316
71.910 9.026886
71.915 9.206437
71.920 9.082587
71.925 8.72111
71.930 8.631662
71.935 8.918595
71.940 9.091598
71.945 9.172452
71.950 8.951837
71.955 8.947127
71.960 9.041069
71.965 9.167466
71.970 8.977345
71.975 8.65765
71.980 8.367397
71.985 8.548396
71.990 8.395069
71.995 7.843328
72.000 7.664489
72.005 7.913742
72.010 8.164209
72.015 8.70062
72.020 8.61347
72.025 8.814474
72.030 9.119099
72.035 9.152735
72.040 9.537502
72.045 9.333133
72.050 8.778867
72.055 8.985379
72.060 8.837529
72.065 8.632794
72.070 8.421536
72.075 7.887406
72.080 8.027568
72.085 7.784653
72.090 7.443404
72.095 7.767393
72.100 7.952862
72.105 7.857958
72.110 7.94099
72.115 8.379287
72.120 8.449635
72.125 8.690793
72.130 8.722895
72.135 8.327669
72.140 8.411534
72.145 8.150836
72.150 8.070596
72.155 8.642695
72.160 8.535579
72.165 8.860947
72.170 9.413885
72.175 9.236919
72.180 9.112607
72.185 8.75737
72.190 8.184637
72.195 8.101426
72.200 7.951967
72.205 7.724431
72.210 7.86911
72.215 8.040565
72.220 8.245789
72.225 8.113681
72.230 7.803327
72.235 7.847788
72.240 8.067952
72.245 8.366771
72.250 8.597066
72.255 8.614921
72.260 9.199492
72.265 9.455771
72.270 9.410918
72.275 9.531561
72.280 9.484346
72.285 9.598915
72.290 10.211614
72.295 10.542978
72.300 10.504745
72.305 10.281859
72.310 9.881422
72.315 10.090117
72.320 10.050714
72.325 9.556927
72.330 9.421272
72.335 9.7342
72.340 9.950792
72.345 10.097106
72.350 9.728588
72.355 9.815199
72.360 10.010263
72.365 9.920858
72.370 10.086883
72.375 10.273602
72.380 10.268734
72.385 10.478518
72.390 10.262074
72.395 10.350659
72.400 10.41546
72.405 9.978858
72.410 10.041707
72.415 9.760316
72.420 9.525808
72.425 9.093319
72.430 8.818668
72.435 8.844328
72.440 8.753255
72.445 8.210303
72.450 7.951303
72.455 7.892226
72.460 7.88401
72.465 7.866502
72.470 7.683783
72.475 8.002618
72.480 8.660944
72.485 9.305823
72.490 9.478065
72.495 9.892137
72.500 10.083588
72.505 10.065181
72.510 9.974777
72.515 9.990854
72.520 10.077585
72.525 9.832675
72.530 9.398497
72.535 9.490915
72.540 9.640011
72.545 8.977122
72.550 8.825142
72.555 9.08889
72.560 9.455481
72.565 9.325041
72.570 9.043519
72.575 9.176541
72.580 9.767808
72.585 9.939409
72.590 9.859743
72.595 10.23477
72.600 10.909367
72.605 10.751934
72.610 10.572317
72.615 10.148902
72.620 9.85955
72.625 9.657827
72.630 9.066061
72.635 8.768484
72.640 8.549583
72.645 8.720223
72.650 8.853979
72.655 8.94635
72.660 8.872492
72.665 8.694025
72.670 8.884081
72.675 9.476309
72.680 9.254908
72.685 9.217706
72.690 8.806393
72.695 9.208399
72.700 9.232269
72.705 8.832071
72.710 8.544997
72.715 8.717525
72.720 8.406996
72.725 8.428615
72.730 8.24398
72.735 8.701952
72.740 9.240184
72.745 9.403434
72.750 9.216881
72.755 9.494987
72.760 9.743982
72.765 9.873013
72.770 9.10969
72.775 8.781729
72.780 8.729918
72.785 8.829676
72.790 8.386723
72.795 8.069192
72.800 8.348308
72.805 9.148137
72.810 9.24794
72.815 9.249651
72.820 9.442782
72.825 9.680279
72.830 9.866952
72.835 9.492791
72.840 8.67948
72.845 8.440676
72.850 8.240025
72.855 8.565411
72.860 7.899981
72.865 7.45503
72.870 7.481956
72.875 7.660691
72.880 7.835785
72.885 7.980933
72.890 8.048348
72.895 8.839811
72.900 9.336881
72.905 9.454729
72.910 9.811018
72.915 9.677741
72.920 9.809505
72.925 9.818499
72.930 9.235522
72.935 9.175053
72.940 9.420321
72.945 9.383618
72.950 9.392989
72.955 8.976351
72.960 8.644351
72.965 8.551676
72.970 8.44573
72.975 7.936869
72.980 7.715377
72.985 7.899759
72.990 7.938614
72.995 8.055712
73.000 8.03764
