!@!!GADDS PLOTSO FILE: Chi integration type
!@!!Title/SampleName: map-165
!@!!Comment: ?
!@!!User: Bruker Instrument Administrator
!@!!Site: University of Illinois Chicago
!@!!Frame: map-165_01_000.gfrm
!@!!Wavelengths    1.54184   1.54056   1.54439
!@!!Frame angles: 2Theta: 63.000 Omega: 50.000 Phi: 0.000 Chi: 90.000
!@!!Integration range: 2Theta: 53.000 to 73.000  Gamma: -105.000 to -75.000
!@!!Integration method: bin normalized
!@!N
!@!SS
!@!M
!@!L 0.0 0.0 0.0 0.0
!@!XDegrees
!@!YCounts
53.000 4.150187
53.005 4.152137
53.010 4.238822
53.015 4.295504
53.020 4.215308
53.025 4.496857
53.030 4.514376
53.035 4.168213
53.040 4.261008
53.045 3.99869
53.050 3.861838
53.055 4.34839
53.060 4.38853
53.065 4.678608
53.070 4.74658
53.075 4.429075
53.080 4.573843
53.085 4.78129
53.090 4.49238
53.095 4.398346
53.100 4.41011
53.105 4.380958
53.110 4.857575
53.115 4.961344
53.120 4.516843
53.125 4.666873
53.130 4.520082
53.135 4.529697
53.140 4.578232
53.145 4.009666
53.150 4.577901
53.155 4.434644
53.160 4.400777
53.165 4.230494
53.170 3.932057
53.175 3.813741
53.180 3.72007
53.185 3.731704
53.190 3.761795
53.195 3.482247
53.200 3.443509
53.205 3.677653
53.210 3.777368
53.215 3.609404
53.220 3.251626
53.225 3.266693
53.230 3.297727
53.235 3.270164
53.240 2.962502
53.245 3.041676
53.250 2.971343
53.255 3.39162
53.260 3.504322
53.265 3.698815
53.270 3.794994
53.275 3.878717
53.280 4.191555
53.285 4.326489
53.290 4.452896
53.295 4.424311
53.300 4.086555
53.305 4.020175
53.310 3.863113
53.315 3.624831
53.320 3.457347
53.325 3.245574
53.330 3.535527
53.335 3.62648
53.340 3.81838
53.345 4.114489
53.350 4.049478
53.355 3.967318
53.360 3.81354
53.365 3.786785
53.370 4.08448
53.375 3.922993
53.380 3.746793
53.385 3.816589
53.390 3.832162
53.395 4.041849
53.400 4.006334
53.405 3.868881
53.410 3.717741
53.415 3.591484
53.420 3.569494
53.425 3.646569
53.430 3.531083
53.435 3.495198
53.440 3.613271
53.445 3.996897
53.450 4.076336
53.455 4.032043
53.460 4.047866
53.465 4.024513
53.470 4.060972
53.475 3.918853
53.480 3.671983
53.485 3.668245
53.490 3.517192
53.495 3.627328
53.500 3.511627
53.505 3.697159
53.510 3.937728
53.515 4.043534
53.520 4.305707
53.525 4.497268
53.530 4.307062
53.535 4.533242
53.540 4.381453
53.545 4.1392
53.550 3.99174
53.555 3.603472
53.560 3.447194
53.565 3.668955
53.570 3.510096
53.575 3.635166
53.580 3.812465
53.585 3.915807
53.590 4.082157
53.595 4.248141
53.600 4.103233
53.605 4.055537
53.610 3.940144
53.615 3.729012
53.620 3.826282
53.625 3.53904
53.630 3.160322
53.635 3.43505
53.640 3.396287
53.645 3.563507
53.650 3.740109
53.655 3.840826
53.660 4.166782
53.665 4.23505
53.670 4.169028
53.675 4.199642
53.680 4.053271
53.685 4.190787
53.690 4.159184
53.695 4.324528
53.700 4.25596
53.705 4.37623
53.710 4.492638
53.715 4.346845
53.720 3.996536
53.725 3.968906
53.730 3.977883
53.735 3.989818
53.740 3.822534
53.745 4.000446
53.750 4.139687
53.755 4.241791
53.760 4.127326
53.765 4.081369
53.770 4.209779
53.775 3.916968
53.780 3.465704
53.785 3.274269
53.790 3.128141
53.795 3.125788
53.800 3.187131
53.805 3.268209
53.810 3.423887
53.815 4.032218
53.820 4.457572
53.825 4.884958
53.830 4.846527
53.835 4.621608
53.840 4.569251
53.845 4.513065
53.850 4.168126
53.855 3.82239
53.860 3.520566
53.865 3.464164
53.870 3.533407
53.875 3.621476
53.880 3.690762
53.885 3.543231
53.890 3.557177
53.895 3.537845
53.900 3.566605
53.905 3.518538
53.910 3.44824
53.915 3.410125
53.920 3.697567
53.925 3.607625
53.930 3.760678
53.935 3.588157
53.940 3.424519
53.945 3.489363
53.950 3.627589
53.955 3.749769
53.960 3.725404
53.965 4.043586
53.970 4.154444
53.975 4.201264
53.980 4.055874
53.985 3.927784
53.990 4.028016
53.995 3.990303
54.000 3.749285
54.005 3.712659
54.010 3.725653
54.015 3.652107
54.020 3.897152
54.025 3.896369
54.030 4.160553
54.035 4.378739
54.040 4.399269
54.045 4.453544
54.050 4.279448
54.055 4.048529
54.060 3.85247
54.065 3.692601
54.070 3.677975
54.075 3.664611
54.080 4.070083
54.085 4.308961
54.090 4.262718
54.095 4.364058
54.100 4.173783
54.105 4.117552
54.110 4.065859
54.115 3.409689
54.120 3.252163
54.125 3.460258
54.130 3.322517
54.135 3.193095
54.140 3.07212
54.145 2.915931
54.150 3.078599
54.155 2.807545
54.160 2.769437
54.165 2.956758
54.170 3.380652
54.175 3.676201
54.180 3.876491
54.185 3.800677
54.190 3.922563
54.195 3.739691
54.200 3.592432
54.205 3.156417
54.210 2.974843
54.215 2.882184
54.220 3.346296
54.225 3.649479
54.230 3.810265
54.235 3.848014
54.240 4.209771
54.245 4.415573
54.250 4.439427
54.255 4.366415
54.260 4.498081
54.265 4.609451
54.270 4.697874
54.275 4.424909
54.280 4.336198
54.285 4.22346
54.290 4.00901
54.295 3.562823
54.300 3.685733
54.305 3.880861
54.310 3.914515
54.315 3.923964
54.320 4.148061
54.325 4.041462
54.330 4.227918
54.335 3.7887
54.340 3.560352
54.345 3.548931
54.350 3.584583
54.355 3.755929
54.360 3.938662
54.365 3.806354
54.370 4.233561
54.375 4.6297
54.380 4.93306
54.385 4.571716
54.390 4.216048
54.395 4.581432
54.400 4.625335
54.405 4.287197
54.410 3.761068
54.415 3.561084
54.420 3.716276
54.425 3.736602
54.430 3.627905
54.435 3.842234
54.440 3.971084
54.445 4.4188
54.450 4.439526
54.455 4.416617
54.460 4.266953
54.465 4.168557
54.470 4.162164
54.475 4.067534
54.480 3.927717
54.485 3.955164
54.490 3.88272
54.495 4.224343
54.500 4.069813
54.505 4.162577
54.510 4.300264
54.515 4.289725
54.520 4.342162
54.525 4.297564
54.530 4.115841
54.535 4.016912
54.540 4.19324
54.545 4.460387
54.550 4.651039
54.555 4.930789
54.560 5.065392
54.565 5.095715
54.570 4.989038
54.575 4.392681
54.580 4.150829
54.585 3.998705
54.590 3.755582
54.595 3.676839
54.600 3.619732
54.605 3.873874
54.610 3.903495
54.615 3.74573
54.620 4.048116
54.625 4.043625
54.630 3.965873
54.635 4.143791
54.640 4.177159
54.645 4.5876
54.650 4.351177
54.655 4.105288
54.660 4.345908
54.665 4.283032
54.670 3.98647
54.675 3.781611
54.680 3.541856
54.685 3.756435
54.690 3.77785
54.695 3.603141
54.700 3.596914
54.705 3.75279
54.710 3.803028
54.715 4.055865
54.720 4.309393
54.725 4.336113
54.730 4.704079
54.735 4.81111
54.740 4.97648
54.745 5.091393
54.750 4.802968
54.755 4.733671
54.760 4.828823
54.765 5.049893
54.770 5.226137
54.775 5.316218
54.780 5.152397
54.785 5.437928
54.790 5.099091
54.795 4.882414
54.800 4.512813
54.805 4.274702
54.810 3.958791
54.815 4.029426
54.820 3.76759
54.825 3.768421
54.830 3.918036
54.835 4.074247
54.840 4.004961
54.845 4.335824
54.850 4.280241
54.855 4.511764
54.860 4.568643
54.865 4.25876
54.870 4.213185
54.875 4.26125
54.880 3.961918
54.885 3.705927
54.890 3.62518
54.895 3.485688
54.900 3.610367
54.905 3.678463
54.910 3.577668
54.915 3.561559
54.920 3.71826
54.925 3.596848
54.930 3.668422
54.935 3.485379
54.940 3.289986
54.945 3.44261
54.950 3.697743
54.955 3.715083
54.960 3.879545
54.965 4.010549
54.970 4.330032
54.975 4.624544
54.980 4.651566
54.985 4.520767
54.990 4.424312
54.995 4.335082
55.000 4.407216
55.005 4.186625
55.010 4.197858
55.015 4.169137
55.020 4.29434
55.025 4.575373
55.030 4.650105
55.035 4.496664
55.040 4.415998
55.045 4.185361
55.050 4.55321
55.055 4.671553
55.060 4.7372
55.065 4.842809
55.070 4.805314
55.075 4.944167
55.080 4.658924
55.085 4.423636
55.090 4.116049
55.095 3.90051
55.100 3.685333
55.105 3.619682
55.110 3.756323
55.115 3.843462
55.120 3.832304
55.125 4.419347
55.130 4.432686
55.135 4.808421
55.140 4.639215
55.145 4.539577
55.150 4.446618
55.155 3.954152
55.160 3.544645
55.165 3.340778
55.170 3.025795
55.175 3.152899
55.180 3.503545
55.185 3.982694
55.190 3.946876
55.195 3.934046
55.200 4.17893
55.205 4.297225
55.210 4.125422
55.215 3.87158
55.220 3.514373
55.225 3.593184
55.230 3.562906
55.235 3.403312
55.240 3.577579
55.245 3.710659
55.250 3.548699
55.255 3.586635
55.260 3.8343
55.265 3.753729
55.270 3.766815
55.275 3.517034
55.280 3.439023
55.285 3.520803
55.290 3.99721
55.295 4.051737
55.300 4.069996
55.305 4.374776
55.310 4.592398
55.315 4.641896
55.320 4.874396
55.325 4.647329
55.330 4.67294
55.335 4.858912
55.340 4.622333
55.345 4.526879
55.350 4.411576
55.355 4.141072
55.360 4.154716
55.365 4.144433
55.370 3.924198
55.375 3.917671
55.380 3.939279
55.385 4.041432
55.390 3.938555
55.395 3.950338
55.400 3.758895
55.405 3.78003
55.410 3.766773
55.415 3.76081
55.420 3.919121
55.425 3.649671
55.430 3.593415
55.435 3.796006
55.440 4.110663
55.445 4.09768
55.450 3.865946
55.455 3.80602
55.460 4.310747
55.465 4.74391
55.470 4.799951
55.475 4.473639
55.480 4.341295
55.485 4.465117
55.490 4.979692
55.495 4.709201
55.500 4.198748
55.505 3.961992
55.510 3.997978
55.515 3.987946
55.520 3.847876
55.525 3.733702
55.530 4.068115
55.535 4.292857
55.540 4.291468
55.545 4.574002
55.550 5.134205
55.555 5.557796
55.560 5.244761
55.565 4.974331
55.570 4.913752
55.575 4.957229
55.580 4.999109
55.585 4.758962
55.590 4.541293
55.595 4.645367
55.600 4.639561
55.605 4.60597
55.610 4.630321
55.615 4.535777
55.620 4.327826
55.625 4.037741
55.630 4.195937
55.635 4.338944
55.640 4.584199
55.645 4.410566
55.650 4.152071
55.655 4.188661
55.660 4.433665
55.665 4.217025
55.670 4.037342
55.675 3.915166
55.680 4.0572
55.685 4.280565
55.690 4.366596
55.695 4.126296
55.700 3.759235
55.705 3.581333
55.710 3.58674
55.715 3.594759
55.720 3.61499
55.725 3.505913
55.730 3.75269
55.735 4.181467
55.740 4.379694
55.745 4.151651
55.750 4.257616
55.755 4.360388
55.760 4.368259
55.765 4.587426
55.770 4.844091
55.775 4.918739
55.780 5.296176
55.785 5.076565
55.790 4.907218
55.795 4.817118
55.800 4.514384
55.805 3.831453
55.810 3.806744
55.815 3.726475
55.820 4.075228
55.825 4.200334
55.830 4.22148
55.835 4.399007
55.840 4.622842
55.845 4.576941
55.850 4.375673
55.855 4.269754
55.860 4.268914
55.865 4.287169
55.870 4.881793
55.875 5.012579
55.880 4.932657
55.885 5.140577
55.890 5.380078
55.895 5.405883
55.900 5.673122
55.905 5.255265
55.910 5.294875
55.915 5.506804
55.920 5.608752
55.925 5.131309
55.930 5.002765
55.935 4.489019
55.940 4.458499
55.945 4.805905
55.950 4.745179
55.955 4.645957
55.960 4.709256
55.965 4.685409
55.970 4.929633
55.975 4.884667
55.980 4.970186
55.985 4.815467
55.990 4.88806
55.995 4.797422
56.000 4.886992
56.005 4.874433
56.010 4.699383
56.015 4.211248
56.020 4.031193
56.025 4.23142
56.030 4.219922
56.035 4.136543
56.040 4.039148
56.045 4.04359
56.050 4.476521
56.055 4.435804
56.060 4.168939
56.065 4.224404
56.070 4.28792
56.075 4.06685
56.080 4.137635
56.085 4.168065
56.090 4.051746
56.095 4.231314
56.100 4.394628
56.105 4.522483
56.110 4.72091
56.115 4.556402
56.120 4.507892
56.125 4.520239
56.130 4.506957
56.135 4.149921
56.140 4.114502
56.145 4.256484
56.150 4.432982
56.155 4.783478
56.160 4.593115
56.165 4.708987
56.170 4.787224
56.175 4.502343
56.180 4.496212
56.185 4.11604
56.190 3.776825
56.195 3.897756
56.200 3.918636
56.205 4.211519
56.210 4.529368
56.215 4.500624
56.220 4.626242
56.225 5.001268
56.230 5.107598
56.235 5.087036
56.240 5.022135
56.245 5.041145
56.250 4.964805
56.255 4.831077
56.260 4.568028
56.265 4.29692
56.270 4.25727
56.275 4.156621
56.280 4.074215
56.285 4.230335
56.290 4.457969
56.295 4.529268
56.300 4.751852
56.305 5.081886
56.310 5.140885
56.315 4.767985
56.320 4.457985
56.325 4.118309
56.330 4.352921
56.335 4.318481
56.340 4.370532
56.345 4.351902
56.350 4.801054
56.355 5.218861
56.360 5.42345
56.365 5.312916
56.370 4.915781
56.375 4.593061
56.380 4.493684
56.385 4.306482
56.390 4.312854
56.395 4.595922
56.400 4.819224
56.405 5.237743
56.410 5.385879
56.415 5.39144
56.420 5.198668
56.425 4.944528
56.430 4.989003
56.435 4.882322
56.440 4.540602
56.445 4.825966
56.450 5.08188
56.455 5.108082
56.460 4.884742
56.465 4.679989
56.470 4.621258
56.475 4.648663
56.480 4.231387
56.485 4.020789
56.490 4.195705
56.495 4.392776
56.500 4.303785
56.505 4.379599
56.510 4.533994
56.515 4.600778
56.520 4.679055
56.525 4.609362
56.530 4.241996
56.535 4.333559
56.540 4.185056
56.545 3.946577
56.550 4.31282
56.555 4.564487
56.560 4.595739
56.565 5.031574
56.570 5.100696
56.575 5.173434
56.580 5.233926
56.585 4.952926
56.590 4.944072
56.595 5.104369
56.600 4.949459
56.605 4.975335
56.610 4.855425
56.615 4.660082
56.620 4.7079
56.625 4.743813
56.630 4.650694
56.635 4.383877
56.640 4.218357
56.645 4.588818
56.650 4.710797
56.655 4.518495
56.660 4.402859
56.665 4.702378
56.670 5.039646
56.675 5.206805
56.680 5.056494
56.685 5.343749
56.690 5.525307
56.695 5.390706
56.700 5.157622
56.705 5.15334
56.710 4.997163
56.715 4.866711
56.720 4.871082
56.725 4.996775
56.730 5.17318
56.735 5.352128
56.740 5.419816
56.745 5.495265
56.750 5.40449
56.755 5.275277
56.760 4.801098
56.765 4.494267
56.770 4.353433
56.775 4.265511
56.780 4.332524
56.785 4.359109
56.790 4.522528
56.795 4.653378
56.800 4.708241
56.805 4.891064
56.810 4.792869
56.815 4.837687
56.820 4.932286
56.825 4.693596
56.830 5.199286
56.835 5.204743
56.840 5.078061
56.845 5.28145
56.850 5.314372
56.855 5.421896
56.860 5.347123
56.865 5.098632
56.870 5.339025
56.875 5.277447
56.880 5.258066
56.885 5.002502
56.890 4.688931
56.895 4.702168
56.900 4.607069
56.905 4.196253
56.910 4.043712
56.915 4.033695
56.920 3.979721
56.925 4.450704
56.930 4.812249
56.935 4.968313
56.940 5.436195
56.945 5.72085
56.950 5.686825
56.955 5.70386
56.960 5.350542
56.965 5.069865
56.970 5.206013
56.975 4.797963
56.980 4.690614
56.985 4.776574
56.990 5.020474
56.995 5.194553
57.000 5.053418
57.005 4.833112
57.010 4.90873
57.015 5.071433
57.020 5.434649
57.025 5.578625
57.030 5.470946
57.035 5.549321
57.040 5.485297
57.045 5.400181
57.050 5.429994
57.055 4.837208
57.060 4.573487
57.065 4.51879
57.070 4.495035
57.075 4.583424
57.080 4.477185
57.085 4.184012
57.090 4.349684
57.095 4.523777
57.100 4.749647
57.105 5.305494
57.110 5.290655
57.115 5.178783
57.120 5.438101
57.125 5.388764
57.130 5.33257
57.135 5.401465
57.140 5.11178
57.145 5.207479
57.150 5.383917
57.155 5.358131
57.160 5.285266
57.165 5.206697
57.170 4.754879
57.175 4.59681
57.180 4.752483
57.185 4.743357
57.190 4.981604
57.195 5.088689
57.200 5.086843
57.205 5.264823
57.210 5.036999
57.215 4.825204
57.220 4.969774
57.225 4.961875
57.230 5.022068
57.235 5.001233
57.240 5.114251
57.245 5.306054
57.250 5.417312
57.255 5.08752
57.260 4.778863
57.265 4.548468
57.270 4.754249
57.275 4.819315
57.280 5.295346
57.285 5.527854
57.290 5.437531
57.295 5.552398
57.300 5.868684
57.305 5.704216
57.310 5.539687
57.315 5.094368
57.320 5.205148
57.325 5.589101
57.330 5.632659
57.335 5.350068
57.340 5.422268
57.345 5.759832
57.350 5.901096
57.355 5.52552
57.360 5.328622
57.365 5.037425
57.370 5.00667
57.375 4.805503
57.380 4.611415
57.385 4.351423
57.390 4.412043
57.395 4.511342
57.400 4.879897
57.405 5.29559
57.410 5.290429
57.415 5.061494
57.420 4.946405
57.425 4.944163
57.430 4.832869
57.435 4.332498
57.440 4.016919
57.445 4.056472
57.450 4.378006
57.455 4.520466
57.460 4.886385
57.465 4.855089
57.470 5.033004
57.475 4.904182
57.480 4.891096
57.485 4.781826
57.490 4.943466
57.495 4.630997
57.500 4.52735
57.505 4.8212
57.510 4.837903
57.515 4.887308
57.520 4.74403
57.525 4.345516
57.530 4.339635
57.535 4.513461
57.540 4.493218
57.545 4.602276
57.550 4.55423
57.555 4.650386
57.560 4.888656
57.565 5.037483
57.570 5.359122
57.575 5.290938
57.580 5.602297
57.585 5.660051
57.590 5.516819
57.595 5.260654
57.600 5.166137
57.605 4.663421
57.610 4.635316
57.615 4.293781
57.620 4.222816
57.625 4.474006
57.630 4.55945
57.635 4.703744
57.640 5.389852
57.645 5.258402
57.650 5.531393
57.655 5.641295
57.660 5.630999
57.665 5.495873
57.670 5.179282
57.675 4.708685
57.680 4.770614
57.685 4.694515
57.690 4.648115
57.695 4.468345
57.700 4.829861
57.705 5.242991
57.710 5.252829
57.715 5.549541
57.720 5.543071
57.725 5.566281
57.730 5.643763
57.735 5.249468
57.740 4.952262
57.745 5.077075
57.750 4.890773
57.755 4.876191
57.760 4.737937
57.765 4.793392
57.770 4.846612
57.775 5.012862
57.780 4.698139
57.785 4.380279
57.790 4.224916
57.795 4.456652
57.800 4.65386
57.805 4.860379
57.810 4.455098
57.815 4.63751
57.820 5.065047
57.825 5.187262
57.830 5.038001
57.835 4.934913
57.840 4.840858
57.845 4.930192
57.850 4.675889
57.855 4.361526
57.860 4.159688
57.865 4.109577
57.870 3.910719
57.875 3.910351
57.880 4.088483
57.885 4.320511
57.890 4.814394
57.895 5.217682
57.900 5.631745
57.905 5.836646
57.910 6.155301
57.915 6.340585
57.920 6.169415
57.925 5.804904
57.930 5.740587
57.935 5.818142
57.940 5.956059
57.945 5.966119
57.950 6.006763
57.955 6.099536
57.960 6.097724
57.965 6.02378
57.970 5.759337
57.975 5.608989
57.980 5.41993
57.985 5.322517
57.990 5.194042
57.995 5.174675
58.000 5.162031
58.005 4.875366
58.010 4.474353
58.015 4.35363
58.020 4.100299
58.025 3.937624
58.030 3.69675
58.035 3.546887
58.040 3.638052
58.045 4.156384
58.050 4.620533
58.055 4.975034
58.060 5.065174
58.065 5.049818
58.070 4.990776
58.075 4.998709
58.080 4.384058
58.085 3.973319
58.090 3.670885
58.095 3.866748
58.100 4.201886
58.105 4.667043
58.110 4.826121
58.115 5.074769
58.120 5.334287
58.125 5.673677
58.130 5.667703
58.135 5.459614
58.140 5.283652
58.145 5.106732
58.150 5.385701
58.155 5.300086
58.160 5.298328
58.165 5.444591
58.170 5.556347
58.175 5.696354
58.180 5.956541
58.185 5.82787
58.190 5.81469
58.195 5.833375
58.200 5.834309
58.205 5.744805
58.210 5.8011
58.215 5.610768
58.220 5.277681
58.225 4.903172
58.230 4.77431
58.235 4.689782
58.240 4.902257
58.245 4.430724
58.250 4.480624
58.255 4.585622
58.260 5.007145
58.265 5.130209
58.270 5.087317
58.275 5.123064
58.280 5.647791
58.285 5.695508
58.290 5.766285
58.295 5.868788
58.300 5.938324
58.305 6.165107
58.310 6.235659
58.315 6.014719
58.320 6.077962
58.325 6.308545
58.330 6.048843
58.335 6.056235
58.340 5.872875
58.345 5.437078
58.350 5.516048
58.355 5.527868
58.360 5.461105
58.365 5.325595
58.370 4.930251
58.375 4.795243
58.380 4.877444
58.385 5.145708
58.390 5.13666
58.395 5.131125
58.400 5.333034
58.405 5.574934
58.410 5.858077
58.415 6.104611
58.420 6.013326
58.425 5.630442
58.430 5.166646
58.435 5.261564
58.440 5.515577
58.445 5.504636
58.450 5.056363
58.455 4.884637
58.460 4.969778
58.465 5.221685
58.470 5.21943
58.475 4.838976
58.480 4.856755
58.485 4.962729
58.490 5.029906
58.495 5.369596
58.500 5.574699
58.505 5.803476
58.510 6.276791
58.515 6.580773
58.520 6.943384
58.525 7.169188
58.530 7.479733
58.535 7.224685
58.540 6.625956
58.545 6.384305
58.550 6.581756
58.555 6.69653
58.560 6.580312
58.565 6.275974
58.570 6.435102
58.575 6.497634
58.580 6.42363
58.585 6.272188
58.590 6.075088
58.595 6.083138
58.600 6.256525
58.605 6.275927
58.610 6.386709
58.615 6.352164
58.620 6.459843
58.625 7.042002
58.630 7.231617
58.635 6.8614
58.640 6.866847
58.645 6.701708
58.650 6.775617
58.655 6.795449
58.660 6.888909
58.665 6.973832
58.670 7.121582
58.675 7.244586
58.680 7.512617
58.685 7.33003
58.690 7.298574
58.695 6.821796
58.700 6.444215
58.705 6.482372
58.710 6.254539
58.715 6.369592
58.720 6.61224
58.725 6.335775
58.730 6.18117
58.735 6.614123
58.740 6.785221
58.745 7.106707
58.750 6.949615
58.755 6.613499
58.760 6.721548
58.765 7.079929
58.770 6.945728
58.775 7.072912
58.780 6.906581
58.785 6.642705
58.790 6.311011
58.795 6.343583
58.800 5.835135
58.805 5.794855
58.810 5.960911
58.815 6.52392
58.820 6.66449
58.825 6.789308
58.830 6.617764
58.835 6.833012
58.840 7.289324
58.845 6.976434
58.850 6.245164
58.855 6.129202
58.860 6.000925
58.865 5.884776
58.870 5.680502
58.875 5.375237
58.880 5.313238
58.885 5.536468
58.890 5.825959
58.895 6.124415
58.900 6.483289
58.905 6.26548
58.910 6.015061
58.915 5.827976
58.920 5.604283
58.925 5.234119
58.930 5.192811
58.935 5.05793
58.940 5.4788
58.945 5.703446
58.950 5.73461
58.955 6.160465
58.960 6.727375
58.965 6.46752
58.970 6.181046
58.975 6.080062
58.980 6.201236
58.985 6.050653
58.990 5.860501
58.995 5.598363
59.000 5.657178
59.005 5.85431
59.010 5.410722
59.015 5.105913
59.020 5.187192
59.025 5.184519
59.030 5.473187
59.035 5.570344
59.040 6.00771
59.045 6.351507
59.050 6.484238
59.055 6.246051
59.060 5.897916
59.065 5.410524
59.070 5.520384
59.075 5.009799
59.080 5.164649
59.085 5.501265
59.090 6.03638
59.095 6.312936
59.100 6.268344
59.105 6.219424
59.110 6.119503
59.115 5.830078
59.120 5.345071
59.125 4.866358
59.130 5.033937
59.135 5.088078
59.140 5.239839
59.145 5.327561
59.150 5.241844
59.155 5.869498
59.160 6.100769
59.165 5.603065
59.170 5.693907
59.175 5.371601
59.180 5.338459
59.185 5.343569
59.190 5.324801
59.195 5.452855
59.200 5.569345
59.205 5.442371
59.210 5.279374
59.215 5.159354
59.220 4.97635
59.225 4.814817
59.230 4.909814
59.235 4.747106
59.240 4.587638
59.245 4.571908
59.250 5.06078
59.255 5.267298
59.260 5.2831
59.265 5.382514
59.270 5.907289
59.275 6.25599
59.280 6.84099
59.285 6.503891
59.290 6.264712
59.295 5.933693
59.300 5.720004
59.305 5.410363
59.310 5.358563
59.315 4.997335
59.320 4.968562
59.325 4.91704
59.330 4.939201
59.335 4.961257
59.340 4.992462
59.345 5.129766
59.350 5.136167
59.355 5.222648
59.360 5.174956
59.365 5.023848
59.370 5.049552
59.375 5.184376
59.380 4.993394
59.385 5.096419
59.390 5.050548
59.395 5.446043
59.400 5.654705
59.405 5.602134
59.410 5.538735
59.415 5.498206
59.420 5.512572
59.425 5.543853
59.430 5.212639
59.435 4.947014
59.440 5.193645
59.445 5.337201
59.450 5.222505
59.455 4.983915
59.460 4.823124
59.465 4.990277
59.470 5.092262
59.475 4.927715
59.480 5.249772
59.485 5.512966
59.490 5.896489
59.495 6.105142
59.500 6.278294
59.505 6.5177
59.510 6.567072
59.515 6.17008
59.520 5.910683
59.525 5.874183
59.530 5.981522
59.535 5.780941
59.540 5.374916
59.545 5.227577
59.550 5.196574
59.555 5.340097
59.560 5.738365
59.565 5.700823
59.570 5.784626
59.575 5.860989
59.580 6.054463
59.585 6.239036
59.590 6.045627
59.595 5.560785
59.600 5.801437
59.605 6.043928
59.610 6.230311
59.615 6.053148
59.620 6.059888
59.625 6.067636
59.630 5.840861
59.635 5.316217
59.640 4.979844
59.645 4.984835
59.650 5.295899
59.655 5.047248
59.660 4.801629
59.665 4.928814
59.670 4.847112
59.675 4.549006
59.680 4.060658
59.685 3.697958
59.690 4.151187
59.695 4.599391
59.700 4.848571
59.705 4.836246
59.710 5.132873
59.715 5.314349
59.720 5.195826
59.725 5.12709
59.730 4.802197
59.735 4.907712
59.740 5.262884
59.745 5.26897
59.750 5.368548
59.755 5.374814
59.760 5.341343
59.765 5.360538
59.770 4.979855
59.775 4.879262
59.780 4.817906
59.785 4.777646
59.790 4.690294
59.795 4.490792
59.800 4.920357
59.805 4.915123
59.810 5.044113
59.815 5.446054
59.820 5.557387
59.825 5.688204
59.830 5.923402
59.835 5.529687
59.840 5.738528
59.845 5.45791
59.850 5.379111
59.855 5.801013
59.860 5.89551
59.865 5.950063
59.870 6.058127
59.875 5.922337
59.880 5.826401
59.885 5.554919
59.890 5.325742
59.895 5.404485
59.900 5.52702
59.905 5.616402
59.910 5.906959
59.915 6.009665
59.920 6.015359
59.925 5.861809
59.930 5.833872
59.935 5.798461
59.940 5.996254
59.945 5.740026
59.950 6.003671
59.955 5.97956
59.960 5.950957
59.965 5.805335
59.970 5.291571
59.975 4.841702
59.980 4.938916
59.985 4.800828
59.990 4.677189
59.995 4.371727
60.000 4.146235
60.005 4.523601
60.010 4.672925
60.015 4.810166
60.020 5.119435
60.025 5.46237
60.030 6.026751
60.035 6.319018
60.040 6.097034
60.045 5.961562
60.050 5.983352
60.055 5.794621
60.060 5.712663
60.065 5.498715
60.070 5.457258
60.075 5.838194
60.080 5.854911
60.085 5.957974
60.090 5.953479
60.095 6.196748
60.100 6.2788
60.105 6.156319
60.110 5.884302
60.115 5.650699
60.120 5.336295
60.125 5.260732
60.130 5.007939
60.135 5.021739
60.140 5.084653
60.145 5.113477
60.150 5.162036
60.155 5.064061
60.160 4.920564
60.165 5.007937
60.170 5.15459
60.175 5.330758
60.180 5.532482
60.185 5.652596
60.190 5.664275
60.195 5.64989
60.200 5.592482
60.205 5.31722
60.210 4.972678
60.215 4.671845
60.220 4.548335
60.225 4.837255
60.230 5.055923
60.235 5.029457
60.240 5.05217
60.245 5.124683
60.250 5.421146
60.255 5.420337
60.260 5.365144
60.265 5.144368
60.270 4.846285
60.275 4.982622
60.280 4.977197
60.285 4.818971
60.290 4.87353
60.295 4.841643
60.300 4.735218
60.305 5.066157
60.310 5.125014
60.315 5.20344
60.320 5.454661
60.325 5.760791
60.330 5.707448
60.335 5.608711
60.340 5.138454
60.345 4.975366
60.350 4.956001
60.355 4.705438
60.360 4.085786
60.365 4.031316
60.370 4.701518
60.375 5.224079
60.380 5.656158
60.385 5.738091
60.390 5.783618
60.395 6.48586
60.400 6.833008
60.405 6.69263
60.410 6.359859
60.415 6.074685
60.420 6.1615
60.425 6.080753
60.430 5.79895
60.435 5.439175
60.440 5.420148
60.445 5.449172
60.450 5.378846
60.455 5.154326
60.460 5.191322
60.465 5.209827
60.470 5.220353
60.475 5.071555
60.480 5.335019
60.485 5.328721
60.490 5.424347
60.495 5.478138
60.500 5.329971
60.505 5.159872
60.510 5.010636
60.515 4.877349
60.520 5.091757
60.525 5.044465
60.530 4.902943
60.535 4.856753
60.540 4.939398
60.545 5.085917
60.550 4.86089
60.555 4.600977
60.560 4.534017
60.565 4.500052
60.570 4.840172
60.575 5.027082
60.580 5.046653
60.585 5.292276
60.590 5.470631
60.595 5.607532
60.600 5.668493
60.605 5.341145
60.610 5.206486
60.615 5.399195
60.620 5.703415
60.625 5.917674
60.630 5.941077
60.635 5.984035
60.640 6.265682
60.645 6.41646
60.650 6.243174
60.655 5.96819
60.660 6.013529
60.665 6.445341
60.670 6.242151
60.675 5.919072
60.680 5.771922
60.685 5.706791
60.690 5.718465
60.695 5.439302
60.700 5.179426
60.705 5.165876
60.710 5.311609
60.715 5.379726
60.720 5.362954
60.725 5.124846
60.730 4.85589
60.735 4.973625
60.740 5.280557
60.745 5.382662
60.750 5.513541
60.755 5.59415
60.760 5.95741
60.765 6.078442
60.770 6.098327
60.775 6.189625
60.780 5.997171
60.785 5.683918
60.790 5.719066
60.795 5.59259
60.800 5.787207
60.805 5.655199
60.810 5.595193
60.815 5.735919
60.820 5.802547
60.825 5.605953
60.830 5.779346
60.835 5.468657
60.840 5.438398
60.845 5.308993
60.850 5.154926
60.855 5.460741
60.860 5.720238
60.865 5.785432
60.870 6.173176
60.875 6.45409
60.880 6.454149
60.885 6.565207
60.890 6.528511
60.895 6.562835
60.900 6.648706
60.905 6.365077
60.910 5.906605
60.915 6.028464
60.920 6.115281
60.925 5.878149
60.930 5.7983
60.935 5.804043
60.940 5.942898
60.945 6.041346
60.950 6.272401
60.955 6.255104
60.960 6.485868
60.965 6.254938
60.970 6.040986
60.975 6.193628
60.980 6.471064
60.985 6.354034
60.990 6.080163
60.995 5.814257
61.000 6.132807
61.005 6.602314
61.010 6.619605
61.015 6.340685
61.020 6.073949
61.025 6.27497
61.030 6.364846
61.035 5.918462
61.040 5.246864
61.045 5.109709
61.050 5.21715
61.055 5.249358
61.060 5.272425
61.065 4.833814
61.070 4.895077
61.075 4.76683
61.080 5.054994
61.085 5.293477
61.090 5.419401
61.095 5.642607
61.100 6.010496
61.105 5.974627
61.110 6.183258
61.115 6.030523
61.120 5.75708
61.125 5.764705
61.130 5.343204
61.135 5.226093
61.140 5.443764
61.145 5.145628
61.150 5.140755
61.155 5.157344
61.160 5.246172
61.165 5.477627
61.170 5.70597
61.175 5.621645
61.180 5.891758
61.185 5.985931
61.190 5.997142
61.195 6.242616
61.200 6.519267
61.205 6.563993
61.210 6.694288
61.215 6.358196
61.220 6.139728
61.225 6.185503
61.230 5.99411
61.235 5.66841
61.240 5.566137
61.245 5.387536
61.250 5.787223
61.255 5.793435
61.260 5.553006
61.265 5.333541
61.270 5.240613
61.275 5.605771
61.280 5.820117
61.285 5.760246
61.290 5.825295
61.295 6.197367
61.300 6.863487
61.305 6.918687
61.310 6.826659
61.315 6.648275
61.320 6.77509
61.325 6.948637
61.330 6.907316
61.335 6.749454
61.340 6.643192
61.345 6.249497
61.350 6.061654
61.355 5.976009
61.360 5.848804
61.365 5.405126
61.370 5.196239
61.375 5.145536
61.380 5.337769
61.385 5.445169
61.390 5.370551
61.395 5.104853
61.400 5.446001
61.405 5.681337
61.410 5.824829
61.415 5.601394
61.420 5.591463
61.425 5.666804
61.430 6.130101
61.435 5.944553
61.440 5.743083
61.445 5.414853
61.450 5.626318
61.455 5.636625
61.460 5.446679
61.465 5.262116
61.470 5.120374
61.475 4.914662
61.480 5.362847
61.485 5.449599
61.490 5.379142
61.495 5.437089
61.500 5.26384
61.505 5.564065
61.510 5.830135
61.515 5.674872
61.520 5.863366
61.525 5.788555
61.530 5.942957
61.535 6.314615
61.540 6.324102
61.545 6.396247
61.550 6.650546
61.555 6.743865
61.560 6.862346
61.565 6.612428
61.570 6.693604
61.575 6.734385
61.580 6.512337
61.585 6.147574
61.590 6.114131
61.595 6.139078
61.600 6.151518
61.605 5.672043
61.610 5.574448
61.615 5.605443
61.620 5.457267
61.625 5.444016
61.630 5.449058
61.635 5.573147
61.640 5.84093
61.645 5.874579
61.650 6.199331
61.655 6.478941
61.660 6.836177
61.665 7.00933
61.670 7.160433
61.675 7.096914
61.680 6.76839
61.685 6.369879
61.690 5.936851
61.695 5.621232
61.700 5.576189
61.705 5.212626
61.710 4.888979
61.715 5.325497
61.720 5.320499
61.725 5.549716
61.730 5.555898
61.735 5.745831
61.740 5.885357
61.745 6.091554
61.750 5.872102
61.755 5.818443
61.760 5.820974
61.765 5.855868
61.770 5.756654
61.775 5.954228
61.780 5.954156
61.785 6.276934
61.790 6.38728
61.795 6.369427
61.800 6.241405
61.805 6.158786
61.810 5.824858
61.815 5.720676
61.820 5.735351
61.825 5.913016
61.830 5.957564
61.835 6.053447
61.840 6.002648
61.845 6.24982
61.850 6.03834
61.855 5.981517
61.860 6.188091
61.865 6.294516
61.870 6.487716
61.875 6.747776
61.880 7.047354
61.885 7.24911
61.890 7.254499
61.895 6.675814
61.900 6.434039
61.905 6.261108
61.910 5.962554
61.915 5.925805
61.920 6.086722
61.925 5.587317
61.930 5.648876
61.935 5.588231
61.940 5.61683
61.945 5.60082
61.950 5.239386
61.955 5.187102
61.960 5.557693
61.965 5.630028
61.970 5.668275
61.975 5.56711
61.980 5.543245
61.985 5.576319
61.990 5.589913
61.995 5.556453
62.000 5.407277
62.005 5.438199
62.010 5.271422
62.015 5.074926
62.020 5.239882
62.025 5.172821
62.030 5.182849
62.035 5.42309
62.040 5.642384
62.045 5.866306
62.050 6.358609
62.055 6.412904
62.060 6.478165
62.065 6.283536
62.070 5.957
62.075 5.623991
62.080 5.737614
62.085 5.441427
62.090 5.457374
62.095 5.659096
62.100 5.699733
62.105 5.730605
62.110 5.624131
62.115 5.414558
62.120 5.7201
62.125 5.838222
62.130 5.713837
62.135 5.745216
62.140 6.076711
62.145 6.741333
62.150 7.28771
62.155 7.305345
62.160 7.327913
62.165 7.565348
62.170 7.736141
62.175 7.573935
62.180 7.067517
62.185 6.475685
62.190 5.917273
62.195 5.753906
62.200 5.540762
62.205 5.447623
62.210 5.483004
62.215 5.765631
62.220 6.264138
62.225 6.569293
62.230 6.55151
62.235 6.569261
62.240 6.64849
62.245 6.586767
62.250 6.093495
62.255 5.589444
62.260 5.385168
62.265 5.370452
62.270 5.280004
62.275 5.111247
62.280 5.204871
62.285 5.421597
62.290 5.634788
62.295 5.688048
62.300 5.630878
62.305 5.652311
62.310 5.597613
62.315 5.29612
62.320 5.395937
62.325 5.258687
62.330 5.434031
62.335 5.70394
62.340 5.777935
62.345 5.784462
62.350 6.120192
62.355 5.997471
62.360 5.860265
62.365 5.664579
62.370 5.481005
62.375 5.464331
62.380 5.639332
62.385 5.680758
62.390 5.972529
62.395 6.093666
62.400 6.103421
62.405 5.945614
62.410 5.928638
62.415 5.930048
62.420 6.048792
62.425 6.15231
62.430 6.51864
62.435 6.497991
62.440 6.690801
62.445 6.960628
62.450 7.07641
62.455 6.980893
62.460 7.016038
62.465 6.807782
62.470 6.720857
62.475 6.988953
62.480 6.587887
62.485 6.223807
62.490 6.106466
62.495 5.971403
62.500 6.062619
62.505 6.349889
62.510 6.036541
62.515 6.192372
62.520 6.462763
62.525 6.641587
62.530 6.622659
62.535 6.883297
62.540 6.6789
62.545 6.705265
62.550 6.661517
62.555 6.800032
62.560 6.738465
62.565 6.484936
62.570 6.174207
62.575 6.327258
62.580 6.437957
62.585 6.106718
62.590 5.550375
62.595 5.300357
62.600 5.592481
62.605 5.642581
62.610 5.866889
62.615 5.953309
62.620 6.071929
62.625 6.060969
62.630 6.305366
62.635 6.215266
62.640 6.143555
62.645 5.806082
62.650 5.777632
62.655 6.089824
62.660 6.360125
62.665 6.492828
62.670 6.866386
62.675 7.334698
62.680 7.406886
62.685 7.444541
62.690 7.439948
62.695 7.369842
62.700 7.034101
62.705 6.643604
62.710 6.647664
62.715 6.826941
62.720 6.714767
62.725 6.628237
62.730 6.816658
62.735 7.15366
62.740 6.759923
62.745 6.589905
62.750 6.716804
62.755 6.995222
62.760 6.949097
62.765 7.046466
62.770 6.893691
62.775 7.006148
62.780 6.99694
62.785 6.72453
62.790 6.29142
62.795 6.528817
62.800 6.056897
62.805 5.874106
62.810 5.814188
62.815 5.895937
62.820 6.047554
62.825 6.366596
62.830 6.574521
62.835 6.494667
62.840 6.404845
62.845 6.529279
62.850 6.340347
62.855 6.357129
62.860 6.274445
62.865 6.25873
62.870 6.45858
62.875 6.637305
62.880 6.508907
62.885 6.387804
62.890 5.961001
62.895 5.892883
62.900 5.846979
62.905 5.69672
62.910 6.085525
62.915 6.156421
62.920 6.246469
62.925 6.497755
62.930 6.397992
62.935 6.354671
62.940 6.526187
62.945 6.079092
62.950 5.993322
62.955 5.69069
62.960 5.493015
62.965 5.274308
62.970 5.093238
62.975 5.203312
62.980 5.58984
62.985 5.716122
62.990 5.786437
62.995 5.597501
63.000 5.617774
63.005 6.100434
63.010 6.057476
63.015 5.616064
63.020 5.614575
63.025 5.768253
63.030 5.928378
63.035 6.207491
63.040 5.91766
63.045 5.737909
63.050 5.873825
63.055 5.629086
63.060 5.957916
63.065 6.259783
63.070 6.447516
63.075 6.597876
63.080 6.728245
63.085 6.835662
63.090 6.845866
63.095 6.802112
63.100 6.695056
63.105 6.298572
63.110 6.084229
63.115 6.106655
63.120 6.003212
63.125 6.030632
63.130 5.811826
63.135 5.935956
63.140 6.300414
63.145 6.213627
63.150 6.013163
63.155 6.033485
63.160 5.860353
63.165 5.824842
63.170 5.56195
63.175 5.209517
63.180 5.060038
63.185 5.009628
63.190 5.142131
63.195 5.123155
63.200 5.31898
63.205 5.170292
63.210 5.067242
63.215 5.418103
63.220 5.726243
63.225 6.079636
63.230 6.156095
63.235 5.854462
63.240 6.032873
63.245 6.305765
63.250 6.163624
63.255 6.24716
63.260 5.955129
63.265 6.074549
63.270 6.305984
63.275 6.310667
63.280 6.156794
63.285 6.315129
63.290 5.855062
63.295 5.71084
63.300 5.986261
63.305 6.020832
63.310 6.178328
63.315 6.145026
63.320 5.848993
63.325 6.278995
63.330 6.562944
63.335 6.279064
63.340 6.352336
63.345 6.076485
63.350 6.025592
63.355 6.164882
63.360 6.262421
63.365 6.215072
63.370 6.406922
63.375 6.502634
63.380 6.607046
63.385 6.497972
63.390 6.43471
63.395 6.361245
63.400 6.441006
63.405 6.311838
63.410 6.399176
63.415 6.533479
63.420 6.891056
63.425 7.115106
63.430 7.098304
63.435 6.787809
63.440 6.544603
63.445 6.514644
63.450 6.611341
63.455 6.503382
63.460 6.356286
63.465 6.48546
63.470 6.847956
63.475 7.008075
63.480 6.874488
63.485 6.968352
63.490 6.989101
63.495 6.830307
63.500 6.620543
63.505 6.357193
63.510 6.066946
63.515 5.831848
63.520 5.995967
63.525 5.99863
63.530 6.357331
63.535 6.504231
63.540 6.568683
63.545 6.805607
63.550 6.961893
63.555 6.425616
63.560 5.99973
63.565 5.490827
63.570 5.232172
63.575 5.086105
63.580 4.957764
63.585 4.84621
63.590 5.067561
63.595 5.654276
63.600 5.798611
63.605 6.089736
63.610 6.18375
63.615 6.236061
63.620 6.355303
63.625 6.323839
63.630 5.774574
63.635 5.838255
63.640 5.728678
63.645 5.795806
63.650 5.75376
63.655 5.639978
63.660 5.46913
63.665 5.744065
63.670 5.472393
63.675 5.643358
63.680 5.882067
63.685 6.002248
63.690 5.954165
63.695 6.097416
63.700 6.202184
63.705 6.632608
63.710 6.31969
63.715 6.315312
63.720 6.521479
63.725 6.603092
63.730 6.680275
63.735 6.569429
63.740 6.407907
63.745 6.583491
63.750 6.373902
63.755 6.347692
63.760 6.467598
63.765 6.73971
63.770 6.815004
63.775 6.581388
63.780 6.533823
63.785 6.531019
63.790 6.280509
63.795 6.297816
63.800 6.091221
63.805 6.304237
63.810 6.308951
63.815 6.127718
63.820 5.989522
63.825 6.091581
63.830 6.160698
63.835 6.082873
63.840 5.822644
63.845 5.896363
63.850 6.246641
63.855 6.422493
63.860 6.458104
63.865 6.546992
63.870 6.58921
63.875 6.566624
63.880 7.32419
63.885 7.401598
63.890 7.308724
63.895 7.056402
63.900 6.942343
63.905 7.035009
63.910 7.276661
63.915 6.872558
63.920 6.49882
63.925 6.504359
63.930 6.687407
63.935 6.432116
63.940 6.108665
63.945 5.288906
63.950 5.118016
63.955 5.303309
63.960 5.406269
63.965 5.468969
63.970 5.795554
63.975 5.966282
63.980 6.52284
63.985 6.544665
63.990 6.549861
63.995 6.844512
64.000 6.947526
64.005 6.987312
64.010 7.513846
64.015 7.631979
64.020 7.82942
64.025 8.084818
64.030 8.009395
64.035 8.068847
64.040 8.054682
64.045 7.703671
64.050 7.716228
64.055 7.693276
64.060 7.043931
64.065 6.807361
64.070 6.620877
64.075 6.54076
64.080 6.797657
64.085 6.764847
64.090 6.68914
64.095 7.051025
64.100 7.168722
64.105 6.943365
64.110 6.522794
64.115 5.759996
64.120 5.70988
64.125 6.274495
64.130 6.4378
64.135 7.015315
64.140 7.331672
64.145 7.514108
64.150 7.92931
64.155 8.312382
64.160 8.173156
64.165 7.886716
64.170 7.505341
64.175 7.385396
64.180 7.461891
64.185 7.872323
64.190 7.266014
64.195 6.992917
64.200 6.814926
64.205 6.844935
64.210 7.044567
64.215 7.027116
64.220 6.433394
64.225 6.221785
64.230 6.724867
64.235 6.922081
64.240 6.597933
64.245 6.47473
64.250 6.402518
64.255 6.465482
64.260 6.652253
64.265 6.880441
64.270 6.891508
64.275 7.238001
64.280 7.364599
64.285 7.782479
64.290 8.178328
64.295 8.096852
64.300 7.611432
64.305 7.872894
64.310 7.703662
64.315 8.04756
64.320 7.889353
64.325 7.90082
64.330 8.413728
64.335 8.300496
64.340 8.346902
64.345 8.533875
64.350 8.438735
64.355 9.047834
64.360 9.3364
64.365 9.312348
64.370 9.54061
64.375 9.765141
64.380 10.158265
64.385 10.010839
64.390 9.952265
64.395 9.929598
64.400 10.066865
64.405 9.84683
64.410 9.909017
64.415 9.692296
64.420 9.605503
64.425 9.394637
64.430 9.49342
64.435 9.301276
64.440 9.275258
64.445 8.987316
64.450 9.083423
64.455 9.152884
64.460 9.268938
64.465 9.29635
64.470 9.899044
64.475 10.207014
64.480 10.066622
64.485 10.189452
64.490 10.036489
64.495 10.1724
64.500 10.511802
64.505 10.525208
64.510 11.008409
64.515 11.290877
64.520 11.305267
64.525 11.409131
64.530 10.893303
64.535 10.112465
64.540 9.87356
64.545 9.300242
64.550 8.997938
64.555 9.389932
64.560 9.32851
64.565 9.507589
64.570 10.09696
64.575 10.060903
64.580 10.268027
64.585 10.161673
64.590 9.725193
64.595 10.207179
64.600 10.212224
64.605 9.608537
64.610 9.19482
64.615 8.965517
64.620 9.05363
64.625 8.804709
64.630 8.445817
64.635 8.234193
64.640 8.329863
64.645 8.458608
64.650 8.297469
64.655 8.092938
64.660 8.254049
64.665 8.160795
64.670 8.445696
64.675 8.09005
64.680 8.132666
64.685 8.336712
64.690 8.404378
64.695 8.227057
64.700 8.379195
64.705 8.477098
64.710 8.449275
64.715 8.301903
64.720 7.972292
64.725 7.906401
64.730 7.914507
64.735 7.672692
64.740 7.541213
64.745 7.615035
64.750 7.855156
64.755 8.033209
64.760 7.978008
64.765 8.0197
64.770 7.911717
64.775 7.645925
64.780 7.710959
64.785 7.46597
64.790 7.649543
64.795 7.699422
64.800 7.241896
64.805 7.484324
64.810 7.433764
64.815 7.118934
64.820 7.090014
64.825 6.787992
64.830 7.14959
64.835 7.619905
64.840 7.455783
64.845 7.609222
64.850 7.929141
64.855 7.943199
64.860 7.852769
64.865 7.559924
64.870 7.410194
64.875 7.134183
64.880 7.059008
64.885 7.075122
64.890 7.06276
64.895 7.036334
64.900 6.907846
64.905 6.646923
64.910 6.4933
64.915 6.644629
64.920 6.697808
64.925 6.615454
64.930 6.55892
64.935 6.856995
64.940 7.400611
64.945 7.725931
64.950 7.376338
64.955 7.151789
64.960 7.081055
64.965 7.333191
64.970 6.889341
64.975 6.610141
64.980 6.415173
64.985 6.56056
64.990 6.782121
64.995 7.118618
65.000 7.081138
65.005 7.15189
65.010 6.890857
65.015 7.087932
65.020 7.475784
65.025 7.517298
65.030 7.479579
65.035 7.392482
65.040 7.562968
65.045 7.732058
65.050 7.735787
65.055 7.336751
65.060 7.147431
65.065 7.394868
65.070 8.03561
65.075 8.149099
65.080 8.320481
65.085 8.341312
65.090 8.558244
65.095 8.600696
65.100 8.353268
65.105 8.06697
65.110 8.305379
65.115 8.119507
65.120 8.152098
65.125 8.166228
65.130 8.528438
65.135 8.290103
65.140 8.339304
65.145 8.156207
65.150 8.258563
65.155 8.200226
65.160 8.278608
65.165 8.01304
65.170 8.071244
65.175 7.798245
65.180 8.134481
65.185 8.324338
65.190 8.378718
65.195 8.378228
65.200 8.357857
65.205 8.398982
65.210 8.26989
65.215 8.021256
65.220 7.8462
65.225 8.081769
65.230 8.040787
65.235 8.172171
65.240 8.444023
65.245 8.381054
65.250 8.337186
65.255 8.166632
65.260 8.203737
65.265 8.2966
65.270 8.296256
65.275 8.313876
65.280 8.46917
65.285 8.626719
65.290 8.97034
65.295 8.548854
65.300 8.340518
65.305 8.429636
65.310 8.407472
65.315 8.563326
65.320 8.712666
65.325 8.517532
65.330 8.819204
65.335 9.058267
65.340 8.880731
65.345 8.644485
65.350 8.78134
65.355 9.053063
65.360 9.32373
65.365 9.60832
65.370 9.626762
65.375 9.337015
65.380 9.250552
65.385 8.919582
65.390 8.431381
65.395 7.963379
65.400 7.740194
65.405 7.514586
65.410 8.024181
65.415 8.047506
65.420 7.757331
65.425 7.804143
65.430 7.987202
65.435 8.252456
65.440 8.516839
65.445 8.513516
65.450 8.654148
65.455 9.293576
65.460 9.420838
65.465 9.114264
65.470 8.563176
65.475 8.558837
65.480 8.192078
65.485 8.30784
65.490 8.2323
65.495 8.162441
65.500 8.238256
65.505 8.172259
65.510 8.202942
65.515 8.438381
65.520 8.25948
65.525 7.866503
65.530 7.751792
65.535 7.795825
65.540 7.821426
65.545 8.143133
65.550 8.130399
65.555 7.903079
65.560 8.073049
65.565 8.235863
65.570 8.329304
65.575 8.57223
65.580 8.306066
65.585 8.521006
65.590 8.907984
65.595 9.33937
65.600 9.507139
65.605 9.503089
65.610 9.277843
65.615 9.156987
65.620 8.864032
65.625 8.876472
65.630 8.752776
65.635 8.763979
65.640 8.492535
65.645 8.414135
65.650 8.170374
65.655 8.126786
65.660 7.782917
65.665 7.512351
65.670 7.415593
65.675 7.550325
65.680 7.768947
65.685 8.199329
65.690 8.437378
65.695 8.593637
65.700 8.680186
65.705 8.543554
65.710 8.310489
65.715 7.91064
65.720 7.368517
65.725 7.006482
65.730 7.159672
65.735 7.167529
65.740 7.309155
65.745 7.617497
65.750 7.851091
65.755 8.457442
65.760 8.645633
65.765 8.620825
65.770 8.646475
65.775 8.693341
65.780 8.760436
65.785 8.917275
65.790 8.937204
65.795 8.974998
65.800 8.867234
65.805 8.617552
65.810 8.155342
65.815 8.298778
65.820 7.990286
65.825 7.682148
65.830 7.664496
65.835 8.073402
65.840 8.417052
65.845 8.91241
65.850 8.819412
65.855 8.793323
65.860 8.455253
65.865 7.948853
65.870 7.3754
65.875 7.310297
65.880 7.069424
65.885 6.927908
65.890 6.989449
65.895 7.328541
65.900 7.436032
65.905 7.281933
65.910 7.393021
65.915 7.463866
65.920 7.692984
65.925 7.586833
65.930 7.392951
65.935 7.375211
65.940 7.529747
65.945 7.56411
65.950 7.447411
65.955 6.956131
65.960 7.084028
65.965 7.057288
65.970 7.428598
65.975 7.308448
65.980 7.166613
65.985 7.186203
65.990 7.199997
65.995 7.450255
66.000 7.666736
66.005 7.709745
66.010 7.896268
66.015 8.153939
66.020 8.285567
66.025 8.184815
66.030 7.881633
66.035 7.928433
66.040 7.707486
66.045 7.474071
66.050 7.339195
66.055 7.100774
66.060 7.083036
66.065 6.952434
66.070 6.849355
66.075 6.883749
66.080 7.081575
66.085 7.262028
66.090 7.275255
66.095 7.263218
66.100 7.225958
66.105 7.143774
66.110 7.568946
66.115 7.565761
66.120 7.529576
66.125 7.843706
66.130 8.133694
66.135 8.450075
66.140 8.632599
66.145 8.32409
66.150 8.501171
66.155 8.256543
66.160 7.975652
66.165 7.923015
66.170 7.804678
66.175 7.732626
66.180 7.602865
66.185 7.039582
66.190 7.202125
66.195 7.172288
66.200 7.411639
66.205 7.26681
66.210 7.201288
66.215 7.364558
66.220 7.55374
66.225 7.724196
66.230 7.978697
66.235 7.573606
66.240 7.798847
66.245 7.815136
66.250 8.034913
66.255 7.972019
66.260 7.757538
66.265 7.875627
66.270 7.883189
66.275 7.903211
66.280 7.718366
66.285 7.556728
66.290 7.548191
66.295 7.340561
66.300 6.823533
66.305 6.489661
66.310 6.006637
66.315 6.245071
66.320 6.044534
66.325 5.909408
66.330 5.987786
66.335 6.419354
66.340 6.90204
66.345 7.19134
66.350 7.144602
66.355 7.220222
66.360 7.807701
66.365 7.70038
66.370 7.346653
66.375 7.288388
66.380 7.389326
66.385 7.262498
66.390 7.057051
66.395 6.805843
66.400 7.189003
66.405 7.328218
66.410 7.215309
66.415 7.322068
66.420 7.768305
66.425 7.662943
66.430 7.478927
66.435 7.633134
66.440 7.662267
66.445 7.864382
66.450 7.291847
66.455 7.049345
66.460 7.250698
66.465 7.362469
66.470 7.353365
66.475 7.322316
66.480 7.411036
66.485 7.45434
66.490 7.133886
66.495 6.869522
66.500 6.836272
66.505 6.945568
66.510 7.381589
66.515 7.475112
66.520 7.611547
66.525 7.819459
66.530 8.462692
66.535 8.220038
66.540 7.856959
66.545 7.43166
66.550 7.068381
66.555 7.084807
66.560 7.054827
66.565 6.772489
66.570 6.800704
66.575 6.721673
66.580 6.66979
66.585 7.166821
66.590 7.090677
66.595 7.021733
66.600 6.836152
66.605 7.208461
66.610 7.164392
66.615 6.991152
66.620 6.728054
66.625 6.867277
66.630 6.770464
66.635 6.710343
66.640 6.723334
66.645 7.117778
66.650 7.342176
66.655 6.763717
66.660 6.770291
66.665 6.809196
66.670 6.640759
66.675 6.39992
66.680 5.926312
66.685 5.508056
66.690 5.741351
66.695 5.614028
66.700 5.793996
66.705 5.855053
66.710 5.600464
66.715 5.749902
66.720 6.215492
66.725 6.638154
66.730 6.865947
66.735 6.821628
66.740 7.101855
66.745 7.195025
66.750 7.107094
66.755 6.900751
66.760 6.829051
66.765 7.301661
66.770 7.522458
66.775 7.654321
66.780 7.869328
66.785 8.015105
66.790 8.041573
66.795 7.696522
66.800 6.993997
66.805 6.601591
66.810 6.43755
66.815 6.351109
66.820 6.278371
66.825 6.336027
66.830 6.118141
66.835 5.940441
66.840 6.078755
66.845 5.888334
66.850 5.671086
66.855 5.773958
66.860 6.381927
66.865 6.984281
66.870 7.44519
66.875 7.731458
66.880 7.526427
66.885 7.647869
66.890 7.595261
66.895 6.91627
66.900 6.619098
66.905 6.438116
66.910 6.09629
66.915 6.251129
66.920 6.291575
66.925 6.160719
66.930 6.34328
66.935 6.608618
66.940 6.618185
66.945 6.801927
66.950 6.903152
66.955 6.9703
66.960 7.029548
66.965 6.880107
66.970 6.755658
66.975 6.134385
66.980 6.261583
66.985 6.385108
66.990 6.582753
66.995 6.830089
67.000 7.079683
67.005 7.493345
67.010 7.868296
67.015 7.565385
67.020 7.548316
67.025 7.487906
67.030 7.2937
67.035 7.321078
67.040 7.039047
67.045 7.128129
67.050 7.32883
67.055 7.246802
67.060 7.021065
67.065 6.891294
67.070 6.648252
67.075 6.907865
67.080 6.910441
67.085 6.799131
67.090 6.788991
67.095 6.977327
67.100 7.00879
67.105 7.001943
67.110 6.72453
67.115 6.762435
67.120 6.989565
67.125 7.061287
67.130 7.473007
67.135 7.534795
67.140 7.652181
67.145 7.78918
67.150 7.708515
67.155 7.800032
67.160 7.599856
67.165 7.534759
67.170 7.601713
67.175 7.40984
67.180 7.570037
67.185 7.615033
67.190 7.202864
67.195 7.355554
67.200 7.290558
67.205 7.123108
67.210 7.063425
67.215 6.515722
67.220 6.414261
67.225 6.64877
67.230 6.560116
67.235 6.306601
67.240 6.545574
67.245 6.746919
67.250 6.963044
67.255 7.256377
67.260 7.082
67.265 6.921358
67.270 7.137923
67.275 7.134152
67.280 7.079141
67.285 7.378813
67.290 7.043777
67.295 7.159832
67.300 7.115666
67.305 6.750417
67.310 6.970242
67.315 7.048724
67.320 7.142497
67.325 7.56112
67.330 7.444315
67.335 7.547037
67.340 7.52835
67.345 7.308053
67.350 7.200822
67.355 6.984742
67.360 6.84997
67.365 7.23947
67.370 7.41855
67.375 7.794116
67.380 8.072731
67.385 7.964371
67.390 8.037695
67.395 7.788509
67.400 7.375209
67.405 7.313898
67.410 7.330412
67.415 6.998269
67.420 6.999771
67.425 7.050983
67.430 7.047755
67.435 7.306458
67.440 7.200248
67.445 6.683941
67.450 6.710238
67.455 6.655284
67.460 6.5605
67.465 6.938807
67.470 6.995755
67.475 7.057214
67.480 7.673056
67.485 7.866401
67.490 8.000397
67.495 7.699861
67.500 7.369526
67.505 7.293806
67.510 7.350256
67.515 7.07844
67.520 6.926973
67.525 6.756639
67.530 7.100101
67.535 7.284228
67.540 7.257685
67.545 7.202139
67.550 7.084846
67.555 7.109233
67.560 7.324081
67.565 7.241391
67.570 7.086218
67.575 6.91348
67.580 6.778955
67.585 6.756008
67.590 6.619349
67.595 6.696969
67.600 6.661371
67.605 6.557343
67.610 6.728378
67.615 6.710777
67.620 6.636755
67.625 6.359058
67.630 6.34653
67.635 6.106708
67.640 5.898759
67.645 6.073199
67.650 6.067221
67.655 6.423571
67.660 6.812438
67.665 6.927181
67.670 7.347629
67.675 7.673373
67.680 7.493583
67.685 8.103572
67.690 8.255003
67.695 7.942352
67.700 7.713896
67.705 7.534395
67.710 6.98634
67.715 6.872726
67.720 6.14724
67.725 6.090968
67.730 6.329171
67.735 6.206707
67.740 6.681921
67.745 7.259124
67.750 7.616168
67.755 7.800239
67.760 8.108166
67.765 8.298953
67.770 8.182163
67.775 7.808083
67.780 7.608067
67.785 7.505926
67.790 7.344745
67.795 6.86988
67.800 6.755579
67.805 6.589208
67.810 6.544538
67.815 6.854277
67.820 7.150563
67.825 7.202362
67.830 7.086823
67.835 7.143882
67.840 7.512497
67.845 7.809276
67.850 7.553911
67.855 7.256888
67.860 7.326136
67.865 7.670309
67.870 7.881486
67.875 7.874228
67.880 7.909673
67.885 7.880108
67.890 7.812858
67.895 7.82283
67.900 7.65009
67.905 7.345506
67.910 7.046738
67.915 6.904235
67.920 7.184475
67.925 7.368448
67.930 7.227197
67.935 7.299406
67.940 7.804525
67.945 8.336963
67.950 8.498153
67.955 8.262707
67.960 8.371752
67.965 8.413118
67.970 8.424666
67.975 8.12772
67.980 7.617773
67.985 7.505543
67.990 7.462037
67.995 7.426913
68.000 7.481447
68.005 7.006497
68.010 6.890564
68.015 7.065225
68.020 7.341018
68.025 7.466794
68.030 7.219832
68.035 7.684984
68.040 7.797491
68.045 7.79129
68.050 7.665059
68.055 7.378876
68.060 7.184293
68.065 7.206331
68.070 7.062264
68.075 7.221571
68.080 7.75297
68.085 8.006105
68.090 7.953556
68.095 8.103271
68.100 8.123986
68.105 8.110174
68.110 8.101829
68.115 7.700184
68.120 7.40875
68.125 7.376218
68.130 7.520358
68.135 7.745573
68.140 7.404487
68.145 7.350332
68.150 7.614464
68.155 7.762372
68.160 7.841974
68.165 7.830137
68.170 7.677298
68.175 8.026211
68.180 7.729474
68.185 7.405893
68.190 7.347203
68.195 7.059786
68.200 6.80415
68.205 6.782855
68.210 6.968051
68.215 7.279256
68.220 7.090947
68.225 6.945194
68.230 6.735164
68.235 6.623098
68.240 6.742299
68.245 6.923144
68.250 6.536869
68.255 6.671176
68.260 7.11722
68.265 7.509777
68.270 7.699704
68.275 7.655683
68.280 7.712424
68.285 8.202312
68.290 8.222512
68.295 8.187102
68.300 8.536139
68.305 8.336391
68.310 7.863862
68.315 7.252003
68.320 7.329255
68.325 7.359284
68.330 7.168501
68.335 7.293742
68.340 7.153511
68.345 7.836972
68.350 8.528512
68.355 8.898872
68.360 8.866733
68.365 8.972857
68.370 8.759188
68.375 8.966143
68.380 8.580806
68.385 8.361618
68.390 7.968332
68.395 8.070393
68.400 8.000127
68.405 7.966188
68.410 7.710128
68.415 7.291642
68.420 6.893623
68.425 7.17323
68.430 7.125099
68.435 7.176739
68.440 7.413349
68.445 8.103358
68.450 8.668945
68.455 9.0469
68.460 9.046681
68.465 9.158617
68.470 9.140594
68.475 8.867536
68.480 8.3906
68.485 8.327647
68.490 8.137069
68.495 8.136935
68.500 7.88797
68.505 7.609889
68.510 7.838176
68.515 7.842401
68.520 8.019627
68.525 7.952147
68.530 7.563799
68.535 7.815953
68.540 7.983174
68.545 7.887331
68.550 8.015554
68.555 8.265006
68.560 8.512359
68.565 8.941082
68.570 8.967266
68.575 8.756235
68.580 8.749438
68.585 8.529935
68.590 7.961031
68.595 7.676458
68.600 7.706159
68.605 7.642247
68.610 8.172462
68.615 8.644274
68.620 8.904027
68.625 9.045361
68.630 9.456775
68.635 9.867096
68.640 10.15658
68.645 9.618216
68.650 9.019939
68.655 9.042222
68.660 9.236434
68.665 8.953243
68.670 8.9937
68.675 9.013632
68.680 9.32652
68.685 9.573552
68.690 9.771144
68.695 9.841399
68.700 9.85836
68.705 9.381516
68.710 9.349469
68.715 9.488476
68.720 9.349181
68.725 8.731276
68.730 8.29012
68.735 8.464633
68.740 8.680669
68.745 8.529008
68.750 8.645312
68.755 9.079163
68.760 9.532301
68.765 9.613054
68.770 9.406152
68.775 9.659043
68.780 9.914261
68.785 9.60799
68.790 9.469387
68.795 9.768823
68.800 9.915964
68.805 9.190108
68.810 8.283156
68.815 8.006747
68.820 7.774168
68.825 7.851052
68.830 7.519336
68.835 7.477386
68.840 8.019699
68.845 8.573413
68.850 8.939204
68.855 9.214108
68.860 9.263634
68.865 9.89552
68.870 10.160489
68.875 10.389172
68.880 10.227466
68.885 9.70676
68.890 9.351786
68.895 9.33702
68.900 9.034895
68.905 8.766676
68.910 8.401785
68.915 8.236772
68.920 8.621968
68.925 9.180367
68.930 8.720509
68.935 8.162683
68.940 8.173605
68.945 8.157507
68.950 8.357524
68.955 8.443513
68.960 8.200757
68.965 8.173139
68.970 8.366869
68.975 8.740736
68.980 9.381141
68.985 9.401708
68.990 8.859164
68.995 8.939322
69.000 8.89781
69.005 9.099231
69.010 8.651444
69.015 8.396148
69.020 8.065689
69.025 8.052334
69.030 7.911737
69.035 8.248972
69.040 8.510437
69.045 8.698575
69.050 8.801193
69.055 9.486321
69.060 9.912396
69.065 10.17248
69.070 9.766538
69.075 9.282307
69.080 9.112992
69.085 9.010003
69.090 8.753841
69.095 8.513748
69.100 8.589462
69.105 9.027661
69.110 9.021827
69.115 9.125424
69.120 9.054611
69.125 8.990589
69.130 8.967478
69.135 8.727724
69.140 8.403094
69.145 8.362016
69.150 8.379111
69.155 8.467381
69.160 8.596978
69.165 8.757254
69.170 8.802777
69.175 9.070097
69.180 9.096124
69.185 9.334991
69.190 9.281563
69.195 9.06387
69.200 8.800189
69.205 8.642465
69.210 8.771604
69.215 8.970618
69.220 9.241714
69.225 9.324794
69.230 9.467693
69.235 9.523854
69.240 9.24616
69.245 8.584179
69.250 7.959958
69.255 7.481406
69.260 7.07397
69.265 6.949374
69.270 6.943952
69.275 7.457819
69.280 7.755984
69.285 7.657875
69.290 7.522223
69.295 7.483316
69.300 7.364018
69.305 7.021208
69.310 6.625244
69.315 6.862557
69.320 7.033397
69.325 7.370535
69.330 7.813282
69.335 8.074326
69.340 7.89505
69.345 8.466476
69.350 8.813535
69.355 8.623512
69.360 8.527525
69.365 8.581331
69.370 8.33347
69.375 8.899626
69.380 8.395424
69.385 8.06883
69.390 8.330544
69.395 7.91399
69.400 7.635669
69.405 7.702515
69.410 7.403236
69.415 7.164281
69.420 6.766861
69.425 6.502356
69.430 6.795543
69.435 7.073475
69.440 7.26908
69.445 7.417741
69.450 7.707458
69.455 7.860382
69.460 8.038217
69.465 7.551885
69.470 7.213675
69.475 7.070763
69.480 6.963167
69.485 6.688969
69.490 6.663755
69.495 6.931135
69.500 7.052904
69.505 7.049794
69.510 6.780612
69.515 6.789619
69.520 7.169024
69.525 7.04107
69.530 6.34039
69.535 6.365442
69.540 6.567976
69.545 6.659676
69.550 6.481783
69.555 6.079965
69.560 6.061203
69.565 6.378924
69.570 6.190671
69.575 6.114424
69.580 6.050455
69.585 6.272771
69.590 6.282259
69.595 6.232348
69.600 6.221591
69.605 6.282114
69.610 6.585158
69.615 6.580221
69.620 6.888537
69.625 7.013041
69.630 7.534019
69.635 8.109158
69.640 8.351659
69.645 8.123281
69.650 8.230708
69.655 8.446357
69.660 8.698627
69.665 8.381257
69.670 7.702888
69.675 7.739574
69.680 7.949279
69.685 7.863917
69.690 7.708301
69.695 7.534584
69.700 7.644198
69.705 7.729937
69.710 7.514134
69.715 7.50388
69.720 7.448398
69.725 7.291934
69.730 7.351684
69.735 7.324008
69.740 7.409694
69.745 7.573642
69.750 7.346488
69.755 7.469907
69.760 7.492697
69.765 6.798023
69.770 6.5767
69.775 6.599565
69.780 6.482997
69.785 6.586624
69.790 6.496963
69.795 6.565206
69.800 6.924218
69.805 7.083492
69.810 7.1451
69.815 7.07163
69.820 7.355362
69.825 7.444517
69.830 7.654227
69.835 7.955852
69.840 7.818163
69.845 7.811779
69.850 7.961229
69.855 7.573104
69.860 7.292983
69.865 7.281714
69.870 7.159504
69.875 7.390379
69.880 7.722244
69.885 7.46899
69.890 7.79307
69.895 7.773947
69.900 7.4813
69.905 7.386866
69.910 7.126364
69.915 6.897954
69.920 7.029786
69.925 6.920794
69.930 7.001191
69.935 7.283545
69.940 7.540532
69.945 7.483236
69.950 7.447964
69.955 7.328562
69.960 7.470526
69.965 7.257284
69.970 7.189889
69.975 7.051084
69.980 7.390915
69.985 7.363173
69.990 7.489499
69.995 7.35498
70.000 7.516737
70.005 7.665191
70.010 7.783906
70.015 7.585837
70.020 7.92147
70.025 8.089106
70.030 8.075528
70.035 8.173844
70.040 7.927724
70.045 7.878479
70.050 7.782303
70.055 7.463496
70.060 7.424859
70.065 7.423987
70.070 7.534662
70.075 7.812361
70.080 7.534275
70.085 7.584388
70.090 7.714354
70.095 7.426661
70.100 7.369519
70.105 7.014795
70.110 7.123402
70.115 7.175266
70.120 6.995468
70.125 6.770785
70.130 7.188774
70.135 7.486941
70.140 7.209555
70.145 7.257668
70.150 7.551018
70.155 8.01927
70.160 7.844364
70.165 7.481578
70.170 7.370468
70.175 7.514942
70.180 7.287675
70.185 6.958981
70.190 6.947989
70.195 7.665849
70.200 8.019014
70.205 8.250647
70.210 8.24005
70.215 8.00283
70.220 8.06274
70.225 7.652227
70.230 7.171721
70.235 6.915704
70.240 7.056869
70.245 7.640032
70.250 7.759606
70.255 8.041503
70.260 8.401915
70.265 8.494977
70.270 8.651384
70.275 7.941747
70.280 7.459827
70.285 7.517068
70.290 7.016124
70.295 6.866082
70.300 6.615028
70.305 6.740553
70.310 7.106591
70.315 7.198575
70.320 7.170993
70.325 7.219832
70.330 7.513832
70.335 7.736965
70.340 7.568408
70.345 8.118809
70.350 8.309378
70.355 8.344119
70.360 8.419455
70.365 8.263839
70.370 8.315301
70.375 8.345303
70.380 8.09361
70.385 7.803233
70.390 7.695148
70.395 7.707921
70.400 7.721453
70.405 7.741645
70.410 7.51783
70.415 7.666891
70.420 7.990625
70.425 8.403277
70.430 8.246573
70.435 8.069544
70.440 8.126661
70.445 8.328862
70.450 7.879682
70.455 7.574308
70.460 7.261487
70.465 7.337613
70.470 7.221318
70.475 7.177237
70.480 7.05977
70.485 6.99263
70.490 7.17027
70.495 7.033503
70.500 7.178521
70.505 7.233894
70.510 7.151531
70.515 7.091652
70.520 7.128832
70.525 7.171059
70.530 7.351886
70.535 7.323397
70.540 7.471793
70.545 7.57448
70.550 7.920961
70.555 7.912503
70.560 7.878963
70.565 7.865836
70.570 8.162665
70.575 8.152042
70.580 8.265554
70.585 8.154603
70.590 8.199449
70.595 8.223892
70.600 8.059965
70.605 7.707773
70.610 7.110036
70.615 6.843947
70.620 6.584663
70.625 6.430562
70.630 6.539871
70.635 6.254254
70.640 6.123728
70.645 6.493423
70.650 6.53513
70.655 6.348204
70.660 6.174562
70.665 6.08987
70.670 6.289684
70.675 6.283379
70.680 6.09149
70.685 6.228065
70.690 6.776626
70.695 6.998237
70.700 7.244146
70.705 7.250732
70.710 7.347731
70.715 7.371165
70.720 7.325705
70.725 7.17256
70.730 7.230781
70.735 7.057186
70.740 6.937086
70.745 6.667246
70.750 6.765485
70.755 6.761823
70.760 6.771916
70.765 6.554425
70.770 6.514968
70.775 6.793444
70.780 7.36401
70.785 7.435589
70.790 7.390485
70.795 7.272142
70.800 7.480427
70.805 7.334026
70.810 7.121041
70.815 6.843414
70.820 6.988492
70.825 7.096574
70.830 7.06847
70.835 7.251345
70.840 7.904301
70.845 8.111174
70.850 7.899037
70.855 7.547691
70.860 7.749361
70.865 7.854375
70.870 7.509653
70.875 7.24371
70.880 7.085389
70.885 7.227068
70.890 7.038856
70.895 6.784131
70.900 6.640724
70.905 6.657612
70.910 6.858307
70.915 6.893662
70.920 6.907204
70.925 7.40897
70.930 7.615942
70.935 7.715596
70.940 7.555892
70.945 7.093544
70.950 7.182488
70.955 7.199126
70.960 6.717895
70.965 6.408708
70.970 6.498049
70.975 7.163107
70.980 7.220207
70.985 6.905698
70.990 6.601554
70.995 6.694994
71.000 6.769106
71.005 6.418699
71.010 5.87204
71.015 5.917103
71.020 5.915971
71.025 5.919118
71.030 6.057135
71.035 6.166557
71.040 6.468713
71.045 6.212293
71.050 6.272601
71.055 6.625606
71.060 6.843996
71.065 6.612117
71.070 6.47175
71.075 6.527027
71.080 6.9818
71.085 6.929389
71.090 6.983041
71.095 7.222497
71.100 7.598405
71.105 7.713452
71.110 7.500387
71.115 7.5731
71.120 7.518618
71.125 7.411365
71.130 7.473779
71.135 7.343037
71.140 7.320763
71.145 7.247519
71.150 7.114732
71.155 7.291024
71.160 7.169744
71.165 7.040696
71.170 6.997496
71.175 6.805346
71.180 6.706526
71.185 6.554579
71.190 6.504961
71.195 6.500041
71.200 6.435498
71.205 6.570973
71.210 6.81651
71.215 6.850869
71.220 6.652718
71.225 6.55917
71.230 6.160077
71.235 6.165723
71.240 6.11995
71.245 6.486895
71.250 6.695928
71.255 6.932064
71.260 7.170796
71.265 7.753504
71.270 7.935651
71.275 7.831428
71.280 7.465658
71.285 7.248733
71.290 7.132821
71.295 6.91453
71.300 6.452556
71.305 6.421138
71.310 6.44379
71.315 6.268694
71.320 6.475554
71.325 6.24352
71.330 6.357215
71.335 6.379807
71.340 6.605823
71.345 6.952846
71.350 7.184379
71.355 7.316315
71.360 7.72482
71.365 7.882251
71.370 7.949522
71.375 7.816934
71.380 7.937038
71.385 8.350379
71.390 8.335279
71.395 8.117951
71.400 7.884252
71.405 7.76461
71.410 7.1617
71.415 6.846447
71.420 6.219355
71.425 6.349092
71.430 6.374197
71.435 6.796083
71.440 7.1436
71.445 7.50259
71.450 7.41174
71.455 7.549942
71.460 7.848212
71.465 8.151449
71.470 7.771496
71.475 7.047467
71.480 7.19739
71.485 7.675499
71.490 7.950436
71.495 7.578936
71.500 7.365695
71.505 7.868564
71.510 8.488038
71.515 8.423806
71.520 8.425654
71.525 7.989439
71.530 7.466335
71.535 7.235266
71.540 7.250746
71.545 6.909457
71.550 6.708233
71.555 6.603259
71.560 6.866351
71.565 7.283748
71.570 7.427476
71.575 6.981501
71.580 6.80339
71.585 6.932881
71.590 6.707994
71.595 6.680152
71.600 6.480312
71.605 6.873503
71.610 7.036518
71.615 7.230745
71.620 7.140579
71.625 7.525062
71.630 7.82504
71.635 7.82472
71.640 7.202581
71.645 6.697014
71.650 6.560775
71.655 6.511779
71.660 6.641155
71.665 6.443948
71.670 6.250422
71.675 6.693551
71.680 6.93585
71.685 6.95219
71.690 6.940057
71.695 6.769255
71.700 6.895312
71.705 7.09851
71.710 6.891092
71.715 6.955742
71.720 7.059062
71.725 6.793278
71.730 6.824114
71.735 7.009453
71.740 7.140244
71.745 7.250434
71.750 7.237127
71.755 6.910043
71.760 7.238184
71.765 7.196781
71.770 6.857069
71.775 7.068861
71.780 7.295702
71.785 7.414121
71.790 7.237069
71.795 7.092548
71.800 7.160035
71.805 7.23532
71.810 6.849337
71.815 6.762955
71.820 6.463058
71.825 6.617266
71.830 6.892818
71.835 6.709855
71.840 6.823156
71.845 7.073477
71.850 7.069828
71.855 7.308552
71.860 7.29978
71.865 7.417608
71.870 7.345649
71.875 7.364075
71.880 7.258166
71.885 7.534458
71.890 7.996008
71.895 7.925212
71.900 7.691894
71.905 7.794293
71.910 7.832731
71.915 7.882428
71.920 8.090281
71.925 7.870423
71.930 7.909246
71.935 8.059367
71.940 8.117275
71.945 8.316462
71.950 8.033936
71.955 7.452154
71.960 7.136419
71.965 6.846006
71.970 6.527534
71.975 6.298741
71.980 6.094437
71.985 6.466179
71.990 6.6867
71.995 6.812593
72.000 7.080532
72.005 7.481156
72.010 7.638307
72.015 7.645176
72.020 7.361451
72.025 7.277234
72.030 7.480112
72.035 7.568572
72.040 7.115853
72.045 6.713565
72.050 6.51161
72.055 6.577344
72.060 6.747282
72.065 6.481747
72.070 6.32703
72.075 6.373156
72.080 6.65623
72.085 7.157461
72.090 7.100009
72.095 7.508118
72.100 7.470584
72.105 7.452047
72.110 7.529397
72.115 7.522501
72.120 7.333539
72.125 7.420297
72.130 7.158577
72.135 7.44286
72.140 7.749324
72.145 7.376118
72.150 7.280999
72.155 7.194384
72.160 7.039709
72.165 7.366873
72.170 7.183549
72.175 7.469371
72.180 7.777848
72.185 7.543156
72.190 7.47425
72.195 7.523904
72.200 7.36515
72.205 7.407414
72.210 7.36095
72.215 7.481253
72.220 7.785405
72.225 7.694254
72.230 7.701751
72.235 7.516752
72.240 7.400896
72.245 7.346154
72.250 7.6558
72.255 7.516377
72.260 7.504039
72.265 7.181669
72.270 7.26914
72.275 7.558345
72.280 7.389824
72.285 7.22501
72.290 7.450865
72.295 7.50798
72.300 7.532995
72.305 7.451328
72.310 7.21457
72.315 7.404065
72.320 7.68941
72.325 7.654871
72.330 8.027611
72.335 8.332988
72.340 8.185293
72.345 8.186834
72.350 7.733831
72.355 7.785867
72.360 7.941329
72.365 7.572178
72.370 7.189737
72.375 7.517981
72.380 7.683298
72.385 8.143203
72.390 7.731334
72.395 7.418554
72.400 7.452148
72.405 7.737138
72.410 7.682882
72.415 7.344129
72.420 6.735671
72.425 6.513
72.430 6.661125
72.435 6.627127
72.440 6.580266
72.445 6.378766
72.450 6.707317
72.455 6.958081
72.460 6.840989
72.465 6.651912
72.470 6.337476
72.475 6.358065
72.480 6.595916
72.485 6.44516
72.490 6.087102
72.495 6.360631
72.500 6.655108
72.505 6.842101
72.510 6.483056
72.515 6.449763
72.520 6.854929
72.525 7.316852
72.530 7.495853
72.535 7.565575
72.540 7.804575
72.545 8.266474
72.550 7.918419
72.555 7.834186
72.560 7.683079
72.565 7.669175
72.570 7.890645
72.575 8.005191
72.580 8.139209
72.585 8.550961
72.590 8.430866
72.595 8.655541
72.600 8.848875
72.605 8.797174
72.610 8.405275
72.615 8.098596
72.620 8.43926
72.625 8.599471
72.630 8.315647
72.635 8.049255
72.640 7.866241
72.645 7.896387
72.650 8.034633
72.655 7.439922
72.660 7.433125
72.665 7.417292
72.670 7.29094
72.675 7.003788
72.680 6.780889
72.685 6.631835
72.690 6.630345
72.695 6.59265
72.700 6.458848
72.705 6.488064
72.710 6.920857
72.715 6.948183
72.720 7.291234
72.725 7.349255
72.730 7.372139
72.735 7.342722
72.740 7.623209
72.745 7.636712
72.750 7.410502
72.755 6.756649
72.760 6.882525
72.765 7.113996
72.770 7.364857
72.775 6.892973
72.780 6.615673
72.785 6.696606
72.790 7.105321
72.795 6.731445
72.800 6.652128
72.805 6.689209
72.810 6.741054
72.815 6.96523
72.820 7.127486
72.825 7.301436
72.830 7.386436
72.835 7.198469
72.840 6.99967
72.845 7.044023
72.850 7.102276
72.855 6.907312
72.860 6.729229
72.865 6.444789
72.870 6.839916
72.875 7.086721
72.880 7.026582
72.885 7.042326
72.890 7.233324
72.895 7.600138
72.900 7.979908
72.905 8.073001
72.910 8.239544
72.915 8.252311
72.920 7.892653
72.925 7.605658
72.930 7.30963
72.935 7.259502
72.940 6.818664
72.945 6.601237
72.950 6.53157
72.955 6.656398
72.960 6.669547
72.965 6.939395
72.970 6.696481
72.975 6.613593
72.980 6.624918
72.985 6.804603
72.990 6.902369
72.995 6.751362
73.000 6.62797
