!@!!GADDS PLOTSO FILE: Chi integration type
!@!!Title/SampleName: map-ed
!@!!Comment: ?
!@!!User: Bruker Instrument Administrator
!@!!Site: University of Illinois Chicago
!@!!Frame: map-ed_01_000.gfrm
!@!!Wavelengths    1.54184   1.54056   1.54439
!@!!Frame angles: 2Theta: 63.000 Omega: 50.000 Phi: 0.000 Chi: 90.000
!@!!Integration range: 2Theta: 53.000 to 73.000  Gamma: -105.000 to -75.000
!@!!Integration method: bin normalized
!@!N
!@!SS
!@!M
!@!L 0.0 0.0 0.0 0.0
!@!XDegrees
!@!YCounts
53.000 5.667136
53.005 5.650894
53.010 5.879614
53.015 6.00372
53.020 6.172396
53.025 6.526745
53.030 6.241833
53.035 6.255946
53.040 6.224829
53.045 6.237746
53.050 6.684902
53.055 6.728959
53.060 7.012857
53.065 7.384097
53.070 7.379427
53.075 7.587308
53.080 7.226158
53.085 6.92628
53.090 6.617412
53.095 6.135829
53.100 6.20431
53.105 6.386281
53.110 6.123456
53.115 6.381316
53.120 6.643905
53.125 6.677897
53.130 6.50122
53.135 6.157848
53.140 6.02637
53.145 6.166892
53.150 6.092465
53.155 6.270721
53.160 6.527663
53.165 6.505115
53.170 6.300022
53.175 6.545335
53.180 6.100664
53.185 5.708374
53.190 5.213822
53.195 4.841818
53.200 4.763135
53.205 4.777504
53.210 4.857494
53.215 5.243431
53.220 5.322408
53.225 5.325404
53.230 5.543312
53.235 5.59985
53.240 5.510766
53.245 4.997931
53.250 4.757939
53.255 4.811255
53.260 4.938258
53.265 4.979577
53.270 5.254881
53.275 5.550724
53.280 5.802349
53.285 6.119268
53.290 6.462636
53.295 6.464779
53.300 6.484334
53.305 6.29302
53.310 6.291909
53.315 6.445561
53.320 6.438263
53.325 6.66311
53.330 6.908461
53.335 7.163321
53.340 7.217789
53.345 7.072613
53.350 6.842611
53.355 6.998857
53.360 7.092983
53.365 7.403714
53.370 7.483488
53.375 7.485812
53.380 7.571845
53.385 7.579496
53.390 7.216508
53.395 7.052983
53.400 6.734933
53.405 6.733169
53.410 6.818165
53.415 6.830625
53.420 6.861495
53.425 7.099809
53.430 6.863791
53.435 7.244589
53.440 7.35641
53.445 7.489666
53.450 7.312283
53.455 7.202168
53.460 7.078965
53.465 7.235027
53.470 7.182133
53.475 7.088
53.480 7.047823
53.485 7.811853
53.490 8.039564
53.495 8.117262
53.500 7.404909
53.505 6.888731
53.510 6.941738
53.515 6.618128
53.520 6.272704
53.525 6.542929
53.530 6.741828
53.535 6.831793
53.540 6.7444
53.545 6.763707
53.550 6.808943
53.555 6.635567
53.560 6.351863
53.565 6.55547
53.570 6.720802
53.575 6.811488
53.580 7.181633
53.585 7.234274
53.590 7.412571
53.595 7.078908
53.600 7.303334
53.605 7.473267
53.610 7.281853
53.615 6.900477
53.620 6.956135
53.625 6.787094
53.630 6.784477
53.635 6.368769
53.640 6.117601
53.645 6.30658
53.650 6.476261
53.655 6.493708
53.660 6.348752
53.665 6.257346
53.670 6.880939
53.675 7.399085
53.680 7.239203
53.685 7.16402
53.690 7.085488
53.695 7.084297
53.700 7.218109
53.705 6.54459
53.710 6.261628
53.715 6.459341
53.720 6.564862
53.725 6.670057
53.730 6.745038
53.735 6.694609
53.740 7.128043
53.745 6.981369
53.750 7.037984
53.755 7.076472
53.760 7.33782
53.765 7.864006
53.770 8.178564
53.775 8.3032
53.780 8.489761
53.785 8.005147
53.790 7.862761
53.795 7.430248
53.800 7.349187
53.805 6.975395
53.810 6.74436
53.815 6.790726
53.820 6.871584
53.825 6.998542
53.830 7.396223
53.835 7.176108
53.840 7.638148
53.845 8.104921
53.850 8.0944
53.855 8.164332
53.860 7.917018
53.865 7.751661
53.870 7.536663
53.875 7.087782
53.880 6.981074
53.885 7.191865
53.890 7.232443
53.895 7.446188
53.900 7.149403
53.905 7.203702
53.910 7.038787
53.915 6.92727
53.920 7.035387
53.925 6.982216
53.930 6.729327
53.935 6.985771
53.940 7.852363
53.945 7.713698
53.950 7.262218
53.955 6.99495
53.960 7.102282
53.965 7.521012
53.970 7.416661
53.975 6.861187
53.980 7.300929
53.985 7.5866
53.990 7.893505
53.995 7.981599
54.000 7.676946
54.005 7.422634
54.010 7.356493
54.015 6.933156
54.020 6.725921
54.025 6.401536
54.030 6.209504
54.035 6.453165
54.040 6.539985
54.045 6.826354
54.050 7.265179
54.055 7.56597
54.060 7.847885
54.065 7.957092
54.070 7.881223
54.075 7.761182
54.080 7.624549
54.085 7.727924
54.090 7.654577
54.095 7.807946
54.100 7.825203
54.105 7.452698
54.110 7.431921
54.115 7.126498
54.120 7.21241
54.125 6.989447
54.130 6.765915
54.135 7.042083
54.140 7.481918
54.145 7.989079
54.150 8.64528
54.155 8.438086
54.160 8.744681
54.165 8.600665
54.170 8.244407
54.175 8.326749
54.180 7.825279
54.185 7.968162
54.190 8.409814
54.195 8.558295
54.200 9.423684
54.205 9.352058
54.210 9.238415
54.215 9.024481
54.220 8.354887
54.225 8.249643
54.230 8.01541
54.235 7.755813
54.240 8.095096
54.245 7.990785
54.250 7.939801
54.255 7.86611
54.260 7.758011
54.265 7.694401
54.270 7.573556
54.275 8.059744
54.280 8.207146
54.285 8.773481
54.290 9.353245
54.295 9.162272
54.300 9.093637
54.305 8.55974
54.310 8.137408
54.315 7.996628
54.320 7.638667
54.325 7.517727
54.330 7.578216
54.335 8.078309
54.340 8.683132
54.345 8.615549
54.350 8.838755
54.355 8.725957
54.360 8.373096
54.365 8.113731
54.370 7.956105
54.375 7.963683
54.380 8.346547
54.385 8.464176
54.390 8.464729
54.395 8.421623
54.400 8.359428
54.405 8.749941
54.410 8.592867
54.415 8.287674
54.420 7.948801
54.425 8.103096
54.430 8.316353
54.435 8.103915
54.440 7.595497
54.445 7.361468
54.450 7.532645
54.455 7.911961
54.460 7.852443
54.465 7.916541
54.470 8.209989
54.475 8.243752
54.480 8.533555
54.485 8.278089
54.490 8.130357
54.495 8.294769
54.500 8.179543
54.505 8.119263
54.510 8.009282
54.515 7.712937
54.520 7.699805
54.525 8.04847
54.530 8.364218
54.535 8.279838
54.540 7.962779
54.545 8.441685
54.550 8.615582
54.555 8.717983
54.560 8.294616
54.565 8.412829
54.570 8.491649
54.575 8.301984
54.580 7.691188
54.585 7.705701
54.590 7.529891
54.595 7.270812
54.600 6.82443
54.605 7.02371
54.610 7.308849
54.615 7.892001
54.620 7.94313
54.625 7.963411
54.630 7.941566
54.635 7.780431
54.640 7.717507
54.645 7.653886
54.650 7.915558
54.655 8.233542
54.660 8.441805
54.665 8.526206
54.670 8.947859
54.675 9.842377
54.680 10.106668
54.685 9.41135
54.690 9.15442
54.695 9.222573
54.700 9.14109
54.705 8.789745
54.710 8.108793
54.715 8.206603
54.720 8.60416
54.725 8.723285
54.730 8.552922
54.735 8.629599
54.740 8.365105
54.745 7.769795
54.750 7.310834
54.755 6.906137
54.760 6.734511
54.765 6.773717
54.770 7.118774
54.775 7.498638
54.780 7.83266
54.785 8.03948
54.790 8.343849
54.795 8.623103
54.800 8.715722
54.805 8.163486
54.810 7.814931
54.815 7.578039
54.820 7.478882
54.825 7.988163
54.830 8.113532
54.835 8.185664
54.840 8.772165
54.845 9.492236
54.850 10.228195
54.855 10.206692
54.860 9.956342
54.865 9.926837
54.870 10.153342
54.875 10.261513
54.880 10.190907
54.885 9.746474
54.890 9.710747
54.895 9.681525
54.900 9.462511
54.905 9.022384
54.910 8.752988
54.915 8.824327
54.920 9.030062
54.925 9.280148
54.930 9.239291
54.935 9.440272
54.940 10.092546
54.945 10.23467
54.950 10.17098
54.955 10.090679
54.960 9.404697
54.965 9.355967
54.970 9.262208
54.975 8.783895
54.980 8.400952
54.985 7.817374
54.990 7.815243
54.995 8.217765
55.000 7.974251
55.005 7.648942
55.010 7.720879
55.015 7.958221
55.020 7.887504
55.025 7.729339
55.030 7.688155
55.035 7.874594
55.040 8.02877
55.045 8.318305
55.050 8.978261
55.055 9.435045
55.060 9.408385
55.065 9.441565
55.070 9.762654
55.075 9.707027
55.080 9.276764
55.085 8.890685
55.090 9.158932
55.095 9.25492
55.100 8.951082
55.105 8.895469
55.110 8.972307
55.115 9.400158
55.120 9.199062
55.125 8.785891
55.130 8.89549
55.135 9.210447
55.140 8.970092
55.145 8.842408
55.150 8.623116
55.155 8.738692
55.160 8.850922
55.165 8.668281
55.170 8.377163
55.175 8.373605
55.180 8.323375
55.185 8.282923
55.190 8.887571
55.195 9.370343
55.200 9.770071
55.205 10.168115
55.210 10.504923
55.215 10.337207
55.220 10.011173
55.225 9.532186
55.230 8.918492
55.235 8.525481
55.240 8.179602
55.245 8.214491
55.250 8.244738
55.255 8.314642
55.260 8.251467
55.265 8.371299
55.270 8.584192
55.275 8.966077
55.280 8.899106
55.285 8.837579
55.290 8.944968
55.295 9.161941
55.300 9.311683
55.305 9.126901
55.310 8.880922
55.315 9.402123
55.320 9.600039
55.325 9.331701
55.330 8.896504
55.335 8.863652
55.340 9.054734
55.345 8.210599
55.350 7.67391
55.355 7.56257
55.360 8.430676
55.365 8.816886
55.370 8.627204
55.375 8.539454
55.380 8.907481
55.385 8.829529
55.390 9.159147
55.395 8.832227
55.400 8.144114
55.405 8.475725
55.410 8.735539
55.415 8.691919
55.420 8.637515
55.425 7.909202
55.430 7.712381
55.435 8.328686
55.440 8.070428
55.445 7.897645
55.450 8.073993
55.455 8.154717
55.460 7.885818
55.465 7.905946
55.470 8.071609
55.475 8.529752
55.480 8.68422
55.485 8.603861
55.490 8.640382
55.495 9.283863
55.500 9.448333
55.505 9.361876
55.510 9.566751
55.515 9.669085
55.520 10.003951
55.525 10.02061
55.530 9.847368
55.535 10.307165
55.540 10.534808
55.545 10.516295
55.550 11.018579
55.555 10.808358
55.560 10.710458
55.565 10.862679
55.570 10.459351
55.575 10.159791
55.580 9.886608
55.585 9.475286
55.590 9.781618
55.595 9.618363
55.600 9.351043
55.605 9.135866
55.610 8.793827
55.615 8.586793
55.620 8.501764
55.625 8.473936
55.630 8.492009
55.635 8.371525
55.640 8.285233
55.645 8.303065
55.650 8.204155
55.655 8.224883
55.660 8.021741
55.665 8.027557
55.670 7.94976
55.675 7.922584
55.680 8.229165
55.685 8.595588
55.690 9.129936
55.695 9.606087
55.700 10.279597
55.705 10.790594
55.710 11.144758
55.715 10.918947
55.720 10.699126
55.725 10.329116
55.730 10.267811
55.735 9.478527
55.740 8.768396
55.745 8.712818
55.750 8.719121
55.755 8.730682
55.760 8.49138
55.765 8.224801
55.770 8.583704
55.775 8.804725
55.780 8.750497
55.785 9.096219
55.790 8.823266
55.795 8.984227
55.800 9.154223
55.805 9.037678
55.810 9.289721
55.815 9.189925
55.820 8.95952
55.825 9.417633
55.830 9.812655
55.835 10.743715
55.840 11.089788
55.845 10.866969
55.850 11.215943
55.855 11.2275
55.860 11.1262
55.865 10.582915
55.870 9.993111
55.875 9.631591
55.880 9.397012
55.885 9.272312
55.890 9.237265
55.895 9.307626
55.900 9.187436
55.905 9.804414
55.910 10.510084
55.915 10.938578
55.920 11.221432
55.925 11.232039
55.930 11.381477
55.935 12.025267
55.940 11.910041
55.945 11.52636
55.950 10.911413
55.955 10.869843
55.960 10.385926
55.965 10.193242
55.970 9.24985
55.975 8.535823
55.980 8.440432
55.985 8.996545
55.990 8.649193
55.995 9.126485
56.000 9.270683
56.005 9.509672
56.010 10.044304
56.015 10.084296
56.020 10.172385
56.025 10.499925
56.030 10.308743
56.035 10.080594
56.040 10.090099
56.045 9.801531
56.050 9.806278
56.055 9.877745
56.060 9.686174
56.065 10.304694
56.070 10.409379
56.075 10.39676
56.080 10.812847
56.085 10.764711
56.090 10.516707
56.095 10.304993
56.100 9.818841
56.105 9.672874
56.110 9.600019
56.115 9.274865
56.120 9.072865
56.125 9.07434
56.130 9.050536
56.135 9.088756
56.140 8.957943
56.145 9.298617
56.150 9.43269
56.155 9.555276
56.160 9.769783
56.165 9.85632
56.170 10.102645
56.175 10.093048
56.180 9.834742
56.185 9.752781
56.190 9.948771
56.195 9.177689
56.200 9.099368
56.205 9.089662
56.210 9.734669
56.215 10.323536
56.220 10.933601
56.225 11.110751
56.230 11.655972
56.235 11.960548
56.240 11.969716
56.245 11.246153
56.250 10.164716
56.255 9.584852
56.260 9.454847
56.265 9.137444
56.270 8.616948
56.275 8.662005
56.280 9.084574
56.285 9.804563
56.290 10.017261
56.295 10.250607
56.300 10.489015
56.305 10.734793
56.310 10.692961
56.315 10.870512
56.320 10.633657
56.325 10.42798
56.330 10.650254
56.335 11.175611
56.340 11.327296
56.345 10.964785
56.350 10.763268
56.355 10.773775
56.360 10.629514
56.365 10.443146
56.370 10.127581
56.375 10.004984
56.380 9.866731
56.385 9.670016
56.390 9.626059
56.395 9.662743
56.400 9.901052
56.405 9.787394
56.410 10.174263
56.415 10.643198
56.420 10.932934
56.425 11.132309
56.430 11.568946
56.435 11.718535
56.440 11.642761
56.445 10.954734
56.450 11.042917
56.455 11.401713
56.460 11.301598
56.465 10.963946
56.470 10.380773
56.475 10.433458
56.480 10.486039
56.485 9.994463
56.490 9.617953
56.495 9.416284
56.500 8.817728
56.505 8.910914
56.510 9.21997
56.515 9.212865
56.520 9.270327
56.525 9.377851
56.530 9.452307
56.535 9.902973
56.540 9.877497
56.545 9.408249
56.550 9.40559
56.555 9.269287
56.560 9.106881
56.565 8.944462
56.570 8.632483
56.575 8.731741
56.580 9.263819
56.585 9.534467
56.590 9.747434
56.595 9.919738
56.600 9.79161
56.605 10.226409
56.610 10.34047
56.615 10.161806
56.620 10.174781
56.625 9.978068
56.630 10.238787
56.635 10.606426
56.640 10.03125
56.645 10.096496
56.650 10.038636
56.655 10.039402
56.660 10.622535
56.665 10.654032
56.670 10.423241
56.675 10.893104
56.680 11.007413
56.685 11.095384
56.690 11.129867
56.695 11.277423
56.700 11.28371
56.705 11.75507
56.710 11.938041
56.715 12.15388
56.720 12.378825
56.725 12.263932
56.730 11.872848
56.735 11.920135
56.740 11.800248
56.745 11.45108
56.750 11.23904
56.755 11.387076
56.760 12.152131
56.765 12.726633
56.770 12.583426
56.775 12.579714
56.780 12.80095
56.785 12.792463
56.790 12.69366
56.795 11.906395
56.800 11.576469
56.805 11.699165
56.810 11.818027
56.815 11.328759
56.820 10.958403
56.825 10.827908
56.830 10.744203
56.835 10.651184
56.840 10.501896
56.845 10.38744
56.850 10.89101
56.855 11.193527
56.860 11.082834
56.865 11.115845
56.870 10.907079
56.875 11.266939
56.880 11.189073
56.885 10.982227
56.890 10.580378
56.895 10.878588
56.900 10.870893
56.905 10.869157
56.910 10.38848
56.915 10.611706
56.920 10.348387
56.925 10.316172
56.930 10.109411
56.935 10.052516
56.940 10.033798
56.945 9.593475
56.950 9.60635
56.955 10.04849
56.960 10.286591
56.965 10.33353
56.970 10.523719
56.975 11.304667
56.980 12.05132
56.985 12.182322
56.990 12.215364
56.995 12.47215
57.000 12.235974
57.005 11.624237
57.010 10.662319
57.015 9.99122
57.020 9.837899
57.025 9.619109
57.030 8.905041
57.035 9.23884
57.040 9.894246
57.045 10.538824
57.050 11.227793
57.055 11.115989
57.060 11.260982
57.065 11.621087
57.070 11.886446
57.075 11.778793
57.080 11.743913
57.085 11.896016
57.090 11.813807
57.095 11.71031
57.100 11.547336
57.105 11.149814
57.110 11.466187
57.115 10.746716
57.120 10.723842
57.125 11.014467
57.130 11.098363
57.135 11.120938
57.140 11.002314
57.145 10.834784
57.150 11.502281
57.155 11.389086
57.160 11.879068
57.165 12.308947
57.170 12.193631
57.175 12.333641
57.180 12.355959
57.185 11.89043
57.190 12.075559
57.195 11.729609
57.200 11.551847
57.205 11.83321
57.210 11.731588
57.215 11.71245
57.220 11.636214
57.225 11.098088
57.230 10.846231
57.235 10.813782
57.240 10.595665
57.245 10.19771
57.250 10.224815
57.255 10.437621
57.260 10.908399
57.265 11.410688
57.270 11.801964
57.275 11.945656
57.280 11.870378
57.285 11.891998
57.290 11.645308
57.295 11.131451
57.300 10.681669
57.305 10.351965
57.310 10.255967
57.315 10.479379
57.320 10.487208
57.325 10.228716
57.330 10.435622
57.335 10.982955
57.340 11.056632
57.345 11.221183
57.350 11.393322
57.355 11.668286
57.360 11.92691
57.365 11.662528
57.370 11.286615
57.375 11.323769
57.380 11.642317
57.385 11.58742
57.390 11.364609
57.395 11.244487
57.400 11.816719
57.405 11.754875
57.410 11.214657
57.415 11.062539
57.420 11.220008
57.425 11.999998
57.430 12.259633
57.435 11.705938
57.440 12.021556
57.445 12.446569
57.450 12.242015
57.455 12.211986
57.460 11.890623
57.465 11.868352
57.470 12.260196
57.475 12.565372
57.480 12.763346
57.485 12.580938
57.490 12.926718
57.495 12.828211
57.500 12.732187
57.505 12.674649
57.510 12.433742
57.515 12.084889
57.520 12.119484
57.525 11.643886
57.530 12.025411
57.535 11.912119
57.540 11.81676
57.545 12.185117
57.550 12.712316
57.555 12.711697
57.560 12.554681
57.565 12.196466
57.570 12.66356
57.575 12.4221
57.580 11.881242
57.585 11.62793
57.590 12.057195
57.595 12.47049
57.600 13.001654
57.605 12.580205
57.610 12.547391
57.615 12.737361
57.620 12.854224
57.625 12.935437
57.630 13.054536
57.635 12.653959
57.640 13.014329
57.645 13.301366
57.650 13.236995
57.655 12.859371
57.660 11.745511
57.665 11.308807
57.670 11.340166
57.675 11.137179
57.680 10.912538
57.685 11.136716
57.690 11.702223
57.695 12.680758
57.700 12.877439
57.705 13.212428
57.710 13.25841
57.715 13.954398
57.720 14.212904
57.725 13.706643
57.730 13.33569
57.735 13.086087
57.740 12.872026
57.745 12.500196
57.750 12.228077
57.755 11.985903
57.760 12.176822
57.765 11.740458
57.770 11.083117
57.775 11.13452
57.780 11.399813
57.785 11.234719
57.790 11.378642
57.795 11.242352
57.800 11.501703
57.805 12.273493
57.810 12.716388
57.815 13.141548
57.820 13.192232
57.825 13.017706
57.830 13.245112
57.835 13.509002
57.840 13.30659
57.845 13.012652
57.850 12.894748
57.855 12.750395
57.860 13.058354
57.865 13.478499
57.870 13.742213
57.875 13.508991
57.880 12.878827
57.885 12.523359
57.890 13.105081
57.895 13.501741
57.900 13.221035
57.905 12.844099
57.910 12.805549
57.915 13.311447
57.920 13.629474
57.925 12.745555
57.930 11.707151
57.935 11.742353
57.940 11.667015
57.945 11.963462
57.950 12.1094
57.955 12.052144
57.960 12.544884
57.965 13.493598
57.970 13.759304
57.975 13.439734
57.980 13.310535
57.985 13.24985
57.990 13.391564
57.995 13.328417
58.000 13.027457
58.005 12.994538
58.010 13.691332
58.015 13.875331
58.020 13.616159
58.025 13.488494
58.030 13.387671
58.035 13.715589
58.040 14.035373
58.045 13.936849
58.050 14.098078
58.055 14.066498
58.060 14.129207
58.065 14.091752
58.070 13.776741
58.075 13.926445
58.080 14.114215
58.085 13.919088
58.090 14.091766
58.095 13.939321
58.100 13.986884
58.105 14.398556
58.110 14.211578
58.115 13.701802
58.120 14.008551
58.125 13.689142
58.130 13.332077
58.135 13.443774
58.140 13.46624
58.145 13.162956
58.150 13.68022
58.155 14.230193
58.160 14.508683
58.165 15.040442
58.170 15.153294
58.175 14.819812
58.180 15.163318
58.185 15.47098
58.190 14.532043
58.195 14.781548
58.200 14.764074
58.205 14.394173
58.210 15.067423
58.215 15.076788
58.220 15.018013
58.225 15.646745
58.230 15.629768
58.235 15.480195
58.240 15.459987
58.245 14.851494
58.250 14.786342
58.255 14.647323
58.260 14.458785
58.265 15.09077
58.270 15.647049
58.275 15.839911
58.280 16.151859
58.285 15.978115
58.290 15.993896
58.295 16.445171
58.300 16.175165
58.305 16.127155
58.310 16.311203
58.315 16.463928
58.320 16.744762
58.325 16.846767
58.330 16.484753
58.335 16.404261
58.340 16.560059
58.345 17.112646
58.350 17.722092
58.355 17.699057
58.360 17.803564
58.365 17.874231
58.370 18.318609
58.375 19.107761
58.380 18.734465
58.385 18.491877
58.390 18.179092
58.395 17.690079
58.400 17.893414
58.405 17.493258
58.410 17.109583
58.415 17.148743
58.420 17.631205
58.425 18.780409
58.430 19.668381
58.435 20.075649
58.440 20.16736
58.445 19.968132
58.450 19.613241
58.455 20.113331
58.460 20.245695
58.465 20.359991
58.470 20.718941
58.475 21.073963
58.480 21.516153
58.485 22.335108
58.490 22.647522
58.495 22.97949
58.500 23.283783
58.505 23.059788
58.510 23.031181
58.515 23.533813
58.520 23.871161
58.525 24.223038
58.530 24.472864
58.535 24.79904
58.540 26.188234
58.545 27.092308
58.550 27.174971
58.555 26.658001
58.560 26.637636
58.565 27.334179
58.570 27.668974
58.575 26.662191
58.580 26.134197
58.585 26.280218
58.590 26.707514
58.595 26.852594
58.600 25.635843
58.605 25.370102
58.610 26.470922
58.615 27.35858
58.620 28.390659
58.625 29.117071
58.630 29.171658
58.635 29.243246
58.640 29.409924
58.645 29.618954
58.650 29.267761
58.655 28.879932
58.660 28.377439
58.665 29.105627
58.670 29.596521
58.675 29.282593
58.680 29.135695
58.685 28.973963
58.690 28.675766
58.695 29.446056
58.700 28.79829
58.705 28.682068
58.710 28.577631
58.715 27.887329
58.720 27.994102
58.725 27.011185
58.730 26.796852
58.735 26.688913
58.740 26.658119
58.745 26.847061
58.750 26.859196
58.755 26.538858
58.760 27.125
58.765 26.864021
58.770 26.854097
58.775 27.18729
58.780 27.264187
58.785 26.998703
58.790 26.652225
58.795 26.307007
58.800 25.604681
58.805 25.261473
58.810 24.273401
58.815 23.494261
58.820 23.138329
58.825 22.992996
58.830 22.495535
58.835 21.763653
58.840 21.529593
58.845 21.949295
58.850 21.790201
58.855 22.169344
58.860 22.36871
58.865 22.775524
58.870 23.048687
58.875 22.525181
58.880 22.350542
58.885 21.940771
58.890 21.494448
58.895 21.158953
58.900 20.325518
58.905 19.837246
58.910 19.594339
58.915 19.156866
58.920 18.912718
58.925 18.271685
58.930 17.648382
58.935 17.290792
58.940 16.789436
58.945 16.732126
58.950 15.968434
58.955 16.000128
58.960 16.273436
58.965 16.469942
58.970 16.29207
58.975 16.332819
58.980 15.883532
58.985 15.266094
58.990 14.60469
58.995 14.576992
59.000 14.416968
59.005 14.716284
59.010 14.561317
59.015 14.85092
59.020 15.173538
59.025 15.408309
59.030 15.176585
59.035 15.371039
59.040 15.359566
59.045 15.099732
59.050 15.004524
59.055 15.061312
59.060 14.859949
59.065 14.62135
59.070 15.061515
59.075 14.83532
59.080 15.009728
59.085 14.64413
59.090 14.778497
59.095 14.977342
59.100 14.985143
59.105 14.357507
59.110 14.295865
59.115 14.236412
59.120 14.303241
59.125 14.001606
59.130 13.881744
59.135 13.891176
59.140 13.524087
59.145 12.862858
59.150 12.81042
59.155 13.342255
59.160 13.445765
59.165 13.240705
59.170 13.432257
59.175 14.075861
59.180 15.029192
59.185 14.773324
59.190 13.723404
59.195 13.750648
59.200 13.589396
59.205 13.250886
59.210 12.778217
59.215 11.460931
59.220 11.65952
59.225 12.25692
59.230 12.414116
59.235 12.772957
59.240 13.17069
59.245 13.404411
59.250 14.406348
59.255 14.635319
59.260 14.295362
59.265 13.573648
59.270 13.222021
59.275 12.779665
59.280 12.477985
59.285 11.617377
59.290 11.231389
59.295 11.531064
59.300 11.761867
59.305 12.030068
59.310 12.040406
59.315 12.515801
59.320 12.599312
59.325 12.553186
59.330 13.052104
59.335 13.517178
59.340 13.395329
59.345 13.243785
59.350 13.034959
59.355 13.632712
59.360 13.900088
59.365 13.59556
59.370 13.227633
59.375 13.142731
59.380 12.690452
59.385 13.179068
59.390 13.548368
59.395 13.282991
59.400 13.399304
59.405 13.379733
59.410 13.679523
59.415 14.172416
59.420 13.431822
59.425 13.174144
59.430 13.173553
59.435 13.369554
59.440 13.43851
59.445 13.8401
59.450 13.983237
59.455 14.025342
59.460 13.961046
59.465 14.003236
59.470 14.138618
59.475 14.518735
59.480 14.530791
59.485 14.589484
59.490 15.157852
59.495 15.209089
59.500 14.997601
59.505 14.329432
59.510 13.392659
59.515 12.859375
59.520 12.470549
59.525 12.119616
59.530 12.075267
59.535 12.417932
59.540 12.916532
59.545 13.487304
59.550 13.30038
59.555 13.649862
59.560 13.836028
59.565 13.885867
59.570 13.222524
59.575 12.785581
59.580 12.958745
59.585 13.408222
59.590 13.200265
59.595 13.318619
59.600 13.270119
59.605 13.785578
59.610 14.429501
59.615 14.590706
59.620 14.528173
59.625 14.324965
59.630 14.345152
59.635 14.411757
59.640 14.710371
59.645 14.754597
59.650 14.476358
59.655 14.322842
59.660 14.542301
59.665 14.886605
59.670 14.135084
59.675 13.634481
59.680 13.24069
59.685 13.028236
59.690 13.470158
59.695 13.461086
59.700 13.201233
59.705 13.67257
59.710 13.051676
59.715 12.748352
59.720 12.450459
59.725 12.48998
59.730 12.430594
59.735 12.777942
59.740 13.252266
59.745 13.939648
59.750 14.275428
59.755 14.712558
59.760 14.474444
59.765 14.569709
59.770 14.018206
59.775 13.524755
59.780 13.451523
59.785 13.386365
59.790 13.437523
59.795 13.664679
59.800 13.101313
59.805 13.295436
59.810 13.247493
59.815 13.355115
59.820 13.897817
59.825 14.111384
59.830 14.1974
59.835 14.446257
59.840 14.174416
59.845 14.387994
59.850 14.007727
59.855 13.374923
59.860 12.994014
59.865 13.043665
59.870 12.772022
59.875 13.069455
59.880 12.923984
59.885 12.885616
59.890 13.412777
59.895 13.410813
59.900 13.536857
59.905 13.285357
59.910 13.172894
59.915 13.527115
59.920 13.281672
59.925 13.183336
59.930 12.855748
59.935 12.763106
59.940 13.11006
59.945 13.295862
59.950 13.293704
59.955 13.727698
59.960 13.460093
59.965 13.636691
59.970 13.730722
59.975 13.506068
59.980 13.019736
59.985 12.773752
59.990 12.908267
59.995 13.056431
60.000 13.054828
60.005 13.378736
60.010 14.021989
60.015 14.428314
60.020 14.216719
60.025 13.997649
60.030 13.760203
60.035 13.43533
60.040 13.374477
60.045 12.925592
60.050 13.392233
60.055 13.900926
60.060 14.137674
60.065 14.625353
60.070 14.552011
60.075 13.970696
60.080 14.251632
60.085 13.62014
60.090 13.241611
60.095 12.980032
60.100 13.104354
60.105 13.55731
60.110 13.536884
60.115 12.889949
60.120 12.8628
60.125 12.697147
60.130 12.450718
60.135 12.089506
60.140 11.669776
60.145 11.757473
60.150 11.70655
60.155 11.693475
60.160 11.894365
60.165 12.123753
60.170 12.175497
60.175 12.665933
60.180 13.208201
60.185 13.367262
60.190 13.398489
60.195 13.504452
60.200 13.339339
60.205 13.122491
60.210 12.800536
60.215 12.652651
60.220 13.013738
60.225 13.425123
60.230 13.705062
60.235 13.825043
60.240 13.887222
60.245 13.905953
60.250 13.986582
60.255 14.033342
60.260 13.473085
60.265 13.176832
60.270 13.812107
60.275 14.252623
60.280 14.158987
60.285 14.01123
60.290 13.823845
60.295 14.262262
60.300 14.329891
60.305 13.801201
60.310 13.475746
60.315 13.579257
60.320 13.933737
60.325 14.759603
60.330 14.901891
60.335 14.621481
60.340 14.593049
60.345 14.822959
60.350 14.882957
60.355 14.918921
60.360 14.293624
60.365 13.580513
60.370 13.744112
60.375 13.433918
60.380 13.270566
60.385 12.952007
60.390 12.809097
60.395 12.754863
60.400 12.675131
60.405 12.827514
60.410 13.23411
60.415 13.405714
60.420 13.466151
60.425 13.400431
60.430 13.713842
60.435 14.16008
60.440 13.6258
60.445 13.248584
60.450 13.29944
60.455 13.489221
60.460 13.363791
60.465 13.087832
60.470 13.300241
60.475 13.477478
60.480 13.393762
60.485 13.43187
60.490 13.047334
60.495 12.908981
60.500 13.009422
60.505 12.725979
60.510 12.983191
60.515 13.329795
60.520 12.961506
60.525 13.313952
60.530 13.63556
60.535 13.200288
60.540 13.351463
60.545 13.601169
60.550 13.356413
60.555 13.537503
60.560 13.007507
60.565 12.890833
60.570 13.241141
60.575 13.009847
60.580 12.598042
60.585 12.84744
60.590 13.094206
60.595 13.714942
60.600 13.863827
60.605 13.928602
60.610 14.420908
60.615 14.650622
60.620 14.552341
60.625 13.97521
60.630 13.809938
60.635 14.028448
60.640 14.475489
60.645 14.420201
60.650 14.410562
60.655 14.174805
60.660 14.349913
60.665 14.103312
60.670 13.847343
60.675 13.615635
60.680 13.14817
60.685 13.064981
60.690 12.94136
60.695 13.258857
60.700 13.438023
60.705 13.269887
60.710 13.338552
60.715 13.648836
60.720 13.54372
60.725 14.187963
60.730 14.157072
60.735 14.264791
60.740 13.85128
60.745 13.350869
60.750 13.14674
60.755 13.656078
60.760 13.687884
60.765 13.86275
60.770 13.83546
60.775 14.034339
60.780 13.874168
60.785 13.528927
60.790 12.808745
60.795 12.397416
60.800 11.875985
60.805 11.908072
60.810 12.4919
60.815 12.909966
60.820 13.660132
60.825 14.26383
60.830 14.343976
60.835 15.126465
60.840 14.925515
60.845 14.884825
60.850 15.377934
60.855 15.526662
60.860 15.339293
60.865 15.166454
60.870 14.276028
60.875 14.467785
60.880 14.870394
60.885 15.081832
60.890 15.520134
60.895 15.714646
60.900 16.062794
60.905 16.255589
60.910 16.075001
60.915 15.388578
60.920 14.763288
60.925 13.747854
60.930 13.673738
60.935 13.523317
60.940 13.517902
60.945 13.595433
60.950 13.511765
60.955 13.509789
60.960 13.723413
60.965 13.568104
60.970 14.122767
60.975 14.484042
60.980 14.418427
60.985 15.034992
60.990 15.151703
60.995 15.063971
61.000 15.208301
61.005 14.52978
61.010 14.159966
61.015 14.14752
61.020 13.896678
61.025 13.95279
61.030 14.149147
61.035 13.884996
61.040 14.142527
61.045 14.193941
61.050 14.383473
61.055 13.592268
61.060 13.363764
61.065 13.437606
61.070 13.740047
61.075 13.911041
61.080 13.762561
61.085 13.71758
61.090 14.289481
61.095 13.877408
61.100 13.72728
61.105 13.53235
61.110 13.343174
61.115 13.66942
61.120 14.071067
61.125 14.73482
61.130 15.206222
61.135 15.119082
61.140 15.088297
61.145 15.177341
61.150 15.058257
61.155 14.595403
61.160 13.506608
61.165 13.236692
61.170 13.724823
61.175 13.93447
61.180 13.651998
61.185 13.352154
61.190 13.674735
61.195 14.66846
61.200 15.077749
61.205 14.720068
61.210 14.864906
61.215 15.111428
61.220 15.669777
61.225 15.727468
61.230 15.539734
61.235 15.634514
61.240 15.82524
61.245 15.742657
61.250 15.81774
61.255 15.60966
61.260 15.33116
61.265 14.92336
61.270 14.411798
61.275 14.256548
61.280 14.365549
61.285 14.517247
61.290 14.570539
61.295 14.502763
61.300 14.521045
61.305 14.602204
61.310 14.639655
61.315 14.377339
61.320 14.089769
61.325 13.727365
61.330 13.700463
61.335 13.732877
61.340 13.754646
61.345 13.621138
61.350 13.701129
61.355 13.938065
61.360 13.898819
61.365 14.133999
61.370 14.475458
61.375 14.66858
61.380 15.151779
61.385 14.722037
61.390 14.364898
61.395 14.3442
61.400 14.449901
61.405 13.83842
61.410 13.42133
61.415 13.250287
61.420 13.628537
61.425 14.040162
61.430 14.404741
61.435 14.079129
61.440 14.668563
61.445 14.763017
61.450 14.507325
61.455 14.106299
61.460 13.647388
61.465 13.912915
61.470 14.354061
61.475 14.804965
61.480 15.422205
61.485 15.582781
61.490 15.886416
61.495 15.5724
61.500 15.360886
61.505 14.959629
61.510 13.84286
61.515 12.995673
61.520 12.821069
61.525 12.832696
61.530 13.236668
61.535 13.05389
61.540 13.043885
61.545 13.773829
61.550 14.703914
61.555 14.942948
61.560 14.654669
61.565 14.468018
61.570 14.547129
61.575 14.845231
61.580 14.703169
61.585 14.071158
61.590 14.16936
61.595 14.084764
61.600 13.85812
61.605 13.653255
61.610 13.441322
61.615 13.111928
61.620 12.822335
61.625 12.405692
61.630 12.520406
61.635 12.676888
61.640 12.651447
61.645 12.453366
61.650 12.674013
61.655 13.009444
61.660 13.657728
61.665 14.100713
61.670 14.642095
61.675 15.149237
61.680 15.212544
61.685 15.389964
61.690 15.569127
61.695 15.840031
61.700 15.756974
61.705 14.894522
61.710 14.240083
61.715 14.304677
61.720 13.851852
61.725 13.087596
61.730 12.773615
61.735 12.964125
61.740 13.221927
61.745 13.529113
61.750 13.843291
61.755 14.055505
61.760 14.204372
61.765 14.266947
61.770 14.181764
61.775 14.185534
61.780 13.984475
61.785 13.440703
61.790 13.190396
61.795 13.306337
61.800 13.562986
61.805 13.486636
61.810 13.455748
61.815 13.876789
61.820 14.814062
61.825 15.112609
61.830 15.299383
61.835 15.079632
61.840 14.908759
61.845 14.910537
61.850 14.787868
61.855 14.808147
61.860 15.161435
61.865 15.349913
61.870 15.123328
61.875 15.497667
61.880 15.886576
61.885 16.21851
61.890 16.078354
61.895 16.073057
61.900 15.748067
61.905 15.968097
61.910 15.328349
61.915 15.067339
61.920 14.610476
61.925 14.466219
61.930 14.288248
61.935 14.814036
61.940 14.710777
61.945 15.125033
61.950 15.187374
61.955 15.489513
61.960 15.687705
61.965 15.573162
61.970 15.108096
61.975 15.294081
61.980 15.467776
61.985 15.401127
61.990 15.094961
61.995 14.871995
62.000 14.900894
62.005 14.005731
62.010 13.122946
62.015 12.987735
62.020 13.067036
62.025 13.059722
62.030 13.038092
62.035 13.482565
62.040 14.671419
62.045 15.816262
62.050 15.69979
62.055 15.641658
62.060 15.179665
62.065 14.894079
62.070 14.823537
62.075 14.643192
62.080 14.058782
62.085 14.33619
62.090 14.00012
62.095 14.800336
62.100 15.303494
62.105 14.847614
62.110 14.351764
62.115 14.151025
62.120 14.154633
62.125 14.511371
62.130 14.081902
62.135 13.666295
62.140 13.84522
62.145 14.140919
62.150 14.542094
62.155 14.32719
62.160 14.416644
62.165 15.271021
62.170 16.300995
62.175 16.603725
62.180 16.760656
62.185 16.180462
62.190 16.59705
62.195 16.313148
62.200 15.267983
62.205 14.38669
62.210 13.910995
62.215 13.564032
62.220 13.669523
62.225 13.069246
62.230 13.105508
62.235 13.444215
62.240 13.27657
62.245 13.816525
62.250 13.729279
62.255 14.37841
62.260 14.971414
62.265 15.42244
62.270 15.431564
62.275 15.698961
62.280 15.927258
62.285 16.591522
62.290 15.886172
62.295 15.899967
62.300 15.684559
62.305 15.795221
62.310 15.768378
62.315 15.063522
62.320 14.862275
62.325 15.023148
62.330 14.564802
62.335 14.163166
62.340 13.281371
62.345 13.339009
62.350 13.266225
62.355 13.145142
62.360 13.599213
62.365 13.806038
62.370 14.280473
62.375 14.788119
62.380 14.803114
62.385 15.056967
62.390 15.023726
62.395 14.954906
62.400 14.770555
62.405 14.652709
62.410 14.770213
62.415 14.741834
62.420 14.717811
62.425 14.668998
62.430 14.277163
62.435 14.683281
62.440 14.663984
62.445 14.707787
62.450 15.025034
62.455 15.403907
62.460 16.188646
62.465 16.339237
62.470 16.10601
62.475 16.019724
62.480 16.259106
62.485 16.289631
62.490 15.616634
62.495 14.912442
62.500 14.723927
62.505 14.546504
62.510 14.915426
62.515 15.059918
62.520 15.160233
62.525 15.694803
62.530 15.664416
62.535 15.308039
62.540 15.49383
62.545 15.697746
62.550 15.168335
62.555 15.260106
62.560 14.553017
62.565 14.200421
62.570 14.462333
62.575 14.317959
62.580 13.868606
62.585 13.861124
62.590 13.92816
62.595 14.449775
62.600 14.804528
62.605 14.931869
62.610 15.383965
62.615 15.495736
62.620 15.132438
62.625 14.649492
62.630 14.390761
62.635 14.166866
62.640 14.326015
62.645 14.134965
62.650 14.038994
62.655 14.022646
62.660 14.588735
62.665 15.093609
62.670 15.907164
62.675 16.078283
62.680 16.20056
62.685 16.155891
62.690 16.32613
62.695 15.952447
62.700 15.69286
62.705 15.038975
62.710 14.954276
62.715 14.790027
62.720 15.554829
62.725 15.556987
62.730 15.598061
62.735 15.655787
62.740 15.677351
62.745 15.947876
62.750 16.073963
62.755 15.49932
62.760 15.389905
62.765 15.70218
62.770 16.277023
62.775 16.664387
62.780 16.023352
62.785 15.623529
62.790 15.809396
62.795 16.621042
62.800 16.091579
62.805 16.048588
62.810 15.803119
62.815 15.803869
62.820 16.027454
62.825 16.587215
62.830 16.296803
62.835 16.389372
62.840 15.921752
62.845 15.765899
62.850 15.565047
62.855 15.403175
62.860 15.153885
62.865 15.34585
62.870 15.081527
62.875 14.688095
62.880 14.984132
62.885 15.365286
62.890 15.12891
62.895 14.800548
62.900 14.66645
62.905 14.298937
62.910 14.463565
62.915 14.537154
62.920 14.426858
62.925 14.706068
62.930 15.201427
62.935 15.079313
62.940 15.281596
62.945 15.180458
62.950 15.090806
62.955 14.829314
62.960 14.256586
62.965 13.725843
62.970 14.547026
62.975 15.177256
62.980 15.379945
62.985 15.276958
62.990 15.635811
62.995 16.090883
63.000 16.245678
63.005 16.090824
63.010 16.56671
63.015 16.359432
63.020 16.392757
63.025 16.483009
63.030 16.49728
63.035 16.334007
63.040 15.436069
63.045 15.06247
63.050 15.604496
63.055 15.774564
63.060 15.433496
63.065 15.707103
63.070 15.866008
63.075 16.492579
63.080 16.276674
63.085 16.064978
63.090 16.337648
63.095 16.593363
63.100 16.428831
63.105 16.411795
63.110 15.963908
63.115 16.010267
63.120 16.164238
63.125 15.474311
63.130 15.657975
63.135 16.070621
63.140 15.949731
63.145 16.420698
63.150 15.902708
63.155 16.14991
63.160 16.26881
63.165 15.745042
63.170 15.506436
63.175 16.129717
63.180 16.165621
63.185 16.081341
63.190 15.71402
63.195 15.696282
63.200 16.210754
63.205 15.897056
63.210 15.856043
63.215 15.862016
63.220 16.311312
63.225 16.031511
63.230 15.622169
63.235 15.481174
63.240 15.505566
63.245 14.937153
63.250 14.984017
63.255 15.299076
63.260 15.808255
63.265 16.078148
63.270 15.996309
63.275 16.331732
63.280 16.518158
63.285 16.842224
63.290 16.626257
63.295 16.447407
63.300 16.624592
63.305 17.091341
63.310 16.659134
63.315 16.235254
63.320 15.340644
63.325 14.86349
63.330 15.071521
63.335 14.490339
63.340 13.732465
63.345 14.239112
63.350 14.302953
63.355 15.115231
63.360 15.504396
63.365 15.555551
63.370 15.738677
63.375 15.193814
63.380 15.168526
63.385 15.999004
63.390 15.778062
63.395 15.587216
63.400 15.625144
63.405 15.594629
63.410 15.948693
63.415 15.335976
63.420 14.89922
63.425 14.993111
63.430 15.344399
63.435 15.4092
63.440 15.57211
63.445 16.113632
63.450 16.203526
63.455 15.868067
63.460 15.24348
63.465 14.914948
63.470 15.092031
63.475 15.037805
63.480 14.565892
63.485 15.362967
63.490 15.792248
63.495 16.349348
63.500 16.72043
63.505 17.3125
63.510 17.546026
63.515 17.301947
63.520 16.785753
63.525 16.453842
63.530 16.622292
63.535 16.80657
63.540 16.30298
63.545 16.968914
63.550 17.511677
63.555 17.672373
63.560 17.586079
63.565 17.424334
63.570 17.122625
63.575 16.616762
63.580 15.857002
63.585 15.72695
63.590 15.653877
63.595 15.433206
63.600 14.936604
63.605 14.681099
63.610 14.828724
63.615 15.388524
63.620 15.110434
63.625 14.945663
63.630 15.859113
63.635 16.549896
63.640 17.482004
63.645 17.655088
63.650 17.183439
63.655 17.571531
63.660 17.250818
63.665 16.807882
63.670 16.317816
63.675 16.350615
63.680 16.888639
63.685 16.728888
63.690 16.757172
63.695 17.080973
63.700 16.858418
63.705 16.64642
63.710 15.943142
63.715 15.441983
63.720 15.781252
63.725 15.954475
63.730 15.945679
63.735 15.993316
63.740 16.790592
63.745 16.61479
63.750 16.557497
63.755 16.114935
63.760 15.758245
63.765 15.767763
63.770 15.679521
63.775 15.119242
63.780 15.789083
63.785 15.734561
63.790 16.404781
63.795 16.817663
63.800 16.723404
63.805 16.968536
63.810 17.54516
63.815 17.379942
63.820 17.7344
63.825 17.680946
63.830 17.784046
63.835 18.438965
63.840 18.877453
63.845 19.007181
63.850 18.754042
63.855 18.780624
63.860 18.637936
63.865 18.85813
63.870 19.336498
63.875 19.237982
63.880 18.94533
63.885 19.491602
63.890 19.758919
63.895 19.835407
63.900 19.16551
63.905 18.489988
63.910 18.452501
63.915 18.59288
63.920 18.20727
63.925 18.016018
63.930 18.565035
63.935 18.585182
63.940 19.156551
63.945 18.98226
63.950 18.834379
63.955 19.115437
63.960 19.348911
63.965 19.066029
63.970 19.453373
63.975 19.64612
63.980 20.051456
63.985 20.206579
63.990 20.129023
63.995 20.526922
64.000 21.198866
64.005 21.826111
64.010 22.150366
64.015 23.050726
64.020 23.826725
64.025 23.980875
64.030 23.701836
64.035 23.517015
64.040 23.206053
64.045 23.095964
64.050 22.723722
64.055 22.285898
64.060 21.938564
64.065 22.084787
64.070 22.175592
64.075 22.366251
64.080 21.686028
64.085 21.319513
64.090 21.70929
64.095 21.964195
64.100 22.346472
64.105 22.106863
64.110 22.157927
64.115 22.910561
64.120 23.279261
64.125 23.453142
64.130 23.903025
64.135 23.663054
64.140 23.958263
64.145 24.192984
64.150 24.869047
64.155 25.676979
64.160 26.911005
64.165 27.034508
64.170 27.563583
64.175 27.540804
64.180 27.906565
64.185 28.259588
64.190 28.900837
64.195 28.352188
64.200 28.998936
64.205 29.344044
64.210 30.366293
64.215 30.559235
64.220 31.049093
64.225 31.544132
64.230 32.51553
64.235 33.406811
64.240 34.289722
64.245 35.342113
64.250 35.986591
64.255 36.039444
64.260 36.962917
64.265 37.331753
64.270 37.173733
64.275 37.337303
64.280 36.705261
64.285 36.765263
64.290 37.622383
64.295 37.478775
64.300 37.402481
64.305 37.980911
64.310 38.173683
64.315 38.898323
64.320 39.045193
64.325 38.645397
64.330 38.794327
64.335 39.143528
64.340 39.142868
64.345 39.083801
64.350 39.201313
64.355 39.698395
64.360 40.969467
64.365 42.230206
64.370 42.872589
64.375 44.287769
64.380 45.409134
64.385 45.686401
64.390 45.483456
64.395 44.780876
64.400 44.589939
64.405 44.050697
64.410 43.893856
64.415 43.217125
64.420 42.701088
64.425 42.80521
64.430 43.477982
64.435 43.304726
64.440 43.413845
64.445 43.330769
64.450 43.708004
64.455 44.109367
64.460 43.943344
64.465 43.599361
64.470 43.538479
64.475 43.379471
64.480 43.062672
64.485 42.35154
64.490 42.238865
64.495 42.929283
64.500 41.253471
64.505 40.756435
64.510 40.194332
64.515 39.643852
64.520 39.112358
64.525 38.248917
64.530 37.233261
64.535 37.281525
64.540 36.165577
64.545 35.282642
64.550 34.836288
64.555 35.207943
64.560 34.998524
64.565 34.159279
64.570 32.992901
64.575 32.663582
64.580 32.589417
64.585 32.349545
64.590 32.11594
64.595 31.997496
64.600 31.7892
64.605 32.130432
64.610 32.013176
64.615 31.81225
64.620 31.557219
64.625 30.807825
64.630 30.52265
64.635 30.922081
64.640 30.599384
64.645 31.295399
64.650 30.826939
64.655 30.327675
64.660 29.7164
64.665 29.277012
64.670 28.943167
64.675 28.581425
64.680 27.972757
64.685 27.310585
64.690 27.171457
64.695 27.030218
64.700 26.721397
64.705 26.486101
64.710 25.659412
64.715 24.855915
64.720 24.701223
64.725 24.199774
64.730 24.069408
64.735 23.493162
64.740 22.621046
64.745 22.206715
64.750 22.069954
64.755 21.616707
64.760 21.266556
64.765 21.001539
64.770 21.200848
64.775 21.159128
64.780 20.936899
64.785 20.831257
64.790 21.276108
64.795 22.177414
64.800 22.308756
64.805 22.144192
64.810 22.961452
64.815 23.328762
64.820 23.684931
64.825 23.156677
64.830 22.608248
64.835 22.36714
64.840 22.375841
64.845 21.415855
64.850 21.105129
64.855 20.950794
64.860 20.941189
64.865 20.793045
64.870 20.742636
64.875 20.468901
64.880 20.492638
64.885 19.925966
64.890 19.419491
64.895 19.790577
64.900 19.730932
64.905 20.208372
64.910 20.579971
64.915 20.619055
64.920 20.850349
64.925 20.545877
64.930 20.317245
64.935 20.7395
64.940 20.672546
64.945 20.413559
64.950 20.641935
64.955 21.337742
64.960 22.519072
64.965 23.064253
64.970 23.086065
64.975 23.12142
64.980 23.892143
64.985 24.075665
64.990 23.848291
64.995 23.748962
65.000 23.844833
65.005 25.129999
65.010 25.785763
65.015 25.563845
65.020 26.671335
65.025 27.375397
65.030 27.64518
65.035 28.180754
65.040 27.425659
65.045 27.992012
65.050 28.847488
65.055 28.838299
65.060 28.956175
65.065 29.334299
65.070 29.07773
65.075 28.807289
65.080 28.559706
65.085 28.618183
65.090 29.280321
65.095 29.836672
65.100 29.468258
65.105 29.58478
65.110 30.503958
65.115 30.31794
65.120 29.832531
65.125 30.096195
65.130 29.75679
65.135 30.545967
65.140 30.572613
65.145 30.591467
65.150 30.851648
65.155 31.202286
65.160 30.307587
65.165 30.585938
65.170 30.741123
65.175 30.970526
65.180 30.397879
65.185 29.856903
65.190 29.47356
65.195 30.009441
65.200 29.754135
65.205 29.712757
65.210 29.667309
65.215 29.88501
65.220 30.518631
65.225 31.034061
65.230 31.157219
65.235 31.467953
65.240 30.916714
65.245 30.798422
65.250 31.079302
65.255 31.323942
65.260 32.040272
65.265 31.768316
65.270 31.563131
65.275 31.851841
65.280 31.94591
65.285 32.100979
65.290 32.364498
65.295 32.282795
65.300 33.442081
65.305 33.208614
65.310 33.084476
65.315 33.508869
65.320 33.002945
65.325 32.547573
65.330 32.342976
65.335 31.680117
65.340 32.69672
65.345 32.942497
65.350 32.743595
65.355 33.420818
65.360 33.829689
65.365 33.665962
65.370 34.495621
65.375 34.023785
65.380 34.398758
65.385 35.065983
65.390 35.154346
65.395 35.093834
65.400 34.723579
65.405 33.279675
65.410 33.472309
65.415 33.257504
65.420 33.114388
65.425 32.196575
65.430 31.648031
65.435 31.861269
65.440 31.839355
65.445 31.705769
65.450 31.722198
65.455 31.707504
65.460 32.024044
65.465 32.34203
65.470 32.835678
65.475 32.751286
65.480 32.298637
65.485 32.016491
65.490 31.988312
65.495 31.999645
65.500 31.833015
65.505 31.832907
65.510 33.519844
65.515 34.544418
65.520 34.04089
65.525 34.45237
65.530 35.491463
65.535 35.620506
65.540 35.582012
65.545 34.967232
65.550 35.13213
65.555 35.725842
65.560 35.235245
65.565 35.275745
65.570 35.446659
65.575 35.693256
65.580 35.126453
65.585 33.831158
65.590 34.120918
65.595 33.996006
65.600 33.477837
65.605 33.478046
65.610 33.802059
65.615 33.690525
65.620 34.223709
65.625 33.684742
65.630 32.685276
65.635 32.549255
65.640 32.896038
65.645 32.84626
65.650 33.60519
65.655 33.823101
65.660 34.192783
65.665 35.274666
65.670 35.134026
65.675 34.385517
65.680 33.346359
65.685 33.506935
65.690 33.340984
65.695 32.969738
65.700 32.813335
65.705 32.983078
65.710 33.378971
65.715 34.047985
65.720 33.224167
65.725 33.194038
65.730 33.143398
65.735 32.608212
65.740 32.191769
65.745 31.799141
65.750 30.927259
65.755 31.983742
65.760 31.886162
65.765 31.874037
65.770 31.844393
65.775 31.576572
65.780 31.403469
65.785 31.803207
65.790 30.755419
65.795 30.814594
65.800 30.55854
65.805 30.080645
65.810 29.82147
65.815 29.828623
65.820 29.494085
65.825 29.468302
65.830 28.865709
65.835 28.407812
65.840 29.365679
65.845 29.893965
65.850 29.561445
65.855 29.568901
65.860 29.242558
65.865 29.23595
65.870 29.100702
65.875 28.566706
65.880 28.158997
65.885 28.433847
65.890 28.095432
65.895 27.8269
65.900 28.234125
65.905 28.185263
65.910 27.7973
65.915 27.644247
65.920 27.180605
65.925 26.866947
65.930 26.212275
65.935 25.805155
65.940 26.042213
65.945 25.691563
65.950 25.528025
65.955 25.724659
65.960 25.398689
65.965 25.596468
65.970 24.884501
65.975 24.360775
65.980 24.29924
65.985 23.641806
65.990 23.160946
65.995 23.177151
66.000 23.292889
66.005 23.069878
66.010 23.084373
66.015 23.541332
66.020 23.460926
66.025 23.329069
66.030 22.743116
66.035 22.474077
66.040 22.447132
66.045 22.138119
66.050 21.66465
66.055 21.997833
66.060 21.559696
66.065 21.205078
66.070 21.421541
66.075 21.608643
66.080 21.727842
66.085 21.706373
66.090 21.352938
66.095 21.08993
66.100 21.348564
66.105 20.98868
66.110 20.855438
66.115 20.847116
66.120 20.188799
66.125 19.876192
66.130 19.72806
66.135 19.387512
66.140 18.826078
66.145 18.192924
66.150 17.986401
66.155 17.34679
66.160 17.201195
66.165 17.794357
66.170 17.809109
66.175 17.759352
66.180 17.883158
66.185 17.950691
66.190 18.956236
66.195 19.094185
66.200 18.502325
66.205 18.771498
66.210 18.62394
66.215 18.453007
66.220 18.309898
66.225 17.951206
66.230 18.224331
66.235 18.316484
66.240 18.344557
66.245 18.665297
66.250 18.870848
66.255 18.85656
66.260 19.170988
66.265 18.85108
66.270 18.497995
66.275 18.740551
66.280 18.683538
66.285 18.113373
66.290 17.788338
66.295 17.763052
66.300 17.626598
66.305 17.995317
66.310 17.865812
66.315 17.638531
66.320 17.879578
66.325 17.891768
66.330 18.066061
66.335 18.258757
66.340 17.97699
66.345 17.596077
66.350 17.638624
66.355 17.433916
66.360 18.15999
66.365 18.142223
66.370 17.86014
66.375 17.539328
66.380 17.91592
66.385 18.583632
66.390 19.303778
66.395 18.695858
66.400 18.232105
66.405 18.543339
66.410 18.609678
66.415 18.283581
66.420 18.278753
66.425 18.109528
66.430 18.287451
66.435 18.777657
66.440 18.261806
66.445 17.803301
66.450 17.634424
66.455 17.094349
66.460 16.728123
66.465 16.283155
66.470 16.465858
66.475 17.119696
66.480 17.608854
66.485 18.079454
66.490 18.364655
66.495 18.533998
66.500 18.463699
66.505 18.077353
66.510 17.761023
66.515 17.07449
66.520 16.584356
66.525 16.278509
66.530 16.067991
66.535 15.718822
66.540 15.926525
66.545 15.947007
66.550 16.675182
66.555 17.747879
66.560 18.382582
66.565 18.678963
66.570 18.684248
66.575 18.098778
66.580 18.3083
66.585 18.555752
66.590 17.857779
66.595 17.645714
66.600 17.512346
66.605 17.721199
66.610 17.752209
66.615 17.476688
66.620 17.161615
66.625 17.326126
66.630 16.659796
66.635 16.926626
66.640 17.055603
66.645 17.118406
66.650 17.159376
66.655 16.743193
66.660 16.1213
66.665 16.510939
66.670 16.457697
66.675 16.443451
66.680 16.782988
66.685 16.818232
66.690 16.550377
66.695 16.989021
66.700 17.217878
66.705 17.265163
66.710 17.432177
66.715 17.326788
66.720 17.603626
66.725 17.838303
66.730 17.490057
66.735 17.191113
66.740 17.434414
66.745 17.064013
66.750 16.91366
66.755 16.926394
66.760 16.570663
66.765 16.665638
66.770 16.745813
66.775 15.786827
66.780 15.966902
66.785 15.549002
66.790 15.018705
66.795 14.926248
66.800 15.166654
66.805 15.204396
66.810 15.744688
66.815 15.927329
66.820 16.604647
66.825 17.334805
66.830 17.766617
66.835 17.611557
66.840 17.704954
66.845 17.657383
66.850 17.402761
66.855 17.026514
66.860 16.71533
66.865 16.592497
66.870 16.112659
66.875 16.154274
66.880 15.805675
66.885 15.783144
66.890 15.975525
66.895 16.222191
66.900 16.52412
66.905 16.85745
66.910 16.968979
66.915 18.004267
66.920 18.112961
66.925 18.10001
66.930 17.555967
66.935 17.414507
66.940 17.920477
66.945 17.858633
66.950 17.3957
66.955 17.293737
66.960 17.290924
66.965 17.111408
66.970 17.265141
66.975 16.901567
66.980 16.529362
66.985 16.261211
66.990 15.912189
66.995 15.788295
67.000 16.288263
67.005 16.220993
67.010 16.177704
67.015 16.326239
67.020 16.068012
67.025 16.274788
67.030 16.314264
67.035 16.492825
67.040 16.93788
67.045 17.36297
67.050 18.121279
67.055 18.581047
67.060 18.504082
67.065 18.618788
67.070 18.250483
67.075 17.855001
67.080 17.165339
67.085 17.412161
67.090 17.70569
67.095 18.274586
67.100 18.231703
67.105 18.1315
67.110 17.708
67.115 17.99198
67.120 18.206236
67.125 18.454374
67.130 18.56781
67.135 18.822994
67.140 18.754797
67.145 18.738899
67.150 18.607246
67.155 18.56588
67.160 18.08622
67.165 18.308586
67.170 18.340656
67.175 18.443455
67.180 18.680929
67.185 18.146122
67.190 17.676653
67.195 17.339972
67.200 16.550882
67.205 16.160124
67.210 15.536788
67.215 15.002792
67.220 15.626593
67.225 15.932323
67.230 16.605261
67.235 16.607611
67.240 16.666523
67.245 17.117744
67.250 16.827354
67.255 16.270914
67.260 16.001534
67.265 15.687743
67.270 16.227636
67.275 16.793631
67.280 17.286764
67.285 18.020185
67.290 18.004236
67.295 17.839853
67.300 18.167612
67.305 17.580606
67.310 16.926497
67.315 16.372795
67.320 15.800083
67.325 15.586508
67.330 15.603855
67.335 15.448975
67.340 15.856253
67.345 16.285364
67.350 16.666407
67.355 16.730272
67.360 16.881786
67.365 17.158533
67.370 17.229445
67.375 17.248034
67.380 17.047398
67.385 16.71158
67.390 17.10857
67.395 17.092018
67.400 16.846079
67.405 16.889889
67.410 16.647928
67.415 16.866873
67.420 17.648939
67.425 17.496435
67.430 17.112751
67.435 16.970938
67.440 17.005289
67.445 16.936876
67.450 16.836796
67.455 16.094004
67.460 16.848738
67.465 17.515696
67.470 17.541901
67.475 17.790087
67.480 17.804239
67.485 17.813013
67.490 18.063282
67.495 17.670721
67.500 17.758036
67.505 17.917484
67.510 17.316244
67.515 17.564981
67.520 17.564657
67.525 17.31304
67.530 16.523109
67.535 16.06785
67.540 15.980375
67.545 16.207127
67.550 15.954913
67.555 15.854289
67.560 16.581734
67.565 17.496038
67.570 17.850718
67.575 17.538479
67.580 17.394068
67.585 17.91633
67.590 17.959961
67.595 17.340733
67.600 16.834091
67.605 16.620029
67.610 16.722015
67.615 16.790689
67.620 16.989334
67.625 16.961866
67.630 16.979361
67.635 17.057949
67.640 16.975847
67.645 16.983656
67.650 17.100693
67.655 16.888584
67.660 16.974955
67.665 17.042233
67.670 17.135866
67.675 17.279129
67.680 18.007683
67.685 18.181305
67.690 18.025364
67.695 17.599133
67.700 17.336748
67.705 16.720783
67.710 16.408342
67.715 15.92634
67.720 15.90673
67.725 16.428835
67.730 17.148111
67.735 17.48538
67.740 18.505596
67.745 18.391569
67.750 18.222946
67.755 17.90155
67.760 17.887905
67.765 18.137991
67.770 17.859472
67.775 17.920631
67.780 18.735342
67.785 18.625677
67.790 18.655148
67.795 17.824846
67.800 17.887991
67.805 18.12862
67.810 17.66276
67.815 17.545464
67.820 17.68187
67.825 17.853292
67.830 17.884195
67.835 17.160088
67.840 17.021679
67.845 17.11372
67.850 16.964645
67.855 16.751133
67.860 16.999363
67.865 17.424202
67.870 17.888323
67.875 17.84601
67.880 17.211111
67.885 17.29995
67.890 17.496809
67.895 16.710598
67.900 16.191416
67.905 15.951124
67.910 15.888188
67.915 15.992411
67.920 15.488075
67.925 15.607587
67.930 16.135731
67.935 16.821638
67.940 17.179382
67.945 17.809334
67.950 18.08444
67.955 18.45862
67.960 18.401524
67.965 18.702805
67.970 18.89217
67.975 18.771952
67.980 18.330912
67.985 17.805325
67.990 17.81167
67.995 17.63739
68.000 17.05267
68.005 17.134859
68.010 16.969666
68.015 17.125818
68.020 17.757048
68.025 18.174442
68.030 18.174833
68.035 17.828466
68.040 17.598625
68.045 17.65649
68.050 18.405682
68.055 18.582859
68.060 18.75032
68.065 19.196997
68.070 19.659264
68.075 20.244493
68.080 19.900257
68.085 19.479528
68.090 19.224247
68.095 19.104195
68.100 19.141182
68.105 18.947598
68.110 18.732746
68.115 18.953417
68.120 18.998184
68.125 19.298361
68.130 19.010468
68.135 18.844704
68.140 18.62479
68.145 18.506039
68.150 18.439146
68.155 18.045317
68.160 17.271235
68.165 16.975224
68.170 17.472824
68.175 17.730982
68.180 17.759407
68.185 18.160522
68.190 18.960772
68.195 19.180006
68.200 19.475016
68.205 18.98662
68.210 18.956888
68.215 18.956867
68.220 18.928205
68.225 18.869038
68.230 18.96711
68.235 19.094475
68.240 19.368715
68.245 20.125587
68.250 20.601219
68.255 20.678549
68.260 21.199442
68.265 21.993483
68.270 22.287512
68.275 22.419167
68.280 22.650236
68.285 22.604734
68.290 22.110165
68.295 21.667753
68.300 20.80715
68.305 20.816559
68.310 21.179317
68.315 20.518864
68.320 20.429461
68.325 20.880684
68.330 20.948755
68.335 21.939629
68.340 22.34218
68.345 22.189743
68.350 22.802341
68.355 22.415239
68.360 22.346132
68.365 21.824274
68.370 21.169582
68.375 21.456379
68.380 21.699089
68.385 22.176294
68.390 22.981272
68.395 23.204378
68.400 23.604076
68.405 23.600056
68.410 23.563009
68.415 24.050316
68.420 24.449757
68.425 24.782488
68.430 25.589371
68.435 26.299997
68.440 27.356983
68.445 27.522346
68.450 27.643616
68.455 27.659908
68.460 27.736177
68.465 27.869404
68.470 27.645508
68.475 27.566965
68.480 27.911451
68.485 28.191931
68.490 28.651836
68.495 28.755333
68.500 28.263987
68.505 27.654848
68.510 27.643738
68.515 27.902515
68.520 27.522205
68.525 27.247887
68.530 27.419367
68.535 28.057825
68.540 28.730804
68.545 28.191422
68.550 27.679062
68.555 28.109533
68.560 28.440828
68.565 28.483978
68.570 28.721115
68.575 29.521049
68.580 29.897991
68.585 30.395521
68.590 31.265219
68.595 31.39164
68.600 31.336487
68.605 31.601395
68.610 31.3813
68.615 31.488884
68.620 31.874863
68.625 31.382795
68.630 31.355545
68.635 31.519156
68.640 31.092728
68.645 31.439617
68.650 31.379375
68.655 31.231987
68.660 31.344229
68.665 31.469318
68.670 31.709309
68.675 32.14146
68.680 32.265347
68.685 33.049
68.690 32.398216
68.695 32.126587
68.700 31.727427
68.705 31.523973
68.710 31.250025
68.715 30.230335
68.720 29.481268
68.725 29.68751
68.730 30.239706
68.735 30.735277
68.740 31.261379
68.745 31.46891
68.750 31.511103
68.755 31.582932
68.760 31.907763
68.765 31.898918
68.770 31.561644
68.775 30.710686
68.780 30.329197
68.785 30.585815
68.790 30.846201
68.795 30.516792
68.800 30.289429
68.805 30.40098
68.810 31.493313
68.815 31.662497
68.820 32.094452
68.825 31.983326
68.830 32.252708
68.835 32.516708
68.840 32.030121
68.845 31.575518
68.850 32.104477
68.855 31.497377
68.860 31.341883
68.865 31.122341
68.870 32.170242
68.875 33.301186
68.880 33.184769
68.885 33.292843
68.890 33.394306
68.895 33.600166
68.900 33.25074
68.905 31.944157
68.910 31.118519
68.915 30.604183
68.920 30.647867
68.925 30.728218
68.930 30.471437
68.935 29.894077
68.940 30.302498
68.945 30.214504
68.950 29.927752
68.955 29.275042
68.960 28.850189
68.965 28.82901
68.970 29.582294
68.975 29.222834
68.980 29.070616
68.985 29.070061
68.990 29.13715
68.995 29.111389
69.000 29.201714
69.005 28.895008
69.010 27.735025
69.015 27.645235
69.020 27.206234
69.025 26.95277
69.030 27.500605
69.035 27.082655
69.040 26.31625
69.045 27.521866
69.050 27.907154
69.055 28.352518
69.060 28.864159
69.065 28.371294
69.070 28.786129
69.075 29.377365
69.080 29.485155
69.085 29.637613
69.090 29.63854
69.095 29.195906
69.100 29.208544
69.105 29.691053
69.110 29.949453
69.115 29.339499
69.120 29.106253
69.125 29.529505
69.130 29.913347
69.135 29.987686
69.140 29.091457
69.145 28.362772
69.150 28.363176
69.155 27.747023
69.160 26.600624
69.165 25.863703
69.170 25.84733
69.175 25.960154
69.180 25.448664
69.185 25.189295
69.190 24.764952
69.195 24.297909
69.200 23.434713
69.205 22.239798
69.210 21.722469
69.215 21.551767
69.220 21.474413
69.225 22.021666
69.230 22.429836
69.235 22.53772
69.240 22.456572
69.245 22.538843
69.250 22.403635
69.255 22.43799
69.260 22.102036
69.265 21.715389
69.270 21.722113
69.275 22.223154
69.280 21.603212
69.285 21.678091
69.290 21.280237
69.295 21.533083
69.300 21.857172
69.305 22.087814
69.310 21.243942
69.315 20.558863
69.320 20.041477
69.325 19.637611
69.330 19.638626
69.335 19.42499
69.340 19.129295
69.345 19.664049
69.350 20.171055
69.355 20.372034
69.360 20.339119
69.365 20.123911
69.370 19.808041
69.375 19.819603
69.380 19.169786
69.385 19.042507
69.390 18.930521
69.395 19.341082
69.400 19.643476
69.405 19.631826
69.410 19.528786
69.415 19.83342
69.420 19.849964
69.425 19.543497
69.430 18.869162
69.435 19.323727
69.440 19.589828
69.445 19.777021
69.450 19.241751
69.455 18.64473
69.460 18.253143
69.465 18.031601
69.470 17.226301
69.475 16.984133
69.480 16.712746
69.485 16.904518
69.490 17.178335
69.495 17.425261
69.500 17.118408
69.505 17.35074
69.510 17.650608
69.515 18.562517
69.520 19.536547
69.525 19.970325
69.530 19.945974
69.535 19.730049
69.540 19.393766
69.545 19.062542
69.550 18.328669
69.555 17.568289
69.560 17.693251
69.565 17.949568
69.570 18.770889
69.575 18.774607
69.580 18.313219
69.585 18.366489
69.590 17.855442
69.595 17.383921
69.600 17.331364
69.605 17.145834
69.610 17.275042
69.615 17.255096
69.620 17.298096
69.625 17.423124
69.630 17.914387
69.635 18.057226
69.640 18.019016
69.645 18.006256
69.650 18.010542
69.655 17.931641
69.660 17.917185
69.665 17.172663
69.670 16.595764
69.675 16.45426
69.680 16.679317
69.685 16.673561
69.690 16.897377
69.695 17.195023
69.700 17.453445
69.705 17.310518
69.710 17.319613
69.715 17.168686
69.720 16.823603
69.725 16.598272
69.730 16.684048
69.735 16.948215
69.740 16.881184
69.745 16.853582
69.750 17.109512
69.755 17.058428
69.760 17.085384
69.765 17.021919
69.770 17.23192
69.775 17.544985
69.780 17.200474
69.785 17.638142
69.790 17.773384
69.795 18.169098
69.800 18.07036
69.805 17.530039
69.810 17.179068
69.815 17.245247
69.820 17.039879
69.825 16.511194
69.830 15.871753
69.835 16.185125
69.840 16.592281
69.845 16.919483
69.850 16.501614
69.855 16.328085
69.860 16.677937
69.865 16.933954
69.870 16.921335
69.875 17.030291
69.880 17.375805
69.885 17.543646
69.890 17.88065
69.895 18.349705
69.900 17.880039
69.905 18.100611
69.910 17.869675
69.915 18.355448
69.920 18.754148
69.925 18.543064
69.930 18.3274
69.935 18.862633
69.940 18.658733
69.945 18.506535
69.950 17.859808
69.955 17.616264
69.960 17.955694
69.965 17.607811
69.970 16.984201
69.975 16.92515
69.980 17.030296
69.985 17.33597
69.990 17.540459
69.995 17.919489
70.000 17.974195
70.005 17.846691
70.010 18.133953
70.015 18.190683
70.020 17.433954
70.025 16.468353
70.030 16.270285
70.035 16.981596
70.040 17.265175
70.045 16.838949
70.050 16.783207
70.055 17.463032
70.060 17.904671
70.065 17.155994
70.070 16.807386
70.075 16.706978
70.080 16.581274
70.085 16.71854
70.090 16.084433
70.095 15.98855
70.100 16.749033
70.105 16.747219
70.110 16.841066
70.115 17.456568
70.120 16.993105
70.125 17.615238
70.130 18.234425
70.135 17.885799
70.140 17.992651
70.145 17.555325
70.150 17.344955
70.155 17.813496
70.160 17.675787
70.165 17.184849
70.170 17.18281
70.175 16.890564
70.180 16.798084
70.185 17.16725
70.190 16.601986
70.195 16.603771
70.200 16.477085
70.205 16.572748
70.210 17.098671
70.215 17.452417
70.220 16.756231
70.225 17.211563
70.230 17.470043
70.235 17.312359
70.240 17.436552
70.245 17.002142
70.250 16.958933
70.255 17.561655
70.260 17.210003
70.265 17.472746
70.270 17.725647
70.275 17.537493
70.280 17.70994
70.285 18.174379
70.290 18.021988
70.295 17.948027
70.300 17.776148
70.305 17.417664
70.310 17.366896
70.315 17.436586
70.320 16.965973
70.325 16.879293
70.330 16.2689
70.335 15.985653
70.340 15.783574
70.345 15.470906
70.350 15.083328
70.355 14.485064
70.360 14.198023
70.365 14.659985
70.370 15.094671
70.375 15.488431
70.380 15.718344
70.385 16.139944
70.390 17.133402
70.395 17.237904
70.400 17.288157
70.405 17.461029
70.410 17.437128
70.415 17.368185
70.420 17.076372
70.425 16.709593
70.430 16.979265
70.435 16.668606
70.440 16.262266
70.445 16.139755
70.450 15.569567
70.455 15.466559
70.460 15.421652
70.465 15.311495
70.470 15.225999
70.475 15.43294
70.480 15.505005
70.485 15.856042
70.490 15.995092
70.495 16.511303
70.500 17.213163
70.505 17.763422
70.510 17.933506
70.515 18.220547
70.520 19.057325
70.525 18.886454
70.530 18.483942
70.535 17.732096
70.540 17.138443
70.545 17.411629
70.550 17.388268
70.555 16.763767
70.560 16.515085
70.565 16.759127
70.570 18.051241
70.575 18.097073
70.580 18.471689
70.585 18.407152
70.590 18.752851
70.595 19.101788
70.600 19.014532
70.605 18.491737
70.610 18.476364
70.615 17.976032
70.620 17.876579
70.625 17.744228
70.630 17.382263
70.635 16.606777
70.640 16.859442
70.645 16.481859
70.650 16.883528
70.655 17.250479
70.660 17.447933
70.665 17.351635
70.670 17.328722
70.675 17.17231
70.680 17.252028
70.685 16.678204
70.690 16.579479
70.695 17.052858
70.700 17.32342
70.705 17.28665
70.710 16.86944
70.715 16.816557
70.720 16.617081
70.725 16.369101
70.730 16.670252
70.735 17.160727
70.740 17.398663
70.745 17.878941
70.750 17.600161
70.755 17.701811
70.760 17.248596
70.765 16.517227
70.770 16.257715
70.775 16.722462
70.780 16.451422
70.785 16.98448
70.790 16.939915
70.795 17.104055
70.800 16.879049
70.805 16.847275
70.810 16.012814
70.815 15.86202
70.820 15.676807
70.825 15.983333
70.830 16.672461
70.835 16.760746
70.840 16.675611
70.845 17.454767
70.850 17.779778
70.855 17.795284
70.860 17.218782
70.865 17.019901
70.870 17.714083
70.875 17.716394
70.880 17.163889
70.885 17.243008
70.890 17.595762
70.895 17.437864
70.900 16.873911
70.905 16.844576
70.910 17.152586
70.915 17.205061
70.920 16.610023
70.925 16.479944
70.930 16.953672
70.935 16.704008
70.940 17.082109
70.945 16.700611
70.950 16.994347
70.955 17.761042
70.960 17.900616
70.965 17.62365
70.970 17.526108
70.975 17.375971
70.980 17.280529
70.985 16.632181
70.990 15.793247
70.995 15.413676
71.000 15.575259
71.005 15.596348
71.010 15.821906
71.015 15.959017
71.020 16.525999
71.025 16.669601
71.030 16.736927
71.035 16.696829
71.040 16.393528
71.045 16.498684
71.050 16.877787
71.055 17.392817
71.060 17.471918
71.065 17.458307
71.070 17.245989
71.075 16.904552
71.080 16.79882
71.085 16.397377
71.090 16.51025
71.095 16.600985
71.100 16.804165
71.105 17.09971
71.110 17.74301
71.115 17.520596
71.120 17.258986
71.125 16.964575
71.130 17.031868
71.135 16.996408
71.140 16.800039
71.145 16.953817
71.150 17.210361
71.155 17.0233
71.160 17.023451
71.165 17.406404
71.170 17.520906
71.175 16.98983
71.180 16.263309
71.185 15.96336
71.190 15.854684
71.195 15.631263
71.200 15.066623
71.205 15.538007
71.210 16.151936
71.215 16.545387
71.220 16.657804
71.225 17.509344
71.230 17.799446
71.235 17.771889
71.240 17.207237
71.245 16.741306
71.250 16.607533
71.255 16.290039
71.260 15.768431
71.265 16.143126
71.270 16.246614
71.275 17.000904
71.280 17.661249
71.285 17.903997
71.290 18.087803
71.295 17.721109
71.300 17.550896
71.305 17.437719
71.310 16.931492
71.315 17.052841
71.320 17.172676
71.325 17.48564
71.330 18.039385
71.335 18.31131
71.340 19.068707
71.345 18.863188
71.350 18.922762
71.355 18.571712
71.360 18.233759
71.365 17.959347
71.370 17.753529
71.375 17.991982
71.380 18.207611
71.385 17.873442
71.390 17.969761
71.395 17.982813
71.400 18.168512
71.405 17.603861
71.410 16.44459
71.415 16.431612
71.420 16.599058
71.425 16.725101
71.430 16.548426
71.435 16.514992
71.440 17.231077
71.445 18.036205
71.450 18.241764
71.455 18.707457
71.460 19.63397
71.465 20.000637
71.470 20.21743
71.475 19.686619
71.480 18.874428
71.485 18.190201
71.490 17.278454
71.495 16.817619
71.500 16.466158
71.505 15.892537
71.510 16.361561
71.515 17.265396
71.520 17.583975
71.525 17.467279
71.530 16.995956
71.535 16.733192
71.540 16.635801
71.545 16.590044
71.550 16.29808
71.555 16.404465
71.560 16.491371
71.565 16.785152
71.570 16.563272
71.575 16.53232
71.580 16.253757
71.585 15.937296
71.590 15.625143
71.595 15.556602
71.600 15.745863
71.605 16.289963
71.610 16.516695
71.615 15.933505
71.620 16.220778
71.625 15.676624
71.630 15.473634
71.635 15.446754
71.640 14.971979
71.645 15.443156
71.650 15.236191
71.655 14.78948
71.660 15.44679
71.665 15.605027
71.670 16.004477
71.675 15.881346
71.680 15.622781
71.685 16.209351
71.690 16.358788
71.695 16.504726
71.700 16.594622
71.705 16.705347
71.710 16.937643
71.715 17.595585
71.720 17.745029
71.725 17.547825
71.730 17.957066
71.735 17.9597
71.740 17.479879
71.745 17.54339
71.750 17.581915
71.755 17.477617
71.760 17.335011
71.765 16.641973
71.770 16.244785
71.775 15.996735
71.780 15.569804
71.785 14.909956
71.790 14.674056
71.795 14.874431
71.800 15.303384
71.805 15.967973
71.810 16.256895
71.815 16.460579
71.820 16.710384
71.825 16.706837
71.830 16.588646
71.835 16.239037
71.840 15.843353
71.845 15.306443
71.850 15.158458
71.855 15.575123
71.860 16.148315
71.865 16.160978
71.870 16.393255
71.875 17.084488
71.880 17.227436
71.885 17.266083
71.890 16.947014
71.895 16.812828
71.900 16.803631
71.905 16.807377
71.910 16.933624
71.915 17.136415
71.920 17.452503
71.925 17.72472
71.930 17.623222
71.935 17.469099
71.940 17.499004
71.945 17.679724
71.950 17.833233
71.955 17.547379
71.960 17.034483
71.965 17.169392
71.970 17.390913
71.975 16.825687
71.980 16.554298
71.985 16.04775
71.990 16.087988
71.995 16.428213
72.000 15.92873
72.005 15.312295
72.010 15.259802
72.015 15.1394
72.020 15.525353
72.025 15.777093
72.030 15.769571
72.035 16.352924
72.040 17.15465
72.045 17.423927
72.050 18.097383
72.055 17.703548
72.060 17.790194
72.065 17.52268
72.070 17.389944
72.075 17.683945
72.080 18.282131
72.085 18.021807
72.090 18.060095
72.095 17.866108
72.100 17.910513
72.105 17.696945
72.110 16.397856
72.115 15.460049
72.120 15.593011
72.125 15.403066
72.130 15.501349
72.135 15.804903
72.140 16.002392
72.145 16.322353
72.150 16.202534
72.155 16.169191
72.160 16.477858
72.165 16.17314
72.170 16.01849
72.175 15.620204
72.180 15.36328
72.185 15.557696
72.190 15.766441
72.195 16.003101
72.200 16.20211
72.205 16.590477
72.210 16.859699
72.215 17.569761
72.220 17.873547
72.225 17.413145
72.230 17.201069
72.235 17.127699
72.240 16.65461
72.245 16.958817
72.250 15.99825
72.255 15.70895
72.260 15.856368
72.265 16.059757
72.270 15.911616
72.275 16.586037
72.280 16.707378
72.285 17.502214
72.290 17.634716
72.295 17.88925
72.300 17.773418
72.305 17.633055
72.310 17.409521
72.315 17.371094
72.320 16.840137
72.325 16.808849
72.330 16.787073
72.335 17.397667
72.340 17.74349
72.345 17.576176
72.350 17.515388
72.355 17.509417
72.360 17.190615
72.365 16.946671
72.370 16.15657
72.375 15.717953
72.380 16.064947
72.385 16.116331
72.390 15.813041
72.395 15.990972
72.400 16.323208
72.405 16.747942
72.410 16.791721
72.415 16.782532
72.420 17.36516
72.425 17.398861
72.430 17.532822
72.435 17.278753
72.440 17.193317
72.445 17.141268
72.450 16.757172
72.455 16.336477
72.460 16.640831
72.465 16.315382
72.470 16.47319
72.475 16.570257
72.480 16.640371
72.485 16.605137
72.490 16.566704
72.495 17.001444
72.500 17.152197
72.505 17.57934
72.510 17.138594
72.515 17.249395
72.520 17.341377
72.525 17.855124
72.530 18.052652
72.535 17.792229
72.540 17.714916
72.545 17.797995
72.550 18.24073
72.555 18.838877
72.560 18.276936
72.565 17.48568
72.570 17.412502
72.575 17.55938
72.580 17.507246
72.585 16.758562
72.590 16.242802
72.595 16.591499
72.600 16.560259
72.605 16.667311
72.610 16.731256
72.615 16.895994
72.620 17.779907
72.625 17.839069
72.630 17.774837
72.635 18.421515
72.640 17.917667
72.645 18.299953
72.650 17.831247
72.655 17.565609
72.660 17.868347
72.665 17.757406
72.670 17.159092
72.675 16.756176
72.680 16.2731
72.685 16.35877
72.690 16.500206
72.695 16.099552
72.700 15.547232
72.705 16.034664
72.710 16.204823
72.715 15.957685
72.720 15.798991
72.725 15.201894
72.730 15.382036
72.735 15.530542
72.740 15.376652
72.745 15.699256
72.750 15.657263
72.755 14.689301
72.760 14.611649
72.765 15.157337
72.770 15.011728
72.775 15.281041
72.780 15.731825
72.785 16.427139
72.790 17.111666
72.795 17.118484
72.800 17.018837
72.805 16.939705
72.810 16.507742
72.815 16.10634
72.820 15.794106
72.825 15.502503
72.830 15.519701
72.835 15.759516
72.840 16.041039
72.845 15.979974
72.850 15.95838
72.855 16.477345
72.860 16.686331
72.865 16.297781
72.870 16.370296
72.875 16.137007
72.880 16.345947
72.885 15.859401
72.890 15.59511
72.895 15.569518
72.900 15.912224
72.905 15.662306
72.910 15.940043
72.915 15.925741
72.920 16.195448
72.925 15.879453
72.930 15.13379
72.935 14.722971
72.940 14.916234
72.945 15.363848
72.950 15.86374
72.955 15.783929
72.960 16.16214
72.965 16.333843
72.970 16.338335
72.975 16.046288
72.980 15.294181
72.985 15.052587
72.990 15.543779
72.995 15.719916
73.000 16.018
