!@!!GADDS PLOTSO FILE: Chi integration type
!@!!Title/SampleName: map-4e
!@!!Comment: ?
!@!!User: Bruker Instrument Administrator
!@!!Site: University of Illinois Chicago
!@!!Frame: map-4e_01_000.gfrm
!@!!Wavelengths    1.54184   1.54056   1.54439
!@!!Frame angles: 2Theta: 63.000 Omega: 50.000 Phi: 0.000 Chi: 90.000
!@!!Integration range: 2Theta: 53.000 to 73.000  Gamma: -105.000 to -75.000
!@!!Integration method: bin normalized
!@!N
!@!SS
!@!M
!@!L 0.0 0.0 0.0 0.0
!@!XDegrees
!@!YCounts
53.000 11.190854
53.005 10.887076
53.010 10.678281
53.015 10.494855
53.020 10.237599
53.025 10.25266
53.030 10.008523
53.035 9.994776
53.040 10.208556
53.045 10.451679
53.050 10.940977
53.055 11.010252
53.060 10.764993
53.065 10.196514
53.070 9.555445
53.075 8.988395
53.080 8.863873
53.085 8.985723
53.090 8.964165
53.095 8.993009
53.100 9.460825
53.105 9.742235
53.110 9.654324
53.115 9.757774
53.120 9.984733
53.125 10.279113
53.130 10.586796
53.135 10.486774
53.140 10.696358
53.145 10.737543
53.150 10.517817
53.155 10.359686
53.160 10.3107
53.165 10.179096
53.170 10.595276
53.175 10.920755
53.180 10.616138
53.185 10.429786
53.190 10.60614
53.195 10.474823
53.200 10.142734
53.205 10.143907
53.210 10.109395
53.215 10.291235
53.220 10.018374
53.225 10.243012
53.230 10.139778
53.235 10.152232
53.240 9.815564
53.245 10.048304
53.250 10.377008
53.255 10.316844
53.260 10.228494
53.265 10.412303
53.270 10.602412
53.275 10.761324
53.280 11.086676
53.285 11.563362
53.290 11.777134
53.295 11.835799
53.300 11.953994
53.305 11.725028
53.310 11.656686
53.315 11.098013
53.320 10.342052
53.325 10.256788
53.330 10.271
53.335 10.055105
53.340 10.171468
53.345 10.372561
53.350 10.722834
53.355 11.11043
53.360 11.333033
53.365 11.590326
53.370 12.068948
53.375 11.843925
53.380 11.692312
53.385 11.585602
53.390 11.347267
53.395 10.983185
53.400 10.847907
53.405 10.660464
53.410 10.550565
53.415 10.339569
53.420 10.698927
53.425 10.750857
53.430 10.845322
53.435 10.797079
53.440 10.6832
53.445 10.597244
53.450 10.497648
53.455 10.278794
53.460 10.045784
53.465 10.372911
53.470 10.470462
53.475 10.780807
53.480 10.976048
53.485 10.828555
53.490 10.708445
53.495 10.676298
53.500 10.760826
53.505 10.611271
53.510 10.285937
53.515 10.145524
53.520 10.165672
53.525 10.354814
53.530 9.794375
53.535 9.680263
53.540 10.237728
53.545 10.228435
53.550 10.277965
53.555 10.293909
53.560 10.514832
53.565 10.650061
53.570 10.431493
53.575 10.115049
53.580 10.312916
53.585 10.756489
53.590 10.910847
53.595 11.257633
53.600 11.502884
53.605 11.510941
53.610 11.879043
53.615 11.669537
53.620 11.279151
53.625 10.924232
53.630 10.731844
53.635 10.516344
53.640 10.588109
53.645 10.466201
53.650 10.310187
53.655 10.474688
53.660 10.596798
53.665 11.069306
53.670 11.479116
53.675 11.52859
53.680 11.569026
53.685 11.607391
53.690 11.656073
53.695 11.410748
53.700 11.190412
53.705 10.882167
53.710 10.295798
53.715 10.376765
53.720 10.469026
53.725 10.52094
53.730 11.022331
53.735 10.694746
53.740 10.859884
53.745 11.434529
53.750 11.46921
53.755 11.429098
53.760 11.184739
53.765 10.966202
53.770 11.186213
53.775 11.30185
53.780 11.261721
53.785 11.20412
53.790 11.496861
53.795 11.96063
53.800 11.65697
53.805 11.552021
53.810 11.307034
53.815 11.110854
53.820 11.426636
53.825 11.212136
53.830 10.990979
53.835 11.400599
53.840 11.519605
53.845 12.053167
53.850 12.38403
53.855 12.609821
53.860 13.033111
53.865 12.687291
53.870 12.537579
53.875 12.608323
53.880 12.549203
53.885 12.448628
53.890 12.091745
53.895 12.06487
53.900 12.253862
53.905 12.330396
53.910 12.044374
53.915 12.239666
53.920 12.227264
53.925 12.063571
53.930 12.013107
53.935 11.997529
53.940 11.525362
53.945 11.435879
53.950 11.208549
53.955 11.448148
53.960 11.374305
53.965 11.300603
53.970 11.013426
53.975 11.105927
53.980 10.574187
53.985 9.939319
53.990 10.140823
53.995 10.324891
54.000 10.602921
54.005 11.600102
54.010 12.217634
54.015 12.626182
54.020 12.60643
54.025 12.454253
54.030 12.49101
54.035 12.271048
54.040 11.5636
54.045 11.41734
54.050 11.574079
54.055 11.451143
54.060 10.846749
54.065 10.122403
54.070 10.657072
54.075 10.650277
54.080 10.56571
54.085 10.622106
54.090 10.946001
54.095 11.50305
54.100 12.203956
54.105 11.803378
54.110 11.83203
54.115 11.831162
54.120 11.75517
54.125 11.855895
54.130 11.98274
54.135 11.285134
54.140 11.284972
54.145 11.064015
54.150 11.017537
54.155 10.954134
54.160 10.723414
54.165 10.124964
54.170 10.578896
54.175 10.812661
54.180 11.133539
54.185 11.048059
54.190 10.818791
54.195 11.094948
54.200 11.476171
54.205 11.465842
54.210 11.55348
54.215 11.689013
54.220 12.056
54.225 12.260335
54.230 12.106284
54.235 12.188426
54.240 11.737391
54.245 11.307849
54.250 11.15923
54.255 11.098207
54.260 10.903924
54.265 10.901702
54.270 10.952404
54.275 10.669835
54.280 11.020828
54.285 10.932202
54.290 10.892687
54.295 10.895811
54.300 11.062257
54.305 11.527817
54.310 12.085682
54.315 11.67352
54.320 12.048296
54.325 12.397881
54.330 12.774076
54.335 12.758769
54.340 12.3657
54.345 12.646815
54.350 13.067551
54.355 12.895844
54.360 12.700794
54.365 12.187146
54.370 11.987112
54.375 11.780737
54.380 11.780468
54.385 11.581734
54.390 11.204606
54.395 11.045133
54.400 11.153817
54.405 11.133484
54.410 10.940241
54.415 11.237499
54.420 11.604935
54.425 11.619348
54.430 11.979955
54.435 12.058073
54.440 12.518978
54.445 12.817419
54.450 12.413585
54.455 12.194294
54.460 12.310745
54.465 12.18884
54.470 11.926507
54.475 11.821408
54.480 11.855777
54.485 12.153734
54.490 12.462878
54.495 12.140035
54.500 11.904283
54.505 12.12233
54.510 11.988434
54.515 11.297284
54.520 10.619274
54.525 10.296378
54.530 10.397135
54.535 10.529289
54.540 10.759089
54.545 11.253623
54.550 11.562531
54.555 11.840026
54.560 12.381438
54.565 12.920012
54.570 12.856603
54.575 12.259531
54.580 12.060833
54.585 12.214858
54.590 11.835207
54.595 11.536016
54.600 11.32434
54.605 11.08713
54.610 11.116152
54.615 10.758934
54.620 10.847757
54.625 10.983228
54.630 11.042297
54.635 10.941916
54.640 11.173222
54.645 11.00187
54.650 11.026363
54.655 11.116865
54.660 11.257447
54.665 11.308068
54.670 11.470264
54.675 11.816919
54.680 11.898765
54.685 11.450483
54.690 11.601978
54.695 11.387836
54.700 11.209328
54.705 11.073623
54.710 10.792243
54.715 10.960015
54.720 11.093898
54.725 10.892045
54.730 10.941926
54.735 11.048549
54.740 11.416539
54.745 11.786737
54.750 11.779305
54.755 11.873753
54.760 12.039634
54.765 12.21288
54.770 12.112227
54.775 11.782783
54.780 12.077711
54.785 12.63995
54.790 12.870739
54.795 12.688794
54.800 12.994772
54.805 13.388226
54.810 13.416843
54.815 12.722642
54.820 12.411844
54.825 12.320372
54.830 12.293301
54.835 12.100571
54.840 11.597495
54.845 11.312826
54.850 11.735828
54.855 12.064303
54.860 12.183896
54.865 11.891636
54.870 11.579811
54.875 11.75267
54.880 12.357802
54.885 12.302348
54.890 12.096055
54.895 12.217474
54.900 12.284251
54.905 12.581016
54.910 12.538521
54.915 12.147856
54.920 11.662626
54.925 11.764347
54.930 11.656309
54.935 11.634348
54.940 11.001644
54.945 10.819983
54.950 11.715855
54.955 12.000909
54.960 11.648224
54.965 11.275032
54.970 11.207238
54.975 11.500659
54.980 11.839925
54.985 11.252013
54.990 11.40939
54.995 11.543245
55.000 11.88876
55.005 11.98323
55.010 11.866649
55.015 11.149144
55.020 10.671309
55.025 10.598183
55.030 11.255425
55.035 11.978673
55.040 12.28615
55.045 12.477902
55.050 12.454811
55.055 12.818272
55.060 12.407767
55.065 11.406333
55.070 11.187783
55.075 11.149838
55.080 11.339763
55.085 11.722986
55.090 11.375824
55.095 11.350345
55.100 11.566453
55.105 11.199991
55.110 11.008276
55.115 10.935898
55.120 10.337504
55.125 10.772874
55.130 10.721733
55.135 10.648164
55.140 10.521104
55.145 10.203415
55.150 10.623558
55.155 10.809832
55.160 10.958054
55.165 11.138034
55.170 11.2584
55.175 11.844053
55.180 12.184154
55.185 12.130415
55.190 12.1114
55.195 11.52127
55.200 11.424908
55.205 11.302992
55.210 10.67001
55.215 10.254752
55.220 10.223162
55.225 10.82997
55.230 11.222413
55.235 12.266373
55.240 12.491289
55.245 13.022791
55.250 13.315786
55.255 12.885792
55.260 12.528327
55.265 12.601933
55.270 11.65736
55.275 11.486267
55.280 11.265598
55.285 11.255405
55.290 12.036486
55.295 12.545588
55.300 12.380677
55.305 12.711767
55.310 12.819156
55.315 13.016088
55.320 13.113859
55.325 12.99363
55.330 12.481212
55.335 12.505757
55.340 12.171561
55.345 12.008508
55.350 11.994451
55.355 11.936427
55.360 11.849921
55.365 11.591491
55.370 11.331099
55.375 11.305507
55.380 11.064051
55.385 11.025687
55.390 11.244711
55.395 11.170714
55.400 11.262742
55.405 11.267615
55.410 11.401274
55.415 11.893665
55.420 11.580609
55.425 11.088289
55.430 11.389306
55.435 11.794495
55.440 12.458929
55.445 12.680605
55.450 12.91631
55.455 13.014138
55.460 13.316236
55.465 13.353086
55.470 13.174417
55.475 13.146369
55.480 13.04219
55.485 12.721898
55.490 12.760785
55.495 12.811118
55.500 12.60673
55.505 12.828028
55.510 12.829273
55.515 13.030695
55.520 13.410855
55.525 13.372482
55.530 13.011145
55.535 13.500017
55.540 13.127851
55.545 12.976209
55.550 12.425499
55.555 12.283122
55.560 12.31248
55.565 12.339023
55.570 11.919951
55.575 11.66513
55.580 11.68075
55.585 11.952668
55.590 12.666246
55.595 13.164871
55.600 13.433496
55.605 13.393041
55.610 13.579677
55.615 13.796836
55.620 14.116989
55.625 13.643872
55.630 13.578395
55.635 13.643793
55.640 13.9123
55.645 14.209076
55.650 14.579567
55.655 14.194969
55.660 14.032316
55.665 14.027891
55.670 14.019549
55.675 13.648491
55.680 13.181306
55.685 12.829706
55.690 12.888254
55.695 13.211987
55.700 12.531673
55.705 12.201564
55.710 11.855091
55.715 11.808615
55.720 11.693418
55.725 11.497726
55.730 11.391762
55.735 11.871163
55.740 12.075222
55.745 12.410932
55.750 12.452628
55.755 12.756279
55.760 12.859349
55.765 12.617301
55.770 12.48058
55.775 12.93321
55.780 13.015553
55.785 13.165051
55.790 13.214971
55.795 13.285994
55.800 13.376742
55.805 13.621767
55.810 13.208841
55.815 13.557047
55.820 13.743423
55.825 13.521226
55.830 13.431095
55.835 13.308505
55.840 12.896268
55.845 13.503948
55.850 12.988596
55.855 12.624489
55.860 12.491687
55.865 12.575047
55.870 12.46648
55.875 12.631334
55.880 12.416155
55.885 12.916049
55.890 12.863119
55.895 12.692307
55.900 12.751763
55.905 12.469362
55.910 12.335397
55.915 12.301751
55.920 12.200179
55.925 12.729021
55.930 13.099675
55.935 13.713968
55.940 14.799089
55.945 15.206688
55.950 15.110831
55.955 15.316692
55.960 14.959734
55.965 14.710095
55.970 13.73441
55.975 12.924014
55.980 12.503839
55.985 12.427115
55.990 11.734765
55.995 11.916387
56.000 12.066179
56.005 12.553948
56.010 12.705944
56.015 12.615105
56.020 12.247847
56.025 12.537254
56.030 12.541297
56.035 12.363529
56.040 12.389001
56.045 12.531564
56.050 12.487704
56.055 13.185895
56.060 13.21888
56.065 13.101726
56.070 13.280569
56.075 13.622384
56.080 14.122654
56.085 14.246002
56.090 13.586302
56.095 12.993179
56.100 13.01143
56.105 12.791183
56.110 12.858332
56.115 12.542861
56.120 12.927609
56.125 13.502982
56.130 13.841382
56.135 13.670628
56.140 13.800014
56.145 13.31116
56.150 13.632045
56.155 13.049667
56.160 12.678416
56.165 12.846352
56.170 13.275896
56.175 13.010427
56.180 13.097452
56.185 13.047066
56.190 13.512439
56.195 13.66061
56.200 14.101397
56.205 13.843027
56.210 14.069951
56.215 14.529919
56.220 14.015644
56.225 14.255449
56.230 14.468606
56.235 14.670117
56.240 15.36097
56.245 15.226769
56.250 14.744159
56.255 14.946333
56.260 15.038543
56.265 15.152969
56.270 14.473402
56.275 14.085203
56.280 14.539431
56.285 14.446989
56.290 14.326498
56.295 14.135373
56.300 13.963429
56.305 13.681254
56.310 13.17447
56.315 12.870864
56.320 13.601958
56.325 13.762845
56.330 13.591407
56.335 13.964161
56.340 14.355133
56.345 14.858448
56.350 14.871801
56.355 14.660288
56.360 14.465888
56.365 14.629768
56.370 14.317138
56.375 14.324287
56.380 13.618685
56.385 13.712192
56.390 13.548308
56.395 13.492282
56.400 13.41751
56.405 13.269916
56.410 13.422976
56.415 13.84038
56.420 13.406992
56.425 13.497744
56.430 14.143683
56.435 13.895337
56.440 13.448581
56.445 13.469204
56.450 13.952061
56.455 14.297374
56.460 14.269941
56.465 13.680229
56.470 14.018325
56.475 14.328596
56.480 13.874852
56.485 13.537019
56.490 13.864455
56.495 14.257874
56.500 14.319972
56.505 14.309276
56.510 14.412669
56.515 14.368073
56.520 14.317347
56.525 14.05468
56.530 13.903334
56.535 14.171932
56.540 14.40017
56.545 14.634091
56.550 14.868178
56.555 14.64828
56.560 14.43074
56.565 13.930939
56.570 13.978377
56.575 13.694311
56.580 13.667976
56.585 13.902977
56.590 13.899662
56.595 13.903443
56.600 13.978155
56.605 13.409736
56.610 13.590069
56.615 13.813121
56.620 13.752135
56.625 13.789257
56.630 13.842994
56.635 13.595344
56.640 13.658127
56.645 13.780305
56.650 13.272965
56.655 12.761677
56.660 12.826127
56.665 12.44422
56.670 13.235763
56.675 13.800865
56.680 14.159667
56.685 14.593792
56.690 15.100062
56.695 14.90891
56.700 14.558315
56.705 14.012112
56.710 13.589787
56.715 13.139865
56.720 13.241906
56.725 12.922803
56.730 13.426953
56.735 13.933464
56.740 14.021207
56.745 14.223794
56.750 14.213435
56.755 14.086038
56.760 14.193635
56.765 14.463111
56.770 14.842811
56.775 14.599549
56.780 14.722702
56.785 14.683977
56.790 15.019651
56.795 15.065344
56.800 14.480223
56.805 14.658378
56.810 15.226585
56.815 14.887978
56.820 14.725211
56.825 14.515941
56.830 14.565065
56.835 14.995103
56.840 14.478451
56.845 14.30131
56.850 14.460929
56.855 14.508242
56.860 14.424662
56.865 14.133378
56.870 13.489948
56.875 13.502172
56.880 13.610525
56.885 13.570775
56.890 13.500067
56.895 13.840489
56.900 14.138965
56.905 14.116636
56.910 13.80886
56.915 13.761336
56.920 13.768167
56.925 13.212397
56.930 12.86552
56.935 12.752467
56.940 13.025116
56.945 13.463591
56.950 12.948651
56.955 13.159695
56.960 13.927812
56.965 14.171745
56.970 14.363614
56.975 14.448572
56.980 14.607031
56.985 15.169114
56.990 14.925092
56.995 14.484072
57.000 13.995275
57.005 14.089392
57.010 14.059443
57.015 13.951392
57.020 14.174198
57.025 14.540215
57.030 15.050811
57.035 15.637826
57.040 15.289605
57.045 14.911755
57.050 14.734735
57.055 14.556104
57.060 13.988441
57.065 13.736564
57.070 13.50437
57.075 13.38438
57.080 13.476852
57.085 12.947793
57.090 12.964286
57.095 13.054859
57.100 12.742427
57.105 12.815866
57.110 12.824186
57.115 12.545195
57.120 12.979876
57.125 13.423877
57.130 13.80264
57.135 13.977595
57.140 14.409686
57.145 14.56169
57.150 14.819139
57.155 14.424245
57.160 13.965972
57.165 13.942034
57.170 14.330809
57.175 14.576011
57.180 14.798646
57.185 15.384929
57.190 16.021948
57.195 16.478502
57.200 16.294533
57.205 15.926863
57.210 16.22357
57.215 16.150686
57.220 15.733706
57.225 15.481079
57.230 15.804675
57.235 15.891515
57.240 15.917546
57.245 15.615028
57.250 15.764444
57.255 15.616865
57.260 15.262432
57.265 15.294919
57.270 15.201144
57.275 14.839754
57.280 14.429326
57.285 14.941199
57.290 15.195906
57.295 15.044532
57.300 15.051813
57.305 15.227642
57.310 15.720201
57.315 15.319612
57.320 14.610369
57.325 14.343132
57.330 14.286528
57.335 14.066718
57.340 14.041636
57.345 13.765293
57.350 14.029367
57.355 14.131997
57.360 14.596586
57.365 14.391252
57.370 14.685758
57.375 14.780981
57.380 15.572758
57.385 15.671009
57.390 15.742245
57.395 15.986656
57.400 16.592426
57.405 16.147108
57.410 15.650866
57.415 15.405113
57.420 15.2487
57.425 15.366686
57.430 15.416059
57.435 15.100948
57.440 15.026047
57.445 14.967743
57.450 14.78536
57.455 15.12084
57.460 14.80759
57.465 14.362483
57.470 14.15656
57.475 14.695273
57.480 14.431072
57.485 14.479561
57.490 14.766672
57.495 15.13526
57.500 15.494246
57.505 15.174284
57.510 15.388621
57.515 15.763632
57.520 15.390687
57.525 14.313038
57.530 14.070926
57.535 14.434733
57.540 15.106565
57.545 14.714236
57.550 15.026251
57.555 16.181211
57.560 16.901701
57.565 16.87505
57.570 16.706408
57.575 16.317959
57.580 16.163105
57.585 15.795877
57.590 14.654967
57.595 14.54909
57.600 14.429191
57.605 14.298765
57.610 14.10921
57.615 14.401453
57.620 14.871197
57.625 15.047166
57.630 14.724566
57.635 14.984167
57.640 15.201586
57.645 15.753481
57.650 15.945039
57.655 16.078972
57.660 16.379179
57.665 16.251421
57.670 16.415407
57.675 16.921036
57.680 17.176289
57.685 17.007624
57.690 17.366653
57.695 17.398525
57.700 18.014004
57.705 17.847179
57.710 17.952656
57.715 17.655455
57.720 17.636532
57.725 17.269346
57.730 17.327963
57.735 17.389517
57.740 16.968393
57.745 16.14768
57.750 16.276815
57.755 16.177153
57.760 16.05501
57.765 16.430286
57.770 16.32963
57.775 16.668842
57.780 17.072639
57.785 17.143494
57.790 16.998198
57.795 16.71483
57.800 16.721992
57.805 17.305424
57.810 17.105236
57.815 16.499044
57.820 15.982715
57.825 16.317204
57.830 16.426613
57.835 15.783216
57.840 14.817624
57.845 14.873381
57.850 14.837591
57.855 14.704253
57.860 14.729987
57.865 14.727107
57.870 14.931357
57.875 15.425944
57.880 15.710958
57.885 16.129297
57.890 16.673267
57.895 17.055693
57.900 17.412935
57.905 17.540026
57.910 17.011307
57.915 16.806604
57.920 16.980843
57.925 16.568136
57.930 15.898376
57.935 14.700083
57.940 14.723839
57.945 15.191234
57.950 15.622656
57.955 15.778035
57.960 15.687249
57.965 16.017456
57.970 17.574341
57.975 17.303917
57.980 16.877558
57.985 16.404263
57.990 15.929953
57.995 16.76733
58.000 16.667835
58.005 16.086124
58.010 16.333862
58.015 16.428976
58.020 17.002707
58.025 17.454599
58.030 17.066164
58.035 16.988461
58.040 16.969151
58.045 16.531469
58.050 16.538105
58.055 16.819284
58.060 16.98667
58.065 16.570105
58.070 16.301058
58.075 16.897116
58.080 17.327618
58.085 17.277176
58.090 16.77054
58.095 16.483364
58.100 16.991781
58.105 17.451269
58.110 16.947601
58.115 17.391775
58.120 17.034958
58.125 17.400463
58.130 17.504583
58.135 17.489592
58.140 17.897694
58.145 17.679302
58.150 17.566761
58.155 18.173595
58.160 17.372663
58.165 17.221987
58.170 17.172739
58.175 16.969944
58.180 17.450502
58.185 17.616568
58.190 17.885254
58.195 18.217571
58.200 18.590157
58.205 18.759348
58.210 18.626289
58.215 18.387491
58.220 18.17889
58.225 18.023617
58.230 17.992863
58.235 18.557163
58.240 18.666828
58.245 19.532188
58.250 19.530127
58.255 19.858582
58.260 19.851372
58.265 20.096354
58.270 20.446064
58.275 20.402866
58.280 20.605675
58.285 21.188206
58.290 21.527994
58.295 21.771517
58.300 21.768133
58.305 21.145344
58.310 21.433857
58.315 20.975393
58.320 20.530846
58.325 20.079744
58.330 19.579823
58.335 19.465866
58.340 19.626286
58.345 19.650904
58.350 20.265394
58.355 20.888643
58.360 22.063831
58.365 22.392258
58.370 22.291462
58.375 22.493372
58.380 22.612104
58.385 22.470057
58.390 22.752247
58.395 22.764906
58.400 23.36717
58.405 24.122768
58.410 24.40564
58.415 24.364901
58.420 25.543306
58.425 26.184072
58.430 27.064819
58.435 27.434053
58.440 27.462963
58.445 28.23423
58.450 28.366566
58.455 27.994894
58.460 27.727339
58.465 26.745777
58.470 27.515131
58.475 28.517515
58.480 28.650608
58.485 29.75601
58.490 30.765806
58.495 31.614859
58.500 32.317837
58.505 32.239811
58.510 31.859507
58.515 31.646116
58.520 31.592239
58.525 31.867376
58.530 32.110321
58.535 32.83609
58.540 33.085716
58.545 33.143768
58.550 33.31562
58.555 33.460274
58.560 33.265114
58.565 33.241024
58.570 33.464939
58.575 33.686543
58.580 34.070866
58.585 34.037605
58.590 34.397167
58.595 34.697552
58.600 35.169937
58.605 35.125393
58.610 35.18087
58.615 35.180889
58.620 36.046516
58.625 36.485683
58.630 37.636562
58.635 38.135532
58.640 38.813934
58.645 38.702824
58.650 38.621002
58.655 38.124939
58.660 37.582436
58.665 36.557526
58.670 36.130531
58.675 35.421421
58.680 35.553566
58.685 35.880814
58.690 35.521969
58.695 35.834496
58.700 35.253155
58.705 34.630611
58.710 34.723373
58.715 34.936268
58.720 34.686512
58.725 34.894188
58.730 33.784389
58.735 33.387867
58.740 33.28772
58.745 33.110317
58.750 32.349045
58.755 31.69615
58.760 31.321266
58.765 32.174347
58.770 33.389736
58.775 32.9725
58.780 32.345955
58.785 31.399302
58.790 30.655825
58.795 30.126215
58.800 29.254667
58.805 28.024193
58.810 27.932173
58.815 27.941147
58.820 27.943062
58.825 28.058437
58.830 27.473177
58.835 26.711737
58.840 26.791283
58.845 26.401821
58.850 26.016207
58.855 26.325512
58.860 26.478235
58.865 26.785709
58.870 26.048557
58.875 25.173817
58.880 24.902687
58.885 24.491688
58.890 24.383169
58.895 23.463331
58.900 23.110441
58.905 23.509851
58.910 23.404806
58.915 23.119928
58.920 22.771875
58.925 21.836412
58.930 21.946533
58.935 20.854961
58.940 19.689947
58.945 19.841534
58.950 19.517101
58.955 19.512173
58.960 19.749601
58.965 19.435699
58.970 20.159761
58.975 20.663836
58.980 20.945349
58.985 20.831827
58.990 21.155958
58.995 21.434605
59.000 21.23564
59.005 20.89963
59.010 20.539398
59.015 19.655085
59.020 19.612663
59.025 19.044807
59.030 18.709486
59.035 18.840141
59.040 19.53009
59.045 20.131008
59.050 20.522722
59.055 20.42993
59.060 20.0933
59.065 20.233429
59.070 20.003643
59.075 18.890778
59.080 18.549555
59.085 18.127687
59.090 18.430107
59.095 18.919264
59.100 18.511864
59.105 18.653713
59.110 19.24922
59.115 19.370071
59.120 19.220507
59.125 18.76079
59.130 18.52734
59.135 18.8715
59.140 19.052095
59.145 18.215704
59.150 17.392183
59.155 17.057846
59.160 17.087185
59.165 17.041855
59.170 16.549616
59.175 16.50181
59.180 16.881191
59.185 16.882111
59.190 16.567814
59.195 16.252768
59.200 16.039948
59.205 16.12591
59.210 16.013664
59.215 15.548856
59.220 15.330189
59.225 15.476463
59.230 15.291121
59.235 15.347385
59.240 15.267708
59.245 15.590498
59.250 15.223946
59.255 15.276849
59.260 15.559813
59.265 15.517316
59.270 15.606421
59.275 15.359315
59.280 14.844256
59.285 15.321792
59.290 15.607805
59.295 15.784093
59.300 16.192127
59.305 16.279242
59.310 16.414185
59.315 16.304102
59.320 16.509319
59.325 16.173801
59.330 16.469858
59.335 17.001736
59.340 17.174875
59.345 17.15011
59.350 17.207165
59.355 17.576239
59.360 18.029327
59.365 17.865412
59.370 17.410559
59.375 17.134846
59.380 17.18648
59.385 17.44359
59.390 17.012922
59.395 16.454548
59.400 16.527016
59.405 16.486898
59.410 16.450781
59.415 16.517349
59.420 16.20013
59.425 16.029837
59.430 16.303322
59.435 16.101408
59.440 15.926876
59.445 16.414667
59.450 16.632017
59.455 16.688889
59.460 17.119232
59.465 16.762041
59.470 17.05995
59.475 17.289518
59.480 17.44623
59.485 17.160307
59.490 17.050434
59.495 16.901123
59.500 17.058237
59.505 16.89287
59.510 16.515451
59.515 15.754545
59.520 15.93152
59.525 15.827248
59.530 15.92814
59.535 15.838152
59.540 15.645276
59.545 16.01265
59.550 16.376163
59.555 16.554098
59.560 16.753681
59.565 16.775616
59.570 16.949686
59.575 16.798161
59.580 16.45005
59.585 16.332466
59.590 15.709345
59.595 15.531973
59.600 15.43847
59.605 15.263391
59.610 15.474154
59.615 15.704689
59.620 15.496732
59.625 15.666778
59.630 15.756306
59.635 15.697793
59.640 15.785391
59.645 15.494648
59.650 15.10466
59.655 14.658851
59.660 14.625644
59.665 14.689166
59.670 14.385095
59.675 13.804661
59.680 14.008164
59.685 14.028636
59.690 14.677355
59.695 15.10743
59.700 15.305185
59.705 15.975831
59.710 16.673077
59.715 16.559362
59.720 17.102755
59.725 16.756964
59.730 16.674417
59.735 16.67972
59.740 16.453711
59.745 15.948231
59.750 16.489614
59.755 16.76927
59.760 16.633701
59.765 16.632919
59.770 16.664888
59.775 16.941576
59.780 17.362715
59.785 16.891283
59.790 16.337328
59.795 16.684397
59.800 16.668329
59.805 16.94462
59.810 17.020027
59.815 16.926804
59.820 16.784819
59.825 16.864313
59.830 16.541212
59.835 16.438963
59.840 15.877398
59.845 16.264767
59.850 16.52791
59.855 16.839792
59.860 17.622253
59.865 17.736855
59.870 17.536297
59.875 17.07794
59.880 16.696669
59.885 16.708647
59.890 17.297422
59.895 16.90196
59.900 17.627958
59.905 18.321783
59.910 18.626856
59.915 18.16617
59.920 17.918606
59.925 17.062481
59.930 17.051714
59.935 16.354559
59.940 15.915121
59.945 16.348923
59.950 17.0802
59.955 17.249887
59.960 17.168175
59.965 17.239931
59.970 17.600624
59.975 17.510281
59.980 16.577257
59.985 16.08185
59.990 15.79817
59.995 15.706673
60.000 15.256765
60.005 15.488828
60.010 15.743705
60.015 16.171711
60.020 16.08696
60.025 16.238455
60.030 16.386097
60.035 16.694281
60.040 16.711788
60.045 16.318243
60.050 16.706249
60.055 17.226299
60.060 16.759008
60.065 16.374395
60.070 16.076401
60.075 15.920214
60.080 15.676188
60.085 15.402815
60.090 16.22562
60.095 16.546436
60.100 16.748663
60.105 16.574984
60.110 16.395432
60.115 16.847729
60.120 16.8451
60.125 16.036671
60.130 16.224989
60.135 16.314346
60.140 16.056459
60.145 16.377003
60.150 16.895199
60.155 16.976316
60.160 17.044064
60.165 17.185629
60.170 17.832222
60.175 17.71571
60.180 16.691429
60.185 16.080717
60.190 15.753169
60.195 15.238886
60.200 14.714912
60.205 14.550585
60.210 15.169003
60.215 15.939628
60.220 15.908062
60.225 16.01071
60.230 16.634634
60.235 16.55142
60.240 16.099316
60.245 15.82057
60.250 15.420547
60.255 15.315845
60.260 15.391582
60.265 15.057041
60.270 15.371899
60.275 15.107533
60.280 14.762204
60.285 14.854398
60.290 14.690401
60.295 14.255717
60.300 14.437913
60.305 14.74518
60.310 15.74904
60.315 16.7029
60.320 17.331879
60.325 16.994503
60.330 17.25906
60.335 17.371777
60.340 17.476307
60.345 16.980858
60.350 16.32058
60.355 15.373166
60.360 14.828728
60.365 14.725539
60.370 14.615618
60.375 14.659473
60.380 14.690751
60.385 15.695269
60.390 16.194811
60.395 17.33106
60.400 17.329594
60.405 16.835037
60.410 16.835768
60.415 16.73007
60.420 16.351446
60.425 16.696339
60.430 17.010719
60.435 17.431133
60.440 17.781679
60.445 17.530296
60.450 16.953344
60.455 16.731806
60.460 16.518496
60.465 16.624693
60.470 16.904554
60.475 17.201769
60.480 17.661434
60.485 18.026363
60.490 17.890585
60.495 17.90674
60.500 17.120989
60.505 16.886421
60.510 16.368061
60.515 16.347878
60.520 16.364902
60.525 16.502979
60.530 16.377941
60.535 15.856719
60.540 15.557169
60.545 15.504004
60.550 15.336846
60.555 15.52448
60.560 15.676581
60.565 15.597266
60.570 16.359158
60.575 16.706223
60.580 16.655619
60.585 16.981899
60.590 17.208006
60.595 17.741772
60.600 17.965992
60.605 17.585539
60.610 17.370588
60.615 17.383785
60.620 16.912134
60.625 16.904491
60.630 16.575926
60.635 16.095573
60.640 16.417755
60.645 16.397621
60.650 16.591728
60.655 16.920248
60.660 16.686752
60.665 16.397457
60.670 16.587
60.675 16.555569
60.680 16.762407
60.685 16.458229
60.690 16.095093
60.695 16.20129
60.700 16.272503
60.705 15.807749
60.710 15.24242
60.715 14.367469
60.720 14.244022
60.725 13.994297
60.730 14.012772
60.735 13.932734
60.740 14.500018
60.745 14.788529
60.750 15.939261
60.755 16.241852
60.760 16.427177
60.765 16.920446
60.770 17.551023
60.775 17.787458
60.780 17.64395
60.785 17.058655
60.790 16.770878
60.795 16.741316
60.800 15.639381
60.805 15.043874
60.810 15.441803
60.815 15.445183
60.820 15.156199
60.825 15.902721
60.830 16.324253
60.835 17.381437
60.840 17.464603
60.845 17.123451
60.850 17.58074
60.855 17.743834
60.860 17.265659
60.865 16.313681
60.870 15.940843
60.875 16.315002
60.880 16.540966
60.885 15.85624
60.890 15.96199
60.895 16.064552
60.900 16.728954
60.905 16.569155
60.910 15.917039
60.915 15.485913
60.920 16.126558
60.925 16.235838
60.930 16.041811
60.935 15.902641
60.940 16.306219
60.945 16.416903
60.950 16.844286
60.955 16.667322
60.960 16.295336
60.965 16.853315
60.970 16.789417
60.975 16.187555
60.980 15.81574
60.985 15.198577
60.990 14.865212
60.995 15.353739
61.000 15.452315
61.005 15.247714
61.010 15.965611
61.015 16.293016
61.020 16.576014
61.025 16.840469
61.030 16.494879
61.035 15.793961
61.040 15.968994
61.045 15.440401
61.050 15.415095
61.055 15.298913
61.060 15.853444
61.065 16.077639
61.070 16.409613
61.075 16.607855
61.080 16.933727
61.085 16.618038
61.090 16.608997
61.095 16.182497
61.100 15.807794
61.105 15.72429
61.110 15.599509
61.115 16.142105
61.120 16.356287
61.125 16.431273
61.130 16.461075
61.135 16.250122
61.140 15.794379
61.145 15.212572
61.150 14.347637
61.155 14.305456
61.160 14.258847
61.165 14.64093
61.170 15.360952
61.175 15.538308
61.180 15.550245
61.185 15.87878
61.190 15.888308
61.195 16.27029
61.200 16.455463
61.205 16.03796
61.210 15.983685
61.215 15.960567
61.220 16.160948
61.225 17.073265
61.230 17.426767
61.235 16.928698
61.240 17.499439
61.245 18.570795
61.250 19.369308
61.255 19.237358
61.260 18.782942
61.265 18.930912
61.270 19.116623
61.275 18.666775
61.280 18.407009
61.285 17.922907
61.290 17.748167
61.295 17.320984
61.300 16.862236
61.305 17.094875
61.310 16.954062
61.315 16.59964
61.320 16.570814
61.325 16.430063
61.330 16.349121
61.335 16.329596
61.340 16.854591
61.345 17.420593
61.350 17.564625
61.355 17.656385
61.360 17.431248
61.365 17.216578
61.370 17.102507
61.375 16.675776
61.380 16.883259
61.385 17.326088
61.390 17.445997
61.395 18.081215
61.400 18.734825
61.405 18.640577
61.410 18.210569
61.415 17.32539
61.420 17.273357
61.425 17.286806
61.430 16.873932
61.435 16.845551
61.440 17.265661
61.445 17.502237
61.450 18.116159
61.455 17.739811
61.460 17.439375
61.465 17.687077
61.470 17.402191
61.475 17.29364
61.480 17.469019
61.485 17.12969
61.490 16.557165
61.495 16.775421
61.500 16.105124
61.505 15.262709
61.510 14.051096
61.515 13.66207
61.520 13.718749
61.525 13.857465
61.530 14.306893
61.535 14.9687
61.540 15.500127
61.545 16.146173
61.550 16.039389
61.555 16.262293
61.560 16.028614
61.565 15.514498
61.570 15.221945
61.575 15.352959
61.580 15.783152
61.585 15.937016
61.590 15.82339
61.595 16.098202
61.600 16.342617
61.605 16.758974
61.610 16.624201
61.615 16.512911
61.620 16.481709
61.625 16.545122
61.630 16.618658
61.635 16.400702
61.640 16.401855
61.645 16.246323
61.650 15.731468
61.655 16.559494
61.660 16.863997
61.665 16.71566
61.670 16.997684
61.675 17.208305
61.680 17.40411
61.685 17.248842
61.690 16.091185
61.695 16.221394
61.700 16.548227
61.705 16.583986
61.710 16.684475
61.715 17.069084
61.720 17.613434
61.725 17.740955
61.730 17.149158
61.735 17.017887
61.740 16.889212
61.745 17.238503
61.750 17.273619
61.755 17.074089
61.760 17.417023
61.765 17.791273
61.770 17.960384
61.775 18.377796
61.780 17.749676
61.785 17.405819
61.790 17.537542
61.795 17.675827
61.800 17.553137
61.805 17.503181
61.810 17.535162
61.815 17.473537
61.820 17.967815
61.825 18.646553
61.830 18.957848
61.835 19.554037
61.840 19.236841
61.845 18.811256
61.850 19.149555
61.855 18.721373
61.860 17.867834
61.865 17.640289
61.870 17.335007
61.875 17.838572
61.880 17.954678
61.885 17.935671
61.890 18.126301
61.895 18.472885
61.900 18.725885
61.905 19.05162
61.910 19.164965
61.915 19.410683
61.920 19.702049
61.925 19.665653
61.930 19.063793
61.935 18.609531
61.940 18.383274
61.945 18.020781
61.950 17.855797
61.955 17.460882
61.960 17.843824
61.965 18.126245
61.970 17.806307
61.975 17.388147
61.980 16.873837
61.985 16.426294
61.990 15.644499
61.995 15.477518
62.000 15.722047
62.005 15.953856
62.010 16.056078
62.015 16.494108
62.020 16.796171
62.025 17.078981
62.030 16.874523
62.035 16.581038
62.040 16.697876
62.045 16.521099
62.050 16.363926
62.055 16.602293
62.060 17.10194
62.065 17.303173
62.070 17.550642
62.075 17.869238
62.080 18.617226
62.085 19.009115
62.090 18.949411
62.095 18.711773
62.100 18.730455
62.105 18.760857
62.110 18.988457
62.115 18.574408
62.120 18.32497
62.125 18.791533
62.130 18.528053
62.135 17.948542
62.140 17.553099
62.145 16.926264
62.150 16.500784
62.155 16.555779
62.160 16.555084
62.165 17.284508
62.170 18.289635
62.175 18.87742
62.180 19.307041
62.185 19.495735
62.190 19.186991
62.195 18.857079
62.200 18.313759
62.205 17.664022
62.210 17.013363
62.215 16.376385
62.220 16.254133
62.225 16.300371
62.230 16.395813
62.235 16.229033
62.240 16.199148
62.245 16.293447
62.250 16.039055
62.255 16.417152
62.260 16.619997
62.265 16.611168
62.270 16.92453
62.275 17.190363
62.280 17.13866
62.285 17.302689
62.290 16.796579
62.295 16.597502
62.300 16.856672
62.305 16.618353
62.310 16.400879
62.315 17.060045
62.320 17.980494
62.325 18.270424
62.330 17.728374
62.335 16.914734
62.340 16.716368
62.345 16.883942
62.350 16.427971
62.355 15.918073
62.360 16.046955
62.365 16.81929
62.370 17.151031
62.375 17.490675
62.380 17.30908
62.385 17.552752
62.390 18.075111
62.395 18.430248
62.400 18.708654
62.405 18.946476
62.410 18.561666
62.415 18.623182
62.420 18.64039
62.425 18.254549
62.430 18.030436
62.435 17.619835
62.440 17.590704
62.445 17.977154
62.450 18.599438
62.455 18.322199
62.460 17.684961
62.465 17.809311
62.470 17.959478
62.475 18.111307
62.480 18.516626
62.485 17.694269
62.490 17.536915
62.495 18.230591
62.500 18.331989
62.505 18.475037
62.510 18.166359
62.515 17.742443
62.520 18.090733
62.525 17.665457
62.530 16.966061
62.535 16.438923
62.540 16.279562
62.545 16.312622
62.550 15.585719
62.555 15.471964
62.560 15.819134
62.565 15.783122
62.570 15.501933
62.575 15.282935
62.580 15.605652
62.585 15.836039
62.590 16.047615
62.595 16.256927
62.600 16.8116
62.605 16.996063
62.610 16.546139
62.615 16.193836
62.620 16.934153
62.625 16.533386
62.630 16.251165
62.635 15.993979
62.640 16.224764
62.645 16.461124
62.650 16.643982
62.655 16.070684
62.660 16.589266
62.665 16.434742
62.670 16.277191
62.675 16.060547
62.680 16.29483
62.685 16.301859
62.690 16.977779
62.695 16.918116
62.700 16.734306
62.705 16.510702
62.710 16.395948
62.715 16.266142
62.720 16.769785
62.725 16.314808
62.730 16.493126
62.735 17.128868
62.740 17.622442
62.745 17.816183
62.750 18.27013
62.755 17.862194
62.760 17.950989
62.765 18.152514
62.770 18.320814
62.775 17.837376
62.780 17.490942
62.785 16.883369
62.790 16.982372
62.795 16.555235
62.800 16.282269
62.805 15.962453
62.810 16.365351
62.815 16.592821
62.820 16.929338
62.825 17.45244
62.830 18.342293
62.835 18.064465
62.840 17.824694
62.845 17.565458
62.850 17.373669
62.855 17.015387
62.860 16.466888
62.865 16.451902
62.870 17.308662
62.875 18.241032
62.880 18.575605
62.885 19.375725
62.890 19.200109
62.895 18.81938
62.900 18.609871
62.905 17.581436
62.910 17.381956
62.915 17.464373
62.920 16.90144
62.925 17.23266
62.930 17.28553
62.935 17.329378
62.940 18.074673
62.945 17.755478
62.950 17.664694
62.955 17.499981
62.960 17.296558
62.965 17.276167
62.970 17.641418
62.975 17.907391
62.980 17.943735
62.985 17.997427
62.990 18.705261
62.995 19.228128
63.000 19.642387
63.005 18.889511
63.010 18.645294
63.015 18.556889
63.020 18.153545
63.025 17.734434
63.030 16.940256
63.035 17.211639
63.040 18.154385
63.045 18.206856
63.050 19.041229
63.055 19.714491
63.060 19.52574
63.065 19.449387
63.070 19.065001
63.075 18.317747
63.080 18.20952
63.085 17.509447
63.090 17.013269
63.095 17.136631
63.100 17.362122
63.105 16.5928
63.110 16.44062
63.115 16.558144
63.120 16.34836
63.125 16.477123
63.130 16.575258
63.135 16.53516
63.140 17.30592
63.145 17.061609
63.150 16.946274
63.155 17.326933
63.160 17.716959
63.165 18.221216
63.170 18.562063
63.175 18.233072
63.180 18.429649
63.185 18.364107
63.190 18.318029
63.195 17.776251
63.200 17.670429
63.205 17.880936
63.210 18.200237
63.215 18.885504
63.220 18.516325
63.225 18.35759
63.230 18.661959
63.235 18.462202
63.240 17.993113
63.245 17.98102
63.250 17.65435
63.255 18.463039
63.260 18.876686
63.265 19.15411
63.270 19.092056
63.275 19.194813
63.280 19.203568
63.285 19.03816
63.290 18.926224
63.295 18.671768
63.300 18.752338
63.305 18.866455
63.310 19.184113
63.315 19.528984
63.320 19.317808
63.325 19.203413
63.330 19.074396
63.335 18.512949
63.340 18.497828
63.345 18.135162
63.350 18.245733
63.355 18.244755
63.360 18.264221
63.365 18.386095
63.370 18.417246
63.375 18.085169
63.380 18.041012
63.385 17.508753
63.390 17.63036
63.395 17.85146
63.400 18.20454
63.405 18.310947
63.410 18.584944
63.415 18.378265
63.420 18.452871
63.425 18.743683
63.430 19.074793
63.435 19.188898
63.440 19.569429
63.445 19.908682
63.450 20.096516
63.455 19.257465
63.460 19.032745
63.465 18.427841
63.470 17.561014
63.475 17.305593
63.480 16.791889
63.485 16.788603
63.490 17.745394
63.495 17.721458
63.500 17.897465
63.505 18.132904
63.510 18.05755
63.515 18.225986
63.520 18.348959
63.525 18.228474
63.530 18.035524
63.535 18.108852
63.540 18.185221
63.545 18.342119
63.550 18.386814
63.555 18.58856
63.560 19.022915
63.565 19.310024
63.570 19.407854
63.575 19.977825
63.580 20.239477
63.585 20.36738
63.590 20.063866
63.595 20.048101
63.600 20.078421
63.605 19.701284
63.610 18.765587
63.615 18.31843
63.620 18.133774
63.625 18.030687
63.630 17.808691
63.635 17.860174
63.640 18.016401
63.645 18.058228
63.650 18.806795
63.655 19.388783
63.660 19.339361
63.665 18.957458
63.670 18.75276
63.675 19.725088
63.680 20.769169
63.685 20.82267
63.690 20.396721
63.695 20.838167
63.700 21.869543
63.705 21.968073
63.710 21.544643
63.715 21.096544
63.720 20.624176
63.725 20.479158
63.730 20.351698
63.735 19.050098
63.740 18.712589
63.745 18.614805
63.750 18.288313
63.755 18.128109
63.760 18.295752
63.765 18.22578
63.770 19.016836
63.775 19.463678
63.780 19.847183
63.785 20.354549
63.790 20.579588
63.795 20.756638
63.800 20.833101
63.805 20.927034
63.810 21.184322
63.815 20.520388
63.820 20.096775
63.825 20.388027
63.830 20.633177
63.835 20.468065
63.840 19.808239
63.845 19.37627
63.850 19.434584
63.855 19.966106
63.860 20.259899
63.865 20.809153
63.870 21.203363
63.875 21.809177
63.880 21.846088
63.885 22.206261
63.890 22.311192
63.895 21.998608
63.900 21.602196
63.905 21.430239
63.910 21.261431
63.915 21.266169
63.920 20.979929
63.925 21.106001
63.930 21.354704
63.935 21.226385
63.940 21.410536
63.945 21.44537
63.950 21.647774
63.955 21.725849
63.960 21.483047
63.965 21.115376
63.970 21.160704
63.975 21.291859
63.980 22.105688
63.985 22.63777
63.990 22.657333
63.995 22.476236
64.000 22.858902
64.005 23.765017
64.010 24.467438
64.015 24.833305
64.020 25.320265
64.025 26.237877
64.030 26.747116
64.035 27.166214
64.040 26.981377
64.045 27.211338
64.050 27.675562
64.055 27.226652
64.060 27.692528
64.065 28.510353
64.070 28.253407
64.075 27.523468
64.080 27.189354
64.085 27.395372
64.090 28.828199
64.095 28.748714
64.100 28.653105
64.105 29.075565
64.110 30.130213
64.115 31.407204
64.120 31.626701
64.125 30.914234
64.130 31.223351
64.135 31.738203
64.140 32.653896
64.145 33.030273
64.150 32.76313
64.155 33.005486
64.160 34.233627
64.165 34.750923
64.170 35.398697
64.175 35.700066
64.180 36.229416
64.185 37.182858
64.190 37.680344
64.195 37.865421
64.200 37.845165
64.205 37.697159
64.210 37.017982
64.215 36.801842
64.220 37.68375
64.225 37.571358
64.230 37.973186
64.235 38.802021
64.240 40.0467
64.245 41.618114
64.250 41.922081
64.255 41.89172
64.260 42.365795
64.265 42.653378
64.270 42.920097
64.275 41.909023
64.280 41.727779
64.285 42.291374
64.290 42.652679
64.295 43.382034
64.300 43.327206
64.305 43.917103
64.310 44.318924
64.315 43.853672
64.320 43.841949
64.325 43.716137
64.330 43.111443
64.335 42.753674
64.340 42.869511
64.345 43.626755
64.350 44.216053
64.355 44.4911
64.360 45.982906
64.365 46.61385
64.370 46.702396
64.375 46.993717
64.380 47.412781
64.385 47.824604
64.390 47.396515
64.395 47.003918
64.400 47.765244
64.405 47.878426
64.410 47.568375
64.415 47.211193
64.420 46.689281
64.425 46.314487
64.430 45.72279
64.435 44.612049
64.440 44.562778
64.445 44.342129
64.450 43.521286
64.455 43.190346
64.460 43.441795
64.465 42.811493
64.470 43.770443
64.475 43.930141
64.480 43.201176
64.485 43.626911
64.490 43.89838
64.495 43.035942
64.500 42.233822
64.505 41.01244
64.510 39.890408
64.515 39.04285
64.520 38.220085
64.525 36.640564
64.530 35.775009
64.535 35.761951
64.540 35.53437
64.545 35.311733
64.550 35.304028
64.555 35.630543
64.560 36.144855
64.565 36.21204
64.570 36.171543
64.575 36.043472
64.580 35.738106
64.585 35.792442
64.590 35.733509
64.595 35.299553
64.600 34.868633
64.605 33.657169
64.610 32.983704
64.615 32.748497
64.620 31.823668
64.625 30.972656
64.630 30.991707
64.635 30.672434
64.640 29.955667
64.645 29.615023
64.650 29.065441
64.655 28.930676
64.660 28.518297
64.665 28.759048
64.670 28.802135
64.675 28.830156
64.680 29.082584
64.685 28.961096
64.690 28.911354
64.695 28.240677
64.700 27.095188
64.705 27.296213
64.710 27.059029
64.715 26.414761
64.720 25.944538
64.725 26.016783
64.730 26.443043
64.735 26.427814
64.740 25.062885
64.745 23.856623
64.750 23.948126
64.755 24.36722
64.760 24.117876
64.765 24.119806
64.770 24.658012
64.775 24.95669
64.780 25.378168
64.785 25.548452
64.790 24.955986
64.795 24.410696
64.800 24.011093
64.805 23.264622
64.810 22.988459
64.815 23.010809
64.820 22.295473
64.825 21.613155
64.830 21.521263
64.835 21.850332
64.840 22.193031
64.845 22.159676
64.850 22.670057
64.855 22.745811
64.860 23.203972
64.865 23.180437
64.870 22.554728
64.875 22.269989
64.880 22.314709
64.885 21.130981
64.890 21.05179
64.895 21.237209
64.900 21.22349
64.905 21.509022
64.910 21.487511
64.915 21.522728
64.920 22.491728
64.925 22.54274
64.930 23.016825
64.935 22.743677
64.940 23.044973
64.945 23.23551
64.950 23.263531
64.955 23.226131
64.960 23.962595
64.965 23.828268
64.970 24.817781
64.975 25.102972
64.980 25.496826
64.985 26.31196
64.990 26.448248
64.995 26.181665
65.000 26.572392
65.005 26.611485
65.010 26.744722
65.015 27.236767
65.020 27.690363
65.025 27.838314
65.030 27.919907
65.035 28.205702
65.040 29.188864
65.045 29.261417
65.050 29.215513
65.055 29.148548
65.060 29.154335
65.065 28.579552
65.070 28.207829
65.075 27.821251
65.080 28.522429
65.085 29.038111
65.090 28.327007
65.095 27.996672
65.100 28.074499
65.105 27.605127
65.110 27.055128
65.115 26.408348
65.120 26.090025
65.125 26.810476
65.130 28.000347
65.135 29.275076
65.140 30.138771
65.145 30.808615
65.150 31.57349
65.155 31.389502
65.160 31.12587
65.165 30.290003
65.170 30.081205
65.175 30.574707
65.180 30.431564
65.185 30.257177
65.190 30.153173
65.195 30.414751
65.200 30.907511
65.205 30.448908
65.210 30.189911
65.215 30.076391
65.220 30.562923
65.225 31.23806
65.230 31.704906
65.235 31.794609
65.240 32.139244
65.245 31.763506
65.250 31.813398
65.255 31.837917
65.260 32.073383
65.265 31.611217
65.270 32.181141
65.275 32.344883
65.280 32.250385
65.285 32.019283
65.290 31.874014
65.295 32.449291
65.300 33.311085
65.305 33.52763
65.310 34.288689
65.315 34.62249
65.320 33.955315
65.325 33.675571
65.330 33.787445
65.335 33.916794
65.340 33.680676
65.345 33.219765
65.350 33.533859
65.355 34.535473
65.360 34.962894
65.365 35.101467
65.370 35.482693
65.375 35.556709
65.380 36.143112
65.385 36.326561
65.390 36.649742
65.395 37.149017
65.400 36.682308
65.405 36.619461
65.410 36.141327
65.415 35.848534
65.420 36.218971
65.425 35.266499
65.430 34.136166
65.435 34.23642
65.440 34.303257
65.445 34.609203
65.450 34.007023
65.455 33.297146
65.460 33.896076
65.465 34.142025
65.470 33.574203
65.475 33.882179
65.480 34.295765
65.485 35.552433
65.490 36.641384
65.495 36.470985
65.500 37.141243
65.505 37.283813
65.510 37.177174
65.515 37.356979
65.520 36.350883
65.525 35.903492
65.530 36.267529
65.535 36.027718
65.540 36.573215
65.545 37.323658
65.550 37.401138
65.555 37.403557
65.560 37.95549
65.565 37.960682
65.570 37.611473
65.575 37.704922
65.580 37.359425
65.585 37.590775
65.590 37.660587
65.595 37.26376
65.600 38.001122
65.605 38.823841
65.610 39.036243
65.615 39.121613
65.620 39.445221
65.625 40.131569
65.630 40.398579
65.635 40.071167
65.640 40.366405
65.645 40.441486
65.650 40.082546
65.655 39.893986
65.660 39.89822
65.665 39.371677
65.670 39.625633
65.675 39.063744
65.680 38.807014
65.685 39.067005
65.690 39.493126
65.695 39.798092
65.700 39.924183
65.705 39.725754
65.710 39.766987
65.715 39.538734
65.720 39.037865
65.725 38.484669
65.730 39.505325
65.735 39.42952
65.740 39.464687
65.745 39.79248
65.750 40.153557
65.755 40.927307
65.760 40.433155
65.765 40.281666
65.770 40.415955
65.775 39.923851
65.780 39.66975
65.785 39.317055
65.790 38.330631
65.795 38.366501
65.800 37.370907
65.805 37.108482
65.810 37.356731
65.815 37.459213
65.820 37.20916
65.825 37.70533
65.830 37.074783
65.835 36.744385
65.840 36.296024
65.845 36.118095
65.850 36.222584
65.855 36.153854
65.860 35.667942
65.865 35.748756
65.870 36.51561
65.875 37.542469
65.880 36.932426
65.885 36.039944
65.890 35.675529
65.895 35.403084
65.900 35.570587
65.905 35.568554
65.910 34.597603
65.915 34.616997
65.920 34.847042
65.925 35.230019
65.930 35.050381
65.935 34.632462
65.940 33.446716
65.945 33.378136
65.950 32.96933
65.955 32.351841
65.960 31.69199
65.965 31.743511
65.970 31.69099
65.975 31.442991
65.980 30.833197
65.985 30.656351
65.990 30.387159
65.995 29.667454
66.000 29.584309
66.005 28.437626
66.010 27.771233
66.015 27.872009
66.020 28.11517
66.025 28.371532
66.030 28.172441
66.035 28.355145
66.040 28.469954
66.045 28.704111
66.050 28.78162
66.055 28.4863
66.060 28.283918
66.065 28.030254
66.070 27.263376
66.075 27.142475
66.080 27.239906
66.085 26.636082
66.090 26.182966
66.095 26.360245
66.100 25.922619
66.105 25.962856
66.110 25.567047
66.115 25.403969
66.120 25.244459
66.125 24.250336
66.130 23.13983
66.135 23.043571
66.140 22.8251
66.145 22.811499
66.150 22.849585
66.155 22.667149
66.160 22.669949
66.165 23.535841
66.170 24.000265
66.175 24.216238
66.180 23.826593
66.185 23.57291
66.190 23.734926
66.195 23.850086
66.200 22.800287
66.205 22.431128
66.210 22.692669
66.215 22.795702
66.220 23.0226
66.225 22.747726
66.230 22.449383
66.235 22.25495
66.240 21.995857
66.245 21.99992
66.250 21.680727
66.255 20.936495
66.260 20.629015
66.265 21.097815
66.270 21.441582
66.275 20.849098
66.280 20.160334
66.285 20.652729
66.290 20.36795
66.295 20.52738
66.300 20.142006
66.305 19.683218
66.310 19.447586
66.315 19.822857
66.320 20.052122
66.325 20.463482
66.330 20.297935
66.335 20.385328
66.340 20.925104
66.345 21.423716
66.350 20.950483
66.355 20.227568
66.360 20.264652
66.365 20.176487
66.370 20.298668
66.375 19.439953
66.380 18.880867
66.385 18.72901
66.390 19.30028
66.395 19.39192
66.400 19.125832
66.405 19.128969
66.410 19.781191
66.415 19.655771
66.420 19.736519
66.425 19.595163
66.430 19.309782
66.435 19.110806
66.440 18.901094
66.445 18.522591
66.450 18.538588
66.455 18.098948
66.460 17.688335
66.465 17.740417
66.470 18.095978
66.475 18.331833
66.480 18.387613
66.485 18.416153
66.490 18.603643
66.495 18.805201
66.500 19.347403
66.505 20.087572
66.510 19.967201
66.515 20.182676
66.520 20.354267
66.525 20.694008
66.530 20.993313
66.535 20.34886
66.540 19.435169
66.545 19.86904
66.550 20.204926
66.555 20.544794
66.560 20.342651
66.565 20.314402
66.570 20.662573
66.575 20.381124
66.580 20.141878
66.585 19.495325
66.590 19.154287
66.595 18.975754
66.600 19.077593
66.605 19.018152
66.610 18.911928
66.615 19.09621
66.620 19.569719
66.625 19.589794
66.630 19.646578
66.635 19.52673
66.640 19.332926
66.645 19.409567
66.650 18.928854
66.655 18.546871
66.660 18.501392
66.665 18.494493
66.670 18.493345
66.675 18.977005
66.680 19.39139
66.685 19.347464
66.690 19.198448
66.695 19.714279
66.700 19.469332
66.705 19.444176
66.710 19.822685
66.715 19.915224
66.720 20.485878
66.725 20.066668
66.730 19.359571
66.735 19.180328
66.740 18.879768
66.745 18.908224
66.750 18.996582
66.755 18.959339
66.760 19.008448
66.765 19.137789
66.770 19.470427
66.775 19.387367
66.780 19.490433
66.785 19.578257
66.790 19.814135
66.795 20.494232
66.800 20.390093
66.805 20.215445
66.810 19.989017
66.815 19.44467
66.820 19.48675
66.825 19.44837
66.830 19.417315
66.835 19.194319
66.840 19.250027
66.845 19.612999
66.850 19.517319
66.855 18.731699
66.860 18.339029
66.865 18.318655
66.870 18.703321
66.875 19.450018
66.880 18.982925
66.885 18.12093
66.890 18.098715
66.895 17.898067
66.900 18.072916
66.905 18.289415
66.910 18.10412
66.915 18.722618
66.920 20.152187
66.925 20.427641
66.930 20.724998
66.935 20.870298
66.940 20.849375
66.945 20.627979
66.950 20.431175
66.955 19.723616
66.960 19.642393
66.965 18.922186
66.970 18.336737
66.975 18.11249
66.980 17.923946
66.985 18.235498
66.990 18.176996
66.995 18.062561
67.000 18.956543
67.005 19.211195
67.010 19.637863
67.015 19.305378
67.020 18.684086
67.025 18.677803
67.030 18.816696
67.035 18.228821
67.040 18.286724
67.045 18.264296
67.050 17.789688
67.055 18.28293
67.060 18.718317
67.065 18.547539
67.070 18.695826
67.075 18.811188
67.080 18.874144
67.085 19.500181
67.090 19.881914
67.095 20.073877
67.100 20.459316
67.105 20.716822
67.110 20.03694
67.115 19.85047
67.120 19.840725
67.125 19.203211
67.130 19.038984
67.135 19.142796
67.140 18.904739
67.145 19.740873
67.150 20.241037
67.155 20.469057
67.160 20.702324
67.165 20.134686
67.170 19.677233
67.175 19.748165
67.180 19.376776
67.185 18.422508
67.190 17.746342
67.195 17.774029
67.200 18.298466
67.205 18.647923
67.210 18.483116
67.215 18.749332
67.220 18.79336
67.225 19.374744
67.230 19.428854
67.235 19.085697
67.240 18.953932
67.245 18.899359
67.250 18.757574
67.255 19.485699
67.260 19.630287
67.265 19.103561
67.270 19.187771
67.275 19.118263
67.280 18.701748
67.285 18.694267
67.290 18.33201
67.295 17.960367
67.300 18.560829
67.305 18.429655
67.310 18.124319
67.315 17.965937
67.320 18.117699
67.325 18.207396
67.330 18.404602
67.335 18.48188
67.340 18.82453
67.345 19.264751
67.350 19.305635
67.355 19.205463
67.360 19.356853
67.365 19.375904
67.370 19.220785
67.375 19.226803
67.380 19.489763
67.385 19.201672
67.390 18.790174
67.395 19.2575
67.400 19.152561
67.405 19.014637
67.410 19.126108
67.415 19.209681
67.420 19.735067
67.425 19.833961
67.430 19.574032
67.435 20.025427
67.440 19.981157
67.445 19.568308
67.450 19.331375
67.455 19.452122
67.460 19.783148
67.465 19.814354
67.470 18.681784
67.475 18.070421
67.480 18.245958
67.485 18.645344
67.490 18.220541
67.495 17.811146
67.500 17.584492
67.505 18.056971
67.510 19.285383
67.515 19.266941
67.520 18.488451
67.525 18.695845
67.530 18.713545
67.535 19.065775
67.540 19.323614
67.545 19.038862
67.550 19.022366
67.555 20.246405
67.560 19.802338
67.565 19.417795
67.570 18.995729
67.575 18.943758
67.580 18.715372
67.585 18.83609
67.590 17.954765
67.595 18.538084
67.600 18.632267
67.605 18.945812
67.610 18.685337
67.615 18.796124
67.620 18.659842
67.625 18.313835
67.630 18.009529
67.635 18.45853
67.640 18.2717
67.645 18.462633
67.650 18.288839
67.655 18.045305
67.660 18.109777
67.665 18.422834
67.670 18.254755
67.675 18.403374
67.680 18.554211
67.685 18.621078
67.690 19.022888
67.695 19.521744
67.700 19.799646
67.705 20.237535
67.710 20.112444
67.715 20.226339
67.720 20.399817
67.725 20.911079
67.730 20.668179
67.735 20.32041
67.740 20.068272
67.745 20.158583
67.750 19.955538
67.755 19.824535
67.760 19.70071
67.765 20.152998
67.770 20.256748
67.775 20.041618
67.780 20.148954
67.785 19.801996
67.790 19.860935
67.795 19.592728
67.800 19.192211
67.805 18.847595
67.810 19.041754
67.815 19.056826
67.820 19.295027
67.825 19.345402
67.830 18.939745
67.835 18.465277
67.840 18.711773
67.845 18.579025
67.850 18.778179
67.855 18.651142
67.860 18.491518
67.865 18.61265
67.870 18.799252
67.875 18.456633
67.880 18.403147
67.885 18.521053
67.890 18.112083
67.895 18.199591
67.900 18.670382
67.905 18.930185
67.910 19.06966
67.915 18.795397
67.920 18.867231
67.925 18.931108
67.930 18.696684
67.935 18.653078
67.940 19.195427
67.945 19.321589
67.950 19.259581
67.955 19.181572
67.960 19.085224
67.965 19.305674
67.970 19.283705
67.975 18.699476
67.980 18.355343
67.985 18.294909
67.990 18.198669
67.995 18.70575
68.000 18.932816
68.005 19.204388
68.010 19.270161
68.015 19.384504
68.020 19.760139
68.025 20.019266
68.030 19.963482
68.035 19.710938
68.040 19.488722
68.045 19.611267
68.050 19.986519
68.055 20.021746
68.060 20.367825
68.065 20.450544
68.070 20.49346
68.075 20.760571
68.080 21.035686
68.085 20.919371
68.090 20.67297
68.095 20.374392
68.100 20.11463
68.105 20.45348
68.110 20.324625
68.115 20.1549
68.120 20.937984
68.125 21.06937
68.130 20.988146
68.135 21.216471
68.140 20.181282
68.145 20.01054
68.150 19.567823
68.155 18.765972
68.160 18.66856
68.165 18.722464
68.170 18.567627
68.175 18.558779
68.180 18.881823
68.185 19.543747
68.190 19.635174
68.195 19.693609
68.200 19.500019
68.205 20.00017
68.210 21.191172
68.215 21.029005
68.220 20.494623
68.225 20.452042
68.230 20.575897
68.235 20.36751
68.240 19.733583
68.245 19.508894
68.250 19.763834
68.255 20.545832
68.260 20.776449
68.265 21.366814
68.270 22.003883
68.275 22.548161
68.280 22.854683
68.285 22.655746
68.290 22.430632
68.295 22.14006
68.300 21.855093
68.305 21.890329
68.310 21.627817
68.315 21.251118
68.320 21.486902
68.325 21.6807
68.330 22.181623
68.335 22.140781
68.340 22.703222
68.345 23.92733
68.350 24.323137
68.355 24.635206
68.360 24.691456
68.365 24.454891
68.370 24.599939
68.375 23.68329
68.380 23.270109
68.385 23.824404
68.390 23.905722
68.395 24.49131
68.400 24.722269
68.405 25.085491
68.410 25.754993
68.415 25.952147
68.420 26.044207
68.425 26.324717
68.430 26.144754
68.435 26.081944
68.440 25.609905
68.445 25.330288
68.450 25.883257
68.455 26.103939
68.460 26.309881
68.465 25.971184
68.470 25.790861
68.475 26.205339
68.480 26.416853
68.485 25.982592
68.490 25.571032
68.495 25.363773
68.500 26.05271
68.505 26.614006
68.510 26.991404
68.515 27.468052
68.520 27.877201
68.525 28.780212
68.530 29.237545
68.535 29.913216
68.540 30.512812
68.545 30.78418
68.550 30.312405
68.555 30.46101
68.560 30.708248
68.565 30.455315
68.570 30.673641
68.575 30.057978
68.580 30.186571
68.585 30.742058
68.590 30.524578
68.595 29.976017
68.600 30.58539
68.605 30.263933
68.610 30.402534
68.615 30.084347
68.620 30.285368
68.625 30.605482
68.630 31.217127
68.635 31.260117
68.640 31.272326
68.645 31.628296
68.650 31.479958
68.655 31.712629
68.660 32.11763
68.665 32.060837
68.670 32.12154
68.675 32.377316
68.680 32.010784
68.685 32.393265
68.690 32.295959
68.695 32.3055
68.700 32.85392
68.705 33.133457
68.710 33.43895
68.715 34.120186
68.720 34.106354
68.725 34.520309
68.730 33.714027
68.735 33.062527
68.740 33.602261
68.745 33.3764
68.750 33.061649
68.755 33.164135
68.760 33.120491
68.765 34.720284
68.770 35.053074
68.775 34.615768
68.780 34.719521
68.785 34.587379
68.790 35.382565
68.795 35.35928
68.800 34.665062
68.805 34.091877
68.810 34.484062
68.815 34.429592
68.820 34.217331
68.825 34.098061
68.830 33.62384
68.835 33.398895
68.840 34.471077
68.845 34.409153
68.850 35.202694
68.855 35.730202
68.860 35.545116
68.865 35.50592
68.870 35.690166
68.875 35.124916
68.880 35.453701
68.885 35.055088
68.890 34.588741
68.895 34.898048
68.900 35.860138
68.905 35.448318
68.910 36.037651
68.915 35.809856
68.920 36.191257
68.925 36.616032
68.930 36.247082
68.935 35.324726
68.940 35.308792
68.945 34.866119
68.950 34.371807
68.955 34.148148
68.960 34.352612
68.965 34.953602
68.970 35.43219
68.975 35.403645
68.980 35.929958
68.985 36.530163
68.990 37.043083
68.995 36.073338
69.000 35.995159
69.005 36.436153
69.010 36.634533
69.015 36.517967
69.020 36.295681
69.025 36.136715
69.030 36.127193
69.035 36.231197
69.040 35.626949
69.045 34.337639
69.050 33.712788
69.055 33.607769
69.060 33.62648
69.065 33.152988
69.070 33.352264
69.075 33.855907
69.080 35.003071
69.085 35.002178
69.090 34.209705
69.095 33.51086
69.100 33.060932
69.105 32.745171
69.110 32.13343
69.115 31.696875
69.120 32.02079
69.125 32.178684
69.130 31.949228
69.135 31.447918
69.140 31.005424
69.145 31.995476
69.150 30.956356
69.155 30.553583
69.160 29.963713
69.165 30.50832
69.170 31.19212
69.175 31.67992
69.180 30.776423
69.185 30.876324
69.190 30.82309
69.195 30.954435
69.200 31.064058
69.205 30.708956
69.210 30.222157
69.215 30.090099
69.220 29.808134
69.225 29.669334
69.230 29.373703
69.235 28.621931
69.240 27.949741
69.245 26.389006
69.250 26.133724
69.255 25.86414
69.260 25.258781
69.265 24.862713
69.270 24.612478
69.275 24.092819
69.280 23.621828
69.285 23.220032
69.290 23.355526
69.295 23.670753
69.300 23.986403
69.305 24.861259
69.310 25.200539
69.315 25.593004
69.320 25.391636
69.325 24.623163
69.330 24.208305
69.335 23.488642
69.340 22.620373
69.345 22.8836
69.350 23.523745
69.355 23.419706
69.360 23.32292
69.365 22.997446
69.370 22.713011
69.375 22.706656
69.380 22.060001
69.385 21.02248
69.390 21.011385
69.395 21.483362
69.400 21.492077
69.405 20.994276
69.410 20.547363
69.415 20.007805
69.420 20.29216
69.425 20.683029
69.430 21.492773
69.435 22.474457
69.440 22.72949
69.445 22.940279
69.450 24.166687
69.455 24.419403
69.460 24.296124
69.465 23.539528
69.470 23.045319
69.475 23.377579
69.480 23.687229
69.485 23.194891
69.490 23.016907
69.495 22.811214
69.500 22.593636
69.505 22.840456
69.510 22.479204
69.515 22.342474
69.520 21.847485
69.525 21.717592
69.530 21.263187
69.535 20.700935
69.540 20.471495
69.545 20.29771
69.550 19.693644
69.555 19.358255
69.560 18.93055
69.565 19.572319
69.570 20.300737
69.575 20.050457
69.580 20.268597
69.585 20.429922
69.590 19.906717
69.595 19.737909
69.600 19.264738
69.605 18.419979
69.610 19.039831
69.615 19.711052
69.620 20.409521
69.625 20.437733
69.630 21.001827
69.635 21.388853
69.640 21.295311
69.645 20.856232
69.650 19.927467
69.655 20.110834
69.660 21.021675
69.665 20.351986
69.670 19.73328
69.675 20.426939
69.680 20.385099
69.685 20.365051
69.690 19.969442
69.695 20.053122
69.700 20.408333
69.705 21.008255
69.710 20.503881
69.715 20.121326
69.720 19.791433
69.725 18.900764
69.730 18.533888
69.735 18.441463
69.740 18.31671
69.745 18.669895
69.750 18.679459
69.755 19.25906
69.760 19.381071
69.765 19.018705
69.770 19.093573
69.775 18.817432
69.780 19.130627
69.785 19.687849
69.790 19.571011
69.795 19.397999
69.800 19.195978
69.805 19.093151
69.810 19.131807
69.815 18.472435
69.820 17.959431
69.825 17.772205
69.830 18.189966
69.835 18.565229
69.840 18.368958
69.845 18.420139
69.850 18.581322
69.855 18.755381
69.860 18.561773
69.865 18.428135
69.870 18.961819
69.875 19.37553
69.880 19.674076
69.885 19.962486
69.890 20.365009
69.895 20.100554
69.900 19.681789
69.905 19.241121
69.910 18.93021
69.915 18.892376
69.920 18.747946
69.925 18.757385
69.930 19.140816
69.935 19.633955
69.940 19.768131
69.945 20.251717
69.950 19.762203
69.955 19.785774
69.960 20.193537
69.965 20.402426
69.970 20.11054
69.975 19.72887
69.980 19.552248
69.985 19.83197
69.990 18.940718
69.995 18.572861
70.000 18.021492
70.005 17.786131
70.010 17.723307
70.015 17.838659
70.020 18.118237
70.025 19.143908
70.030 20.07749
70.035 20.603878
70.040 20.973854
70.045 20.370329
70.050 19.756565
70.055 19.260551
70.060 18.599703
70.065 19.072393
70.070 19.134439
70.075 19.512293
70.080 20.07081
70.085 19.640337
70.090 19.356354
70.095 19.371496
70.100 18.370106
70.105 18.096397
70.110 17.903408
70.115 17.921417
70.120 18.86031
70.125 19.232693
70.130 19.065252
70.135 19.324715
70.140 19.102594
70.145 19.158257
70.150 18.832243
70.155 18.074091
70.160 17.911791
70.165 18.026827
70.170 18.126966
70.175 18.612436
70.180 18.719646
70.185 19.078945
70.190 19.354038
70.195 19.639404
70.200 19.559532
70.205 18.99102
70.210 18.911556
70.215 18.511877
70.220 18.767378
70.225 18.741171
70.230 18.436472
70.235 18.840559
70.240 19.468513
70.245 19.724653
70.250 19.92943
70.255 19.956341
70.260 20.203058
70.265 20.24505
70.270 19.649652
70.275 18.889856
70.280 18.548878
70.285 18.424635
70.290 18.611156
70.295 18.321491
70.300 18.391005
70.305 18.828382
70.310 18.723749
70.315 18.480789
70.320 18.573471
70.325 17.992754
70.330 17.666441
70.335 17.383213
70.340 17.241268
70.345 17.716852
70.350 17.769714
70.355 17.230688
70.360 17.382523
70.365 17.792252
70.370 17.990108
70.375 17.536949
70.380 17.632051
70.385 18.003643
70.390 18.829855
70.395 19.243805
70.400 19.025732
70.405 19.31624
70.410 20.268486
70.415 19.874432
70.420 19.853727
70.425 19.667219
70.430 19.33494
70.435 19.39122
70.440 19.329725
70.445 19.015533
70.450 18.48502
70.455 18.558535
70.460 18.359537
70.465 18.510311
70.470 17.829288
70.475 17.560984
70.480 17.644636
70.485 18.13847
70.490 18.030611
70.495 18.194204
70.500 18.991922
70.505 19.741016
70.510 19.515684
70.515 18.916004
70.520 18.627424
70.525 18.21447
70.530 17.989853
70.535 17.402582
70.540 17.034468
70.545 17.73246
70.550 17.862108
70.555 17.935431
70.560 18.149752
70.565 18.119862
70.570 18.62775
70.575 18.865971
70.580 19.062365
70.585 19.759918
70.590 19.464348
70.595 19.068056
70.600 18.754438
70.605 18.318842
70.610 18.365271
70.615 17.789421
70.620 17.874346
70.625 17.781935
70.630 17.991098
70.635 17.635878
70.640 17.571354
70.645 17.594055
70.650 17.539843
70.655 17.651722
70.660 17.978121
70.665 18.116306
70.670 18.77129
70.675 18.474411
70.680 18.015831
70.685 18.126602
70.690 18.093584
70.695 17.995295
70.700 17.868383
70.705 17.650587
70.710 17.902716
70.715 18.387863
70.720 18.045689
70.725 18.130114
70.730 18.191601
70.735 18.108007
70.740 18.491667
70.745 18.38888
70.750 18.557169
70.755 18.60364
70.760 18.287233
70.765 18.458563
70.770 18.585522
70.775 18.780706
70.780 18.708748
70.785 17.909512
70.790 18.321238
70.795 18.152348
70.800 17.79138
70.805 17.630898
70.810 17.557392
70.815 17.302219
70.820 17.994558
70.825 17.875523
70.830 18.131487
70.835 17.784389
70.840 17.836205
70.845 17.776783
70.850 18.460859
70.855 18.764488
70.860 18.35087
70.865 18.596277
70.870 19.0571
70.875 18.840919
70.880 18.782063
70.885 17.550789
70.890 17.910105
70.895 18.32069
70.900 18.5625
70.905 18.249044
70.910 18.44278
70.915 18.255848
70.920 18.808649
70.925 18.654266
70.930 18.646404
70.935 19.089174
70.940 19.457699
70.945 19.486528
70.950 19.704649
70.955 19.714073
70.960 19.822144
70.965 19.624546
70.970 19.249506
70.975 19.168932
70.980 19.181608
70.985 19.204504
70.990 19.069412
70.995 18.680065
71.000 18.835127
71.005 18.70747
71.010 18.675476
71.015 18.995836
71.020 18.99781
71.025 19.149469
71.030 19.143587
71.035 19.406376
71.040 19.799528
71.045 19.409224
71.050 19.123005
71.055 19.023952
71.060 18.894184
71.065 18.642857
71.070 18.200809
71.075 18.147131
71.080 19.040272
71.085 18.392567
71.090 18.664242
71.095 18.532175
71.100 18.336351
71.105 18.741053
71.110 18.723894
71.115 18.629404
71.120 18.703053
71.125 18.664942
71.130 18.847548
71.135 18.611847
71.140 18.247541
71.145 17.363251
71.150 17.138657
71.155 17.13129
71.160 16.420069
71.165 16.330462
71.170 16.552347
71.175 16.69445
71.180 17.135393
71.185 17.612152
71.190 18.159529
71.195 18.589413
71.200 19.018219
71.205 19.109676
71.210 19.443857
71.215 19.301271
71.220 19.064779
71.225 18.943405
71.230 18.789925
71.235 18.64979
71.240 18.691902
71.245 18.399347
71.250 18.293514
71.255 18.266081
71.260 18.283117
71.265 18.995199
71.270 19.205664
71.275 19.122173
71.280 19.037193
71.285 19.019953
71.290 18.590225
71.295 18.28344
71.300 17.225571
71.305 16.925598
71.310 17.132389
71.315 17.257858
71.320 17.556698
71.325 18.215111
71.330 18.165844
71.335 18.437338
71.340 18.737009
71.345 18.39959
71.350 17.773174
71.355 17.578791
71.360 16.847069
71.365 17.427477
71.370 17.479374
71.375 17.427246
71.380 17.622622
71.385 17.59301
71.390 17.325308
71.395 17.665419
71.400 17.820717
71.405 17.730844
71.410 17.78455
71.415 18.167435
71.420 18.738594
71.425 18.844698
71.430 18.709736
71.435 18.457926
71.440 18.265579
71.445 18.102381
71.450 18.209873
71.455 18.562496
71.460 19.011011
71.465 19.029778
71.470 18.990587
71.475 18.821138
71.480 18.415699
71.485 18.5313
71.490 18.576351
71.495 18.399776
71.500 18.514568
71.505 18.511448
71.510 19.17985
71.515 19.579142
71.520 18.853695
71.525 18.54706
71.530 18.101969
71.535 17.27916
71.540 17.237196
71.545 17.190954
71.550 17.16279
71.555 16.973854
71.560 16.905033
71.565 17.208347
71.570 17.740545
71.575 17.477362
71.580 17.590481
71.585 17.467224
71.590 17.68679
71.595 18.618052
71.600 18.513365
71.605 18.497211
71.610 18.654331
71.615 17.922382
71.620 17.969913
71.625 17.906399
71.630 17.929493
71.635 18.51963
71.640 19.068413
71.645 19.329346
71.650 19.798777
71.655 19.391129
71.660 19.005796
71.665 18.740559
71.670 18.376822
71.675 18.227638
71.680 18.439934
71.685 18.380915
71.690 18.826649
71.695 18.793678
71.700 18.428488
71.705 18.462976
71.710 18.180805
71.715 17.878983
71.720 18.223021
71.725 18.120726
71.730 18.211195
71.735 18.347275
71.740 17.894438
71.745 17.714329
71.750 17.720928
71.755 17.522352
71.760 18.062387
71.765 18.532974
71.770 18.596378
71.775 18.543924
71.780 17.969679
71.785 17.893442
71.790 18.308395
71.795 18.51746
71.800 18.1376
71.805 18.689911
71.810 19.337835
71.815 19.633852
71.820 19.333487
71.825 18.679861
71.830 17.9027
71.835 17.564888
71.840 16.82679
71.845 17.401808
71.850 18.048315
71.855 18.845844
71.860 19.18454
71.865 19.203199
71.870 19.749235
71.875 19.896158
71.880 19.149921
71.885 19.217283
71.890 18.865471
71.895 18.863514
71.900 19.279417
71.905 19.063478
71.910 19.437351
71.915 19.565838
71.920 19.212782
71.925 18.911482
71.930 18.777079
71.935 18.895279
71.940 18.585777
71.945 19.105293
71.950 19.245646
71.955 18.88826
71.960 19.167084
71.965 19.169489
71.970 18.590496
71.975 18.731766
71.980 17.989523
71.985 18.457081
71.990 18.310518
71.995 18.244081
72.000 18.417002
72.005 18.766079
72.010 17.804323
72.015 17.582354
72.020 16.895651
72.025 17.192032
72.030 16.768364
72.035 16.45154
72.040 16.292427
72.045 16.756399
72.050 17.45483
72.055 17.66881
72.060 17.587227
72.065 18.222246
72.070 18.85511
72.075 18.860413
72.080 18.672832
72.085 18.929916
72.090 19.255091
72.095 19.328608
72.100 18.75403
72.105 18.440254
72.110 18.329424
72.115 18.26473
72.120 17.513859
72.125 17.705679
72.130 17.821156
72.135 18.48805
72.140 18.293964
72.145 18.672035
72.150 18.599091
72.155 18.91691
72.160 19.345911
72.165 19.426096
72.170 19.555367
72.175 20.069042
72.180 19.689667
72.185 19.853106
72.190 19.269411
72.195 18.604137
72.200 18.345163
72.205 18.503752
72.210 18.889578
72.215 19.404524
72.220 19.599188
72.225 20.006603
72.230 20.223537
72.235 19.908052
72.240 19.66003
72.245 19.705254
72.250 19.681686
72.255 19.13336
72.260 19.045784
72.265 18.98494
72.270 19.129622
72.275 18.958887
72.280 18.284992
72.285 18.554155
72.290 18.903509
72.295 18.85071
72.300 19.077095
72.305 18.656988
72.310 18.39459
72.315 18.864248
72.320 18.782532
72.325 18.596409
72.330 18.896845
72.335 19.176687
72.340 19.321634
72.345 19.700966
72.350 19.250708
72.355 18.740408
72.360 18.739582
72.365 18.703365
72.370 18.261694
72.375 18.399637
72.380 17.973547
72.385 17.995581
72.390 18.202677
72.395 18.544798
72.400 19.19655
72.405 18.990011
72.410 19.14801
72.415 19.337463
72.420 19.054861
72.425 18.922579
72.430 17.832638
72.435 17.549746
72.440 17.696751
72.445 17.569233
72.450 17.122629
72.455 16.885126
72.460 17.518061
72.465 18.595404
72.470 18.243183
72.475 18.338863
72.480 18.247986
72.485 18.768156
72.490 18.369776
72.495 17.31827
72.500 16.758923
72.505 16.654284
72.510 16.970276
72.515 17.679661
72.520 17.769182
72.525 18.78536
72.530 18.808926
72.535 18.864967
72.540 18.890259
72.545 18.316984
72.550 18.156269
72.555 18.132805
72.560 18.05707
72.565 17.726547
72.570 17.613205
72.575 18.001629
72.580 18.04632
72.585 17.716423
72.590 17.573696
72.595 17.527937
72.600 18.094898
72.605 18.173311
72.610 17.992329
72.615 17.724949
72.620 17.845596
72.625 17.864378
72.630 17.529976
72.635 16.746546
72.640 16.497379
72.645 16.221085
72.650 16.271084
72.655 16.856199
72.660 16.576641
72.665 16.274233
72.670 16.200104
72.675 16.935904
72.680 17.279371
72.685 17.770472
72.690 18.302652
72.695 19.244808
72.700 19.314104
72.705 19.372072
72.710 19.227856
72.715 19.094547
72.720 18.192581
72.725 17.092535
72.730 17.052532
72.735 17.644806
72.740 17.67787
72.745 17.513912
72.750 17.595381
72.755 17.427797
72.760 17.252325
72.765 17.118557
72.770 17.297758
72.775 17.658617
72.780 17.935131
72.785 17.857832
72.790 17.707666
72.795 17.738316
72.800 17.839365
72.805 17.621254
72.810 17.291082
72.815 17.382912
72.820 17.2628
72.825 17.754848
72.830 18.098366
72.835 18.162989
72.840 17.905386
72.845 17.917168
72.850 17.85478
72.855 17.952995
72.860 17.288477
72.865 16.710896
72.870 16.522467
72.875 16.433811
72.880 16.203535
72.885 15.919868
72.890 15.959411
72.895 16.075384
72.900 15.818199
72.905 15.939819
72.910 15.817721
72.915 16.525793
72.920 16.984636
72.925 17.13868
72.930 17.34552
72.935 17.197868
72.940 17.50119
72.945 17.73567
72.950 17.047962
72.955 16.470827
72.960 16.089014
72.965 16.165503
72.970 16.063065
72.975 15.692687
72.980 15.273511
72.985 15.771609
72.990 16.186941
72.995 16.363171
73.000 16.413105
