!@!!GADDS PLOTSO FILE: Chi integration type
!@!!Title/SampleName: map-ca
!@!!Comment: ?
!@!!User: Bruker Instrument Administrator
!@!!Site: University of Illinois Chicago
!@!!Frame: map-ca_01_000.gfrm
!@!!Wavelengths    1.54184   1.54056   1.54439
!@!!Frame angles: 2Theta: 63.000 Omega: 50.000 Phi: 0.000 Chi: 90.000
!@!!Integration range: 2Theta: 53.000 to 73.000  Gamma: -105.000 to -75.000
!@!!Integration method: bin normalized
!@!N
!@!SS
!@!M
!@!L 0.0 0.0 0.0 0.0
!@!XDegrees
!@!YCounts
53.000 7.696571
53.005 7.837818
53.010 8.061788
53.015 8.730727
53.020 8.781013
53.025 8.646637
53.030 8.746494
53.035 8.910758
53.040 9.061385
53.045 8.821864
53.050 8.491547
53.055 8.795523
53.060 8.95406
53.065 9.005853
53.070 9.304684
53.075 9.790689
53.080 9.823987
53.085 9.94926
53.090 9.42099
53.095 9.11183
53.100 8.739733
53.105 8.137223
53.110 8.226949
53.115 8.817122
53.120 9.195105
53.125 9.452317
53.130 9.43684
53.135 9.593979
53.140 9.485992
53.145 9.372049
53.150 9.114691
53.155 8.782413
53.160 9.057702
53.165 9.246062
53.170 9.056228
53.175 9.059484
53.180 8.505602
53.185 8.532116
53.190 8.607114
53.195 8.142503
53.200 8.193241
53.205 8.264902
53.210 8.154493
53.215 7.934951
53.220 7.911425
53.225 8.136332
53.230 8.028411
53.235 8.068298
53.240 8.5188
53.245 9.170403
53.250 9.881652
53.255 10.089813
53.260 10.276967
53.265 10.713229
53.270 10.444605
53.275 9.980422
53.280 9.963324
53.285 9.648424
53.290 9.581939
53.295 9.424063
53.300 9.217385
53.305 9.479183
53.310 9.316265
53.315 8.97604
53.320 8.601748
53.325 8.013015
53.330 8.178834
53.335 8.442292
53.340 7.8973
53.345 7.718831
53.350 8.165336
53.355 8.180799
53.360 8.36506
53.365 7.9409
53.370 7.605491
53.375 7.963776
53.380 8.176965
53.385 8.333074
53.390 8.126989
53.395 7.999248
53.400 8.153389
53.405 8.298784
53.410 8.521728
53.415 8.097585
53.420 8.80343
53.425 9.63539
53.430 9.779233
53.435 9.979446
53.440 10.350644
53.445 10.361016
53.450 10.578203
53.455 10.133737
53.460 10.525043
53.465 10.655211
53.470 10.582317
53.475 10.344635
53.480 10.525577
53.485 10.383917
53.490 10.182963
53.495 9.416386
53.500 9.298302
53.505 9.437084
53.510 9.60802
53.515 9.54957
53.520 9.349039
53.525 10.059405
53.530 10.405466
53.535 10.299848
53.540 9.80986
53.545 9.89233
53.550 9.872436
53.555 9.762537
53.560 9.462602
53.565 9.401344
53.570 10.175016
53.575 10.431433
53.580 10.224645
53.585 10.697872
53.590 10.453801
53.595 10.383835
53.600 10.366976
53.605 10.183786
53.610 10.058928
53.615 10.053427
53.620 9.847571
53.625 9.84057
53.630 9.539429
53.635 9.401881
53.640 9.409788
53.645 9.585423
53.650 9.692066
53.655 10.089707
53.660 10.464446
53.665 10.309163
53.670 9.659328
53.675 9.423373
53.680 8.919541
53.685 8.737771
53.690 8.509924
53.695 8.980261
53.700 9.531971
53.705 10.154119
53.710 10.336397
53.715 10.311974
53.720 10.540625
53.725 11.130013
53.730 10.977365
53.735 11.002005
53.740 10.620839
53.745 10.512158
53.750 10.303308
53.755 9.292959
53.760 8.273305
53.765 7.930185
53.770 7.853174
53.775 7.907501
53.780 8.248129
53.785 8.79885
53.790 9.111799
53.795 9.278406
53.800 9.471665
53.805 9.578271
53.810 9.640135
53.815 9.59732
53.820 9.937333
53.825 10.009068
53.830 9.985118
53.835 9.941768
53.840 10.148427
53.845 10.64679
53.850 10.591365
53.855 10.297543
53.860 10.179069
53.865 10.151196
53.870 9.74474
53.875 9.371609
53.880 8.998036
53.885 8.472052
53.890 8.237146
53.895 8.145921
53.900 8.226514
53.905 8.46243
53.910 8.140038
53.915 8.394745
53.920 8.699816
53.925 9.086471
53.930 9.388821
53.935 9.152153
53.940 9.544037
53.945 9.641945
53.950 9.642981
53.955 9.586666
53.960 9.718386
53.965 9.616383
53.970 9.957671
53.975 10.114495
53.980 10.48335
53.985 10.297681
53.990 10.253938
53.995 10.571293
54.000 10.422275
54.005 9.667379
54.010 9.22246
54.015 9.083607
54.020 9.188835
54.025 9.296672
54.030 9.283752
54.035 9.854476
54.040 10.154712
54.045 9.973163
54.050 9.963699
54.055 9.893313
54.060 9.551339
54.065 9.414113
54.070 9.086329
54.075 9.325152
54.080 9.355547
54.085 9.75721
54.090 9.876108
54.095 9.981239
54.100 10.296973
54.105 10.684731
54.110 11.140004
54.115 11.28852
54.120 10.966937
54.125 10.863382
54.130 10.938987
54.135 10.899651
54.140 10.563519
54.145 9.730089
54.150 9.298464
54.155 9.247173
54.160 9.376418
54.165 9.344909
54.170 9.341516
54.175 9.452411
54.180 10.047553
54.185 10.476706
54.190 10.598414
54.195 10.672044
54.200 10.918168
54.205 11.02108
54.210 10.99275
54.215 10.505151
54.220 10.07896
54.225 10.137658
54.230 10.333096
54.235 10.58619
54.240 10.752011
54.245 10.850707
54.250 11.158053
54.255 11.496256
54.260 11.621381
54.265 11.146751
54.270 10.366938
54.275 9.940962
54.280 9.715979
54.285 9.623624
54.290 9.395038
54.295 8.966067
54.300 8.699615
54.305 8.773905
54.310 8.462469
54.315 8.50459
54.320 8.619534
54.325 8.955193
54.330 9.250031
54.335 9.749619
54.340 10.444815
54.345 10.531217
54.350 10.905475
54.355 10.746556
54.360 10.427052
54.365 10.545704
54.370 10.687244
54.375 10.445292
54.380 10.209066
54.385 9.881995
54.390 9.745216
54.395 9.558741
54.400 9.264758
54.405 8.677034
54.410 8.633037
54.415 8.985755
54.420 9.235594
54.425 9.701315
54.430 9.778433
54.435 9.816672
54.440 10.008546
54.445 10.030174
54.450 9.715266
54.455 9.550714
54.460 9.484228
54.465 9.772248
54.470 10.075579
54.475 10.281456
54.480 10.31782
54.485 10.235838
54.490 10.58329
54.495 10.726861
54.500 10.469037
54.505 9.89562
54.510 9.782907
54.515 9.786777
54.520 10.058113
54.525 9.86243
54.530 9.690374
54.535 9.619312
54.540 10.023845
54.545 10.240935
54.550 10.391341
54.555 10.005298
54.560 9.692818
54.565 9.820541
54.570 10.163778
54.575 10.113358
54.580 10.131126
54.585 10.184582
54.590 10.084738
54.595 10.170288
54.600 10.023458
54.605 10.166192
54.610 10.120818
54.615 10.170979
54.620 10.748747
54.625 10.787892
54.630 10.946628
54.635 10.801251
54.640 10.518878
54.645 10.370255
54.650 10.085651
54.655 9.575134
54.660 9.264049
54.665 9.68132
54.670 10.402184
54.675 10.897513
54.680 11.555165
54.685 11.998693
54.690 12.20106
54.695 12.241412
54.700 11.679316
54.705 11.25265
54.710 10.867618
54.715 10.538578
54.720 9.893269
54.725 10.093698
54.730 10.404511
54.735 10.547473
54.740 10.365235
54.745 10.067845
54.750 10.209856
54.755 10.763116
54.760 10.750879
54.765 10.683047
54.770 10.964593
54.775 11.069905
54.780 10.901433
54.785 10.651483
54.790 10.432316
54.795 10.255326
54.800 9.555649
54.805 9.364139
54.810 9.433624
54.815 9.472054
54.820 9.131705
54.825 9.806549
54.830 10.175971
54.835 10.534184
54.840 10.022906
54.845 10.250947
54.850 10.321454
54.855 10.449779
54.860 10.100762
54.865 10.186303
54.870 9.93247
54.875 9.976694
54.880 9.673459
54.885 9.926904
54.890 9.97783
54.895 9.749365
54.900 9.506013
54.905 10.128339
54.910 10.799366
54.915 11.686687
54.920 11.731521
54.925 11.937374
54.930 11.806703
54.935 11.791738
54.940 11.788552
54.945 11.71497
54.950 11.516212
54.955 11.135914
54.960 11.149633
54.965 11.343667
54.970 11.057931
54.975 10.495547
54.980 10.115024
54.985 9.779945
54.990 9.863328
54.995 10.112169
55.000 10.407799
55.005 10.700351
55.010 10.67205
55.015 11.095883
55.020 11.415258
55.025 11.841154
55.030 11.469296
55.035 11.382352
55.040 11.406822
55.045 11.302788
55.050 10.722272
55.055 10.535904
55.060 10.297278
55.065 10.065562
55.070 9.865174
55.075 9.882593
55.080 10.403536
55.085 10.470761
55.090 10.198918
55.095 9.908578
55.100 10.490365
55.105 10.427726
55.110 10.021812
55.115 9.554978
55.120 9.568213
55.125 9.694007
55.130 9.565923
55.135 9.423513
55.140 9.843652
55.145 10.40335
55.150 10.768621
55.155 10.746382
55.160 10.925809
55.165 11.069148
55.170 11.156579
55.175 11.222349
55.180 11.380301
55.185 11.552306
55.190 11.359349
55.195 11.069936
55.200 10.722357
55.205 10.916803
55.210 10.757111
55.215 10.311318
55.220 10.197495
55.225 10.324335
55.230 10.272227
55.235 10.316634
55.240 10.00033
55.245 10.283958
55.250 11.107676
55.255 11.07045
55.260 11.553528
55.265 12.006657
55.270 12.446592
55.275 12.212011
55.280 11.804279
55.285 11.391114
55.290 11.324617
55.295 10.881304
55.300 10.633804
55.305 10.304742
55.310 10.619744
55.315 10.458713
55.320 10.488026
55.325 10.261785
55.330 10.398242
55.335 10.270964
55.340 9.807417
55.345 10.060467
55.350 9.658103
55.355 9.326221
55.360 10.021001
55.365 10.215567
55.370 10.830876
55.375 10.94858
55.380 10.755713
55.385 11.014827
55.390 11.25394
55.395 11.01206
55.400 10.953256
55.405 11.14163
55.410 11.454179
55.415 11.829894
55.420 12.344055
55.425 12.476363
55.430 12.449563
55.435 12.322547
55.440 11.854424
55.445 11.724687
55.450 11.390491
55.455 11.007743
55.460 10.679856
55.465 10.509244
55.470 10.560339
55.475 10.565656
55.480 10.519852
55.485 11.025505
55.490 11.141755
55.495 11.559972
55.500 11.229722
55.505 11.340303
55.510 11.784922
55.515 11.530015
55.520 10.843858
55.525 10.523132
55.530 10.178864
55.535 10.272921
55.540 9.805785
55.545 9.495151
55.550 10.064718
55.555 10.530409
55.560 10.822133
55.565 11.225921
55.570 11.462237
55.575 11.5449
55.580 11.458896
55.585 11.130574
55.590 11.322807
55.595 11.610744
55.600 11.269752
55.605 11.239584
55.610 11.290236
55.615 11.25098
55.620 11.335664
55.625 11.077609
55.630 11.394347
55.635 11.873912
55.640 11.73779
55.645 11.618138
55.650 11.654664
55.655 11.211308
55.660 10.993585
55.665 10.35912
55.670 9.953659
55.675 10.000462
55.680 9.991221
55.685 9.927957
55.690 10.624108
55.695 10.696369
55.700 10.681124
55.705 10.743205
55.710 10.736006
55.715 10.897528
55.720 10.914301
55.725 10.887025
55.730 10.892267
55.735 11.348236
55.740 11.859635
55.745 11.926911
55.750 11.687924
55.755 11.879812
55.760 11.78185
55.765 11.914001
55.770 11.281779
55.775 11.273082
55.780 11.449032
55.785 11.482224
55.790 11.457971
55.795 11.543298
55.800 11.429862
55.805 11.437782
55.810 10.858366
55.815 10.732775
55.820 10.669895
55.825 10.733414
55.830 10.821323
55.835 10.950732
55.840 10.863168
55.845 11.192521
55.850 11.519437
55.855 11.665996
55.860 11.31042
55.865 11.266455
55.870 11.391665
55.875 11.846501
55.880 12.052395
55.885 12.391257
55.890 12.255824
55.895 12.467777
55.900 12.468403
55.905 12.204184
55.910 12.816342
55.915 12.683867
55.920 12.617134
55.925 12.558815
55.930 12.244388
55.935 12.048155
55.940 12.18829
55.945 12.355629
55.950 12.521576
55.955 12.447549
55.960 12.865762
55.965 13.239682
55.970 13.600963
55.975 13.560366
55.980 13.107257
55.985 13.033744
55.990 12.86901
55.995 12.489923
56.000 12.0671
56.005 11.853122
56.010 11.951814
56.015 12.469356
56.020 12.472489
56.025 12.419625
56.030 12.936012
56.035 13.490338
56.040 13.696539
56.045 13.484103
56.050 12.939323
56.055 13.085689
56.060 13.242278
56.065 13.247894
56.070 13.039513
56.075 13.066738
56.080 12.702312
56.085 12.68232
56.090 12.346656
56.095 11.988703
56.100 11.697769
56.105 11.478852
56.110 11.758789
56.115 12.052253
56.120 12.536559
56.125 12.722437
56.130 12.704916
56.135 12.388009
56.140 12.497422
56.145 12.172002
56.150 11.725207
56.155 11.284714
56.160 11.11828
56.165 11.380518
56.170 11.944677
56.175 11.827326
56.180 11.422002
56.185 11.047272
56.190 11.038505
56.195 11.085787
56.200 10.62838
56.205 10.339261
56.210 10.357211
56.215 11.339081
56.220 12.774064
56.225 13.521248
56.230 14.100676
56.235 14.295718
56.240 14.022882
56.245 14.268674
56.250 13.552777
56.255 12.928783
56.260 12.600643
56.265 12.438671
56.270 13.154941
56.275 13.674137
56.280 13.873145
56.285 13.960059
56.290 13.318493
56.295 13.78685
56.300 13.907372
56.305 13.396327
56.310 13.14493
56.315 12.930927
56.320 13.24352
56.325 13.811031
56.330 13.296394
56.335 12.871513
56.340 12.882666
56.345 13.09269
56.350 12.856908
56.355 12.704245
56.360 12.169969
56.365 12.158438
56.370 12.753382
56.375 12.886376
56.380 12.742846
56.385 12.700925
56.390 12.606361
56.395 12.977108
56.400 13.20048
56.405 13.035934
56.410 12.747373
56.415 12.774816
56.420 12.446183
56.425 12.950064
56.430 13.139091
56.435 13.090984
56.440 13.243332
56.445 13.119009
56.450 13.095536
56.455 13.151598
56.460 12.866769
56.465 12.363412
56.470 11.69163
56.475 11.638391
56.480 11.788455
56.485 12.160466
56.490 12.456313
56.495 12.948064
56.500 13.296169
56.505 13.287762
56.510 13.339171
56.515 13.376396
56.520 12.944262
56.525 12.566163
56.530 11.737068
56.535 11.91532
56.540 12.05399
56.545 11.983343
56.550 12.219994
56.555 12.803284
56.560 13.003985
56.565 13.274732
56.570 13.235256
56.575 12.627668
56.580 12.287889
56.585 11.986901
56.590 11.472206
56.595 11.155503
56.600 10.427215
56.605 10.643749
56.610 11.127048
56.615 11.338661
56.620 11.451049
56.625 11.193284
56.630 11.519113
56.635 11.945366
56.640 11.615064
56.645 11.170656
56.650 11.105608
56.655 11.084907
56.660 11.049411
56.665 11.491907
56.670 12.041458
56.675 12.461044
56.680 12.649832
56.685 12.648498
56.690 13.065447
56.695 13.119816
56.700 12.751606
56.705 12.453848
56.710 12.24865
56.715 12.342617
56.720 12.276388
56.725 12.132709
56.730 12.22019
56.735 12.455113
56.740 12.348399
56.745 12.665215
56.750 12.883867
56.755 12.898955
56.760 12.983834
56.765 13.142769
56.770 12.838211
56.775 13.078014
56.780 13.111386
56.785 13.315236
56.790 13.25598
56.795 13.267924
56.800 13.209175
56.805 13.746102
56.810 14.121684
56.815 13.819999
56.820 13.728764
56.825 13.769392
56.830 13.985726
56.835 14.064709
56.840 13.021106
56.845 12.717206
56.850 12.912522
56.855 12.797921
56.860 12.824818
56.865 12.944793
56.870 13.13158
56.875 13.281546
56.880 13.351171
56.885 13.538408
56.890 13.718058
56.895 13.57993
56.900 13.18834
56.905 13.676795
56.910 13.829069
56.915 13.832173
56.920 13.427229
56.925 13.024549
56.930 13.007586
56.935 12.859146
56.940 12.501227
56.945 12.444586
56.950 12.307588
56.955 12.739367
56.960 13.643517
56.965 13.66097
56.970 13.700414
56.975 13.97364
56.980 13.965585
56.985 13.623768
56.990 13.102891
56.995 12.980138
57.000 13.352904
57.005 12.917664
57.010 12.480844
57.015 12.328579
57.020 12.6652
57.025 12.505722
57.030 11.997605
57.035 12.273187
57.040 12.75912
57.045 13.449963
57.050 13.875987
57.055 14.247243
57.060 14.505324
57.065 14.477992
57.070 14.142562
57.075 14.181963
57.080 13.913229
57.085 13.995811
57.090 13.739602
57.095 13.480542
57.100 13.347732
57.105 13.151364
57.110 12.558382
57.115 12.339935
57.120 11.9835
57.125 12.307388
57.130 12.243273
57.135 12.374861
57.140 12.716181
57.145 12.717686
57.150 12.747345
57.155 12.745919
57.160 12.679411
57.165 13.137619
57.170 13.494625
57.175 13.915536
57.180 14.334168
57.185 14.399161
57.190 14.34076
57.195 13.851306
57.200 13.321801
57.205 12.342247
57.210 12.295118
57.215 12.322433
57.220 12.558455
57.225 12.561872
57.230 12.838585
57.235 13.262996
57.240 13.61926
57.245 13.338499
57.250 13.18176
57.255 13.155925
57.260 13.41291
57.265 13.585744
57.270 13.692112
57.275 13.803458
57.280 14.061998
57.285 14.483809
57.290 14.820047
57.295 14.782166
57.300 14.562119
57.305 14.528547
57.310 14.306524
57.315 13.643393
57.320 13.048951
57.325 13.318659
57.330 13.164937
57.335 13.265493
57.340 13.193148
57.345 13.318687
57.350 13.552764
57.355 13.346063
57.360 12.572307
57.365 12.555293
57.370 12.660501
57.375 13.062675
57.380 14.080844
57.385 14.90477
57.390 15.424742
57.395 15.737554
57.400 15.919835
57.405 15.713758
57.410 15.205651
57.415 13.836105
57.420 13.042245
57.425 12.69471
57.430 12.766828
57.435 12.907317
57.440 13.361449
57.445 13.716674
57.450 14.500083
57.455 14.969852
57.460 15.400257
57.465 15.403309
57.470 15.439479
57.475 14.906213
57.480 14.91832
57.485 14.48261
57.490 13.726799
57.495 13.021146
57.500 13.139513
57.505 13.188042
57.510 13.555387
57.515 13.339256
57.520 13.295826
57.525 13.933234
57.530 14.153784
57.535 13.93605
57.540 14.419664
57.545 14.967787
57.550 15.32117
57.555 15.940619
57.560 15.871948
57.565 15.524132
57.570 15.266911
57.575 14.758473
57.580 14.083342
57.585 13.991552
57.590 13.479363
57.595 13.297339
57.600 14.010168
57.605 13.85078
57.610 13.425692
57.615 13.636403
57.620 13.745881
57.625 14.197879
57.630 14.783692
57.635 14.56249
57.640 14.501373
57.645 14.986406
57.650 15.33744
57.655 15.463422
57.660 15.082439
57.665 15.092208
57.670 15.711115
57.675 16.038904
57.680 15.686906
57.685 14.98245
57.690 15.16449
57.695 15.479826
57.700 14.942324
57.705 14.421747
57.710 14.49923
57.715 14.794162
57.720 15.008283
57.725 15.123971
57.730 15.048724
57.735 15.443521
57.740 15.592439
57.745 15.589955
57.750 15.860979
57.755 15.971432
57.760 15.606703
57.765 15.769215
57.770 15.511627
57.775 15.110306
57.780 14.503984
57.785 13.934351
57.790 13.30505
57.795 12.981489
57.800 12.563832
57.805 12.789059
57.810 13.477241
57.815 14.55667
57.820 14.887814
57.825 14.946539
57.830 15.480611
57.835 15.918916
57.840 15.589396
57.845 15.303525
57.850 14.802322
57.855 14.869723
57.860 15.550405
57.865 14.937884
57.870 14.740211
57.875 15.083494
57.880 15.200205
57.885 15.073858
57.890 14.958318
57.895 14.580791
57.900 14.716327
57.905 14.46911
57.910 14.339471
57.915 14.321409
57.920 14.077203
57.925 14.093267
57.930 14.263372
57.935 14.562587
57.940 14.713092
57.945 14.126206
57.950 14.237691
57.955 14.846211
57.960 15.16282
57.965 15.106258
57.970 15.18139
57.975 15.286057
57.980 16.07078
57.985 15.937353
57.990 15.163864
57.995 15.111598
58.000 15.273828
58.005 15.868752
58.010 16.449963
58.015 16.309687
58.020 16.626507
58.025 17.063278
58.030 16.711605
58.035 16.33918
58.040 15.767884
58.045 15.21475
58.050 15.230865
58.055 15.042493
58.060 14.985074
58.065 15.083296
58.070 15.251087
58.075 15.610012
58.080 15.445564
58.085 15.554294
58.090 15.963079
58.095 15.851709
58.100 16.227983
58.105 16.758411
58.110 16.677778
58.115 16.950748
58.120 16.974045
58.125 16.662533
58.130 17.178911
58.135 17.711414
58.140 17.32856
58.145 17.374666
58.150 17.375439
58.155 17.199785
58.160 17.063608
58.165 16.609413
58.170 16.289812
58.175 16.459888
58.180 16.974705
58.185 16.947977
58.190 16.508886
58.195 16.08181
58.200 16.035696
58.205 15.615875
58.210 14.94176
58.215 14.138623
58.220 14.824825
58.225 15.531157
58.230 16.272909
58.235 16.279591
58.240 16.421591
58.245 17.31513
58.250 17.632896
58.255 17.713179
58.260 17.651897
58.265 17.663971
58.270 17.955935
58.275 18.183252
58.280 18.183756
58.285 17.933107
58.290 17.79698
58.295 18.499769
58.300 18.918222
58.305 18.783894
58.310 18.965809
58.315 19.077625
58.320 19.526308
58.325 19.361809
58.330 18.800989
58.335 19.030272
58.340 18.941832
58.345 18.855623
58.350 19.136406
58.355 19.533211
58.360 19.556198
58.365 19.722231
58.370 19.964041
58.375 20.108654
58.380 19.634512
58.385 19.313652
58.390 19.936892
58.395 20.6779
58.400 21.110132
58.405 21.375916
58.410 21.784836
58.415 22.735182
58.420 22.559706
58.425 22.208107
58.430 22.216696
58.435 22.927788
58.440 23.890991
58.445 24.534977
58.450 24.583086
58.455 25.37022
58.460 26.100286
58.465 26.179075
58.470 25.849274
58.475 25.870113
58.480 26.250389
58.485 26.855659
58.490 27.326275
58.495 27.576239
58.500 27.258749
58.505 26.857712
58.510 26.208385
58.515 25.435108
58.520 25.778896
58.525 26.095629
58.530 26.064056
58.535 27.086142
58.540 28.123371
58.545 28.766027
58.550 29.368921
58.555 29.454926
58.560 30.408609
58.565 30.600107
58.570 30.585316
58.575 30.585869
58.580 30.798218
58.585 31.791306
58.590 32.409088
58.595 33.043346
58.600 33.589046
58.605 33.524662
58.610 33.697071
58.615 32.822655
58.620 32.379215
58.625 31.855673
58.630 31.23774
58.635 31.682768
58.640 32.083004
58.645 31.684473
58.650 32.888145
58.655 33.678291
58.660 34.031162
58.665 34.228668
58.670 33.250137
58.675 33.03595
58.680 33.099106
58.685 32.282253
58.690 31.959091
58.695 32.775661
58.700 32.289658
58.705 32.591442
58.710 33.109131
58.715 34.217392
58.720 34.516945
58.725 34.110466
58.730 33.302963
58.735 34.151382
58.740 34.288445
58.745 33.432117
58.750 32.562382
58.755 32.307796
58.760 32.172314
58.765 30.895666
58.770 29.468821
58.775 28.569027
58.780 28.759119
58.785 28.54171
58.790 27.981855
58.795 27.836746
58.800 27.938759
58.805 27.86705
58.810 28.369137
58.815 28.273258
58.820 28.093117
58.825 28.056143
58.830 27.005398
58.835 27.029341
58.840 27.02733
58.845 26.675053
58.850 26.325417
58.855 26.536652
58.860 26.575083
58.865 26.579121
58.870 25.824099
58.875 25.028357
58.880 24.06971
58.885 23.80793
58.890 24.094604
58.895 23.726116
58.900 24.019625
58.905 23.666565
58.910 23.391163
58.915 23.489973
58.920 22.883535
58.925 22.08963
58.930 22.008438
58.935 21.615015
58.940 21.457518
58.945 21.322603
58.950 20.940115
58.955 20.476351
58.960 19.680359
58.965 19.402325
58.970 19.499502
58.975 19.799961
58.980 20.214363
58.985 20.019516
58.990 19.969624
58.995 21.007555
59.000 20.568817
59.005 20.115192
59.010 19.773464
59.015 19.611387
59.020 20.128958
59.025 19.868141
59.030 19.555157
59.035 19.663536
59.040 19.902157
59.045 19.928087
59.050 19.473522
59.055 18.723522
59.060 18.4496
59.065 17.741539
59.070 17.081842
59.075 16.51545
59.080 16.174274
59.085 15.81867
59.090 16.184551
59.095 16.09095
59.100 15.879673
59.105 15.633987
59.110 15.058627
59.115 14.694855
59.120 14.696592
59.125 14.748395
59.130 15.435058
59.135 16.136396
59.140 16.140057
59.145 16.595364
59.150 17.1761
59.155 17.057024
59.160 16.858492
59.165 16.37039
59.170 15.932261
59.175 16.291853
59.180 16.005005
59.185 15.361683
59.190 15.514337
59.195 14.718662
59.200 14.492968
59.205 14.464229
59.210 14.529648
59.215 14.59874
59.220 15.059011
59.225 15.412
59.230 16.260681
59.235 16.624807
59.240 16.717617
59.245 16.833578
59.250 16.821613
59.255 16.383646
59.260 16.024815
59.265 15.735595
59.270 15.58308
59.275 15.810246
59.280 16.213745
59.285 16.044109
59.290 16.359833
59.295 16.529646
59.300 16.06073
59.305 15.451758
59.310 15.066193
59.315 14.426297
59.320 14.047528
59.325 13.634754
59.330 13.963862
59.335 14.532345
59.340 15.123698
59.345 14.884291
59.350 14.645945
59.355 14.375984
59.360 14.17397
59.365 13.731201
59.370 13.094282
59.375 13.098488
59.380 13.203062
59.385 13.753803
59.390 14.425736
59.395 14.632465
59.400 15.325499
59.405 15.59242
59.410 15.879899
59.415 15.784015
59.420 15.738779
59.425 15.562175
59.430 15.301829
59.435 15.303909
59.440 15.775322
59.445 16.040611
59.450 16.325512
59.455 17.246284
59.460 17.801878
59.465 17.576122
59.470 17.057396
59.475 16.432552
59.480 16.205215
59.485 16.441824
59.490 15.7352
59.495 15.178947
59.500 14.953097
59.505 14.882919
59.510 14.906147
59.515 14.902759
59.520 14.614881
59.525 14.415081
59.530 15.160423
59.535 14.942831
59.540 15.025491
59.545 14.876278
59.550 14.552251
59.555 14.549221
59.560 14.541325
59.565 13.944113
59.570 14.807075
59.575 14.88206
59.580 15.016932
59.585 15.107422
59.590 14.971126
59.595 14.737982
59.600 14.513613
59.605 14.016789
59.610 13.820905
59.615 13.497099
59.620 13.217858
59.625 13.422921
59.630 13.750319
59.635 13.939533
59.640 13.704076
59.645 14.106488
59.650 14.456943
59.655 14.973269
59.660 15.156182
59.665 15.112593
59.670 15.093401
59.675 15.161951
59.680 14.914151
59.685 14.775316
59.690 14.202149
59.695 14.579973
59.700 15.577905
59.705 15.527468
59.710 16.169565
59.715 15.952568
59.720 16.045536
59.725 16.298489
59.730 15.630075
59.735 15.186622
59.740 14.961489
59.745 14.664111
59.750 15.22824
59.755 15.329803
59.760 15.842296
59.765 16.091824
59.770 16.101892
59.775 16.357258
59.780 16.214031
59.785 15.761926
59.790 15.734448
59.795 15.046744
59.800 15.099503
59.805 14.864879
59.810 14.772503
59.815 14.75914
59.820 15.053477
59.825 15.081063
59.830 15.231678
59.835 15.430507
59.840 15.836212
59.845 15.658875
59.850 15.817125
59.855 15.534083
59.860 15.303419
59.865 15.31924
59.870 15.143748
59.875 14.730318
59.880 14.884414
59.885 14.666543
59.890 14.709382
59.895 15.161584
59.900 14.832972
59.905 14.449262
59.910 14.690203
59.915 14.748931
59.920 15.185859
59.925 15.422026
59.930 14.963807
59.935 15.142549
59.940 15.254488
59.945 14.913459
59.950 15.12678
59.955 15.004311
59.960 14.869046
59.965 15.368364
59.970 15.957797
59.975 15.904853
59.980 16.090397
59.985 16.194677
59.990 16.132097
59.995 15.973319
60.000 16.115751
60.005 15.9059
60.010 16.102562
60.015 16.356144
60.020 16.51417
60.025 16.57357
60.030 16.472805
60.035 15.998478
60.040 15.704938
60.045 16.176901
60.050 16.423368
60.055 16.183975
60.060 16.080006
60.065 16.231733
60.070 16.523359
60.075 16.783102
60.080 16.282087
60.085 15.606242
60.090 15.490884
60.095 15.678262
60.100 15.527329
60.105 15.366955
60.110 15.178133
60.115 15.041242
60.120 15.331459
60.125 15.587163
60.130 15.593979
60.135 15.556198
60.140 16.149155
60.145 16.207527
60.150 16.346083
60.155 16.72403
60.160 16.480259
60.165 16.339615
60.170 16.292046
60.175 15.44692
60.180 15.091633
60.185 15.074915
60.190 14.543648
60.195 14.418359
60.200 14.459612
60.205 14.630359
60.210 14.903382
60.215 15.246008
60.220 14.722382
60.225 14.613646
60.230 14.275697
60.235 14.36165
60.240 14.362989
60.245 14.293965
60.250 14.418354
60.255 14.818135
60.260 15.291169
60.265 16.055014
60.270 16.300871
60.275 16.36125
60.280 16.273321
60.285 15.87808
60.290 15.792233
60.295 15.491091
60.300 15.022413
60.305 14.465541
60.310 14.573944
60.315 14.608725
60.320 14.944506
60.325 14.795155
60.330 14.840366
60.335 14.862665
60.340 14.767742
60.345 14.318274
60.350 14.087716
60.355 13.68934
60.360 13.752577
60.365 13.585299
60.370 13.887294
60.375 14.254015
60.380 14.558466
60.385 14.39653
60.390 14.455619
60.395 15.659973
60.400 16.099598
60.405 15.67037
60.410 15.680229
60.415 15.953887
60.420 16.083271
60.425 15.9361
60.430 14.851315
60.435 14.85288
60.440 14.994224
60.445 14.738974
60.450 14.541861
60.455 14.921976
60.460 15.157021
60.465 15.395108
60.470 15.233328
60.475 15.144586
60.480 15.203719
60.485 15.356437
60.490 15.443992
60.495 15.437602
60.500 15.476401
60.505 15.573798
60.510 16.007605
60.515 16.377272
60.520 16.269239
60.525 16.248772
60.530 16.353794
60.535 16.393862
60.540 16.45838
60.545 15.997682
60.550 15.678855
60.555 15.886239
60.560 15.760066
60.565 15.532896
60.570 15.620691
60.575 15.663075
60.580 16.042049
60.585 16.283882
60.590 15.805075
60.595 16.240932
60.600 16.425791
60.605 16.403996
60.610 16.198771
60.615 15.78179
60.620 16.010023
60.625 16.179644
60.630 15.539533
60.635 15.047064
60.640 14.85091
60.645 15.36587
60.650 15.435188
60.655 15.146973
60.660 15.432638
60.665 15.818546
60.670 16.293829
60.675 16.219397
60.680 15.885417
60.685 15.971434
60.690 15.85347
60.695 16.133135
60.700 16.072603
60.705 16.512995
60.710 16.678431
60.715 16.835949
60.720 16.905609
60.725 16.718159
60.730 16.076941
60.735 15.911633
60.740 15.21801
60.745 14.998168
60.750 15.409363
60.755 15.270566
60.760 15.358272
60.765 15.804853
60.770 16.010098
60.775 15.909077
60.780 16.174078
60.785 16.336018
60.790 17.051178
60.795 16.791576
60.800 16.378412
60.805 16.550869
60.810 16.98712
60.815 16.775803
60.820 16.022154
60.825 15.569124
60.830 15.303115
60.835 15.126202
60.840 14.831518
60.845 14.45457
60.850 14.633124
60.855 15.496029
60.860 15.960956
60.865 16.382517
60.870 16.88241
60.875 16.701124
60.880 17.049709
60.885 17.306479
60.890 17.120987
60.895 17.07406
60.900 16.7854
60.905 16.582922
60.910 16.803923
60.915 16.497763
60.920 16.260902
60.925 16.093115
60.930 16.179239
60.935 16.702124
60.940 16.800301
60.945 16.675829
60.950 16.711674
60.955 16.777552
60.960 17.053671
60.965 17.111641
60.970 16.809307
60.975 16.543516
60.980 17.096975
60.985 17.106293
60.990 16.814383
60.995 16.549696
61.000 15.978785
61.005 16.168514
61.010 16.045383
61.015 15.410903
61.020 15.207584
61.025 14.824362
61.030 14.825171
61.035 15.225452
61.040 14.997423
61.045 14.816925
61.050 14.636781
61.055 15.157508
61.060 15.914942
61.065 15.774674
61.070 15.456306
61.075 15.318692
61.080 15.795877
61.085 16.114716
61.090 15.321878
61.095 14.967728
61.100 14.831737
61.105 15.130795
61.110 15.646887
61.115 15.701817
61.120 15.510001
61.125 15.512794
61.130 15.33639
61.135 15.611436
61.140 15.631727
61.145 15.549919
61.150 15.481243
61.155 16.007137
61.160 16.295736
61.165 16.521568
61.170 16.418882
61.175 16.100792
61.180 15.917181
61.185 15.870189
61.190 15.601252
61.195 15.587044
61.200 16.071257
61.205 16.510454
61.210 16.715935
61.215 17.013445
61.220 17.428818
61.225 17.666273
61.230 17.675165
61.235 17.274157
61.240 16.853249
61.245 16.777159
61.250 16.597029
61.255 16.125269
61.260 15.720314
61.265 15.618549
61.270 15.754396
61.275 16.224411
61.280 16.328703
61.285 16.134422
61.290 16.143345
61.295 16.299461
61.300 16.085615
61.305 15.409016
61.310 15.067304
61.315 15.131269
61.320 15.624467
61.325 16.086308
61.330 15.859472
61.335 15.559099
61.340 16.127892
61.345 16.197073
61.350 15.711671
61.355 15.332379
61.360 15.042654
61.365 15.093663
61.370 15.772331
61.375 15.197067
61.380 14.772966
61.385 15.163348
61.390 15.38225
61.395 15.284316
61.400 15.447594
61.405 14.824644
61.410 14.590857
61.415 14.886516
61.420 15.023693
61.425 14.966035
61.430 14.973549
61.435 14.724889
61.440 15.207254
61.445 15.682584
61.450 15.474821
61.455 15.128047
61.460 14.639343
61.465 14.250806
61.470 14.414552
61.475 15.058237
61.480 15.335465
61.485 15.481945
61.490 15.572303
61.495 16.133837
61.500 16.952902
61.505 17.315891
61.510 16.830935
61.515 16.935427
61.520 17.214005
61.525 17.867487
61.530 18.118998
61.535 17.816713
61.540 17.386141
61.545 17.310829
61.550 17.667725
61.555 17.903097
61.560 17.023182
61.565 16.708652
61.570 17.006611
61.575 17.146111
61.580 17.038719
61.585 16.490345
61.590 16.447189
61.595 17.148951
61.600 17.494873
61.605 17.322048
61.610 17.799009
61.615 18.292511
61.620 18.461617
61.625 18.058096
61.630 17.204323
61.635 16.957525
61.640 16.764782
61.645 16.849377
61.650 16.479393
61.655 16.06896
61.660 16.203472
61.665 16.473953
61.670 16.848625
61.675 17.306669
61.680 16.639301
61.685 16.641024
61.690 16.587381
61.695 16.399866
61.700 16.210196
61.705 15.558586
61.710 14.833513
61.715 15.008484
61.720 15.047935
61.725 15.07643
61.730 15.296723
61.735 15.62129
61.740 15.698911
61.745 15.730403
61.750 16.191256
61.755 16.325939
61.760 16.39994
61.765 16.388876
61.770 15.936635
61.775 15.826155
61.780 15.961151
61.785 15.065895
61.790 14.980071
61.795 14.934448
61.800 14.841919
61.805 15.383177
61.810 15.557535
61.815 15.907277
61.820 16.615595
61.825 16.557348
61.830 16.215729
61.835 16.036503
61.840 16.373341
61.845 16.516972
61.850 16.061274
61.855 15.714913
61.860 16.096983
61.865 16.512299
61.870 16.654873
61.875 16.664511
61.880 16.862377
61.885 17.192289
61.890 17.034679
61.895 16.567884
61.900 16.912552
61.905 16.60173
61.910 16.039059
61.915 15.568763
61.920 15.33712
61.925 15.326063
61.930 15.506258
61.935 14.791117
61.940 15.117082
61.945 15.344904
61.950 15.515576
61.955 15.751367
61.960 15.698335
61.965 15.568778
61.970 15.826547
61.975 15.696638
61.980 15.367333
61.985 15.283031
61.990 15.050584
61.995 15.193722
62.000 15.224821
62.005 15.11684
62.010 15.107903
62.015 15.099334
62.020 14.8368
62.025 14.886086
62.030 14.732236
62.035 14.751058
62.040 14.97384
62.045 15.044284
62.050 15.111078
62.055 14.814646
62.060 14.809836
62.065 14.893185
62.070 15.677342
62.075 16.142225
62.080 16.896479
62.085 17.257038
62.090 17.873991
62.095 18.127405
62.100 18.161482
62.105 17.696821
62.110 17.092793
62.115 16.493622
62.120 16.404251
62.125 16.00111
62.130 15.990713
62.135 15.939377
62.140 16.512932
62.145 16.801964
62.150 16.604998
62.155 16.652817
62.160 16.995676
62.165 17.286106
62.170 17.478968
62.175 16.734222
62.180 16.898582
62.185 17.371128
62.190 17.345947
62.195 17.198975
62.200 16.80098
62.205 16.636553
62.210 16.423531
62.215 15.880745
62.220 15.397264
62.225 15.552455
62.230 15.351678
62.235 15.683431
62.240 15.919347
62.245 16.255823
62.250 16.502169
62.255 16.66102
62.260 16.124617
62.265 15.948471
62.270 15.667244
62.275 15.17848
62.280 14.734541
62.285 14.991226
62.290 15.404625
62.295 15.796659
62.300 15.820061
62.305 15.538432
62.310 16.347214
62.315 16.748968
62.320 16.414305
62.325 16.270424
62.330 16.929506
62.335 17.771662
62.340 17.974339
62.345 17.782103
62.350 17.445562
62.355 17.294941
62.360 17.19043
62.365 17.01659
62.370 17.139585
62.375 17.002806
62.380 17.637783
62.385 17.897558
62.390 18.102608
62.395 17.919153
62.400 17.674051
62.405 17.186611
62.410 17.268372
62.415 16.593918
62.420 17.175127
62.425 17.036222
62.430 16.966829
62.435 16.38007
62.440 16.307974
62.445 16.536427
62.450 17.0933
62.455 16.515802
62.460 16.82683
62.465 16.842144
62.470 17.158319
62.475 17.256189
62.480 17.28685
62.485 17.008932
62.490 16.534912
62.495 16.3414
62.500 16.008066
62.505 16.101984
62.510 15.870499
62.515 16.385061
62.520 16.475628
62.525 16.983282
62.530 17.377077
62.535 18.027695
62.540 18.187
62.545 18.031631
62.550 16.853575
62.555 16.764168
62.560 16.38114
62.565 16.166666
62.570 15.639795
62.575 15.541655
62.580 15.602305
62.585 15.804072
62.590 15.829598
62.595 16.42522
62.600 16.460684
62.605 16.276089
62.610 16.103659
62.615 15.976001
62.620 15.896163
62.625 15.476967
62.630 14.876892
62.635 14.557353
62.640 14.653876
62.645 15.239518
62.650 15.260929
62.655 14.792458
62.660 15.046992
62.665 15.056547
62.670 15.609972
62.675 16.336525
62.680 16.042574
62.685 16.506765
62.690 17.347843
62.695 16.972404
62.700 17.00522
62.705 16.844067
62.710 16.408384
62.715 17.111609
62.720 16.999615
62.725 16.720669
62.730 17.150867
62.735 17.093563
62.740 17.192081
62.745 17.46373
62.750 16.808519
62.755 16.642969
62.760 16.280184
62.765 16.396255
62.770 16.836914
62.775 17.059698
62.780 16.882435
62.785 16.672611
62.790 17.098026
62.795 17.4587
62.800 17.451849
62.805 17.317112
62.810 16.858942
62.815 17.13129
62.820 17.162727
62.825 16.733091
62.830 17.122782
62.835 17.069218
62.840 17.707737
62.845 17.884087
62.850 17.439936
62.855 18.07445
62.860 19.156969
62.865 19.293377
62.870 19.360132
62.875 18.352642
62.880 18.232777
62.885 17.891691
62.890 16.92061
62.895 15.800853
62.900 15.203583
62.905 15.316108
62.910 15.338697
62.915 14.708125
62.920 14.679645
62.925 14.590922
62.930 14.502429
62.935 14.402374
62.940 14.124815
62.945 14.24535
62.950 14.785395
62.955 15.235528
62.960 15.235483
62.965 15.248218
62.970 15.43955
62.975 15.94435
62.980 16.190939
62.985 16.289034
62.990 16.055933
62.995 16.584068
63.000 17.001183
63.005 16.819845
63.010 16.903828
63.015 16.818314
63.020 16.40061
63.025 16.407495
63.030 15.870479
63.035 15.874245
63.040 16.176981
63.045 16.202858
63.050 16.651104
63.055 17.120138
63.060 17.391741
63.065 17.932676
63.070 18.431908
63.075 19.019361
63.080 19.105009
63.085 19.10955
63.090 19.556009
63.095 19.325806
63.100 18.925478
63.105 18.873466
63.110 18.469982
63.115 18.142494
63.120 17.701817
63.125 17.096933
63.130 17.484735
63.135 17.451836
63.140 17.278248
63.145 16.804205
63.150 16.768522
63.155 16.617668
63.160 16.505634
63.165 16.656534
63.170 16.737299
63.175 16.565006
63.180 16.805481
63.185 16.987333
63.190 17.534399
63.195 17.342377
63.200 17.067217
63.205 17.22368
63.210 17.057007
63.215 17.021936
63.220 16.673035
63.225 16.393766
63.230 16.687878
63.235 16.605261
63.240 17.194929
63.245 17.117275
63.250 16.645617
63.255 17.147953
63.260 17.651058
63.265 17.941036
63.270 17.656769
63.275 17.013378
63.280 17.222231
63.285 18.113867
63.290 17.962734
63.295 17.370935
63.300 17.361017
63.305 17.305004
63.310 17.237249
63.315 17.399532
63.320 16.767418
63.325 16.648069
63.330 17.466009
63.335 17.260178
63.340 17.862541
63.345 17.678408
63.350 17.46244
63.355 17.715485
63.360 18.311996
63.365 17.93152
63.370 18.156445
63.375 17.603304
63.380 17.836628
63.385 18.328165
63.390 18.593325
63.395 18.212893
63.400 17.8237
63.405 17.543709
63.410 17.472784
63.415 17.070738
63.420 17.227566
63.425 16.815392
63.430 16.617813
63.435 17.248629
63.440 17.409618
63.445 17.96945
63.450 18.485191
63.455 17.70278
63.460 17.46055
63.465 17.414843
63.470 16.815264
63.475 17.075115
63.480 17.068609
63.485 16.969597
63.490 17.041065
63.495 17.692541
63.500 17.685289
63.505 18.001667
63.510 17.546452
63.515 17.10117
63.520 16.824974
63.525 17.090399
63.530 16.16416
63.535 16.105568
63.540 15.783052
63.545 15.80837
63.550 15.490764
63.555 15.844432
63.560 15.742559
63.565 16.599848
63.570 17.016836
63.575 17.526554
63.580 17.804865
63.585 18.274027
63.590 18.194794
63.595 18.536591
63.600 18.451662
63.605 18.339624
63.610 18.51222
63.615 18.759243
63.620 19.022732
63.625 18.879459
63.630 18.315788
63.635 18.067755
63.640 18.155859
63.645 18.200636
63.650 18.725945
63.655 19.291677
63.660 19.395033
63.665 20.670769
63.670 21.247097
63.675 21.242765
63.680 21.479866
63.685 20.669157
63.690 19.918873
63.695 19.63979
63.700 18.690338
63.705 18.307915
63.710 18.574917
63.715 18.710833
63.720 18.785507
63.725 18.867886
63.730 19.248741
63.735 19.598673
63.740 19.801823
63.745 18.582918
63.750 17.832899
63.755 17.602407
63.760 17.544304
63.765 17.460028
63.770 16.868305
63.775 16.854113
63.780 17.871786
63.785 18.629047
63.790 19.132471
63.795 19.327045
63.800 19.462469
63.805 19.476484
63.810 19.151409
63.815 19.231239
63.820 19.279709
63.825 19.410212
63.830 19.540085
63.835 19.67444
63.840 20.601734
63.845 21.261499
63.850 21.396502
63.855 21.206457
63.860 21.554873
63.865 21.792301
63.870 21.833717
63.875 21.573595
63.880 21.227652
63.885 20.985413
63.890 20.934513
63.895 20.556047
63.900 20.846308
63.905 20.568506
63.910 20.538372
63.915 21.046356
63.920 21.706705
63.925 21.764694
63.930 21.798504
63.935 21.6157
63.940 21.70985
63.945 21.998005
63.950 21.992292
63.955 22.384159
63.960 22.843271
63.965 22.863583
63.970 22.724125
63.975 22.948406
63.980 22.187172
63.985 21.677874
63.990 20.232201
63.995 19.732315
64.000 19.564075
64.005 20.003611
64.010 21.114204
64.015 22.912174
64.020 23.7022
64.025 25.194792
64.030 25.921396
64.035 25.96216
64.040 25.835217
64.045 24.721291
64.050 24.639511
64.055 24.967745
64.060 24.640589
64.065 25.110552
64.070 26.125933
64.075 27.269749
64.080 27.195435
64.085 27.135952
64.090 26.938675
64.095 26.737186
64.100 26.007988
64.105 25.807535
64.110 25.565075
64.115 26.487129
64.120 26.979969
64.125 27.497074
64.130 28.321922
64.135 29.868324
64.140 30.451895
64.145 30.373854
64.150 30.148479
64.155 30.517519
64.160 30.181469
64.165 30.515043
64.170 30.995279
64.175 30.713926
64.180 31.055925
64.185 32.052155
64.190 32.970192
64.195 34.33173
64.200 34.783829
64.205 34.647808
64.210 34.985714
64.215 35.528618
64.220 35.584648
64.225 35.799904
64.230 35.569351
64.235 35.726406
64.240 36.223061
64.245 36.572067
64.250 37.15802
64.255 37.582508
64.260 37.063053
64.265 37.441753
64.270 37.822262
64.275 37.877308
64.280 38.122612
64.285 38.845573
64.290 39.664539
64.295 40.060261
64.300 39.963329
64.305 39.611984
64.310 40.079933
64.315 40.324856
64.320 40.508286
64.325 40.178772
64.330 41.270226
64.335 41.269032
64.340 41.320038
64.345 41.499542
64.350 41.766033
64.355 41.955753
64.360 42.94585
64.365 43.030247
64.370 43.753586
64.375 43.975079
64.380 44.62212
64.385 44.156403
64.390 43.397469
64.395 43.179119
64.400 43.094578
64.405 43.093967
64.410 42.903316
64.415 42.538498
64.420 43.132275
64.425 43.686852
64.430 43.189178
64.435 43.366871
64.440 43.741077
64.445 44.102318
64.450 44.198891
64.455 43.98325
64.460 43.536156
64.465 43.449867
64.470 42.739067
64.475 42.388783
64.480 42.236443
64.485 41.983746
64.490 42.125702
64.495 41.700218
64.500 41.310917
64.505 42.010883
64.510 42.129772
64.515 41.84885
64.520 41.192951
64.525 41.226536
64.530 41.535542
64.535 41.774544
64.540 41.05109
64.545 40.22707
64.550 39.63224
64.555 39.305424
64.560 38.329266
64.565 37.63747
64.570 36.905243
64.575 35.621227
64.580 34.972454
64.585 35.121651
64.590 34.650394
64.595 34.176342
64.600 33.530319
64.605 32.83292
64.610 32.552048
64.615 31.366016
64.620 30.575394
64.625 30.548355
64.630 29.958809
64.635 29.444038
64.640 29.465212
64.645 30.550312
64.650 31.108332
64.655 30.643887
64.660 30.696249
64.665 30.742746
64.670 30.917393
64.675 30.252354
64.680 29.261351
64.685 28.95293
64.690 27.800295
64.695 27.572763
64.700 28.412218
64.705 28.14315
64.710 27.826439
64.715 27.381065
64.720 27.08547
64.725 27.156719
64.730 26.667448
64.735 24.962715
64.740 24.283466
64.745 23.535954
64.750 23.429176
64.755 23.278097
64.760 22.843292
64.765 22.884525
64.770 23.364578
64.775 23.232334
64.780 23.271645
64.785 23.375223
64.790 23.641027
64.795 23.731255
64.800 23.014652
64.805 22.803446
64.810 23.478231
64.815 23.31535
64.820 22.52388
64.825 22.072842
64.830 21.766724
64.835 22.118462
64.840 22.068243
64.845 21.336588
64.850 21.330191
64.855 21.672369
64.860 21.244598
64.865 21.213232
64.870 20.532963
64.875 20.357086
64.880 20.577423
64.885 20.547943
64.890 20.980841
64.895 21.180677
64.900 21.087833
64.905 21.475538
64.910 21.914177
64.915 21.697092
64.920 21.434532
64.925 21.252457
64.930 21.26049
64.935 21.476257
64.940 21.50148
64.945 21.571177
64.950 22.218887
64.955 22.773163
64.960 23.186117
64.965 23.870228
64.970 24.394428
64.975 24.308949
64.980 24.15484
64.985 23.671495
64.990 23.74444
64.995 23.581158
65.000 23.542786
65.005 23.957325
65.010 24.269543
65.015 24.704754
65.020 25.408123
65.025 25.547787
65.030 25.820951
65.035 25.818186
65.040 25.586527
65.045 26.534304
65.050 26.571026
65.055 25.967194
65.060 25.689608
65.065 26.003305
65.070 26.467291
65.075 26.435766
65.080 25.592539
65.085 24.921886
65.090 25.357323
65.095 25.997282
65.100 26.01581
65.105 26.507141
65.110 27.519032
65.115 28.404896
65.120 29.441381
65.125 30.590837
65.130 30.805742
65.135 31.135784
65.140 31.370131
65.145 31.36352
65.150 31.177252
65.155 31.223885
65.160 30.742273
65.165 31.229458
65.170 31.335375
65.175 31.155745
65.180 30.467728
65.185 30.552607
65.190 30.272348
65.195 30.460739
65.200 29.564495
65.205 28.770651
65.210 28.190207
65.215 28.312853
65.220 28.63162
65.225 28.917963
65.230 29.43782
65.235 30.147917
65.240 30.286419
65.245 31.037624
65.250 31.433651
65.255 31.942472
65.260 32.242149
65.265 31.576466
65.270 30.864311
65.275 30.618422
65.280 29.855125
65.285 29.379572
65.290 28.757982
65.295 28.413622
65.300 29.179319
65.305 30.248283
65.310 31.360392
65.315 32.654156
65.320 33.642879
65.325 33.499275
65.330 32.966309
65.335 32.329494
65.340 32.129639
65.345 32.37851
65.350 32.494946
65.355 32.208385
65.360 33.121536
65.365 34.520203
65.370 35.27071
65.375 35.487431
65.380 35.794071
65.385 36.053894
65.390 36.442478
65.395 36.843918
65.400 36.119366
65.405 36.018383
65.410 36.30098
65.415 35.883747
65.420 35.260078
65.425 35.032223
65.430 34.88131
65.435 35.387833
65.440 36.16433
65.445 36.088192
65.450 35.619503
65.455 35.57629
65.460 35.331314
65.465 35.18346
65.470 34.963577
65.475 33.905537
65.480 34.142101
65.485 34.584015
65.490 34.79673
65.495 34.57198
65.500 34.227783
65.505 33.897621
65.510 33.475189
65.515 33.276623
65.520 33.351238
65.525 33.566975
65.530 33.718719
65.535 33.607376
65.540 34.3423
65.545 35.402958
65.550 35.657791
65.555 35.512627
65.560 35.537052
65.565 35.704632
65.570 36.278519
65.575 36.710762
65.580 37.294609
65.585 37.525616
65.590 37.949928
65.595 38.058483
65.600 38.295193
65.605 38.898277
65.610 39.649181
65.615 40.128101
65.620 40.124969
65.625 40.342644
65.630 40.515869
65.635 41.017796
65.640 40.864677
65.645 40.050484
65.650 38.9562
65.655 38.696972
65.660 39.091763
65.665 39.666492
65.670 38.81839
65.675 38.538517
65.680 38.150517
65.685 38.188282
65.690 37.744541
65.695 37.143299
65.700 36.534367
65.705 36.984409
65.710 37.068687
65.715 36.978676
65.720 37.294868
65.725 37.3647
65.730 37.660393
65.735 38.009377
65.740 37.596287
65.745 38.056366
65.750 39.633385
65.755 40.242233
65.760 39.793419
65.765 39.202938
65.770 38.878998
65.775 38.898811
65.780 38.430523
65.785 37.561996
65.790 37.785362
65.795 38.778976
65.800 38.844692
65.805 39.282642
65.810 39.597134
65.815 39.135704
65.820 38.530045
65.825 38.434586
65.830 38.063442
65.835 37.520626
65.840 37.203808
65.845 36.924324
65.850 37.337742
65.855 36.35146
65.860 34.9398
65.865 35.315636
65.870 35.859844
65.875 35.281685
65.880 34.768139
65.885 34.519173
65.890 34.603672
65.895 34.584377
65.900 34.182816
65.905 33.643265
65.910 33.232582
65.915 32.771572
65.920 32.193748
65.925 31.66905
65.930 30.787613
65.935 30.560778
65.940 30.388414
65.945 29.935905
65.950 29.681625
65.955 29.862425
65.960 29.338886
65.965 29.364002
65.970 28.545631
65.975 28.459656
65.980 28.551544
65.985 28.078049
65.990 27.57332
65.995 27.492868
66.000 27.310444
66.005 27.616003
66.010 27.334833
66.015 27.317902
66.020 27.183405
66.025 26.864189
66.030 27.595097
66.035 27.8078
66.040 27.491787
66.045 27.135038
66.050 26.072163
66.055 25.618128
66.060 25.460945
66.065 24.292797
66.070 23.894306
66.075 23.604729
66.080 23.545736
66.085 24.072088
66.090 23.823463
66.095 23.287909
66.100 23.007296
66.105 22.330763
66.110 22.402866
66.115 22.065056
66.120 22.065765
66.125 22.508169
66.130 22.296824
66.135 22.476141
66.140 22.480778
66.145 21.738834
66.150 21.498276
66.155 21.099085
66.160 21.119883
66.165 21.119974
66.170 20.761309
66.175 20.634007
66.180 20.99667
66.185 21.130707
66.190 20.6015
66.195 20.12882
66.200 20.146223
66.205 20.06258
66.210 19.72646
66.215 19.307064
66.220 18.810379
66.225 18.970989
66.230 18.993135
66.235 18.157232
66.240 18.070448
66.245 18.845621
66.250 19.398489
66.255 19.999714
66.260 20.101578
66.265 20.297935
66.270 20.51207
66.275 20.379265
66.280 19.709793
66.285 19.719173
66.290 19.417517
66.295 19.208944
66.300 19.578794
66.305 19.53211
66.310 19.217361
66.315 18.962996
66.320 18.748758
66.325 18.944962
66.330 18.893673
66.335 18.726402
66.340 18.670246
66.345 19.267803
66.350 19.458792
66.355 19.481222
66.360 19.239437
66.365 19.182945
66.370 19.042036
66.375 19.470905
66.380 18.625711
66.385 17.936102
66.390 18.404871
66.395 19.145546
66.400 19.107103
66.405 18.55135
66.410 18.222343
66.415 18.826906
66.420 19.644506
66.425 19.692368
66.430 18.989929
66.435 19.316488
66.440 20.191118
66.445 20.364389
66.450 20.223801
66.455 19.8528
66.460 20.003252
66.465 20.360556
66.470 20.547651
66.475 20.589739
66.480 20.660511
66.485 20.677532
66.490 20.831545
66.495 21.20652
66.500 21.411152
66.505 21.415176
66.510 21.30386
66.515 20.94239
66.520 21.088818
66.525 20.696701
66.530 19.826725
66.535 19.427145
66.540 19.358244
66.545 19.662973
66.550 20.22294
66.555 19.580078
66.560 19.157194
66.565 19.359606
66.570 19.069237
66.575 18.294823
66.580 18.126549
66.585 18.40411
66.590 19.159447
66.595 19.653675
66.600 19.598555
66.605 19.893204
66.610 19.915257
66.615 19.115749
66.620 18.716471
66.625 18.232056
66.630 18.054789
66.635 17.664713
66.640 17.89432
66.645 18.612076
66.650 18.991758
66.655 18.523598
66.660 18.0802
66.665 18.321321
66.670 18.736397
66.675 18.479898
66.680 18.343561
66.685 18.721252
66.690 18.88418
66.695 18.977972
66.700 18.293602
66.705 17.886536
66.710 17.258728
66.715 16.642452
66.720 16.420872
66.725 17.032248
66.730 17.229958
66.735 17.566776
66.740 17.908443
66.745 17.883238
66.750 17.686682
66.755 17.934416
66.760 17.808414
66.765 18.28647
66.770 18.253351
66.775 18.300613
66.780 18.702986
66.785 18.72015
66.790 18.816149
66.795 18.787613
66.800 18.760294
66.805 18.689966
66.810 18.930483
66.815 19.444323
66.820 19.700344
66.825 18.907269
66.830 18.436043
66.835 17.970423
66.840 17.562643
66.845 17.396969
66.850 16.665678
66.855 16.406879
66.860 16.499147
66.865 16.746901
66.870 17.204544
66.875 17.631916
66.880 17.627823
66.885 17.860262
66.890 18.102087
66.895 18.392744
66.900 18.009113
66.905 18.191923
66.910 18.239429
66.915 18.251509
66.920 18.140259
66.925 17.918072
66.930 17.934237
66.935 18.041241
66.940 17.766134
66.945 18.280518
66.950 18.300602
66.955 18.66151
66.960 18.687342
66.965 18.460678
66.970 18.335476
66.975 18.052872
66.980 17.838522
66.985 17.950821
66.990 17.719854
66.995 17.499634
67.000 17.460655
67.005 17.345503
67.010 16.942831
67.015 16.746485
67.020 16.732027
67.025 17.232056
67.030 17.83783
67.035 18.124825
67.040 18.434328
67.045 19.236282
67.050 18.961319
67.055 17.945879
67.060 17.97711
67.065 17.71862
67.070 17.776201
67.075 18.154184
67.080 17.746622
67.085 17.754959
67.090 18.262594
67.095 17.916622
67.100 17.436953
67.105 16.986944
67.110 16.83362
67.115 17.04619
67.120 17.689205
67.125 18.02936
67.130 18.84119
67.135 19.837307
67.140 19.666769
67.145 19.407373
67.150 19.837347
67.155 19.527752
67.160 19.295002
67.165 18.670227
67.170 18.43294
67.175 18.827198
67.180 18.647827
67.185 18.243496
67.190 18.826494
67.195 19.045313
67.200 19.114901
67.205 18.82943
67.210 18.935677
67.215 19.00668
67.220 19.067236
67.225 18.482811
67.230 17.996998
67.235 18.067606
67.240 18.582268
67.245 17.913031
67.250 17.886869
67.255 17.778772
67.260 18.288458
67.265 18.391888
67.270 18.104628
67.275 18.06785
67.280 18.333227
67.285 18.324781
67.290 17.645281
67.295 17.024031
67.300 17.097845
67.305 17.342535
67.310 17.99128
67.315 18.235603
67.320 18.780279
67.325 18.899561
67.330 19.133654
67.335 19.35644
67.340 19.416538
67.345 18.858994
67.350 19.055731
67.355 18.733908
67.360 18.962461
67.365 19.009804
67.370 18.725431
67.375 18.559849
67.380 18.17296
67.385 17.708895
67.390 17.777536
67.395 18.010475
67.400 17.795382
67.405 17.344957
67.410 16.911617
67.415 17.200459
67.420 17.063215
67.425 17.2439
67.430 17.039627
67.435 17.342062
67.440 17.931164
67.445 18.105619
67.450 17.860704
67.455 17.863119
67.460 18.087858
67.465 17.971367
67.470 17.666681
67.475 17.728001
67.480 18.167997
67.485 18.733799
67.490 18.990135
67.495 18.354462
67.500 18.673847
67.505 18.834
67.510 18.830471
67.515 18.816578
67.520 18.733028
67.525 18.877859
67.530 19.313265
67.535 19.552959
67.540 19.210012
67.545 19.10552
67.550 19.014626
67.555 19.147806
67.560 19.523584
67.565 19.783075
67.570 19.62005
67.575 19.973087
67.580 19.99823
67.585 19.664707
67.590 19.709354
67.595 19.106392
67.600 18.890135
67.605 18.878361
67.610 18.681768
67.615 18.741083
67.620 19.122322
67.625 18.844667
67.630 19.040586
67.635 18.939503
67.640 18.770437
67.645 18.632027
67.650 18.476385
67.655 18.745411
67.660 18.712769
67.665 18.897465
67.670 19.278933
67.675 19.807184
67.680 20.231678
67.685 20.220427
67.690 19.838638
67.695 19.498674
67.700 19.065178
67.705 18.583353
67.710 18.3517
67.715 18.227962
67.720 18.605867
67.725 18.99782
67.730 19.177589
67.735 19.36146
67.740 19.290071
67.745 19.077318
67.750 19.080517
67.755 18.372929
67.760 17.794981
67.765 18.09791
67.770 18.205162
67.775 18.053139
67.780 17.709984
67.785 17.069672
67.790 17.219172
67.795 16.987843
67.800 16.845268
67.805 17.264193
67.810 17.614021
67.815 17.688955
67.820 18.38133
67.825 18.465214
67.830 18.60714
67.835 18.387283
67.840 17.904516
67.845 17.928146
67.850 17.698071
67.855 17.725277
67.860 18.139435
67.865 18.158497
67.870 18.198164
67.875 18.852629
67.880 19.183371
67.885 19.080721
67.890 18.765182
67.895 19.340546
67.900 19.974709
67.905 19.988914
67.910 19.887392
67.915 20.035297
67.920 20.160418
67.925 19.88229
67.930 19.110954
67.935 18.615376
67.940 18.567875
67.945 18.322006
67.950 18.585609
67.955 19.435944
67.960 19.45108
67.965 19.39455
67.970 19.214516
67.975 19.025019
67.980 19.021187
67.985 18.753773
67.990 18.798237
67.995 19.035049
68.000 19.373987
68.005 19.812481
68.010 19.724678
68.015 19.833538
68.020 19.442595
68.025 19.441586
68.030 19.619005
68.035 19.232183
68.040 19.502045
68.045 19.209047
68.050 19.175417
68.055 19.180904
68.060 19.24354
68.065 19.808889
68.070 20.226671
68.075 20.488214
68.080 20.842781
68.085 21.450754
68.090 22.179941
68.095 21.591516
68.100 21.032528
68.105 20.72467
68.110 20.129898
68.115 19.883366
68.120 19.075863
68.125 18.31019
68.130 18.312651
68.135 18.167055
68.140 18.530315
68.145 18.562931
68.150 18.341179
68.155 18.350016
68.160 18.554207
68.165 18.912821
68.170 18.94809
68.175 18.625557
68.180 18.813532
68.185 19.283314
68.190 19.240347
68.195 19.03742
68.200 19.102974
68.205 19.587603
68.210 20.570354
68.215 20.785303
68.220 20.92791
68.225 21.101736
68.230 20.951035
68.235 20.713877
68.240 20.621714
68.245 19.852608
68.250 19.502375
68.255 19.752468
68.260 20.566282
68.265 21.365583
68.270 21.896902
68.275 21.655598
68.280 21.789612
68.285 22.141624
68.290 22.001251
68.295 22.07494
68.300 21.268665
68.305 20.632843
68.310 20.877153
68.315 21.640116
68.320 21.503914
68.325 21.292866
68.330 20.826117
68.335 21.669123
68.340 22.401649
68.345 22.48173
68.350 22.687609
68.355 23.183432
68.360 23.372017
68.365 23.429565
68.370 23.698692
68.375 24.042114
68.380 23.886379
68.385 23.782799
68.390 24.123692
68.395 24.649992
68.400 25.15749
68.405 24.707119
68.410 24.484451
68.415 24.719391
68.420 24.767511
68.425 25.087751
68.430 25.01713
68.435 25.32901
68.440 25.218489
68.445 25.407938
68.450 26.071556
68.455 26.44315
68.460 25.980247
68.465 25.629469
68.470 25.67602
68.475 26.056889
68.480 26.26355
68.485 26.00845
68.490 26.218237
68.495 27.043024
68.500 27.615284
68.505 27.53595
68.510 27.73418
68.515 27.560755
68.520 27.691425
68.525 27.278469
68.530 27.834345
68.535 28.090372
68.540 28.330536
68.545 28.733772
68.550 29.556793
68.555 29.906582
68.560 30.121489
68.565 29.767521
68.570 30.23484
68.575 30.455458
68.580 30.163336
68.585 29.597027
68.590 29.568783
68.595 29.821619
68.600 29.069138
68.605 27.88311
68.610 27.778906
68.615 28.113148
68.620 28.22282
68.625 28.218958
68.630 28.299562
68.635 28.740282
68.640 30.052467
68.645 30.455183
68.650 30.111671
68.655 30.599508
68.660 30.672789
68.665 30.002029
68.670 30.425215
68.675 30.552752
68.680 31.079124
68.685 31.603554
68.690 31.81608
68.695 32.402039
68.700 32.750046
68.705 32.787716
68.710 32.228474
68.715 32.1101
68.720 32.009579
68.725 31.429207
68.730 31.708513
68.735 32.695824
68.740 32.93071
68.745 33.3279
68.750 33.365578
68.755 32.975788
68.760 33.817886
68.765 33.413715
68.770 32.80711
68.775 32.871933
68.780 32.31139
68.785 32.082581
68.790 32.644295
68.795 33.049141
68.800 33.648071
68.805 34.507706
68.810 34.450207
68.815 34.816872
68.820 35.199471
68.825 35.280556
68.830 34.558048
68.835 34.488281
68.840 34.443962
68.845 34.817768
68.850 34.947647
68.855 34.88356
68.860 35.065548
68.865 36.073986
68.870 36.173229
68.875 35.691231
68.880 35.762939
68.885 36.032372
68.890 36.127735
68.895 36.247555
68.900 35.809334
68.905 35.444721
68.910 34.956699
68.915 34.661747
68.920 34.865028
68.925 34.490803
68.930 34.308407
68.935 34.784996
68.940 35.403332
68.945 36.161308
68.950 36.121819
68.955 35.471344
68.960 34.50169
68.965 34.218777
68.970 33.731152
68.975 33.220062
68.980 32.936604
68.985 32.590145
68.990 32.735695
68.995 33.639008
69.000 33.384792
69.005 33.187664
69.010 32.747818
69.015 32.54509
69.020 32.62598
69.025 32.795536
69.030 32.404469
69.035 31.522121
69.040 31.433739
69.045 32.080948
69.050 32.013317
69.055 32.662891
69.060 32.880459
69.065 33.794727
69.070 34.632874
69.075 34.416084
69.080 34.117138
69.085 34.219948
69.090 33.564869
69.095 33.267941
69.100 32.843254
69.105 32.344044
69.110 32.014416
69.115 31.733225
69.120 31.700788
69.125 31.540264
69.130 31.502499
69.135 32.025082
69.140 32.208714
69.145 31.697432
69.150 30.82617
69.155 30.363869
69.160 30.200193
69.165 29.779245
69.170 28.988579
69.175 28.530884
69.180 29.031012
69.185 28.97226
69.190 28.799351
69.195 28.111582
69.200 27.439301
69.205 26.615288
69.210 26.064377
69.215 25.29917
69.220 24.988871
69.225 24.95701
69.230 24.632339
69.235 25.073566
69.240 25.558788
69.245 24.703478
69.250 25.482843
69.255 25.311899
69.260 25.571032
69.265 25.184265
69.270 25.118546
69.275 24.962406
69.280 25.241606
69.285 24.790529
69.290 24.474638
69.295 23.982203
69.300 24.577765
69.305 24.27713
69.310 24.390152
69.315 23.608459
69.320 22.716564
69.325 22.323305
69.330 22.257904
69.335 21.355942
69.340 21.113579
69.345 20.581522
69.350 21.44635
69.355 20.928377
69.360 20.9065
69.365 21.56181
69.370 21.944475
69.375 21.658487
69.380 20.701988
69.385 20.54995
69.390 20.705891
69.395 20.366602
69.400 19.782537
69.405 19.722788
69.410 19.730263
69.415 19.732681
69.420 19.508112
69.425 19.772106
69.430 19.91992
69.435 20.067179
69.440 20.179325
69.445 20.703869
69.450 21.427048
69.455 21.71809
69.460 21.475708
69.465 20.535589
69.470 19.883226
69.475 19.571386
69.480 19.191969
69.485 18.294947
69.490 18.049522
69.495 18.583609
69.500 19.018023
69.505 19.35931
69.510 19.376041
69.515 19.287462
69.520 19.753107
69.525 19.912935
69.530 19.536371
69.535 19.705795
69.540 19.882526
69.545 20.09597
69.550 20.645267
69.555 20.677906
69.560 20.793493
69.565 21.059801
69.570 21.309677
69.575 21.0886
69.580 20.807981
69.585 20.270203
69.590 20.271761
69.595 20.259605
69.600 20.000397
69.605 20.089386
69.610 20.479284
69.615 20.780294
69.620 20.678514
69.625 20.009401
69.630 19.824959
69.635 19.629187
69.640 18.911369
69.645 18.374096
69.650 18.07616
69.655 18.185806
69.660 17.866331
69.665 17.595072
69.670 17.509235
69.675 17.78768
69.680 18.441965
69.685 18.95046
69.690 19.416487
69.695 19.960871
69.700 20.389538
69.705 20.100826
69.710 19.979364
69.715 19.464514
69.720 18.956266
69.725 19.296768
69.730 19.383963
69.735 19.916376
69.740 20.179674
69.745 19.968771
69.750 20.229931
69.755 20.4484
69.760 19.491711
69.765 18.917696
69.770 18.779278
69.775 18.694147
69.780 18.880001
69.785 19.776754
69.790 20.114977
69.795 20.89101
69.800 20.965832
69.805 20.534817
69.810 20.845882
69.815 21.176958
69.820 20.626102
69.825 20.15798
69.830 19.963001
69.835 19.250168
69.840 19.021456
69.845 18.397894
69.850 17.643877
69.855 17.07259
69.860 16.128273
69.865 16.067198
69.870 16.786524
69.875 17.347033
69.880 18.344465
69.885 18.662699
69.890 18.816437
69.895 19.169731
69.900 19.395136
69.905 19.893768
69.910 19.688618
69.915 18.972628
69.920 18.617485
69.925 18.862801
69.930 19.592522
69.935 19.640545
69.940 18.871752
69.945 18.37776
69.950 17.818357
69.955 18.29578
69.960 18.197281
69.965 17.763464
69.970 17.734663
69.975 17.585079
69.980 17.585342
69.985 17.346825
69.990 17.162155
69.995 17.178988
70.000 17.318775
70.005 17.344137
70.010 17.398745
70.015 18.296068
70.020 18.978966
70.025 18.826019
70.030 18.546984
70.035 18.314827
70.040 18.562466
70.045 18.519325
70.050 18.061481
70.055 17.237804
70.060 17.009645
70.065 17.951906
70.070 18.423359
70.075 18.306475
70.080 18.694744
70.085 18.944757
70.090 19.640312
70.095 20.113234
70.100 19.665792
70.105 19.173372
70.110 18.74865
70.115 18.969118
70.120 19.000975
70.125 19.117592
70.130 19.162184
70.135 19.081587
70.140 19.720877
70.145 19.809917
70.150 19.259375
70.155 18.358643
70.160 17.828634
70.165 17.471233
70.170 17.105804
70.175 17.339207
70.180 17.907375
70.185 18.224049
70.190 18.739807
70.195 18.873148
70.200 19.010485
70.205 18.554029
70.210 18.557085
70.215 18.128431
70.220 18.456707
70.225 18.313055
70.230 17.744282
70.235 17.702784
70.240 17.826694
70.245 17.237545
70.250 17.227215
70.255 16.977165
70.260 17.202168
70.265 17.746187
70.270 17.791969
70.275 17.914755
70.280 18.051573
70.285 17.673126
70.290 17.795813
70.295 17.750053
70.300 17.358139
70.305 17.598318
70.310 17.511887
70.315 17.101532
70.320 17.597822
70.325 17.629646
70.330 18.084215
70.335 18.060387
70.340 17.78228
70.345 17.82892
70.350 18.768858
70.355 18.664949
70.360 18.471333
70.365 18.345171
70.370 18.25408
70.375 18.021494
70.380 17.687775
70.385 17.753481
70.390 17.594877
70.395 17.870291
70.400 17.615553
70.405 17.411406
70.410 17.705879
70.415 17.497793
70.420 17.110878
70.425 17.410402
70.430 17.79129
70.435 18.35137
70.440 18.71139
70.445 19.112177
70.450 19.327877
70.455 19.266508
70.460 18.857576
70.465 18.995768
70.470 18.929913
70.475 19.131178
70.480 19.785065
70.485 19.774282
70.490 19.51148
70.495 19.147635
70.500 18.731304
70.505 18.791828
70.510 18.638613
70.515 18.546864
70.520 18.53908
70.525 18.355801
70.530 18.409744
70.535 18.471498
70.540 18.745867
70.545 18.552689
70.550 18.49144
70.555 18.390106
70.560 18.511158
70.565 18.545271
70.570 18.462675
70.575 18.004889
70.580 17.529497
70.585 17.363358
70.590 17.858238
70.595 17.956249
70.600 17.610773
70.605 17.937857
70.610 18.207441
70.615 18.070669
70.620 17.720619
70.625 17.936674
70.630 18.165926
70.635 18.458157
70.640 17.71595
70.645 17.861925
70.650 18.365072
70.655 18.415442
70.660 18.178595
70.665 17.790865
70.670 17.671719
70.675 17.934675
70.680 17.470993
70.685 17.075172
70.690 17.487083
70.695 17.606007
70.700 17.782406
70.705 17.596729
70.710 17.76083
70.715 18.739981
70.720 19.475292
70.725 18.779497
70.730 18.751692
70.735 18.81473
70.740 18.996052
70.745 19.04735
70.750 18.477102
70.755 18.609577
70.760 18.918175
70.765 18.518974
70.770 18.214811
70.775 18.212637
70.780 18.064041
70.785 17.499454
70.790 17.158157
70.795 17.149902
70.800 17.27388
70.805 17.400932
70.810 17.170759
70.815 17.022808
70.820 17.891462
70.825 18.088402
70.830 18.27372
70.835 18.573736
70.840 18.537855
70.845 18.599419
70.850 19.302919
70.855 18.645119
70.860 17.823763
70.865 17.722971
70.870 17.578455
70.875 17.321415
70.880 17.013542
70.885 16.504303
70.890 17.046776
70.895 17.36488
70.900 17.743507
70.905 17.997877
70.910 18.106619
70.915 18.258173
70.920 18.470299
70.925 18.578686
70.930 18.298786
70.935 17.97513
70.940 17.90008
70.945 17.974678
70.950 17.256189
70.955 16.634653
70.960 16.844002
70.965 17.54788
70.970 17.970619
70.975 17.914076
70.980 17.596632
70.985 17.781736
70.990 17.645441
70.995 17.243578
71.000 16.626539
71.005 16.561016
71.010 17.051876
71.015 17.979866
71.020 18.182596
71.025 18.029152
71.030 18.207411
71.035 19.33308
71.040 19.046146
71.045 18.510569
71.050 18.219803
71.055 18.481394
71.060 18.94751
71.065 18.253759
71.070 17.715101
71.075 18.494377
71.080 18.94231
71.085 19.092346
71.090 19.100857
71.095 19.351049
71.100 19.32621
71.105 19.184063
71.110 18.44496
71.115 18.298754
71.120 18.267992
71.125 18.803158
71.130 18.712791
71.135 18.818619
71.140 18.699152
71.145 18.425587
71.150 18.337294
71.155 18.055063
71.160 17.408068
71.165 17.613127
71.170 17.598791
71.175 17.885677
71.180 17.752544
71.185 18.112537
71.190 18.315706
71.195 18.555796
71.200 18.886381
71.205 19.375856
71.210 19.104803
71.215 19.473799
71.220 19.056322
71.225 18.517916
71.230 18.224312
71.235 17.950096
71.240 17.558901
71.245 17.718231
71.250 17.767971
71.255 18.050621
71.260 18.554602
71.265 18.987179
71.270 18.632347
71.275 18.64015
71.280 18.873724
71.285 18.475849
71.290 18.024345
71.295 17.192568
71.300 17.119007
71.305 16.903915
71.310 16.717567
71.315 16.271299
71.320 16.547169
71.325 17.002748
71.330 17.838009
71.335 17.873669
71.340 17.882608
71.345 18.216423
71.350 18.219393
71.355 18.25905
71.360 17.890003
71.365 17.267756
71.370 17.44977
71.375 17.948828
71.380 17.584999
71.385 17.436384
71.390 17.447227
71.395 17.569565
71.400 18.334187
71.405 18.094179
71.410 18.159658
71.415 18.318123
71.420 18.538641
71.425 18.786587
71.430 18.6481
71.435 17.938921
71.440 17.397223
71.445 17.275526
71.450 17.929897
71.455 18.056152
71.460 18.165768
71.465 18.477264
71.470 18.983587
71.475 19.333944
71.480 19.624748
71.485 19.952402
71.490 19.7367
71.495 19.910801
71.500 19.442183
71.505 19.275959
71.510 19.076149
71.515 18.50329
71.520 18.029703
71.525 17.73144
71.530 17.22934
71.535 17.458532
71.540 17.824945
71.545 17.862301
71.550 17.613869
71.555 17.748272
71.560 17.904024
71.565 18.383577
71.570 18.124393
71.575 17.775513
71.580 17.867716
71.585 18.074541
71.590 18.19277
71.595 18.082848
71.600 17.729504
71.605 18.296801
71.610 18.318254
71.615 18.11417
71.620 17.888819
71.625 17.511541
71.630 17.910187
71.635 17.491829
71.640 16.727705
71.645 17.145145
71.650 17.210562
71.655 17.346884
71.660 17.286039
71.665 16.958559
71.670 17.549622
71.675 18.313225
71.680 17.828259
71.685 17.872404
71.690 17.910547
71.695 17.978214
71.700 17.659672
71.705 17.519999
71.710 17.11474
71.715 17.307463
71.720 16.892368
71.725 16.178997
71.730 16.18804
71.735 16.226107
71.740 15.741541
71.745 15.796615
71.750 15.739078
71.755 16.632793
71.760 17.230869
71.765 17.180933
71.770 16.982971
71.775 17.408836
71.780 17.786774
71.785 17.719654
71.790 16.967144
71.795 16.848064
71.800 17.517952
71.805 17.864725
71.810 17.128761
71.815 16.553749
71.820 16.668242
71.825 17.1506
71.830 16.551371
71.835 16.169436
71.840 16.014603
71.845 16.641592
71.850 16.922112
71.855 16.523899
71.860 16.066036
71.865 16.381693
71.870 16.498884
71.875 17.39785
71.880 17.660984
71.885 18.568008
71.890 18.731482
71.895 18.873045
71.900 18.790434
71.905 18.361128
71.910 17.612881
71.915 16.808077
71.920 15.501794
71.925 15.847349
71.930 15.644888
71.935 16.098248
71.940 16.083811
71.945 16.542957
71.950 17.329102
71.955 17.791609
71.960 18.058229
71.965 18.178982
71.970 18.443317
71.975 18.863724
71.980 18.809156
71.985 18.939993
71.990 19.264435
71.995 18.916763
72.000 18.716927
72.005 18.264574
72.010 17.930008
72.015 17.931631
72.020 17.804068
72.025 17.851652
72.030 17.98004
72.035 17.714716
72.040 17.285179
72.045 16.922525
72.050 16.451172
72.055 15.669687
72.060 15.353028
72.065 15.387377
72.070 15.995914
72.075 16.499599
72.080 16.761656
72.085 17.612654
72.090 18.220369
72.095 18.166714
72.100 18.042942
72.105 17.758364
72.110 17.880289
72.115 17.629129
72.120 16.802832
72.125 16.740318
72.130 16.819414
72.135 17.346224
72.140 17.238871
72.145 16.787283
72.150 16.912174
72.155 17.91572
72.160 18.069334
72.165 17.740105
72.170 17.15641
72.175 17.253101
72.180 17.329607
72.185 16.468451
72.190 15.867146
72.195 15.943898
72.200 16.386272
72.205 16.541876
72.210 16.241318
72.215 16.906973
72.220 17.160725
72.225 16.468866
72.230 16.350628
72.235 16.151686
72.240 16.694765
72.245 16.477076
72.250 16.339109
72.255 17.235836
72.260 18.290995
72.265 18.122089
72.270 18.065393
72.275 18.195217
72.280 18.430878
72.285 17.907642
72.290 17.53031
72.295 17.219154
72.300 16.843376
72.305 16.590084
72.310 16.360695
72.315 17.075344
72.320 17.508795
72.325 17.887827
72.330 17.922297
72.335 18.52393
72.340 19.083952
72.345 19.028904
72.350 18.633715
72.355 18.725761
72.360 18.032124
72.365 17.520775
72.370 17.052965
72.375 16.595907
72.380 16.700146
72.385 16.782557
72.390 16.29689
72.395 16.595562
72.400 16.802517
72.405 16.852148
72.410 16.580984
72.415 16.262819
72.420 16.089991
72.425 16.040098
72.430 16.359861
72.435 16.424816
72.440 16.279076
72.445 16.555
72.450 16.456688
72.455 16.93997
72.460 16.738272
72.465 16.949425
72.470 17.695929
72.475 18.006386
72.480 17.699007
72.485 17.101999
72.490 16.622713
72.495 16.539368
72.500 15.916394
72.505 15.34148
72.510 14.967247
72.515 15.053342
72.520 15.522058
72.525 15.350236
72.530 15.831902
72.535 16.11121
72.540 16.740929
72.545 16.944653
72.550 16.806971
72.555 17.777035
72.560 18.211647
72.565 17.933006
72.570 17.512888
72.575 17.242403
72.580 17.719231
72.585 17.741077
72.590 17.32366
72.595 16.599689
72.600 16.72822
72.605 16.670748
72.610 16.549789
72.615 16.50733
72.620 16.626604
72.625 16.742954
72.630 16.612284
72.635 16.571732
72.640 16.150692
72.645 16.321936
72.650 16.467031
72.655 15.784307
72.660 15.882605
72.665 16.432257
72.670 16.882736
72.675 17.424486
72.680 17.709665
72.685 17.495886
72.690 18.092609
72.695 18.3384
72.700 17.487633
72.705 17.494871
72.710 16.915518
72.715 16.561642
72.720 16.116329
72.725 15.179224
72.730 15.377825
72.735 16.196669
72.740 16.183777
72.745 16.483637
72.750 16.381502
72.755 16.829557
72.760 17.163309
72.765 17.005575
72.770 16.89003
72.775 17.239002
72.780 17.336176
72.785 17.260139
72.790 16.94241
72.795 16.183952
72.800 16.065386
72.805 14.923108
72.810 14.270923
72.815 14.431901
72.820 14.549286
72.825 14.861073
72.830 15.042157
72.835 15.571767
72.840 16.143261
72.845 16.311626
72.850 16.488256
72.855 17.208405
72.860 17.522827
72.865 17.239033
72.870 17.482603
72.875 17.275097
72.880 17.445469
72.885 17.336977
72.890 16.045273
72.895 15.522728
72.900 16.223347
72.905 16.042746
72.910 15.872519
72.915 15.736445
72.920 15.567534
72.925 16.315699
72.930 16.230955
72.935 16.229446
72.940 16.106009
72.945 16.256083
72.950 16.119007
72.955 16.317163
72.960 16.548777
72.965 16.868637
72.970 17.482864
72.975 17.688562
72.980 17.688541
72.985 17.583256
72.990 17.615866
72.995 17.097546
73.000 16.75526
