!@!!GADDS PLOTSO FILE: Chi integration type
!@!!Title/SampleName: map-e6
!@!!Comment: ?
!@!!User: Bruker Instrument Administrator
!@!!Site: University of Illinois Chicago
!@!!Frame: map-e6_01_000.gfrm
!@!!Wavelengths    1.54184   1.54056   1.54439
!@!!Frame angles: 2Theta: 63.000 Omega: 50.000 Phi: 0.000 Chi: 90.000
!@!!Integration range: 2Theta: 53.000 to 73.000  Gamma: -105.000 to -75.000
!@!!Integration method: bin normalized
!@!N
!@!SS
!@!M
!@!L 0.0 0.0 0.0 0.0
!@!XDegrees
!@!YCounts
53.000 8.630322
53.005 8.543345
53.010 8.615221
53.015 8.298725
53.020 8.414061
53.025 8.863935
53.030 8.796487
53.035 9.010679
53.040 9.475391
53.045 10.15389
53.050 10.369016
53.055 10.022806
53.060 9.774879
53.065 9.97502
53.070 9.830564
53.075 9.515647
53.080 9.351395
53.085 9.587348
53.090 9.856229
53.095 10.284378
53.100 9.852126
53.105 9.719189
53.110 9.399518
53.115 9.115929
53.120 9.208183
53.125 8.958922
53.130 8.828629
53.135 8.737701
53.140 9.312741
53.145 9.552472
53.150 9.520643
53.155 9.362823
53.160 9.138966
53.165 9.391438
53.170 9.551942
53.175 9.213398
53.180 9.202968
53.185 9.587768
53.190 9.595911
53.195 9.64486
53.200 9.386044
53.205 9.269905
53.210 9.226857
53.215 8.940346
53.220 8.120142
53.225 8.12254
53.230 8.377384
53.235 8.371398
53.240 8.557438
53.245 8.880427
53.250 9.452054
53.255 10.510941
53.260 10.712273
53.265 10.438866
53.270 10.62587
53.275 10.495246
53.280 10.098966
53.285 9.29401
53.290 9.048227
53.295 8.732922
53.300 8.928866
53.305 8.878077
53.310 8.887328
53.315 8.9911
53.320 9.209114
53.325 9.092697
53.330 9.28712
53.335 9.188156
53.340 9.323913
53.345 9.522184
53.350 9.793505
53.355 9.859586
53.360 9.930021
53.365 10.124858
53.370 10.26032
53.375 10.31491
53.380 10.129967
53.385 9.693358
53.390 9.316534
53.395 9.394193
53.400 9.154989
53.405 8.895176
53.410 8.803142
53.415 8.733082
53.420 8.935992
53.425 8.782982
53.430 8.949345
53.435 9.178891
53.440 9.423484
53.445 9.287233
53.450 9.808859
53.455 10.597942
53.460 10.958584
53.465 10.892742
53.470 10.634728
53.475 10.757891
53.480 10.800245
53.485 10.224468
53.490 10.078369
53.495 10.002389
53.500 10.088721
53.505 10.295353
53.510 10.331343
53.515 10.485977
53.520 10.628587
53.525 10.33807
53.530 10.250734
53.535 9.887332
53.540 9.494942
53.545 9.353148
53.550 9.071408
53.555 8.909474
53.560 9.112875
53.565 9.234277
53.570 9.797212
53.575 10.454556
53.580 10.93926
53.585 11.143203
53.590 11.365813
53.595 11.477633
53.600 11.406939
53.605 10.859324
53.610 10.259386
53.615 10.003846
53.620 9.87269
53.625 9.487103
53.630 9.131479
53.635 9.28945
53.640 9.519031
53.645 9.830831
53.650 10.24011
53.655 10.601829
53.660 10.415508
53.665 10.645231
53.670 10.715389
53.675 10.419788
53.680 10.344012
53.685 9.77632
53.690 10.087337
53.695 10.623043
53.700 10.493091
53.705 10.233637
53.710 10.215162
53.715 10.553761
53.720 10.870296
53.725 10.404229
53.730 10.29165
53.735 10.109862
53.740 10.522259
53.745 10.668009
53.750 10.336722
53.755 10.027302
53.760 10.014526
53.765 9.891938
53.770 10.185954
53.775 10.147598
53.780 10.233727
53.785 10.718363
53.790 10.733606
53.795 11.250645
53.800 11.32972
53.805 11.124598
53.810 10.833172
53.815 10.265584
53.820 10.273297
53.825 11.074367
53.830 10.92504
53.835 11.330247
53.840 11.546894
53.845 11.71734
53.850 11.533704
53.855 11.237492
53.860 10.788333
53.865 10.463913
53.870 10.12895
53.875 10.36238
53.880 10.425886
53.885 10.481739
53.890 10.410308
53.895 10.202275
53.900 10.49516
53.905 10.87883
53.910 10.468379
53.915 9.864597
53.920 9.735855
53.925 10.011696
53.930 10.183337
53.935 9.991609
53.940 9.838737
53.945 10.034278
53.950 10.533822
53.955 10.511952
53.960 10.233825
53.965 10.110047
53.970 9.789832
53.975 9.694084
53.980 10.09825
53.985 9.786325
53.990 9.46566
53.995 9.417416
54.000 9.493425
54.005 9.738003
54.010 9.800967
54.015 10.0918
54.020 10.56837
54.025 11.028753
54.030 11.499958
54.035 11.523767
54.040 11.640704
54.045 11.474894
54.050 10.928362
54.055 10.938368
54.060 10.519711
54.065 10.151001
54.070 10.134662
54.075 10.237699
54.080 10.318556
54.085 10.674179
54.090 10.674521
54.095 10.827601
54.100 10.872912
54.105 10.922277
54.110 10.829504
54.115 11.023387
54.120 11.117119
54.125 11.276937
54.130 10.875775
54.135 10.672392
54.140 10.249933
54.145 10.216969
54.150 10.141822
54.155 10.279639
54.160 10.689915
54.165 11.044766
54.170 10.559979
54.175 11.024063
54.180 11.068361
54.185 10.96339
54.190 10.834934
54.195 10.868931
54.200 11.109252
54.205 11.29466
54.210 11.345846
54.215 11.335093
54.220 11.089664
54.225 11.064309
54.230 10.927197
54.235 11.441966
54.240 11.622629
54.245 11.46512
54.250 11.511634
54.255 11.502712
54.260 11.702687
54.265 11.711912
54.270 11.795116
54.275 11.787617
54.280 11.850412
54.285 11.918134
54.290 11.646886
54.295 11.574295
54.300 11.371439
54.305 11.139947
54.310 10.629068
54.315 10.241139
54.320 10.383284
54.325 10.452681
54.330 10.378841
54.335 10.103208
54.340 10.077311
54.345 10.52481
54.350 10.839018
54.355 10.962934
54.360 11.061442
54.365 11.316227
54.370 11.571293
54.375 11.699679
54.380 11.368107
54.385 11.133493
54.390 11.154434
54.395 11.10496
54.400 10.678453
54.405 10.626413
54.410 10.842448
54.415 11.138762
54.420 11.211556
54.425 10.599725
54.430 10.781872
54.435 10.928369
54.440 11.072186
54.445 11.022432
54.450 10.81072
54.455 11.073434
54.460 11.550886
54.465 11.700171
54.470 11.588236
54.475 11.339313
54.480 11.602653
54.485 11.620324
54.490 11.647207
54.495 11.756923
54.500 11.917562
54.505 12.09844
54.510 12.329298
54.515 12.335576
54.520 12.468659
54.525 12.136624
54.530 11.792605
54.535 11.665843
54.540 11.840643
54.545 11.589156
54.550 11.79252
54.555 12.188776
54.560 12.184563
54.565 12.393335
54.570 11.986403
54.575 11.913815
54.580 11.844301
54.585 12.00919
54.590 11.81545
54.595 11.597903
54.600 11.445333
54.605 11.911125
54.610 12.176721
54.615 12.104176
54.620 11.960846
54.625 11.868649
54.630 12.10389
54.635 11.54875
54.640 11.512996
54.645 11.312271
54.650 10.967781
54.655 10.485164
54.660 10.830994
54.665 11.033154
54.670 11.240539
54.675 10.836279
54.680 10.788524
54.685 10.892561
54.690 11.458544
54.695 11.577502
54.700 11.368134
54.705 11.188111
54.710 11.240182
54.715 11.101547
54.720 11.323252
54.725 10.557231
54.730 10.251906
54.735 10.553333
54.740 10.609393
54.745 10.623705
54.750 11.011229
54.755 11.120311
54.760 11.769274
54.765 12.000863
54.770 12.155497
54.775 12.343744
54.780 12.074407
54.785 11.850998
54.790 11.311616
54.795 10.781713
54.800 10.776665
54.805 10.758123
54.810 10.943812
54.815 11.296527
54.820 11.026543
54.825 11.200744
54.830 11.245214
54.835 11.053151
54.840 11.199094
54.845 10.986046
54.850 11.676965
54.855 11.92381
54.860 11.68181
54.865 11.703881
54.870 11.984817
54.875 11.853506
54.880 11.751661
54.885 11.244476
54.890 10.995689
54.895 11.332514
54.900 11.408239
54.905 11.107838
54.910 11.555655
54.915 12.076145
54.920 12.289568
54.925 12.783961
54.930 12.953362
54.935 12.996723
54.940 12.955119
54.945 12.396201
54.950 11.998899
54.955 11.716238
54.960 11.518258
54.965 11.321219
54.970 11.296755
54.975 11.291493
54.980 10.692734
54.985 10.786643
54.990 10.555639
54.995 10.280049
55.000 10.715575
55.005 10.268781
55.010 10.463596
55.015 10.640438
55.020 10.780304
55.025 11.21283
55.030 11.08239
55.035 10.783004
55.040 11.096555
55.045 11.231336
55.050 11.439198
55.055 11.205479
55.060 11.338249
55.065 11.692589
55.070 11.821692
55.075 11.81916
55.080 12.113301
55.085 12.171467
55.090 12.194461
55.095 12.393343
55.100 12.082317
55.105 12.073671
55.110 12.328156
55.115 12.490876
55.120 12.59601
55.125 12.160401
55.130 12.311082
55.135 12.798745
55.140 12.878036
55.145 12.359321
55.150 12.081333
55.155 12.48485
55.160 12.71225
55.165 12.306492
55.170 12.06107
55.175 11.927846
55.180 12.429791
55.185 12.527017
55.190 12.509286
55.195 12.91503
55.200 13.114165
55.205 13.391162
55.210 13.754853
55.215 13.670536
55.220 13.069079
55.225 12.630638
55.230 12.183477
55.235 12.552079
55.240 12.249242
55.245 11.714016
55.250 11.62827
55.255 11.472554
55.260 11.406594
55.265 11.598528
55.270 11.357305
55.275 11.478778
55.280 11.565681
55.285 11.933772
55.290 12.564217
55.295 12.688533
55.300 12.225831
55.305 12.27788
55.310 12.154214
55.315 12.654098
55.320 12.361792
55.325 12.338021
55.330 12.461209
55.335 12.396069
55.340 12.475933
55.345 12.501499
55.350 12.272757
55.355 12.2515
55.360 12.168962
55.365 11.966621
55.370 12.266582
55.375 12.109656
55.380 12.245425
55.385 12.484156
55.390 13.071931
55.395 13.115626
55.400 13.398047
55.405 12.811626
55.410 12.761214
55.415 12.671843
55.420 12.340573
55.425 12.307527
55.430 12.278358
55.435 12.008625
55.440 11.971719
55.445 11.824019
55.450 11.769757
55.455 11.34599
55.460 10.841952
55.465 10.78226
55.470 10.818925
55.475 11.091645
55.480 10.959442
55.485 11.003817
55.490 11.799662
55.495 11.948659
55.500 12.187094
55.505 12.320362
55.510 12.409874
55.515 12.761183
55.520 12.671206
55.525 12.299001
55.530 12.475824
55.535 12.599679
55.540 12.590426
55.545 12.591195
55.550 12.555584
55.555 12.705467
55.560 12.696554
55.565 12.273274
55.570 12.198867
55.575 12.332896
55.580 12.384339
55.585 12.399232
55.590 12.468417
55.595 12.162651
55.600 12.399678
55.605 12.206186
55.610 12.074082
55.615 12.279569
55.620 12.193539
55.625 11.902531
55.630 11.848165
55.635 11.941414
55.640 12.036393
55.645 12.136561
55.650 11.940822
55.655 11.701468
55.660 12.075591
55.665 12.718755
55.670 12.889264
55.675 13.041873
55.680 13.385286
55.685 13.394479
55.690 13.332261
55.695 13.614006
55.700 12.658914
55.705 12.689448
55.710 12.929819
55.715 12.342566
55.720 12.514206
55.725 12.333922
55.730 12.404572
55.735 13.308685
55.740 13.114335
55.745 12.689913
55.750 12.909362
55.755 12.763795
55.760 12.531343
55.765 11.920245
55.770 11.601651
55.775 12.026288
55.780 12.027282
55.785 11.926032
55.790 11.838672
55.795 12.17094
55.800 12.296933
55.805 11.189473
55.810 10.797306
55.815 11.414577
55.820 11.835263
55.825 12.433812
55.830 12.374598
55.835 12.627689
55.840 13.739609
55.845 13.87985
55.850 13.559506
55.855 13.548622
55.860 13.358561
55.865 13.09272
55.870 12.950607
55.875 13.440557
55.880 13.89865
55.885 13.866681
55.890 14.102057
55.895 14.643064
55.900 15.349646
55.905 15.16738
55.910 14.51599
55.915 14.188884
55.920 14.235551
55.925 14.224871
55.930 13.899435
55.935 13.716767
55.940 13.219054
55.945 13.670843
55.950 14.222919
55.955 14.240784
55.960 14.251103
55.965 14.391428
55.970 14.282608
55.975 14.44739
55.980 13.058718
55.985 12.052758
55.990 11.969177
55.995 11.628903
56.000 11.538356
56.005 11.824483
56.010 11.92217
56.015 12.407786
56.020 12.684068
56.025 12.450398
56.030 12.315363
56.035 12.274209
56.040 12.242584
56.045 12.436406
56.050 12.656749
56.055 12.873778
56.060 13.164175
56.065 13.724294
56.070 13.967155
56.075 14.164992
56.080 13.987834
56.085 13.978651
56.090 13.460061
56.095 13.004852
56.100 12.68133
56.105 12.780991
56.110 12.631761
56.115 13.582926
56.120 13.828529
56.125 14.150939
56.130 14.850493
56.135 14.71866
56.140 14.406035
56.145 14.772351
56.150 14.115126
56.155 14.338114
56.160 13.826271
56.165 13.130639
56.170 12.69058
56.175 12.703684
56.180 12.140623
56.185 11.82299
56.190 11.889062
56.195 12.515934
56.200 12.721506
56.205 13.290964
56.210 13.451962
56.215 13.547728
56.220 13.543365
56.225 13.81741
56.230 13.770581
56.235 14.243373
56.240 14.068692
56.245 14.889301
56.250 15.120938
56.255 15.275611
56.260 14.848689
56.265 14.766215
56.270 14.479215
56.275 13.897322
56.280 12.71722
56.285 12.480217
56.290 12.402199
56.295 12.791553
56.300 12.883965
56.305 12.97813
56.310 13.415785
56.315 13.465617
56.320 13.547114
56.325 13.654733
56.330 13.265725
56.335 13.051437
56.340 13.073076
56.345 13.417494
56.350 14.330451
56.355 13.918566
56.360 13.585066
56.365 13.677388
56.370 14.053747
56.375 13.836965
56.380 13.512008
56.385 12.951172
56.390 13.171515
56.395 13.288116
56.400 13.028992
56.405 13.276516
56.410 12.886742
56.415 12.591442
56.420 13.072892
56.425 12.759073
56.430 12.443399
56.435 12.375559
56.440 12.21701
56.445 12.326412
56.450 12.563314
56.455 12.170787
56.460 12.180353
56.465 12.651073
56.470 12.613003
56.475 12.660522
56.480 13.141803
56.485 13.12499
56.490 14.023225
56.495 14.303279
56.500 13.845887
56.505 13.947153
56.510 13.847424
56.515 13.775504
56.520 13.619345
56.525 12.734825
56.530 12.82899
56.535 12.89429
56.540 13.059106
56.545 12.788067
56.550 12.323246
56.555 12.665318
56.560 13.518643
56.565 13.924909
56.570 13.88016
56.575 13.758306
56.580 14.126216
56.585 14.241563
56.590 13.717031
56.595 13.183413
56.600 12.669614
56.605 12.75554
56.610 12.273758
56.615 12.157677
56.620 12.369421
56.625 12.531957
56.630 12.449889
56.635 12.509345
56.640 12.697676
56.645 13.03593
56.650 13.086124
56.655 13.061539
56.660 12.884264
56.665 12.815607
56.670 12.380557
56.675 12.121424
56.680 12.295007
56.685 12.096735
56.690 12.631492
56.695 12.564124
56.700 12.676639
56.705 13.191543
56.710 13.362871
56.715 13.357183
56.720 13.52203
56.725 13.347345
56.730 14.324322
56.735 14.597824
56.740 14.654663
56.745 14.418239
56.750 14.417546
56.755 14.361866
56.760 14.302654
56.765 13.817712
56.770 13.099015
56.775 13.014874
56.780 13.590839
56.785 13.463316
56.790 12.982821
56.795 12.997888
56.800 13.262384
56.805 13.198362
56.810 12.904318
56.815 12.630797
56.820 12.794915
56.825 13.181615
56.830 13.027534
56.835 12.998619
56.840 13.456222
56.845 13.555325
56.850 13.027534
56.855 12.678324
56.860 12.419986
56.865 12.49466
56.870 12.979499
56.875 13.63258
56.880 14.013825
56.885 14.218575
56.890 14.852332
56.895 14.841456
56.900 14.847491
56.905 14.87496
56.910 14.269531
56.915 14.688969
56.920 14.828144
56.925 14.579597
56.930 14.716469
56.935 14.5147
56.940 14.938724
56.945 14.430082
56.950 14.023967
56.955 13.938717
56.960 13.704062
56.965 13.758462
56.970 13.405045
56.975 13.580001
56.980 14.785555
56.985 14.458456
56.990 14.387364
56.995 14.62941
57.000 14.807079
57.005 15.260896
57.010 14.669587
57.015 14.736942
57.020 15.718519
57.025 16.155912
57.030 16.484407
57.035 16.022219
57.040 15.686026
57.045 15.488791
57.050 14.97029
57.055 14.611948
57.060 14.268729
57.065 14.159078
57.070 14.833141
57.075 15.01355
57.080 15.10013
57.085 14.695911
57.090 14.646427
57.095 14.759406
57.100 14.854319
57.105 14.468728
57.110 14.214964
57.115 14.444258
57.120 14.825873
57.125 14.495323
57.130 14.260659
57.135 14.150364
57.140 14.424084
57.145 14.594669
57.150 14.580886
57.155 14.318792
57.160 15.049097
57.165 15.88074
57.170 15.779066
57.175 15.624841
57.180 15.518542
57.185 15.255517
57.190 15.436098
57.195 14.658979
57.200 13.890058
57.205 13.899018
57.210 14.009647
57.215 14.083817
57.220 14.080973
57.225 14.041068
57.230 14.655825
57.235 14.870539
57.240 14.929653
57.245 14.650434
57.250 14.599892
57.255 14.499666
57.260 14.497505
57.265 14.082798
57.270 14.008224
57.275 14.356032
57.280 14.449354
57.285 14.517677
57.290 14.646891
57.295 15.040734
57.300 15.479992
57.305 15.574111
57.310 15.070569
57.315 15.274224
57.320 15.628221
57.325 15.641384
57.330 15.571702
57.335 15.789143
57.340 15.850754
57.345 15.97851
57.350 16.111309
57.355 16.077856
57.360 16.096714
57.365 15.854131
57.370 15.490655
57.375 15.562114
57.380 15.875689
57.385 15.989242
57.390 16.184189
57.395 16.102495
57.400 16.278091
57.405 16.274296
57.410 16.049461
57.415 15.558618
57.420 15.603343
57.425 15.699039
57.430 16.175617
57.435 16.095974
57.440 16.270548
57.445 16.670584
57.450 17.063345
57.455 16.914333
57.460 16.697418
57.465 16.349195
57.470 16.382053
57.475 16.159498
57.480 16.218575
57.485 16.389921
57.490 16.211
57.495 16.2673
57.500 16.551262
57.505 16.338322
57.510 16.381578
57.515 16.566336
57.520 16.20192
57.525 16.184246
57.530 16.392416
57.535 16.74827
57.540 17.394526
57.545 17.401779
57.550 17.117428
57.555 16.659481
57.560 16.955746
57.565 16.381439
57.570 15.511368
57.575 14.857575
57.580 14.581009
57.585 14.231418
57.590 14.453138
57.595 14.474667
57.600 15.022823
57.605 15.425076
57.610 15.614621
57.615 15.471734
57.620 15.782578
57.625 15.887137
57.630 15.744823
57.635 14.813077
57.640 14.691598
57.645 15.047701
57.650 15.874641
57.655 16.422445
57.660 16.547871
57.665 15.876954
57.670 16.274801
57.675 16.565613
57.680 16.177057
57.685 15.501652
57.690 14.877246
57.695 14.999987
57.700 15.558592
57.705 15.542964
57.710 14.987153
57.715 14.918055
57.720 14.994959
57.725 15.261009
57.730 14.847259
57.735 14.299407
57.740 14.020989
57.745 14.397807
57.750 14.629071
57.755 14.841683
57.760 14.94898
57.765 15.729241
57.770 16.720726
57.775 17.066376
57.780 17.355249
57.785 17.579121
57.790 17.628279
57.795 17.455545
57.800 16.907795
57.805 16.072054
57.810 15.826952
57.815 15.547328
57.820 15.298446
57.825 14.832298
57.830 14.86121
57.835 14.987675
57.840 15.278708
57.845 15.603557
57.850 15.392322
57.855 15.348279
57.860 15.663794
57.865 15.656615
57.870 16.165873
57.875 16.627386
57.880 16.869316
57.885 17.407448
57.890 17.696865
57.895 17.99477
57.900 18.501549
57.905 17.83547
57.910 17.472837
57.915 17.40649
57.920 17.269651
57.925 16.983389
57.930 16.706852
57.935 16.565149
57.940 16.674753
57.945 16.213734
57.950 16.101198
57.955 16.020647
57.960 15.988575
57.965 15.994178
57.970 15.428529
57.975 15.707684
57.980 16.112558
57.985 16.162233
57.990 16.225252
57.995 16.497528
58.000 16.943996
58.005 17.556644
58.010 18.284622
58.015 18.454189
58.020 18.12328
58.025 17.815466
58.030 17.5126
58.035 17.316229
58.040 17.209833
58.045 17.094353
58.050 17.153542
58.055 17.55839
58.060 17.483625
58.065 17.912704
58.070 18.283848
58.075 18.125031
58.080 17.529444
58.085 17.73699
58.090 18.133757
58.095 18.70295
58.100 18.649878
58.105 18.43651
58.110 18.414371
58.115 18.545437
58.120 18.354959
58.125 18.012671
58.130 17.927309
58.135 18.158127
58.140 18.135651
58.145 19.135714
58.150 20.152838
58.155 20.657988
58.160 20.383415
58.165 20.616585
58.170 20.95682
58.175 21.450228
58.180 21.078753
58.185 20.319145
58.190 20.371332
58.195 21.062504
58.200 21.258871
58.205 21.001705
58.210 20.858179
58.215 21.197428
58.220 21.158327
58.225 20.973503
58.230 20.744032
58.235 20.453285
58.240 20.87697
58.245 20.878311
58.250 20.608908
58.255 21.375999
58.260 21.232098
58.265 21.588081
58.270 22.0562
58.275 22.219776
58.280 22.651979
58.285 22.972826
58.290 23.627497
58.295 24.697067
58.300 25.50135
58.305 25.465576
58.310 25.767904
58.315 25.601515
58.320 25.583246
58.325 25.108059
58.330 23.957235
58.335 23.063789
58.340 22.799112
58.345 22.945629
58.350 22.985788
58.355 23.116526
58.360 23.66577
58.365 24.702984
58.370 25.216881
58.375 25.581953
58.380 25.697937
58.385 26.032949
58.390 26.260653
58.395 26.909742
58.400 26.806955
58.405 26.67131
58.410 26.845362
58.415 26.660931
58.420 26.452532
58.425 26.903906
58.430 27.696239
58.435 28.496977
58.440 28.782915
58.445 28.491405
58.450 28.546503
58.455 28.647903
58.460 28.347912
58.465 27.625198
58.470 27.34927
58.475 27.48609
58.480 27.41773
58.485 27.65885
58.490 28.351961
58.495 28.276381
58.500 27.848166
58.505 27.626699
58.510 27.81913
58.515 27.974987
58.520 27.356203
58.525 26.552933
58.530 26.05971
58.535 26.341496
58.540 26.611481
58.545 26.239965
58.550 25.92322
58.555 26.255144
58.560 27.356527
58.565 27.408291
58.570 27.675978
58.575 27.953363
58.580 28.181631
58.585 27.789415
58.590 27.628944
58.595 27.194292
58.600 27.583746
58.605 26.771624
58.610 26.995033
58.615 26.816673
58.620 27.076324
58.625 27.327621
58.630 27.511459
58.635 27.941633
58.640 27.633493
58.645 26.570244
58.650 26.389093
58.655 26.840532
58.660 26.748455
58.665 25.870634
58.670 24.839499
58.675 25.232199
58.680 25.902405
58.685 26.061085
58.690 26.10482
58.695 26.412058
58.700 27.028999
58.705 26.978682
58.710 26.669979
58.715 26.562386
58.720 26.86331
58.725 27.083477
58.730 27.339609
58.735 27.064693
58.740 27.770527
58.745 28.287754
58.750 28.555893
58.755 27.751867
58.760 26.645973
58.765 25.596474
58.770 25.096064
58.775 23.964735
58.780 23.525452
58.785 22.821665
58.790 22.987478
58.795 23.347792
58.800 23.222364
58.805 22.679764
58.810 22.888161
58.815 22.495916
58.820 22.325039
58.825 22.383541
58.830 22.295307
58.835 22.943651
58.840 23.079191
58.845 22.728106
58.850 23.051645
58.855 22.959448
58.860 23.478567
58.865 23.784636
58.870 22.834127
58.875 23.22312
58.880 23.137161
58.885 22.784946
58.890 22.829058
58.895 22.066778
58.900 22.270027
58.905 22.641838
58.910 22.131861
58.915 21.807907
58.920 21.868172
58.925 21.963852
58.930 21.624031
58.935 20.483829
58.940 20.304392
58.945 20.333788
58.950 21.004333
58.955 20.356703
58.960 19.766668
58.965 20.043898
58.970 20.50489
58.975 21.095936
58.980 20.917734
58.985 20.484322
58.990 20.599073
58.995 21.082933
59.000 20.575117
59.005 19.902405
59.010 19.745087
59.015 20.110594
59.020 20.480629
59.025 20.505281
59.030 19.931437
59.035 19.829306
59.040 20.73871
59.045 20.856161
59.050 20.462036
59.055 20.677393
59.060 21.088417
59.065 21.44676
59.070 21.349039
59.075 20.360136
59.080 19.675297
59.085 19.135202
59.090 17.878448
59.095 17.121721
59.100 16.901768
59.105 16.866571
59.110 16.921186
59.115 16.66464
59.120 16.46913
59.125 16.706106
59.130 17.225203
59.135 17.590179
59.140 17.569874
59.145 17.44088
59.150 17.639996
59.155 17.886442
59.160 18.363251
59.165 18.418161
59.170 18.657469
59.175 18.623249
59.180 18.437403
59.185 18.712276
59.190 19.18751
59.195 19.266886
59.200 18.929195
59.205 18.718775
59.210 18.639219
59.215 18.612099
59.220 18.787933
59.225 18.273314
59.230 18.337034
59.235 18.414137
59.240 18.316151
59.245 19.002087
59.250 19.066303
59.255 18.72785
59.260 19.112322
59.265 18.729759
59.270 18.51483
59.275 18.802628
59.280 18.016899
59.285 18.076157
59.290 18.391878
59.295 18.203049
59.300 18.107613
59.305 17.78014
59.310 17.383709
59.315 17.028467
59.320 16.396885
59.325 15.993785
59.330 15.864053
59.335 15.917579
59.340 16.044212
59.345 16.272316
59.350 16.893631
59.355 17.309664
59.360 17.350498
59.365 17.227076
59.370 17.16671
59.375 16.918453
59.380 16.653851
59.385 16.309856
59.390 16.73011
59.395 16.448368
59.400 16.445009
59.405 16.542177
59.410 16.708115
59.415 17.10191
59.420 17.058573
59.425 16.936617
59.430 17.17794
59.435 17.162586
59.440 17.505951
59.445 17.388517
59.450 16.894249
59.455 17.293118
59.460 17.664238
59.465 18.311998
59.470 18.386314
59.475 18.121714
59.480 18.343708
59.485 18.647219
59.490 19.066814
59.495 18.79702
59.500 17.865034
59.505 17.813936
59.510 17.412493
59.515 17.60923
59.520 17.785366
59.525 17.429424
59.530 16.895403
59.535 16.762806
59.540 16.861252
59.545 17.752151
59.550 17.236774
59.555 16.771326
59.560 17.107729
59.565 17.611681
59.570 18.027819
59.575 18.365501
59.580 18.286861
59.585 18.490465
59.590 17.985685
59.595 17.497265
59.600 17.539192
59.605 17.031935
59.610 16.459961
59.615 16.368841
59.620 16.351599
59.625 16.457354
59.630 16.415854
59.635 16.527763
59.640 17.242159
59.645 17.424623
59.650 17.427731
59.655 17.588337
59.660 18.041517
59.665 17.741604
59.670 16.636591
59.675 15.978879
59.680 15.831223
59.685 15.886176
59.690 16.105371
59.695 16.643875
59.700 17.826664
59.705 18.869246
59.710 19.058304
59.715 18.906694
59.720 18.724844
59.725 18.53121
59.730 18.223642
59.735 17.270075
59.740 16.536573
59.745 16.275267
59.750 15.967596
59.755 15.87859
59.760 15.868368
59.765 15.851309
59.770 16.23782
59.775 16.497839
59.780 16.314272
59.785 16.296837
59.790 16.11203
59.795 15.759212
59.800 15.056956
59.805 14.57207
59.810 15.017342
59.815 15.668847
59.820 16.068554
59.825 16.175856
59.830 16.492439
59.835 16.224117
59.840 15.955213
59.845 15.709356
59.850 15.425108
59.855 15.34944
59.860 15.52539
59.865 14.980399
59.870 15.471251
59.875 15.887151
59.880 15.914132
59.885 15.517119
59.890 15.768181
59.895 15.838332
59.900 15.985955
59.905 15.686809
59.910 15.073627
59.915 15.109392
59.920 15.801108
59.925 15.483327
59.930 15.899408
59.935 16.28965
59.940 16.862602
59.945 17.330912
59.950 17.593765
59.955 17.275997
59.960 17.528238
59.965 16.925081
59.970 16.876764
59.975 16.4674
59.980 16.579941
59.985 15.900322
59.990 16.061371
59.995 15.854987
60.000 15.731536
60.005 15.594616
60.010 15.499001
60.015 15.372403
60.020 15.720771
60.025 15.658765
60.030 15.506211
60.035 15.316341
60.040 15.386055
60.045 16.296221
60.050 16.068527
60.055 16.028347
60.060 15.992951
60.065 16.30489
60.070 16.870323
60.075 17.168285
60.080 16.339024
60.085 16.268173
60.090 16.441401
60.095 17.074762
60.100 17.24485
60.105 17.175297
60.110 16.579695
60.115 16.690954
60.120 17.314014
60.125 17.101152
60.130 16.384764
60.135 16.738237
60.140 17.064644
60.145 17.271879
60.150 17.228153
60.155 16.753208
60.160 16.622761
60.165 16.807999
60.170 16.648905
60.175 16.490383
60.180 16.6674
60.185 17.271469
60.190 17.573013
60.195 18.07485
60.200 17.835594
60.205 17.600832
60.210 17.452129
60.215 17.139748
60.220 16.772945
60.225 16.63776
60.230 15.402349
60.235 14.770231
60.240 14.950837
60.245 14.91011
60.250 15.000543
60.255 14.615577
60.260 14.627732
60.265 15.0868
60.270 15.081177
60.275 14.876993
60.280 15.014247
60.285 15.558825
60.290 16.471174
60.295 16.753447
60.300 16.983074
60.305 17.086956
60.310 16.795446
60.315 16.648222
60.320 16.215061
60.325 16.03187
60.330 16.226574
60.335 16.377323
60.340 16.279085
60.345 16.235411
60.350 16.430864
60.355 16.553583
60.360 16.358231
60.365 16.18037
60.370 16.246048
60.375 16.478333
60.380 16.477682
60.385 16.533274
60.390 16.254154
60.395 16.368538
60.400 16.160046
60.405 16.575689
60.410 16.710897
60.415 16.969444
60.420 17.256865
60.425 17.146618
60.430 16.981785
60.435 17.157143
60.440 16.710838
60.445 16.776043
60.450 16.717497
60.455 16.306118
60.460 16.616455
60.465 17.174902
60.470 17.240288
60.475 17.998924
60.480 18.117023
60.485 17.990202
60.490 17.802771
60.495 17.279421
60.500 16.399206
60.505 16.14757
60.510 15.624696
60.515 14.889733
60.520 15.028235
60.525 15.56003
60.530 15.631058
60.535 15.565092
60.540 15.45409
60.545 15.551787
60.550 15.814388
60.555 16.035753
60.560 15.936013
60.565 16.048483
60.570 16.382484
60.575 16.726349
60.580 16.469114
60.585 16.744953
60.590 16.513456
60.595 16.388435
60.600 16.237293
60.605 15.913036
60.610 15.557777
60.615 15.621755
60.620 15.236752
60.625 14.927917
60.630 15.122056
60.635 15.684028
60.640 15.747982
60.645 16.635933
60.650 16.826811
60.655 16.476166
60.660 16.445753
60.665 16.282974
60.670 16.487705
60.675 16.691761
60.680 15.677754
60.685 15.878862
60.690 16.903069
60.695 17.20389
60.700 16.95878
60.705 16.734129
60.710 16.660933
60.715 16.54467
60.720 16.433796
60.725 16.165001
60.730 16.238132
60.735 16.361446
60.740 16.057142
60.745 16.089743
60.750 16.466034
60.755 16.075172
60.760 16.161404
60.765 15.982298
60.770 15.881963
60.775 16.312559
60.780 16.56753
60.785 16.679382
60.790 16.51663
60.795 16.250385
60.800 16.188423
60.805 15.925281
60.810 16.024715
60.815 16.088642
60.820 15.983357
60.825 16.645559
60.830 16.814913
60.835 17.395119
60.840 17.996191
60.845 17.6721
60.850 17.60288
60.855 17.863289
60.860 17.82505
60.865 17.772499
60.870 17.591305
60.875 17.442289
60.880 17.220631
60.885 17.028856
60.890 16.344446
60.895 15.870934
60.900 15.676505
60.905 15.468232
60.910 15.259151
60.915 15.135817
60.920 15.18837
60.925 15.805164
60.930 16.048717
60.935 16.383322
60.940 16.218569
60.945 15.752701
60.950 16.066603
60.955 16.19051
60.960 15.948639
60.965 16.251057
60.970 15.814651
60.975 15.602135
60.980 16.109886
60.985 16.201475
60.990 15.843881
60.995 15.589674
61.000 15.844975
61.005 16.435404
61.010 16.330465
61.015 15.711467
61.020 15.765808
61.025 16.241728
61.030 16.636835
61.035 16.330381
61.040 16.223743
61.045 16.801222
61.050 17.435305
61.055 17.675648
61.060 17.836088
61.065 17.648346
61.070 17.675682
61.075 17.794785
61.080 18.056622
61.085 18.097553
61.090 17.513155
61.095 16.882437
61.100 16.74799
61.105 16.924891
61.110 17.07568
61.115 17.115496
61.120 16.994272
61.125 17.17856
61.130 17.233868
61.135 17.135878
61.140 16.699991
61.145 16.363092
61.150 16.417673
61.155 16.443314
61.160 16.455971
61.165 16.410498
61.170 16.380644
61.175 16.674879
61.180 16.611082
61.185 16.22224
61.190 16.549927
61.195 16.849295
61.200 17.269245
61.205 17.820141
61.210 18.002155
61.215 17.985554
61.220 17.866323
61.225 17.299175
61.230 17.296572
61.235 16.984436
61.240 15.895674
61.245 15.747597
61.250 16.143139
61.255 16.685171
61.260 17.187986
61.265 17.067516
61.270 16.723566
61.275 17.100611
61.280 16.354319
61.285 15.759294
61.290 15.642838
61.295 15.239879
61.300 15.270847
61.305 15.598863
61.310 15.694064
61.315 16.041494
61.320 16.442848
61.325 16.115273
61.330 16.191597
61.335 15.8338
61.340 15.385891
61.345 15.556118
61.350 15.546034
61.355 15.576807
61.360 15.89348
61.365 15.935693
61.370 16.296587
61.375 16.589666
61.380 16.5016
61.385 16.7743
61.390 16.592928
61.395 16.608099
61.400 16.478361
61.405 16.62538
61.410 16.845383
61.415 16.759043
61.420 17.470041
61.425 17.788931
61.430 17.682318
61.435 17.509787
61.440 17.550232
61.445 17.421925
61.450 17.164444
61.455 16.891413
61.460 16.435677
61.465 16.804934
61.470 17.244383
61.475 17.879835
61.480 18.671581
61.485 18.875875
61.490 18.353811
61.495 18.220579
61.500 17.781176
61.505 17.585911
61.510 16.400229
61.515 15.643044
61.520 15.157368
61.525 15.476338
61.530 15.843955
61.535 16.159542
61.540 16.738289
61.545 17.867395
61.550 18.399826
61.555 18.791275
61.560 17.932722
61.565 17.878056
61.570 18.081665
61.575 18.088812
61.580 17.611166
61.585 17.702835
61.590 17.900251
61.595 18.98749
61.600 19.316042
61.605 18.938198
61.610 18.656126
61.615 18.653637
61.620 18.46586
61.625 18.592134
61.630 18.800373
61.635 18.390768
61.640 18.244242
61.645 17.932848
61.650 17.151724
61.655 16.706844
61.660 16.256905
61.665 15.739098
61.670 16.248816
61.675 16.184557
61.680 16.170942
61.685 16.189827
61.690 16.200018
61.695 16.514771
61.700 16.164402
61.705 15.152414
61.710 15.46716
61.715 16.06834
61.720 16.603237
61.725 16.675329
61.730 16.450935
61.735 16.861307
61.740 17.116497
61.745 17.182011
61.750 17.295403
61.755 17.612726
61.760 18.741695
61.765 18.692753
61.770 18.385481
61.775 18.800032
61.780 18.450054
61.785 18.365608
61.790 18.076374
61.795 17.108212
61.800 16.696339
61.805 16.51869
61.810 16.095337
61.815 16.291058
61.820 15.802443
61.825 16.106627
61.830 16.43561
61.835 16.723555
61.840 17.03697
61.845 17.076599
61.850 17.125681
61.855 17.917408
61.860 17.490763
61.865 17.4606
61.870 17.949453
61.875 18.633736
61.880 19.181797
61.885 19.147808
61.890 18.116224
61.895 17.8557
61.900 17.492216
61.905 17.021706
61.910 16.543728
61.915 16.049673
61.920 15.802119
61.925 16.225189
61.930 16.516001
61.935 17.316139
61.940 17.875187
61.945 17.893768
61.950 18.254074
61.955 18.815849
61.960 18.907751
61.965 18.464949
61.970 18.422468
61.975 17.55319
61.980 17.454025
61.985 17.36083
61.990 17.387199
61.995 17.357449
62.000 17.413187
62.005 16.855968
62.010 17.095346
62.015 16.839455
62.020 16.570467
62.025 16.098593
62.030 16.17466
62.035 16.145462
62.040 16.241137
62.045 16.42275
62.050 16.585297
62.055 17.005682
62.060 17.539553
62.065 17.76646
62.070 17.856071
62.075 17.453569
62.080 17.212212
62.085 16.945244
62.090 16.333265
62.095 15.548424
62.100 15.44685
62.105 15.640451
62.110 16.155165
62.115 16.726358
62.120 17.146351
62.125 17.40452
62.130 17.344603
62.135 17.272766
62.140 17.13405
62.145 16.918608
62.150 16.419071
62.155 16.638718
62.160 16.805742
62.165 17.239447
62.170 17.299303
62.175 17.201395
62.180 17.619473
62.185 18.172192
62.190 17.682592
62.195 17.323452
62.200 17.133762
62.205 17.437901
62.210 18.1436
62.215 17.798758
62.220 17.628597
62.225 17.613558
62.230 17.862062
62.235 17.686462
62.240 17.499224
62.245 16.82452
62.250 16.442297
62.255 16.309551
62.260 16.379375
62.265 16.325378
62.270 16.346859
62.275 16.128273
62.280 16.107382
62.285 16.199881
62.290 16.30093
62.295 15.928501
62.300 15.759904
62.305 15.913587
62.310 15.918857
62.315 16.128021
62.320 16.428261
62.325 16.323792
62.330 16.71825
62.335 17.117315
62.340 17.552624
62.345 17.870274
62.350 17.765879
62.355 17.476963
62.360 17.437866
62.365 17.345572
62.370 16.703838
62.375 16.116695
62.380 16.405865
62.385 16.812384
62.390 17.233534
62.395 17.270853
62.400 17.37307
62.405 17.498413
62.410 18.151154
62.415 18.339935
62.420 18.090639
62.425 18.233421
62.430 18.286646
62.435 18.0826
62.440 18.248888
62.445 18.394339
62.450 18.285566
62.455 18.249453
62.460 18.310886
62.465 18.50647
62.470 18.648245
62.475 18.714197
62.480 17.662514
62.485 16.990635
62.490 17.004478
62.495 16.661518
62.500 16.515232
62.505 16.688673
62.510 16.496967
62.515 17.049803
62.520 17.414652
62.525 16.947042
62.530 16.680557
62.535 16.858517
62.540 16.827675
62.545 16.848661
62.550 16.857351
62.555 17.164839
62.560 17.440615
62.565 16.96908
62.570 16.52178
62.575 17.000656
62.580 17.332037
62.585 16.978001
62.590 16.788805
62.595 17.047411
62.600 17.648031
62.605 17.402662
62.610 16.64736
62.615 16.246284
62.620 17.002195
62.625 16.934149
62.630 17.02553
62.635 17.435568
62.640 17.886429
62.645 17.928141
62.650 18.258213
62.655 17.280172
62.660 17.481628
62.665 17.975336
62.670 17.892174
62.675 18.03619
62.680 18.358212
62.685 18.165648
62.690 19.095366
62.695 18.884039
62.700 18.227913
62.705 18.30978
62.710 17.658812
62.715 17.262943
62.720 17.605907
62.725 16.914017
62.730 15.971875
62.735 15.510805
62.740 14.764518
62.745 15.39044
62.750 15.608458
62.755 15.419959
62.760 15.263751
62.765 15.990074
62.770 16.28932
62.775 16.73477
62.780 16.820744
62.785 16.898809
62.790 16.516989
62.795 17.129086
62.800 18.133459
62.805 18.726315
62.810 18.73748
62.815 18.636539
62.820 19.294916
62.825 20.017523
62.830 19.911886
62.835 19.162357
62.840 18.848608
62.845 18.893381
62.850 18.778465
62.855 18.009394
62.860 17.412348
62.865 17.353176
62.870 17.204012
62.875 17.112806
62.880 17.056959
62.885 17.036844
62.890 17.15349
62.895 16.955738
62.900 16.794426
62.905 16.728926
62.910 17.611654
62.915 18.239233
62.920 17.910622
62.925 18.051987
62.930 18.448687
62.935 18.189587
62.940 18.082239
62.945 17.460072
62.950 17.180897
62.955 17.594908
62.960 17.016346
62.965 16.522575
62.970 17.319263
62.975 17.492405
62.980 17.265799
62.985 17.36072
62.990 17.955786
62.995 17.955902
63.000 18.243731
63.005 18.032608
63.010 18.046709
63.015 17.750738
63.020 17.488504
63.025 17.090508
63.030 17.457495
63.035 17.442554
63.040 16.794451
63.045 16.640173
63.050 17.184185
63.055 17.088266
63.060 16.865356
63.065 17.000727
63.070 17.4762
63.075 17.603964
63.080 17.568953
63.085 17.556904
63.090 17.704315
63.095 17.532589
63.100 17.833393
63.105 17.970375
63.110 18.619963
63.115 18.831966
63.120 18.543253
63.125 18.934805
63.130 19.150021
63.135 18.681913
63.140 18.230169
63.145 17.98708
63.150 17.962431
63.155 17.834396
63.160 17.370428
63.165 17.321447
63.170 17.32696
63.175 17.331505
63.180 17.081755
63.185 17.07196
63.190 17.425613
63.195 17.766642
63.200 17.716669
63.205 17.965752
63.210 18.068937
63.215 18.314793
63.220 18.237257
63.225 17.887505
63.230 17.834053
63.235 17.883961
63.240 17.597916
63.245 17.220057
63.250 17.367306
63.255 17.881176
63.260 18.153162
63.265 17.847845
63.270 17.690342
63.275 18.126673
63.280 18.5891
63.285 18.569929
63.290 18.542616
63.295 18.570087
63.300 19.101171
63.305 19.303734
63.310 19.037689
63.315 19.208567
63.320 19.334892
63.325 19.044439
63.330 19.200274
63.335 18.821119
63.340 18.522333
63.345 18.412397
63.350 18.232309
63.355 18.328094
63.360 18.189194
63.365 18.338366
63.370 19.058567
63.375 19.526396
63.380 20.123436
63.385 19.844387
63.390 19.779354
63.395 19.84976
63.400 19.748436
63.405 19.164146
63.410 19.285637
63.415 19.127268
63.420 19.19879
63.425 19.27667
63.430 19.708216
63.435 19.681023
63.440 19.771183
63.445 19.578798
63.450 19.659843
63.455 19.798197
63.460 19.733349
63.465 19.448704
63.470 19.328098
63.475 18.962217
63.480 18.82712
63.485 19.028021
63.490 18.448587
63.495 18.061394
63.500 18.032228
63.505 17.967756
63.510 18.581995
63.515 18.815466
63.520 18.792454
63.525 19.158932
63.530 19.562349
63.535 20.085802
63.540 20.618599
63.545 20.127808
63.550 19.81007
63.555 20.083931
63.560 19.937183
63.565 19.622437
63.570 19.34791
63.575 18.838104
63.580 19.321665
63.585 19.799931
63.590 19.559662
63.595 19.484976
63.600 19.998806
63.605 20.027088
63.610 20.372139
63.615 20.545362
63.620 19.867388
63.625 19.861158
63.630 20.072603
63.635 20.211758
63.640 20.813776
63.645 21.177416
63.650 21.802973
63.655 22.548052
63.660 22.728596
63.665 22.958735
63.670 22.914021
63.675 22.900515
63.680 22.318394
63.685 22.029934
63.690 21.372631
63.695 21.466244
63.700 20.799608
63.705 20.729212
63.710 20.067595
63.715 20.012302
63.720 19.485813
63.725 19.703993
63.730 20.095139
63.735 20.860466
63.740 20.734192
63.745 21.331673
63.750 21.530226
63.755 22.017088
63.760 22.363655
63.765 22.795439
63.770 22.724886
63.775 23.468904
63.780 23.462414
63.785 24.448641
63.790 24.835659
63.795 24.617176
63.800 24.027435
63.805 24.168711
63.810 23.905979
63.815 24.29566
63.820 24.178013
63.825 24.400265
63.830 24.466496
63.835 24.766478
63.840 25.623041
63.845 25.98896
63.850 25.832275
63.855 25.594219
63.860 25.477514
63.865 25.764601
63.870 25.935682
63.875 25.277582
63.880 25.405571
63.885 25.304026
63.890 24.963076
63.895 24.834156
63.900 24.322153
63.905 24.125219
63.910 24.268766
63.915 23.912773
63.920 24.374044
63.925 24.462538
63.930 25.273882
63.935 26.419685
63.940 27.476278
63.945 27.9538
63.950 29.069283
63.955 29.685524
63.960 31.188169
63.965 31.550337
63.970 31.794565
63.975 32.088131
63.980 32.884205
63.985 32.288834
63.990 32.206028
63.995 32.019867
64.000 33.863018
64.005 34.233196
64.010 34.00005
64.015 34.301468
64.020 34.648838
64.025 35.228283
64.030 35.397564
64.035 34.226482
64.040 34.133492
64.045 34.00161
64.050 33.642227
64.055 33.775806
64.060 33.183479
64.065 33.338509
64.070 33.647095
64.075 33.156029
64.080 32.997456
64.085 33.036186
64.090 32.938965
64.095 32.740463
64.100 31.910635
64.105 31.209887
64.110 31.66053
64.115 32.160023
64.120 32.581612
64.125 32.082043
64.130 32.423985
64.135 32.449581
64.140 32.756207
64.145 32.865082
64.150 33.034077
64.155 32.587185
64.160 32.697571
64.165 31.995661
64.170 31.968857
64.175 30.679192
64.180 29.423164
64.185 28.242151
64.190 28.003424
64.195 28.48563
64.200 29.436573
64.205 29.615877
64.210 30.709805
64.215 31.651331
64.220 31.967745
64.225 31.995066
64.230 30.781593
64.235 29.795645
64.240 29.462767
64.245 29.49489
64.250 28.98197
64.255 28.824615
64.260 29.536118
64.265 30.604946
64.270 30.590979
64.275 30.107611
64.280 29.490232
64.285 29.397085
64.290 29.732077
64.295 29.432894
64.300 28.618702
64.305 28.842047
64.310 28.94208
64.315 28.76992
64.320 29.13615
64.325 28.901442
64.330 28.326674
64.335 28.356133
64.340 28.145832
64.345 28.382614
64.350 28.671516
64.355 29.055328
64.360 28.939091
64.365 29.0485
64.370 28.950159
64.375 29.032858
64.380 29.016596
64.385 28.976887
64.390 28.249384
64.395 27.774324
64.400 27.362589
64.405 27.435083
64.410 27.325886
64.415 26.550098
64.420 26.25248
64.425 26.374266
64.430 26.148661
64.435 26.719313
64.440 26.725077
64.445 26.393593
64.450 26.347372
64.455 26.425648
64.460 26.14551
64.465 26.561871
64.470 26.304083
64.475 26.528887
64.480 26.318914
64.485 26.463444
64.490 26.921524
64.495 27.310246
64.500 27.133078
64.505 26.953594
64.510 26.34568
64.515 26.507795
64.520 25.850512
64.525 25.335184
64.530 25.562429
64.535 25.110149
64.540 24.856186
64.545 25.109873
64.550 25.038891
64.555 25.201529
64.560 24.758657
64.565 24.156281
64.570 23.599962
64.575 23.016617
64.580 22.642084
64.585 22.405668
64.590 22.816763
64.595 22.717169
64.600 22.319437
64.605 22.59375
64.610 22.821501
64.615 22.896832
64.620 23.542002
64.625 23.129795
64.630 23.269756
64.635 23.485216
64.640 23.22278
64.645 23.689457
64.650 23.581888
64.655 22.849779
64.660 22.643126
64.665 22.667316
64.670 22.815695
64.675 22.62676
64.680 21.759689
64.685 21.68478
64.690 21.927725
64.695 21.866701
64.700 21.667156
64.705 21.363297
64.710 21.460135
64.715 21.894426
64.720 21.614967
64.725 21.029907
64.730 20.853613
64.735 20.737537
64.740 21.197495
64.745 21.885078
64.750 22.924856
64.755 23.659063
64.760 24.012836
64.765 24.573442
64.770 25.045183
64.775 24.714561
64.780 24.448036
64.785 23.986214
64.790 23.738983
64.795 23.346218
64.800 22.717438
64.805 22.986208
64.810 23.432959
64.815 22.97393
64.820 22.73711
64.825 22.813305
64.830 23.01886
64.835 22.915609
64.840 21.953463
64.845 21.089872
64.850 21.322845
64.855 21.327913
64.860 21.043753
64.865 21.06477
64.870 21.253859
64.875 21.077721
64.880 21.068525
64.885 20.929157
64.890 21.180853
64.895 21.810381
64.900 22.43306
64.905 23.549746
64.910 24.00592
64.915 24.389626
64.920 24.369001
64.925 23.863192
64.930 22.664127
64.935 21.875767
64.940 21.267889
64.945 21.245466
64.950 20.656664
64.955 20.525785
64.960 20.436115
64.965 21.232191
64.970 21.037661
64.975 20.602001
64.980 20.932379
64.985 21.633945
64.990 21.916355
64.995 22.48868
65.000 23.085434
65.005 23.171438
65.010 23.551855
65.015 22.925795
65.020 22.517035
65.025 22.560417
65.030 22.259104
65.035 22.205475
65.040 22.688183
65.045 22.579437
65.050 22.663519
65.055 22.817183
65.060 22.452221
65.065 22.441334
65.070 22.110043
65.075 22.029543
65.080 21.82658
65.085 21.332224
65.090 20.579412
65.095 20.824032
65.100 20.833813
65.105 20.78833
65.110 19.908371
65.115 19.795071
65.120 20.335894
65.125 20.996082
65.130 20.7323
65.135 20.716263
65.140 21.319197
65.145 21.661549
65.150 22.112312
65.155 22.398035
65.160 22.239365
65.165 22.273912
65.170 21.735958
65.175 20.902174
65.180 20.977007
65.185 21.070414
65.190 20.862669
65.195 20.759596
65.200 20.725227
65.205 21.220461
65.210 21.82723
65.215 21.498259
65.220 21.018425
65.225 21.079727
65.230 20.711206
65.235 20.785732
65.240 21.161201
65.245 21.031309
65.250 21.287336
65.255 21.788572
65.260 22.030746
65.265 22.096407
65.270 22.049263
65.275 21.679993
65.280 21.652744
65.285 21.799248
65.290 21.891582
65.295 21.858707
65.300 22.018925
65.305 21.593323
65.310 20.772985
65.315 20.673803
65.320 20.524006
65.325 20.104902
65.330 19.749929
65.335 20.299805
65.340 21.253132
65.345 22.098885
65.350 21.864635
65.355 21.476788
65.360 21.564095
65.365 21.538301
65.370 20.809193
65.375 20.018303
65.380 20.123941
65.385 20.888689
65.390 21.31859
65.395 21.603008
65.400 21.597141
65.405 22.037575
65.410 22.753746
65.415 22.726538
65.420 22.53709
65.425 22.910738
65.430 23.396597
65.435 23.149679
65.440 22.819956
65.445 22.329348
65.450 22.167974
65.455 21.478985
65.460 21.074614
65.465 20.874575
65.470 20.849634
65.475 20.600826
65.480 20.268171
65.485 20.040886
65.490 20.625101
65.495 20.444387
65.500 20.049086
65.505 20.608814
65.510 20.56443
65.515 20.350122
65.520 20.228577
65.525 19.985289
65.530 20.223209
65.535 20.513186
65.540 20.205271
65.545 20.319393
65.550 20.866085
65.555 20.972956
65.560 20.855146
65.565 20.433372
65.570 20.480938
65.575 20.986113
65.580 21.494532
65.585 21.331699
65.590 21.430727
65.595 21.627977
65.600 21.686121
65.605 22.006542
65.610 21.455177
65.615 21.397062
65.620 21.663803
65.625 21.858799
65.630 21.49926
65.635 21.214224
65.640 20.467394
65.645 20.59149
65.650 20.35438
65.655 20.207457
65.660 20.614119
65.665 21.290285
65.670 21.716
65.675 22.021227
65.680 22.242151
65.685 22.681925
65.690 22.468386
65.695 22.525866
65.700 22.759468
65.705 22.532026
65.710 22.558851
65.715 23.571573
65.720 24.570822
65.725 24.683523
65.730 23.993801
65.735 23.476267
65.740 23.58172
65.745 23.429747
65.750 22.473278
65.755 21.514519
65.760 21.472078
65.765 21.786316
65.770 22.149641
65.775 22.598417
65.780 22.656183
65.785 23.176001
65.790 23.835125
65.795 24.115463
65.800 24.609476
65.805 24.094389
65.810 23.982435
65.815 24.244825
65.820 24.648306
65.825 24.451567
65.830 24.643637
65.835 24.159149
65.840 25.191074
65.845 25.595072
65.850 25.86948
65.855 25.79598
65.860 26.11698
65.865 27.155354
65.870 27.457409
65.875 27.378733
65.880 27.756315
65.885 27.31605
65.890 27.051563
65.895 27.470247
65.900 27.135967
65.905 27.412836
65.910 27.971649
65.915 28.279968
65.920 29.149448
65.925 30.894123
65.930 30.962481
65.935 31.574627
65.940 32.180836
65.945 32.431198
65.950 32.350998
65.955 32.029427
65.960 31.821339
65.965 32.495377
65.970 33.221104
65.975 33.86195
65.980 34.051792
65.985 34.840988
65.990 35.363583
65.995 35.560268
66.000 35.280422
66.005 35.437576
66.010 35.312218
66.015 35.63282
66.020 35.683006
66.025 36.385708
66.030 37.040775
66.035 37.254375
66.040 36.759239
66.045 37.046032
66.050 37.3657
66.055 37.076511
66.060 36.591644
66.065 36.530102
66.070 37.285389
66.075 37.974861
66.080 37.938976
66.085 37.875549
66.090 38.95079
66.095 39.948936
66.100 40.847645
66.105 41.217747
66.110 41.278931
66.115 42.543682
66.120 43.613724
66.125 43.654125
66.130 43.675705
66.135 44.072906
66.140 44.665035
66.145 45.80846
66.150 45.431015
66.155 45.529053
66.160 46.313572
66.165 46.921871
66.170 46.259579
66.175 46.520538
66.180 47.118809
66.185 47.413464
66.190 46.802223
66.195 46.871769
66.200 46.535999
66.205 46.914661
66.210 46.824886
66.215 46.619129
66.220 46.867912
66.225 46.690147
66.230 46.969555
66.235 47.586346
66.240 46.95985
66.245 46.921528
66.250 46.766022
66.255 46.440876
66.260 46.338345
66.265 45.428127
66.270 44.86776
66.275 44.291401
66.280 43.387886
66.285 43.492207
66.290 43.499146
66.295 43.584263
66.300 43.595161
66.305 43.708313
66.310 44.073627
66.315 43.818844
66.320 43.385212
66.325 43.00145
66.330 42.65572
66.335 41.750671
66.340 41.112709
66.345 41.891739
66.350 42.212112
66.355 41.569973
66.360 41.034496
66.365 41.198532
66.370 41.072113
66.375 40.571941
66.380 39.505646
66.385 38.359673
66.390 37.717892
66.395 37.352081
66.400 36.608902
66.405 36.604107
66.410 35.594406
66.415 34.94846
66.420 34.808491
66.425 34.562702
66.430 34.047668
66.435 33.513645
66.440 33.087719
66.445 32.990093
66.450 32.921318
66.455 32.488796
66.460 31.66905
66.465 31.560493
66.470 31.537813
66.475 31.19005
66.480 30.609676
66.485 30.638044
66.490 31.215015
66.495 31.333344
66.500 31.506781
66.505 31.266556
66.510 31.177116
66.515 30.630461
66.520 29.412186
66.525 28.748455
66.530 28.454792
66.535 28.084742
66.540 28.19128
66.545 27.889256
66.550 28.546085
66.555 27.984266
66.560 27.440659
66.565 27.069698
66.570 26.343033
66.575 25.662088
66.580 25.129362
66.585 24.550858
66.590 24.883312
66.595 25.226171
66.600 25.259401
66.605 25.627121
66.610 25.655365
66.615 25.728338
66.620 25.739298
66.625 25.378397
66.630 24.668215
66.635 24.115767
66.640 23.280825
66.645 23.603117
66.650 23.257326
66.655 22.186722
66.660 22.022921
66.665 21.631962
66.670 21.901352
66.675 21.884043
66.680 21.262526
66.685 21.529482
66.690 21.684271
66.695 21.707628
66.700 22.081316
66.705 22.418528
66.710 22.358631
66.715 22.232901
66.720 21.530035
66.725 20.818937
66.730 20.302513
66.735 19.429932
66.740 19.456385
66.745 20.014952
66.750 20.378695
66.755 20.526131
66.760 20.807825
66.765 20.821936
66.770 20.759836
66.775 20.140242
66.780 19.25359
66.785 19.385571
66.790 19.266945
66.795 19.362906
66.800 19.349749
66.805 19.431993
66.810 19.382477
66.815 19.836493
66.820 19.231251
66.825 19.33902
66.830 19.045084
66.835 19.5105
66.840 20.334871
66.845 20.120043
66.850 19.774309
66.855 19.714031
66.860 19.895771
66.865 20.266354
66.870 19.763409
66.875 19.165483
66.880 19.172422
66.885 19.941185
66.890 20.636782
66.895 20.225983
66.900 20.127478
66.905 19.622816
66.910 19.906359
66.915 19.863523
66.920 18.857643
66.925 18.193304
66.930 18.957485
66.935 19.367805
66.940 19.757448
66.945 19.638435
66.950 19.681591
66.955 19.959173
66.960 20.308647
66.965 19.750824
66.970 19.790819
66.975 19.257719
66.980 19.614546
66.985 19.82398
66.990 19.551563
66.995 19.397408
67.000 19.179039
67.005 19.254135
67.010 19.757189
67.015 19.713932
67.020 19.988106
67.025 19.963495
67.030 20.021379
67.035 20.500587
67.040 20.446632
67.045 20.174826
67.050 20.054876
67.055 19.616238
67.060 19.710844
67.065 19.344185
67.070 18.617199
67.075 18.581985
67.080 18.628765
67.085 18.334341
67.090 19.118361
67.095 19.888023
67.100 19.99802
67.105 19.93672
67.110 19.344387
67.115 19.52693
67.120 19.970617
67.125 19.745884
67.130 19.513378
67.135 19.595596
67.140 19.900007
67.145 20.82411
67.150 20.908459
67.155 20.854156
67.160 20.693245
67.165 20.411476
67.170 20.42618
67.175 20.728106
67.180 20.101631
67.185 20.384342
67.190 20.786243
67.195 21.041988
67.200 21.643873
67.205 21.896486
67.210 22.094828
67.215 22.268402
67.220 21.965113
67.225 21.284006
67.230 20.885138
67.235 20.71174
67.240 20.111998
67.245 19.775204
67.250 20.060736
67.255 20.219822
67.260 20.244209
67.265 20.347818
67.270 20.220613
67.275 20.05718
67.280 20.225863
67.285 20.294846
67.290 19.665253
67.295 19.745411
67.300 19.318563
67.305 19.208096
67.310 19.919231
67.315 19.368652
67.320 19.093935
67.325 19.093321
67.330 18.767057
67.335 19.281507
67.340 19.145657
67.345 18.44639
67.350 18.540865
67.355 18.527384
67.360 18.506821
67.365 18.517479
67.370 17.79874
67.375 18.270741
67.380 18.994932
67.385 19.045969
67.390 19.139887
67.395 19.416544
67.400 19.47924
67.405 20.024796
67.410 19.89518
67.415 19.917925
67.420 19.933725
67.425 20.036602
67.430 19.929974
67.435 20.324795
67.440 20.273169
67.445 20.232244
67.450 20.311184
67.455 20.64394
67.460 20.676842
67.465 20.825443
67.470 20.925537
67.475 20.541899
67.480 20.641592
67.485 20.6287
67.490 20.571922
67.495 20.859224
67.500 20.704727
67.505 21.05221
67.510 21.645147
67.515 21.540707
67.520 21.663567
67.525 21.760714
67.530 20.937771
67.535 20.678507
67.540 20.313274
67.545 20.303194
67.550 20.214832
67.555 20.144802
67.560 20.179405
67.565 20.558651
67.570 20.421997
67.575 20.311834
67.580 20.169268
67.585 20.278902
67.590 19.858662
67.595 19.588251
67.600 20.25395
67.605 20.862408
67.610 20.459251
67.615 19.96607
67.620 20.664478
67.625 21.926262
67.630 22.180458
67.635 21.90513
67.640 22.235069
67.645 22.689518
67.650 22.885538
67.655 21.961088
67.660 21.596878
67.665 20.938015
67.670 20.638298
67.675 20.548323
67.680 21.058107
67.685 21.145252
67.690 20.899202
67.695 20.12192
67.700 20.470053
67.705 20.133263
67.710 19.232719
67.715 18.835199
67.720 19.037565
67.725 19.13385
67.730 19.886349
67.735 20.084887
67.740 20.208801
67.745 20.263166
67.750 20.063631
67.755 20.052597
67.760 19.809368
67.765 19.257317
67.770 19.282309
67.775 19.655396
67.780 20.116367
67.785 20.230991
67.790 20.030848
67.795 19.248428
67.800 19.075766
67.805 18.992481
67.810 18.801767
67.815 18.537315
67.820 18.441
67.825 18.448437
67.830 18.936758
67.835 18.863853
67.840 18.69306
67.845 19.072176
67.850 19.250776
67.855 19.19861
67.860 19.417376
67.865 19.730894
67.870 19.965115
67.875 20.117609
67.880 19.861631
67.885 20.1504
67.890 20.012646
67.895 19.484764
67.900 19.603952
67.905 19.951557
67.910 19.898577
67.915 19.59543
67.920 19.486046
67.925 19.662327
67.930 20.052784
67.935 20.64686
67.940 20.239086
67.945 20.164827
67.950 20.251747
67.955 20.247549
67.960 20.433609
67.965 20.090225
67.970 19.724333
67.975 19.804649
67.980 19.644905
67.985 19.305912
67.990 18.766769
67.995 18.685652
68.000 18.687885
68.005 18.505108
68.010 18.357531
68.015 18.684805
68.020 18.950518
68.025 19.178362
68.030 19.585049
68.035 20.506168
68.040 20.92136
68.045 21.156166
68.050 21.322367
68.055 21.299381
68.060 21.086815
68.065 20.570856
68.070 19.981728
68.075 20.045389
68.080 20.002871
68.085 19.888037
68.090 19.965656
68.095 20.356222
68.100 20.37043
68.105 20.711872
68.110 20.991903
68.115 21.175554
68.120 20.689737
68.125 20.320536
68.130 19.98875
68.135 19.724794
68.140 18.889719
68.145 18.925978
68.150 19.432838
68.155 20.011984
68.160 20.833963
68.165 21.182507
68.170 21.47999
68.175 21.471462
68.180 20.909847
68.185 20.08984
68.190 20.328197
68.195 20.123117
68.200 20.536371
68.205 20.153582
68.210 20.293911
68.215 20.4034
68.220 20.169472
68.225 19.564058
68.230 18.871153
68.235 18.576105
68.240 18.916946
68.245 19.129358
68.250 19.295824
68.255 19.129622
68.260 19.249277
68.265 19.383247
68.270 19.490656
68.275 19.355555
68.280 18.935118
68.285 18.624592
68.290 19.03764
68.295 19.351425
68.300 19.436092
68.305 19.111315
68.310 19.276236
68.315 19.088051
68.320 19.289026
68.325 19.156368
68.330 18.982622
68.335 19.18902
68.340 19.518223
68.345 19.501495
68.350 19.924696
68.355 20.575926
68.360 20.259018
68.365 20.165953
68.370 19.854826
68.375 20.080038
68.380 20.807699
68.385 21.2108
68.390 21.418482
68.395 22.090017
68.400 21.71242
68.405 21.355822
68.410 21.11651
68.415 21.033051
68.420 21.439915
68.425 21.098156
68.430 21.058359
68.435 21.907358
68.440 22.807152
68.445 23.053368
68.450 22.644493
68.455 21.459093
68.460 21.044125
68.465 20.996906
68.470 20.729219
68.475 20.611521
68.480 20.294163
68.485 20.423273
68.490 20.545778
68.495 20.993198
68.500 20.711132
68.505 20.837675
68.510 20.357424
68.515 19.676048
68.520 19.251974
68.525 19.763422
68.530 19.61869
68.535 19.843847
68.540 19.486998
68.545 20.069715
68.550 20.66049
68.555 20.517534
68.560 19.939188
68.565 19.603846
68.570 19.640015
68.575 19.763956
68.580 19.537346
68.585 19.752129
68.590 20.010429
68.595 20.138088
68.600 20.634447
68.605 20.023396
68.610 19.925322
68.615 20.332083
68.620 20.350309
68.625 20.948978
68.630 21.359333
68.635 21.85655
68.640 22.459681
68.645 22.582687
68.650 22.514771
68.655 21.913897
68.660 21.492962
68.665 21.422281
68.670 21.094067
68.675 21.370729
68.680 21.316357
68.685 21.637583
68.690 21.887434
68.695 21.263721
68.700 21.134848
68.705 21.463419
68.710 21.377254
68.715 21.024685
68.720 20.962475
68.725 21.24358
68.730 21.605227
68.735 21.29376
68.740 20.80234
68.745 20.273209
68.750 20.308359
68.755 20.492729
68.760 20.934412
68.765 21.185005
68.770 21.554827
68.775 21.212574
68.780 21.199104
68.785 21.273724
68.790 20.816729
68.795 20.861412
68.800 20.702164
68.805 21.366095
68.810 22.024441
68.815 22.135979
68.820 21.955328
68.825 22.533251
68.830 21.782703
68.835 21.622362
68.840 20.884445
68.845 20.608433
68.850 20.656145
68.855 20.602224
68.860 20.317055
68.865 20.605286
68.870 20.723845
68.875 21.015081
68.880 21.57365
68.885 22.102451
68.890 22.156841
68.895 23.08012
68.900 23.506159
68.905 23.508883
68.910 23.272009
68.915 22.876455
68.920 22.702766
68.925 22.913853
68.930 22.242126
68.935 22.641781
68.940 22.558762
68.945 22.811466
68.950 22.592363
68.955 22.418026
68.960 21.955233
68.965 22.015726
68.970 21.66502
68.975 22.418554
68.980 23.09692
68.985 23.290398
68.990 24.184364
68.995 24.622297
69.000 24.925194
69.005 25.732533
69.010 25.211554
69.015 24.979933
69.020 25.073826
69.025 25.307364
69.030 25.668104
69.035 26.435003
69.040 26.607296
69.045 27.365322
69.050 28.252628
69.055 28.845226
69.060 28.016253
69.065 28.221786
69.070 27.841171
69.075 27.613499
69.080 27.390951
69.085 27.64032
69.090 27.827168
69.095 28.386856
69.100 28.520561
69.105 28.742863
69.110 29.210741
69.115 29.505201
69.120 29.424559
69.125 29.966764
69.130 30.082861
69.135 29.618746
69.140 30.607536
69.145 31.00478
69.150 29.947245
69.155 29.563511
69.160 29.962637
69.165 30.447962
69.170 30.50543
69.175 30.476385
69.180 30.819822
69.185 32.00349
69.190 32.128757
69.195 32.183376
69.200 32.331169
69.205 33.217037
69.210 34.112724
69.215 34.820839
69.220 35.177059
69.225 36.379524
69.230 35.633163
69.235 35.674332
69.240 35.65918
69.245 36.045918
69.250 35.914593
69.255 36.033695
69.260 35.013691
69.265 35.451172
69.270 35.623596
69.275 34.722408
69.280 33.518665
69.285 33.486107
69.290 33.541218
69.295 33.799747
69.300 34.307377
69.305 34.653187
69.310 35.740288
69.315 36.951958
69.320 36.66951
69.325 37.24926
69.330 37.344311
69.335 37.35215
69.340 37.393379
69.345 37.093018
69.350 37.483147
69.355 37.039627
69.360 37.520729
69.365 38.036087
69.370 38.82777
69.375 39.448685
69.380 39.261589
69.385 38.502605
69.390 38.408554
69.395 37.678776
69.400 37.499489
69.405 36.607716
69.410 36.201813
69.415 37.463985
69.420 38.447651
69.425 39.287102
69.430 39.664322
69.435 40.11869
69.440 40.508747
69.445 40.638515
69.450 39.857628
69.455 39.634338
69.460 39.133003
69.465 38.472652
69.470 37.309113
69.475 37.260212
69.480 36.568314
69.485 35.648106
69.490 35.730667
69.495 35.845356
69.500 35.868984
69.505 36.109863
69.510 35.390923
69.515 35.191414
69.520 35.343719
69.525 35.004604
69.530 34.445267
69.535 34.765747
69.540 34.146252
69.545 33.63739
69.550 34.44495
69.555 34.256592
69.560 33.871727
69.565 33.82198
69.570 33.657455
69.575 33.82777
69.580 33.690323
69.585 33.11187
69.590 32.407436
69.595 32.596886
69.600 33.100384
69.605 33.520458
69.610 33.164024
69.615 33.060295
69.620 33.029228
69.625 32.863636
69.630 31.992279
69.635 30.546467
69.640 30.037683
69.645 30.464243
69.650 30.406269
69.655 29.478374
69.660 29.528324
69.665 29.234001
69.670 29.300467
69.675 29.181938
69.680 29.238867
69.685 29.007217
69.690 29.40037
69.695 29.542929
69.700 29.946959
69.705 29.784151
69.710 28.767551
69.715 28.660156
69.720 29.067638
69.725 29.216991
69.730 28.984987
69.735 28.909515
69.740 29.077887
69.745 29.723242
69.750 28.756882
69.755 27.313477
69.760 25.802526
69.765 25.552729
69.770 24.876308
69.775 25.162142
69.780 25.171061
69.785 25.84881
69.790 26.109779
69.795 26.063972
69.800 26.165791
69.805 26.371824
69.810 25.131325
69.815 24.17592
69.820 23.763264
69.825 23.695547
69.830 24.025963
69.835 23.369848
69.840 22.568985
69.845 22.561783
69.850 22.738804
69.855 22.457514
69.860 22.33754
69.865 22.320515
69.870 22.690147
69.875 23.612673
69.880 23.877337
69.885 24.281502
69.890 24.423386
69.895 24.471867
69.900 23.769054
69.905 23.237928
69.910 22.838776
69.915 22.588545
69.920 22.210178
69.925 22.069235
69.930 22.463774
69.935 23.246006
69.940 23.215147
69.945 23.018574
69.950 23.147501
69.955 22.975185
69.960 22.926374
69.965 21.912838
69.970 20.889345
69.975 20.843597
69.980 20.747068
69.985 20.32229
69.990 20.210587
69.995 20.14609
70.000 20.618704
70.005 20.483124
70.010 20.314508
70.015 20.465662
70.020 20.458246
70.025 20.377243
70.030 19.921808
70.035 20.082026
70.040 20.687326
70.045 20.197355
70.050 19.732906
70.055 19.843702
70.060 20.167974
70.065 20.856234
70.070 20.664143
70.075 20.96423
70.080 21.151413
70.085 21.459993
70.090 21.428789
70.095 21.373367
70.100 20.483816
70.105 20.220953
70.110 19.823446
70.115 19.933088
70.120 20.116861
70.125 20.031462
70.130 20.01577
70.135 20.043344
70.140 19.898386
70.145 20.235847
70.150 20.322626
70.155 20.772562
70.160 20.560831
70.165 20.289434
70.170 20.63328
70.175 20.260918
70.180 19.571087
70.185 19.350487
70.190 19.110825
70.195 19.927736
70.200 19.547142
70.205 19.561113
70.210 19.966881
70.215 20.277512
70.220 20.468151
70.225 19.840233
70.230 18.868904
70.235 19.14267
70.240 18.950106
70.245 18.78529
70.250 18.706003
70.255 18.182024
70.260 18.447067
70.265 18.87793
70.270 18.756336
70.275 19.119577
70.280 19.358828
70.285 19.567114
70.290 19.615879
70.295 19.541088
70.300 18.991156
70.305 18.622593
70.310 18.245539
70.315 18.38063
70.320 18.472754
70.325 18.416502
70.330 18.769335
70.335 19.526894
70.340 19.941999
70.345 19.639547
70.350 19.601767
70.355 19.59786
70.360 19.925135
70.365 19.754251
70.370 19.604799
70.375 19.253239
70.380 19.543367
70.385 19.294203
70.390 19.057787
70.395 18.908171
70.400 19.248734
70.405 19.887766
70.410 20.935696
70.415 20.128244
70.420 19.531309
70.425 19.674921
70.430 20.050842
70.435 20.576717
70.440 19.653555
70.445 18.953487
70.450 19.76767
70.455 20.481331
70.460 20.678144
70.465 20.054741
70.470 19.665854
70.475 19.502462
70.480 19.752291
70.485 19.725494
70.490 19.130344
70.495 18.952808
70.500 18.829199
70.505 18.871449
70.510 19.132645
70.515 19.216312
70.520 19.229156
70.525 19.64068
70.530 18.950747
70.535 19.101816
70.540 19.222013
70.545 19.71283
70.550 19.720774
70.555 19.957996
70.560 19.769382
70.565 20.404448
70.570 20.209396
70.575 19.662914
70.580 18.669237
70.585 18.784397
70.590 19.468138
70.595 19.654016
70.600 19.288008
70.605 19.778284
70.610 19.89069
70.615 20.384155
70.620 20.27277
70.625 19.877745
70.630 20.282534
70.635 19.914063
70.640 19.669216
70.645 20.298784
70.650 20.360882
70.655 20.032381
70.660 19.724854
70.665 19.233719
70.670 19.736956
70.675 19.934446
70.680 19.357014
70.685 18.472082
70.690 18.653624
70.695 19.393095
70.700 19.809444
70.705 19.864624
70.710 19.898031
70.715 20.47374
70.720 20.971775
70.725 20.43959
70.730 19.500177
70.735 19.258207
70.740 18.88237
70.745 18.595625
70.750 18.454334
70.755 17.886059
70.760 18.444046
70.765 18.619072
70.770 18.73118
70.775 18.818237
70.780 18.423172
70.785 18.635387
70.790 18.609129
70.795 18.129963
70.800 18.59141
70.805 18.865183
70.810 19.214731
70.815 19.004536
70.820 19.155882
70.825 19.636944
70.830 19.596428
70.835 19.742601
70.840 19.405521
70.845 19.345486
70.850 19.925583
70.855 19.767742
70.860 19.353189
70.865 18.736328
70.870 18.818266
70.875 19.111914
70.880 18.976246
70.885 19.155771
70.890 18.973127
70.895 19.001768
70.900 19.037718
70.905 18.555801
70.910 18.35955
70.915 18.286177
70.920 17.606945
70.925 17.844635
70.930 18.324276
70.935 18.523291
70.940 18.386663
70.945 18.652649
70.950 19.202595
70.955 19.223837
70.960 19.635357
70.965 19.683256
70.970 19.784426
70.975 19.547216
70.980 18.891956
70.985 18.412022
70.990 18.101334
70.995 17.827316
71.000 17.892094
71.005 17.982618
71.010 18.313663
71.015 18.608589
71.020 19.235001
71.025 19.252571
71.030 19.024572
71.035 19.041235
71.040 19.287491
71.045 18.905531
71.050 18.402449
71.055 18.049355
71.060 18.427555
71.065 18.24058
71.070 17.544514
71.075 17.512722
71.080 18.35257
71.085 18.555735
71.090 18.581144
71.095 18.422743
71.100 18.540606
71.105 19.150002
71.110 18.580227
71.115 18.122389
71.120 18.333544
71.125 18.062241
71.130 18.001099
71.135 17.483147
71.140 17.344372
71.145 17.743359
71.150 18.446484
71.155 18.232866
71.160 18.501793
71.165 19.128859
71.170 19.698147
71.175 19.672176
71.180 19.096725
71.185 18.493309
71.190 18.684561
71.195 18.68611
71.200 17.409367
71.205 17.161963
71.210 17.342804
71.215 18.09263
71.220 18.323689
71.225 17.97595
71.230 17.828331
71.235 18.081612
71.240 18.091608
71.245 17.459627
71.250 17.059
71.255 17.179474
71.260 17.660875
71.265 17.668444
71.270 17.968439
71.275 18.331781
71.280 18.412661
71.285 18.584339
71.290 18.575361
71.295 18.668043
71.300 18.931026
71.305 18.97364
71.310 18.719267
71.315 18.903364
71.320 19.049026
71.325 18.439556
71.330 18.528143
71.335 18.633873
71.340 18.085674
71.345 18.375992
71.350 18.572252
71.355 18.254074
71.360 18.124548
71.365 18.138895
71.370 17.951391
71.375 18.247557
71.380 17.751091
71.385 17.459929
71.390 17.76021
71.395 18.204998
71.400 18.542995
71.405 18.428532
71.410 18.549881
71.415 18.768049
71.420 19.02496
71.425 19.109919
71.430 18.614948
71.435 17.852364
71.440 17.59271
71.445 17.860203
71.450 17.921806
71.455 17.726187
71.460 17.689064
71.465 18.514296
71.470 19.693214
71.475 19.887482
71.480 19.279766
71.485 19.307755
71.490 19.814365
71.495 19.767925
71.500 18.735603
71.505 17.48855
71.510 17.604061
71.515 18.19072
71.520 17.48695
71.525 16.615431
71.530 16.65996
71.535 16.724054
71.540 17.624918
71.545 17.671297
71.550 17.995903
71.555 18.669579
71.560 18.908041
71.565 18.471565
71.570 18.626242
71.575 18.914736
71.580 18.441851
71.585 17.567553
71.590 17.457371
71.595 17.635866
71.600 18.00061
71.605 17.988327
71.610 17.75025
71.615 18.13913
71.620 18.593245
71.625 18.252676
71.630 18.222481
71.635 17.689682
71.640 17.635231
71.645 17.506378
71.650 17.188862
71.655 16.86838
71.660 16.797863
71.665 17.268759
71.670 18.051104
71.675 18.044851
71.680 18.130131
71.685 18.388494
71.690 19.254215
71.695 19.522839
71.700 19.467352
71.705 18.441963
71.710 18.354418
71.715 18.268309
71.720 18.03454
71.725 17.260925
71.730 17.01519
71.735 17.047319
71.740 18.019726
71.745 18.059946
71.750 17.831205
71.755 18.266787
71.760 18.343666
71.765 18.621553
71.770 18.867922
71.775 17.987885
71.780 17.594772
71.785 17.800941
71.790 17.261551
71.795 17.415464
71.800 17.291485
71.805 16.914015
71.810 17.383713
71.815 17.507542
71.820 17.426775
71.825 17.276237
71.830 17.266029
71.835 17.21788
71.840 17.34804
71.845 17.098919
71.850 17.187206
71.855 17.25946
71.860 17.826908
71.865 17.592878
71.870 17.837551
71.875 18.06139
71.880 17.994841
71.885 18.035574
71.890 17.863415
71.895 18.11581
71.900 17.951506
71.905 17.344999
71.910 17.783686
71.915 18.239979
71.920 18.268875
71.925 18.435085
71.930 17.867046
71.935 18.220663
71.940 18.841452
71.945 19.128597
71.950 18.87689
71.955 18.815926
71.960 18.612139
71.965 19.029333
71.970 19.633656
71.975 19.880138
71.980 20.17766
71.985 20.541052
71.990 20.411554
71.995 20.526331
72.000 20.307953
72.005 19.577515
72.010 18.520662
72.015 18.25267
72.020 18.680475
72.025 19.016994
72.030 18.901335
72.035 17.996101
72.040 17.67761
72.045 17.273994
72.050 16.988249
72.055 16.74719
72.060 16.410288
72.065 16.85573
72.070 17.542418
72.075 17.910267
72.080 18.461483
72.085 18.881985
72.090 18.823324
72.095 19.075066
72.100 19.772894
72.105 20.152416
72.110 20.494024
72.115 20.634247
72.120 20.704376
72.125 21.286064
72.130 21.171526
72.135 20.661535
72.140 20.195189
72.145 19.410809
72.150 18.594957
72.155 18.348618
72.160 17.831129
72.165 17.695845
72.170 17.620348
72.175 17.64485
72.180 18.380123
72.185 18.367783
72.190 18.657215
72.195 18.470226
72.200 18.296062
72.205 18.431879
72.210 18.473215
72.215 17.604454
72.220 17.320017
72.225 17.485401
72.230 17.8395
72.235 18.108017
72.240 18.32482
72.245 18.653028
72.250 19.321297
72.255 19.06148
72.260 18.53513
72.265 18.309208
72.270 17.831593
72.275 17.670065
72.280 17.274368
72.285 17.394768
72.290 18.019207
72.295 18.402058
72.300 18.351181
72.305 18.587509
72.310 18.619722
72.315 18.885368
72.320 18.937586
72.325 18.270418
72.330 17.984476
72.335 17.825048
72.340 17.930283
72.345 17.746292
72.350 17.451956
72.355 17.514824
72.360 17.12858
72.365 17.179909
72.370 17.197886
72.375 17.149397
72.380 17.059029
72.385 17.400585
72.390 17.877234
72.395 18.186581
72.400 18.530272
72.405 18.821428
72.410 18.675522
72.415 18.899925
72.420 18.792784
72.425 18.789673
72.430 18.747927
72.435 17.983595
72.440 17.544188
72.445 17.931879
72.450 17.611759
72.455 17.159004
72.460 17.103197
72.465 17.086123
72.470 17.303125
72.475 17.456066
72.480 17.394234
72.485 18.050356
72.490 18.341131
72.495 18.246618
72.500 18.098928
72.505 18.300943
72.510 17.918776
72.515 17.577248
72.520 17.869757
72.525 18.085733
72.530 18.340076
72.535 18.331678
72.540 17.846045
72.545 17.808435
72.550 18.187281
72.555 18.201153
72.560 18.226547
72.565 18.294346
72.570 18.005699
72.575 18.509266
72.580 18.56974
72.585 18.441954
72.590 18.696163
72.595 18.270981
72.600 19.336946
72.605 20.257813
72.610 20.71722
72.615 20.519709
72.620 20.091616
72.625 19.361462
72.630 18.321142
72.635 17.24995
72.640 16.258549
72.645 15.47818
72.650 15.450369
72.655 14.880065
72.660 15.32831
72.665 15.778815
72.670 16.313395
72.675 17.184433
72.680 17.700438
72.685 17.831755
72.690 18.345301
72.695 18.79179
72.700 18.708754
72.705 18.267082
72.710 17.844007
72.715 17.24041
72.720 16.666641
72.725 16.191032
72.730 16.735069
72.735 16.728159
72.740 16.65736
72.745 16.981041
72.750 17.596117
72.755 17.53677
72.760 16.795073
72.765 16.349649
72.770 16.438757
72.775 16.058428
72.780 15.32655
72.785 15.313521
72.790 15.595224
72.795 15.932127
72.800 15.492587
72.805 15.365089
72.810 15.735649
72.815 15.673462
72.820 15.668163
72.825 15.550351
72.830 15.325758
72.835 15.685502
72.840 15.71515
72.845 15.850858
72.850 15.934426
72.855 16.397213
72.860 17.021259
72.865 17.572411
72.870 18.077896
72.875 18.204227
72.880 18.513021
72.885 18.164165
72.890 17.678675
72.895 16.765034
72.900 16.37183
72.905 16.191553
72.910 16.242933
72.915 16.213749
72.920 16.372009
72.925 16.590557
72.930 16.799202
72.935 17.109089
72.940 17.113386
72.945 16.873005
72.950 16.721901
72.955 17.182411
72.960 18.090216
72.965 18.175034
72.970 17.796377
72.975 17.347691
72.980 17.490198
72.985 17.768316
72.990 17.281975
72.995 17.09008
73.000 17.412029
