!@!!GADDS PLOTSO FILE: Chi integration type
!@!!Title/SampleName: map-66
!@!!Comment: ?
!@!!User: Bruker Instrument Administrator
!@!!Site: University of Illinois Chicago
!@!!Frame: map-66_01_000.gfrm
!@!!Wavelengths    1.54184   1.54056   1.54439
!@!!Frame angles: 2Theta: 63.000 Omega: 50.000 Phi: 0.000 Chi: 90.000
!@!!Integration range: 2Theta: 53.000 to 73.000  Gamma: -105.000 to -75.000
!@!!Integration method: bin normalized
!@!N
!@!SS
!@!M
!@!L 0.0 0.0 0.0 0.0
!@!XDegrees
!@!YCounts
53.000 8.42581
53.005 8.710371
53.010 8.804743
53.015 9.024693
53.020 9.518305
53.025 9.730854
53.030 9.905986
53.035 9.937576
53.040 9.758018
53.045 9.124583
53.050 8.585092
53.055 8.368216
53.060 8.14492
53.065 7.699846
53.070 7.275334
53.075 7.333883
53.080 7.558565
53.085 7.316375
53.090 7.362235
53.095 7.63675
53.100 7.741341
53.105 7.991313
53.110 8.070736
53.115 8.436623
53.120 9.020381
53.125 8.693673
53.130 8.533545
53.135 8.647019
53.140 8.969362
53.145 9.469736
53.150 9.731274
53.155 9.538651
53.160 9.886421
53.165 10.035189
53.170 10.331723
53.175 10.235071
53.180 9.693648
53.185 9.308891
53.190 9.524285
53.195 9.533533
53.200 9.538719
53.205 9.141777
53.210 8.652485
53.215 8.54111
53.220 8.373573
53.225 8.568331
53.230 8.489278
53.235 8.118722
53.240 8.387007
53.245 9.13721
53.250 9.55631
53.255 9.684956
53.260 9.566136
53.265 9.733196
53.270 9.657726
53.275 9.36473
53.280 8.967547
53.285 8.844913
53.290 8.475666
53.295 8.218189
53.300 8.406545
53.305 9.033835
53.310 8.956773
53.315 8.967886
53.320 9.464318
53.325 10.115562
53.330 10.427604
53.335 10.339231
53.340 10.469509
53.345 10.470124
53.350 10.467528
53.355 10.564561
53.360 10.425632
53.365 10.111559
53.370 9.978269
53.375 9.519056
53.380 9.641364
53.385 9.793648
53.390 9.35106
53.395 9.232972
53.400 9.203845
53.405 9.357138
53.410 9.673309
53.415 9.837727
53.420 9.168612
53.425 9.196149
53.430 9.720893
53.435 9.445121
53.440 9.300028
53.445 9.136662
53.450 9.295371
53.455 9.385345
53.460 9.336194
53.465 9.250811
53.470 9.204472
53.475 9.028619
53.480 8.725234
53.485 8.423759
53.490 8.425488
53.495 8.162201
53.500 8.339349
53.505 8.869735
53.510 9.478133
53.515 9.622052
53.520 9.883425
53.525 10.034294
53.530 10.204011
53.535 9.544172
53.540 9.086139
53.545 9.07918
53.550 9.073993
53.555 9.19186
53.560 9.276257
53.565 9.559599
53.570 9.894549
53.575 10.064509
53.580 10.148631
53.585 10.621552
53.590 10.672792
53.595 10.123987
53.600 10.125195
53.605 10.226927
53.610 10.181946
53.615 10.103011
53.620 9.98013
53.625 10.109661
53.630 10.344833
53.635 10.317101
53.640 10.417562
53.645 10.209343
53.650 10.443229
53.655 10.108787
53.660 10.032619
53.665 10.140042
53.670 9.558002
53.675 9.358827
53.680 9.441726
53.685 9.310019
53.690 9.363311
53.695 9.144022
53.700 9.28467
53.705 9.626274
53.710 9.697728
53.715 9.759039
53.720 9.698409
53.725 10.244009
53.730 10.572617
53.735 10.825912
53.740 11.188367
53.745 11.478983
53.750 11.08547
53.755 10.849446
53.760 10.649913
53.765 10.586716
53.770 10.145491
53.775 9.762947
53.780 10.092328
53.785 10.29137
53.790 10.118572
53.795 9.240128
53.800 9.498402
53.805 9.788757
53.810 9.53588
53.815 9.269322
53.820 9.083926
53.825 9.328191
53.830 9.491139
53.835 8.76285
53.840 8.581163
53.845 8.145432
53.850 7.798957
53.855 8.021743
53.860 8.580171
53.865 8.921343
53.870 9.373381
53.875 9.547239
53.880 10.193985
53.885 10.260877
53.890 9.886404
53.895 8.846056
53.900 8.925572
53.905 9.081464
53.910 8.625725
53.915 8.496344
53.920 8.593204
53.925 8.953632
53.930 9.502826
53.935 8.986358
53.940 8.691477
53.945 8.820018
53.950 9.042203
53.955 9.075904
53.960 9.431664
53.965 9.756761
53.970 10.387014
53.975 10.737192
53.980 10.731409
53.985 10.766483
53.990 10.722853
53.995 10.303917
54.000 10.043672
54.005 9.864077
54.010 9.659912
54.015 9.462681
54.020 9.620565
54.025 9.625397
54.030 9.484437
54.035 9.433344
54.040 9.347821
54.045 9.748432
54.050 9.819566
54.055 9.418869
54.060 9.381894
54.065 9.420431
54.070 9.066772
54.075 9.272639
54.080 9.267622
54.085 9.417
54.090 9.948586
54.095 10.269162
54.100 10.399855
54.105 10.558248
54.110 10.285404
54.115 10.019505
54.120 10.021022
54.125 9.828249
54.130 9.905814
54.135 9.719917
54.140 9.617723
54.145 9.825871
54.150 10.139715
54.155 10.332028
54.160 10.491764
54.165 10.295482
54.170 10.715091
54.175 10.890775
54.180 10.413712
54.185 10.001291
54.190 9.989051
54.195 10.39189
54.200 10.473845
54.205 10.172391
54.210 10.424478
54.215 10.867409
54.220 10.977089
54.225 10.687403
54.230 10.383128
54.235 10.503341
54.240 10.750695
54.245 10.959792
54.250 10.568348
54.255 10.473015
54.260 10.336203
54.265 11.033393
54.270 11.475905
54.275 11.256363
54.280 11.284507
54.285 11.151241
54.290 11.703334
54.295 11.70403
54.300 10.667142
54.305 10.757351
54.310 10.915847
54.315 10.84264
54.320 11.101315
54.325 10.595305
54.330 10.741169
54.335 10.993557
54.340 10.55481
54.345 9.983064
54.350 10.638231
54.355 10.964974
54.360 10.801448
54.365 10.695863
54.370 10.125037
54.375 9.951663
54.380 9.772961
54.385 9.103695
54.390 8.982324
54.395 9.269198
54.400 9.094418
54.405 8.998907
54.410 9.424143
54.415 9.696757
54.420 9.876169
54.425 9.612423
54.430 9.223131
54.435 9.584228
54.440 10.287552
54.445 10.172088
54.450 10.353907
54.455 10.689003
54.460 10.888289
54.465 11.270849
54.470 11.419913
54.475 11.396798
54.480 11.362366
54.485 11.162579
54.490 10.869931
54.495 10.814346
54.500 10.495524
54.505 10.140615
54.510 9.860394
54.515 9.931723
54.520 10.021784
54.525 10.114809
54.530 10.146125
54.535 9.970901
54.540 9.94108
54.545 9.493852
54.550 9.458678
54.555 9.462116
54.560 9.439513
54.565 9.494071
54.570 9.352349
54.575 9.453855
54.580 9.707634
54.585 9.47979
54.590 9.541304
54.595 9.865759
54.600 9.86692
54.605 10.098488
54.610 10.178
54.615 10.126785
54.620 10.039893
54.625 9.915618
54.630 9.810586
54.635 10.032844
54.640 10.144839
54.645 10.45436
54.650 10.437239
54.655 10.965707
54.660 11.063091
54.665 11.064565
54.670 10.742611
54.675 10.488469
54.680 10.477757
54.685 10.73213
54.690 10.330809
54.695 10.163109
54.700 9.915213
54.705 9.778071
54.710 10.159577
54.715 10.502697
54.720 10.496496
54.725 10.318901
54.730 10.551246
54.735 11.140817
54.740 11.655849
54.745 11.677835
54.750 11.457165
54.755 11.459471
54.760 11.703504
54.765 12.097635
54.770 11.647909
54.775 11.393982
54.780 11.436473
54.785 11.208205
54.790 11.699643
54.795 11.830447
54.800 11.577273
54.805 12.01552
54.810 12.244078
54.815 12.220565
54.820 12.58544
54.825 12.177341
54.830 11.735755
54.835 11.818792
54.840 11.839932
54.845 11.975444
54.850 11.486759
54.855 10.733285
54.860 10.503368
54.865 10.927751
54.870 10.353152
54.875 10.095164
54.880 9.858065
54.885 10.186875
54.890 10.823735
54.895 10.589675
54.900 10.324891
54.905 10.508014
54.910 10.212643
54.915 10.099046
54.920 10.224997
54.925 9.944935
54.930 10.213009
54.935 10.54979
54.940 10.613605
54.945 10.959231
54.950 11.468023
54.955 11.646162
54.960 12.103683
54.965 11.723501
54.970 11.74325
54.975 11.655312
54.980 11.151771
54.985 10.998458
54.990 10.379675
54.995 9.999201
55.000 10.520643
55.005 10.497339
55.010 11.397095
55.015 11.321791
55.020 10.600554
55.025 11.172056
55.030 11.506276
55.035 11.217052
55.040 10.778085
55.045 10.312489
55.050 10.579326
55.055 10.725342
55.060 10.939219
55.065 10.928776
55.070 11.260128
55.075 11.621768
55.080 11.65486
55.085 11.953816
55.090 11.837901
55.095 11.28376
55.100 11.21476
55.105 11.273116
55.110 11.45633
55.115 11.425396
55.120 11.656847
55.125 11.095057
55.130 10.71713
55.135 10.9375
55.140 10.812992
55.145 11.131243
55.150 10.818578
55.155 10.90426
55.160 12.058114
55.165 12.458748
55.170 12.348492
55.175 11.672138
55.180 11.231926
55.185 11.70043
55.190 11.624935
55.195 11.626012
55.200 11.592841
55.205 11.691698
55.210 12.049901
55.215 12.145785
55.220 12.263432
55.225 12.019291
55.230 12.114695
55.235 11.890986
55.240 11.437221
55.245 11.527139
55.250 11.478999
55.255 11.336409
55.260 12.026638
55.265 12.142515
55.270 12.05549
55.275 12.134277
55.280 11.756076
55.285 11.185265
55.290 10.748795
55.295 10.066454
55.300 9.869495
55.305 9.94882
55.310 10.110383
55.315 10.24549
55.320 10.369819
55.325 11.027131
55.330 11.154911
55.335 11.55219
55.340 11.717808
55.345 11.82572
55.350 12.331158
55.355 13.020937
55.360 13.462716
55.365 13.732992
55.370 13.78436
55.375 14.083473
55.380 14.211661
55.385 14.466208
55.390 14.057801
55.395 13.209044
55.400 12.506664
55.405 11.805408
55.410 11.350975
55.415 11.126339
55.420 10.706743
55.425 10.636856
55.430 10.839664
55.435 11.062343
55.440 11.543265
55.445 11.681192
55.450 11.62872
55.455 11.662058
55.460 11.700133
55.465 11.98409
55.470 12.154869
55.475 12.124244
55.480 12.387122
55.485 12.166556
55.490 12.236684
55.495 11.564319
55.500 11.406933
55.505 11.408342
55.510 11.360964
55.515 11.106784
55.520 11.072309
55.525 11.193361
55.530 11.278497
55.535 11.548162
55.540 11.487494
55.545 12.053435
55.550 12.651317
55.555 12.839204
55.560 12.646981
55.565 12.82061
55.570 12.32051
55.575 12.333651
55.580 11.729232
55.585 11.265981
55.590 11.237067
55.595 11.59893
55.600 11.920914
55.605 11.688576
55.610 11.548986
55.615 11.908273
55.620 11.991931
55.625 11.838462
55.630 11.261499
55.635 11.031569
55.640 11.421708
55.645 10.924984
55.650 10.686609
55.655 10.743368
55.660 10.815267
55.665 10.561113
55.670 10.111366
55.675 9.745198
55.680 9.971016
55.685 10.282228
55.690 10.175276
55.695 10.147776
55.700 10.709585
55.705 10.728343
55.710 10.951385
55.715 10.987519
55.720 10.996718
55.725 11.132517
55.730 11.040302
55.735 11.267348
55.740 11.977391
55.745 11.854131
55.750 11.609761
55.755 11.414674
55.760 11.352333
55.765 11.287749
55.770 10.884288
55.775 10.702247
55.780 10.764701
55.785 11.464604
55.790 11.458711
55.795 11.581608
55.800 11.676472
55.805 11.861608
55.810 12.088385
55.815 12.06455
55.820 12.434817
55.825 12.488849
55.830 12.575181
55.835 12.750887
55.840 13.050541
55.845 12.818089
55.850 12.288968
55.855 11.501157
55.860 11.205076
55.865 11.257484
55.870 11.411951
55.875 11.173558
55.880 11.320785
55.885 11.45508
55.890 11.597156
55.895 11.746107
55.900 11.533946
55.905 11.303682
55.910 11.373592
55.915 11.450849
55.920 11.48814
55.925 11.345211
55.930 11.493384
55.935 11.606097
55.940 11.421712
55.945 11.324796
55.950 11.533964
55.955 11.789548
55.960 11.769007
55.965 12.190204
55.970 12.284938
55.975 12.509712
55.980 12.466687
55.985 12.273861
55.990 12.049068
55.995 11.688408
56.000 10.924751
56.005 10.963648
56.010 11.310422
56.015 11.665551
56.020 11.769505
56.025 12.271817
56.030 13.144073
56.035 13.411224
56.040 13.252364
56.045 12.550926
56.050 12.258736
56.055 12.394037
56.060 12.296633
56.065 11.858856
56.070 11.859674
56.075 12.325111
56.080 12.395332
56.085 12.118304
56.090 11.723825
56.095 11.8167
56.100 11.814301
56.105 11.505525
56.110 11.0716
56.115 11.479556
56.120 11.755414
56.125 11.5374
56.130 10.870308
56.135 10.870284
56.140 11.529039
56.145 12.111005
56.150 11.997829
56.155 12.267636
56.160 12.947371
56.165 13.565343
56.170 13.860432
56.175 13.218092
56.180 12.608599
56.185 12.598155
56.190 12.175811
56.195 11.375093
56.200 10.929425
56.205 10.602486
56.210 10.825216
56.215 11.426968
56.220 11.412302
56.225 11.936248
56.230 12.814825
56.235 13.287961
56.240 13.359212
56.245 13.761654
56.250 13.747572
56.255 14.150053
56.260 13.67261
56.265 13.079335
56.270 12.959645
56.275 12.657586
56.280 12.415473
56.285 12.697941
56.290 12.22607
56.295 12.44556
56.300 12.278466
56.305 12.193351
56.310 12.263975
56.315 11.988705
56.320 11.9437
56.325 12.035007
56.330 12.140398
56.335 12.91418
56.340 12.919259
56.345 12.632765
56.350 12.361151
56.355 13.143244
56.360 13.217967
56.365 12.881305
56.370 12.926982
56.375 13.619277
56.380 13.825824
56.385 13.835803
56.390 13.05606
56.395 13.563519
56.400 13.571844
56.405 12.998744
56.410 12.866128
56.415 13.003776
56.420 13.29361
56.425 12.955646
56.430 12.598428
56.435 12.340592
56.440 12.157044
56.445 11.824234
56.450 11.889552
56.455 11.577994
56.460 12.170255
56.465 12.991952
56.470 13.114431
56.475 12.965911
56.480 12.780295
56.485 12.386817
56.490 12.27938
56.495 11.824309
56.500 10.922836
56.505 10.882349
56.510 11.207481
56.515 11.507667
56.520 12.091533
56.525 12.082139
56.530 12.345693
56.535 12.634585
56.540 12.609702
56.545 13.174467
56.550 13.674298
56.555 13.860414
56.560 14.46072
56.565 14.053771
56.570 13.775103
56.575 13.967882
56.580 13.067268
56.585 12.58137
56.590 12.118884
56.595 11.691397
56.600 11.749107
56.605 12.169112
56.610 11.933603
56.615 12.000585
56.620 11.917514
56.625 11.796095
56.630 11.75407
56.635 11.895691
56.640 11.684226
56.645 11.711679
56.650 11.660316
56.655 12.239448
56.660 12.503739
56.665 12.466687
56.670 12.546485
56.675 13.155254
56.680 13.717146
56.685 13.687774
56.690 13.465399
56.695 13.489508
56.700 13.761001
56.705 13.9731
56.710 13.523132
56.715 12.889694
56.720 13.084338
56.725 13.178229
56.730 13.208641
56.735 12.839045
56.740 12.516955
56.745 13.161272
56.750 13.284979
56.755 12.706088
56.760 12.583793
56.765 12.39311
56.770 12.693195
56.775 12.552726
56.780 12.250383
56.785 12.891109
56.790 13.108968
56.795 13.193546
56.800 12.943025
56.805 12.893604
56.810 13.330296
56.815 13.403881
56.820 13.378478
56.825 13.174651
56.830 13.069115
56.835 13.663083
56.840 13.648446
56.845 13.21426
56.850 12.933078
56.855 12.701147
56.860 12.759557
56.865 12.572263
56.870 12.48758
56.875 12.573794
56.880 12.57023
56.885 12.160783
56.890 11.891791
56.895 11.899671
56.900 11.903022
56.905 11.621515
56.910 11.527661
56.915 12.048735
56.920 12.409124
56.925 12.428482
56.930 13.214379
56.935 13.172029
56.940 12.819127
56.945 12.689547
56.950 11.91513
56.955 11.912367
56.960 12.021997
56.965 11.078955
56.970 11.494154
56.975 12.071284
56.980 12.071879
56.985 12.663123
56.990 12.699216
56.995 12.671567
57.000 12.74735
57.005 12.38449
57.010 12.011671
57.015 12.405755
57.020 12.145221
57.025 11.789522
57.030 12.133173
57.035 12.365775
57.040 12.638806
57.045 12.646513
57.050 12.264528
57.055 11.988752
57.060 12.312593
57.065 12.439159
57.070 12.737303
57.075 12.776573
57.080 13.169502
57.085 13.714602
57.090 13.972655
57.095 13.789278
57.100 13.57214
57.105 13.324957
57.110 13.598355
57.115 13.808217
57.120 13.815435
57.125 13.914045
57.130 14.159034
57.135 14.187172
57.140 14.244391
57.145 14.000251
57.150 13.739877
57.155 13.533104
57.160 13.574888
57.165 13.450762
57.170 13.605262
57.175 13.648279
57.180 13.026575
57.185 12.773986
57.190 12.760433
57.195 13.068608
57.200 13.224573
57.205 12.770885
57.210 12.526583
57.215 12.76561
57.220 12.784811
57.225 12.57081
57.230 12.675222
57.235 12.407638
57.240 12.671179
57.245 14.035108
57.250 14.207033
57.255 14.686513
57.260 14.430373
57.265 14.036765
57.270 14.050708
57.275 14.128207
57.280 13.180632
57.285 12.940319
57.290 12.775482
57.295 13.469244
57.300 14.267558
57.305 14.584636
57.310 14.479748
57.315 14.652387
57.320 14.97452
57.325 15.076976
57.330 15.04301
57.335 14.834937
57.340 14.848516
57.345 15.191809
57.350 15.267819
57.355 14.789821
57.360 14.392586
57.365 14.018847
57.370 13.702711
57.375 13.356317
57.380 12.965512
57.385 12.37785
57.390 12.44783
57.395 12.686091
57.400 12.854142
57.405 13.306123
57.410 13.592703
57.415 13.800906
57.420 14.495727
57.425 14.562166
57.430 14.319431
57.435 14.453328
57.440 14.341856
57.445 14.35885
57.450 14.497578
57.455 14.055007
57.460 13.935747
57.465 13.868547
57.470 13.487577
57.475 13.035924
57.480 13.005103
57.485 12.709657
57.490 12.766563
57.495 13.002275
57.500 12.876982
57.505 13.433937
57.510 13.268921
57.515 13.057167
57.520 13.366689
57.525 13.094063
57.530 12.732784
57.535 12.734904
57.540 12.592419
57.545 12.976983
57.550 12.913307
57.555 12.853603
57.560 13.304705
57.565 13.758812
57.570 13.805634
57.575 13.363382
57.580 13.310819
57.585 13.431377
57.590 13.701012
57.595 13.982384
57.600 13.994534
57.605 14.228685
57.610 14.749253
57.615 14.84901
57.620 14.773843
57.625 14.962354
57.630 14.786538
57.635 14.755737
57.640 14.854967
57.645 14.587779
57.650 14.411113
57.655 14.712884
57.660 15.168666
57.665 15.3104
57.670 15.278414
57.675 15.1436
57.680 14.828274
57.685 15.044996
57.690 14.814045
57.695 14.699909
57.700 14.763138
57.705 14.479226
57.710 14.868908
57.715 15.441688
57.720 15.580298
57.725 15.616537
57.730 16.005869
57.735 15.884585
57.740 16.22341
57.745 15.912458
57.750 15.894086
57.755 15.807483
57.760 15.644054
57.765 15.208252
57.770 15.194335
57.775 14.784898
57.780 14.981879
57.785 15.505898
57.790 15.485766
57.795 15.677981
57.800 15.552162
57.805 16.118797
57.810 17.011375
57.815 17.136124
57.820 16.514866
57.825 16.874775
57.830 17.02866
57.835 16.886517
57.840 17.085526
57.845 16.86841
57.850 16.544376
57.855 16.244841
57.860 16.014538
57.865 15.976797
57.870 16.12471
57.875 15.621267
57.880 15.599547
57.885 16.056978
57.890 16.214529
57.895 16.263121
57.900 16.81218
57.905 16.919565
57.910 16.877195
57.915 16.60914
57.920 16.36916
57.925 16.430851
57.930 16.218725
57.935 16.072933
57.940 16.415857
57.945 16.620838
57.950 16.5359
57.955 17.060699
57.960 16.818684
57.965 16.428511
57.970 16.335064
57.975 15.850449
57.980 15.685587
57.985 15.985034
57.990 15.642333
57.995 16.269365
58.000 16.520027
58.005 16.857954
58.010 17.121885
58.015 17.046511
58.020 17.012178
58.025 16.909876
58.030 17.428028
58.035 17.636175
58.040 16.86972
58.045 16.483784
58.050 16.283485
58.055 16.289042
58.060 16.289366
58.065 15.715297
58.070 15.267273
58.075 15.370996
58.080 15.399654
58.085 15.838773
58.090 15.632345
58.095 15.242771
58.100 15.568396
58.105 15.83131
58.110 15.747703
58.115 15.59498
58.120 14.822657
58.125 15.076129
58.130 14.825242
58.135 14.70565
58.140 14.893005
58.145 15.664487
58.150 16.30689
58.155 17.008118
58.160 16.959185
58.165 16.991898
58.170 16.978655
58.175 16.885845
58.180 16.889332
58.185 17.233215
58.190 17.167299
58.195 17.440842
58.200 17.96417
58.205 17.692383
58.210 17.419926
58.215 16.845564
58.220 16.320017
58.225 16.448168
58.230 15.92858
58.235 15.844841
58.240 16.166401
58.245 16.492514
58.250 16.548891
58.255 16.841673
58.260 17.363804
58.265 17.874334
58.270 18.241091
58.275 18.302988
58.280 18.222883
58.285 18.186249
58.290 18.492128
58.295 18.37418
58.300 18.571274
58.305 18.41717
58.310 18.685472
58.315 18.948263
58.320 19.566322
58.325 19.012367
58.330 18.835045
58.335 18.825317
58.340 19.019297
58.345 19.040886
58.350 19.402931
58.355 19.940166
58.360 20.610037
58.365 20.752153
58.370 20.553244
58.375 20.867743
58.380 21.118404
58.385 21.369253
58.390 21.397867
58.395 21.514072
58.400 22.170889
58.405 22.66898
58.410 22.439039
58.415 22.578224
58.420 23.351259
58.425 23.281925
58.430 23.656107
58.435 24.06675
58.440 24.422146
58.445 25.009214
58.450 25.570757
58.455 25.086271
58.460 25.899487
58.465 25.932314
58.470 25.754929
58.475 26.194647
58.480 26.492664
58.485 27.260416
58.490 28.222237
58.495 28.61161
58.500 29.176859
58.505 30.163225
58.510 30.746471
58.515 30.693537
58.520 30.526335
58.525 30.833939
58.530 30.787523
58.535 30.72588
58.540 30.640366
58.545 30.509857
58.550 30.868885
58.555 30.749765
58.560 30.483004
58.565 31.339634
58.570 32.115513
58.575 32.078026
58.580 31.898951
58.585 31.929834
58.590 32.512508
58.595 33.173897
58.600 33.521549
58.605 33.292168
58.610 32.993862
58.615 33.244835
58.620 33.910477
58.625 34.152573
58.630 33.937393
58.635 33.446014
58.640 33.743355
58.645 33.910984
58.650 33.291424
58.655 33.276402
58.660 33.066887
58.665 32.746475
58.670 32.053936
58.675 31.298359
58.680 31.539042
58.685 32.422459
58.690 32.88979
58.695 33.275303
58.700 33.42976
58.705 33.080902
58.710 33.632301
58.715 33.724571
58.720 33.018856
58.725 32.251892
58.730 31.201748
58.735 31.2145
58.740 31.533718
58.745 30.866373
58.750 30.627298
58.755 30.241117
58.760 30.068787
58.765 29.861528
58.770 29.715887
58.775 29.922029
58.780 29.440742
58.785 29.358036
58.790 28.881445
58.795 28.310627
58.800 27.348558
58.805 25.987846
58.810 25.576214
58.815 25.99704
58.820 25.817236
58.825 26.048655
58.830 25.598459
58.835 25.205261
58.840 25.054701
58.845 23.898424
58.850 22.642874
58.855 21.780489
58.860 20.900127
58.865 21.132956
58.870 21.433475
58.875 22.056322
58.880 21.851603
58.885 21.984161
58.890 22.059385
58.895 22.146872
58.900 21.762737
58.905 21.086885
58.910 20.163477
58.915 20.494953
58.920 20.283396
58.925 20.308468
58.930 20.188356
58.935 20.442566
58.940 20.578411
58.945 20.60746
58.950 20.628757
58.955 20.279852
58.960 19.878857
58.965 19.75379
58.970 18.960159
58.975 18.468815
58.980 18.543196
58.985 18.218069
58.990 17.649168
58.995 17.231842
59.000 16.729576
59.005 16.955009
59.010 17.320196
59.015 17.459316
59.020 17.932333
59.025 18.335772
59.030 18.627758
59.035 18.532703
59.040 18.636532
59.045 18.366615
59.050 18.277864
59.055 18.067179
59.060 17.965855
59.065 17.963282
59.070 17.740311
59.075 17.276411
59.080 16.799702
59.085 15.977327
59.090 15.426488
59.095 15.490198
59.100 15.569258
59.105 15.668576
59.110 15.650677
59.115 16.071314
59.120 15.821161
59.125 16.002466
59.130 15.811346
59.135 15.981943
59.140 16.290192
59.145 16.783638
59.150 16.950642
59.155 17.044617
59.160 16.90871
59.165 17.104647
59.170 16.816502
59.175 16.457834
59.180 15.803009
59.185 15.328047
59.190 15.219304
59.195 15.02852
59.200 14.751516
59.205 15.215088
59.210 16.042149
59.215 16.59885
59.220 16.722874
59.225 16.642445
59.230 16.857597
59.235 17.030773
59.240 16.760714
59.245 16.153574
59.250 15.372768
59.255 15.176296
59.260 15.499125
59.265 15.500472
59.270 15.189673
59.275 15.265605
59.280 15.297243
59.285 15.188685
59.290 15.654381
59.295 16.018719
59.300 15.681681
59.305 15.486458
59.310 15.067185
59.315 15.067976
59.320 15.164116
59.325 15.089224
59.330 14.795157
59.335 15.523735
59.340 16.032743
59.345 15.959889
59.350 15.951353
59.355 16.529827
59.360 16.924662
59.365 17.126154
59.370 16.575441
59.375 16.212772
59.380 16.232422
59.385 16.24332
59.390 15.821167
59.395 15.439159
59.400 15.571687
59.405 15.627184
59.410 16.212666
59.415 16.641077
59.420 16.533079
59.425 16.610502
59.430 16.616631
59.435 16.19622
59.440 15.839781
59.445 15.276333
59.450 15.033278
59.455 15.166188
59.460 14.969519
59.465 14.843287
59.470 15.24147
59.475 15.968747
59.480 16.2129
59.485 16.506727
59.490 16.576319
59.495 16.781385
59.500 16.794516
59.505 16.475945
59.510 16.368256
59.515 16.318968
59.520 16.139523
59.525 15.860634
59.530 15.436346
59.535 14.360952
59.540 13.891656
59.545 13.370337
59.550 13.360957
59.555 13.471462
59.560 13.460268
59.565 13.8574
59.570 14.877352
59.575 15.203301
59.580 15.243707
59.585 15.343281
59.590 15.464109
59.595 15.335961
59.600 15.04173
59.605 14.856586
59.610 14.589571
59.615 14.710897
59.620 14.524819
59.625 14.765109
59.630 15.419374
59.635 15.503201
59.640 15.565888
59.645 15.968175
59.650 15.948115
59.655 16.289757
59.660 15.92293
59.665 15.295642
59.670 15.143003
59.675 15.17373
59.680 15.087086
59.685 14.720482
59.690 14.476582
59.695 14.314554
59.700 14.226854
59.705 14.315953
59.710 14.37335
59.715 14.475715
59.720 14.441164
59.725 14.236478
59.730 14.685774
59.735 14.957899
59.740 15.318544
59.745 15.401765
59.750 15.751928
59.755 16.367048
59.760 16.379829
59.765 16.31562
59.770 16.201956
59.775 16.284351
59.780 16.601795
59.785 16.199276
59.790 15.86483
59.795 15.91321
59.800 15.983054
59.805 16.255501
59.810 16.104464
59.815 15.843331
59.820 16.015556
59.825 16.104521
59.830 16.361206
59.835 16.209229
59.840 16.161057
59.845 16.05126
59.850 15.589056
59.855 15.449537
59.860 15.306476
59.865 15.514188
59.870 15.558662
59.875 14.95972
59.880 14.370034
59.885 14.473339
59.890 15.040409
59.895 15.498561
59.900 15.10672
59.905 15.486005
59.910 15.86313
59.915 16.570812
59.920 17.020823
59.925 16.850281
59.930 16.695808
59.935 16.731207
59.940 16.628002
59.945 16.455759
59.950 15.938421
59.955 15.77968
59.960 15.770706
59.965 15.267295
59.970 15.276626
59.975 15.382158
59.980 16.083767
59.985 16.021496
59.990 15.74943
59.995 15.566959
60.000 15.885342
60.005 15.832574
60.010 15.879879
60.015 15.659987
60.020 15.651114
60.025 15.423198
60.030 15.059199
60.035 14.751158
60.040 15.285988
60.045 15.639537
60.050 15.449895
60.055 16.042109
60.060 16.713293
60.065 17.288315
60.070 18.067308
60.075 17.52643
60.080 17.074333
60.085 17.393583
60.090 17.344393
60.095 17.271935
60.100 17.404171
60.105 17.121595
60.110 16.72492
60.115 16.404627
60.120 16.008635
60.125 15.715848
60.130 15.028554
60.135 14.624866
60.140 14.32426
60.145 14.341807
60.150 14.781673
60.155 15.249829
60.160 15.012056
60.165 14.976319
60.170 14.771466
60.175 14.724904
60.180 15.224928
60.185 14.591354
60.190 14.203284
60.195 14.74797
60.200 15.108476
60.205 15.201303
60.210 15.069402
60.215 14.561436
60.220 14.803861
60.225 14.801555
60.230 14.340453
60.235 14.540296
60.240 14.820391
60.245 15.112908
60.250 15.136551
60.255 15.314814
60.260 15.17926
60.265 15.667653
60.270 15.818704
60.275 15.67794
60.280 15.616299
60.285 15.642945
60.290 15.442091
60.295 15.053321
60.300 14.830131
60.305 14.743606
60.310 14.754339
60.315 14.247399
60.320 13.876518
60.325 13.826881
60.330 13.68094
60.335 13.266451
60.340 13.194159
60.345 13.274478
60.350 13.844994
60.355 14.155395
60.360 13.633653
60.365 13.913173
60.370 14.269934
60.375 14.221729
60.380 14.647639
60.385 14.67221
60.390 14.812919
60.395 15.440294
60.400 15.634816
60.405 15.394105
60.410 15.174307
60.415 15.15911
60.420 14.743201
60.425 14.718637
60.430 14.856842
60.435 14.728271
60.440 14.934026
60.445 14.605717
60.450 14.548435
60.455 15.058431
60.460 15.49045
60.465 15.560673
60.470 15.689267
60.475 15.772927
60.480 15.414061
60.485 15.111394
60.490 14.805181
60.495 15.110192
60.500 14.883668
60.505 15.079541
60.510 15.121688
60.515 15.754987
60.520 15.689943
60.525 15.567423
60.530 15.020045
60.535 15.153173
60.540 14.896481
60.545 14.883832
60.550 15.059895
60.555 15.427559
60.560 15.537778
60.565 15.852146
60.570 15.722622
60.575 16.000389
60.580 15.994114
60.585 15.482267
60.590 15.956902
60.595 16.250637
60.600 16.15946
60.605 16.362856
60.610 16.14023
60.615 16.093634
60.620 16.238457
60.625 15.823715
60.630 15.560756
60.635 15.964944
60.640 15.187265
60.645 15.141801
60.650 15.322436
60.655 15.585933
60.660 15.701956
60.665 15.59046
60.670 15.490356
60.675 15.825795
60.680 16.0779
60.685 15.799211
60.690 15.445515
60.695 15.443814
60.700 15.731073
60.705 15.693717
60.710 16.252056
60.715 16.113781
60.720 16.347914
60.725 16.314009
60.730 16.180429
60.735 16.152752
60.740 16.581812
60.745 16.355766
60.750 16.23395
60.755 16.370972
60.760 16.912024
60.765 17.16732
60.770 17.386143
60.775 17.168671
60.780 17.166904
60.785 17.222198
60.790 17.08198
60.795 17.232471
60.800 17.298037
60.805 16.543762
60.810 15.769757
60.815 15.85035
60.820 16.184092
60.825 15.786862
60.830 14.906275
60.835 14.426515
60.840 14.307151
60.845 14.708758
60.850 14.73744
60.855 14.925101
60.860 15.403415
60.865 15.741227
60.870 16.169884
60.875 16.452276
60.880 16.260902
60.885 15.686283
60.890 14.857119
60.895 14.696383
60.900 14.533366
60.905 14.087045
60.910 14.378151
60.915 14.714934
60.920 15.528609
60.925 16.003912
60.930 15.794283
60.935 15.999797
60.940 16.380098
60.945 16.688553
60.950 16.216433
60.955 15.610151
60.960 15.124771
60.965 15.360217
60.970 15.538629
60.975 15.558656
60.980 14.914392
60.985 14.888542
60.990 15.13321
60.995 14.785114
61.000 14.407648
61.005 13.976158
61.010 14.239048
61.015 14.425199
61.020 14.740351
61.025 14.982815
61.030 15.050746
61.035 15.346512
61.040 15.946639
61.045 15.675053
61.050 16.33342
61.055 16.029503
61.060 15.695825
61.065 16.187138
61.070 16.139069
61.075 15.601742
61.080 15.703425
61.085 15.712612
61.090 15.604723
61.095 15.782701
61.100 15.828467
61.105 15.855952
61.110 15.563691
61.115 15.33606
61.120 14.829665
61.125 14.88518
61.130 14.765986
61.135 14.930923
61.140 15.328051
61.145 15.561904
61.150 15.451882
61.155 15.200328
61.160 16.202415
61.165 16.323801
61.170 16.051958
61.175 16.150005
61.180 16.234468
61.185 16.440773
61.190 16.79324
61.195 17.177675
61.200 17.326675
61.205 17.809042
61.210 17.654161
61.215 17.599316
61.220 17.607552
61.225 17.475445
61.230 17.17889
61.235 17.02923
61.240 16.366085
61.245 16.163002
61.250 16.265949
61.255 16.930752
61.260 16.929964
61.265 16.757191
61.270 17.192604
61.275 17.174053
61.280 16.841568
61.285 17.119658
61.290 17.132803
61.295 16.905874
61.300 16.578295
61.305 15.931924
61.310 16.007071
61.315 16.176224
61.320 15.8378
61.325 15.334542
61.330 15.226534
61.335 15.209496
61.340 15.515093
61.345 15.870414
61.350 15.964064
61.355 16.15213
61.360 16.3477
61.365 16.51749
61.370 16.534859
61.375 16.294081
61.380 16.296001
61.385 16.435446
61.390 15.922649
61.395 15.376039
61.400 15.482675
61.405 15.506794
61.410 15.392203
61.415 15.258862
61.420 15.037682
61.425 15.213982
61.430 15.339857
61.435 15.007396
61.440 14.912743
61.445 15.167473
61.450 14.990688
61.455 14.867061
61.460 14.924733
61.465 15.494621
61.470 15.474066
61.475 15.930104
61.480 15.882894
61.485 15.82625
61.490 15.82548
61.495 16.001547
61.500 16.165545
61.505 16.17461
61.510 15.644795
61.515 15.451402
61.520 15.197199
61.525 15.55671
61.530 15.130685
61.535 15.020456
61.540 15.583419
61.545 16.506706
61.550 16.957239
61.555 17.605528
61.560 17.123112
61.565 17.404413
61.570 17.766926
61.575 17.54294
61.580 16.777985
61.585 16.345114
61.590 16.602154
61.595 16.684153
61.600 16.224466
61.605 15.435299
61.610 14.973839
61.615 15.200623
61.620 15.006464
61.625 14.783384
61.630 14.879004
61.635 14.629535
61.640 14.838159
61.645 15.348331
61.650 15.250647
61.655 15.272025
61.660 14.988755
61.665 14.844007
61.670 15.019318
61.675 14.726343
61.680 14.822933
61.685 15.289163
61.690 15.517073
61.695 15.70824
61.700 16.00078
61.705 16.591599
61.710 17.087795
61.715 16.964151
61.720 16.758337
61.725 16.815813
61.730 16.694345
61.735 16.328102
61.740 15.947852
61.745 15.739618
61.750 15.112911
61.755 15.054187
61.760 15.352787
61.765 15.970525
61.770 16.269962
61.775 16.297251
61.780 16.348577
61.785 16.27984
61.790 16.168287
61.795 15.83546
61.800 15.379124
61.805 15.281904
61.810 15.397002
61.815 15.664248
61.820 16.228374
61.825 16.56921
61.830 16.604372
61.835 17.01767
61.840 17.498905
61.845 17.619608
61.850 17.017832
61.855 16.511536
61.860 16.737993
61.865 17.298435
61.870 16.934647
61.875 16.917879
61.880 17.061968
61.885 17.539391
61.890 18.227877
61.895 17.98716
61.900 17.686953
61.905 17.87464
61.910 17.716934
61.915 17.638542
61.920 17.310873
61.925 16.686653
61.930 16.206299
61.935 16.172441
61.940 16.20052
61.945 15.897065
61.950 15.673107
61.955 15.916963
61.960 16.510275
61.965 16.32548
61.970 16.304848
61.975 16.498724
61.980 16.651152
61.985 16.608889
61.990 16.211863
61.995 15.736599
62.000 15.901014
62.005 16.055462
62.010 15.871383
62.015 15.527679
62.020 15.983894
62.025 16.046534
62.030 15.541314
62.035 15.824532
62.040 15.93076
62.045 15.972089
62.050 16.734537
62.055 16.621021
62.060 17.05398
62.065 17.296026
62.070 16.788626
62.075 16.110872
62.080 16.655773
62.085 16.685976
62.090 16.554022
62.095 16.542196
62.100 16.94919
62.105 17.360434
62.110 17.548107
62.115 16.557821
62.120 16.124012
62.125 15.930809
62.130 15.914926
62.135 15.723335
62.140 15.607088
62.145 16.150692
62.150 16.743778
62.155 17.197641
62.160 17.810091
62.165 18.528101
62.170 18.900928
62.175 18.685074
62.180 18.578419
62.185 18.212362
62.190 17.59675
62.195 17.337774
62.200 16.421526
62.205 16.021807
62.210 16.000937
62.215 15.168466
62.220 15.435406
62.225 15.242747
62.230 15.297144
62.235 15.62148
62.240 15.925118
62.245 16.698233
62.250 16.824146
62.255 16.313276
62.260 16.263664
62.265 16.247581
62.270 16.086485
62.275 15.979305
62.280 15.539369
62.285 15.850144
62.290 16.28718
62.295 16.810362
62.300 16.574495
62.305 17.011625
62.310 17.247213
62.315 17.317051
62.320 16.952225
62.325 16.608849
62.330 16.33094
62.335 16.447716
62.340 16.388191
62.345 16.406322
62.350 16.518362
62.355 16.84886
62.360 17.584127
62.365 17.526026
62.370 17.189013
62.375 16.123508
62.380 15.370613
62.385 15.071935
62.390 14.990258
62.395 14.89955
62.400 15.615417
62.405 15.97149
62.410 16.697113
62.415 16.731819
62.420 16.864004
62.425 16.786636
62.430 16.220367
62.435 16.107756
62.440 16.092457
62.445 16.5245
62.450 17.069
62.455 16.856178
62.460 16.968563
62.465 17.296562
62.470 16.920294
62.475 16.838657
62.480 16.886019
62.485 16.732172
62.490 16.784567
62.495 16.337908
62.500 15.944352
62.505 16.067331
62.510 15.665222
62.515 15.307547
62.520 15.516697
62.525 15.867176
62.530 16.204412
62.535 16.27116
62.540 16.076393
62.545 16.443968
62.550 16.24428
62.555 16.173182
62.560 16.133148
62.565 16.336906
62.570 16.466587
62.575 16.707632
62.580 16.842239
62.585 17.035397
62.590 16.920403
62.595 16.684124
62.600 16.705076
62.605 16.594057
62.610 16.623577
62.615 16.413034
62.620 16.390247
62.625 16.534084
62.630 16.914825
62.635 16.409382
62.640 15.943518
62.645 15.576428
62.650 15.515385
62.655 15.430158
62.660 15.465275
62.665 15.553501
62.670 16.11182
62.675 16.548157
62.680 16.368986
62.685 16.503428
62.690 17.264486
62.695 17.499783
62.700 17.608828
62.705 17.844824
62.710 18.551474
62.715 19.353373
62.720 19.846817
62.725 19.06687
62.730 18.874771
62.735 18.954922
62.740 18.35285
62.745 17.771851
62.750 16.917189
62.755 16.422314
62.760 16.850229
62.765 16.902966
62.770 16.826571
62.775 16.877672
62.780 17.117605
62.785 17.595121
62.790 17.789885
62.795 17.326633
62.800 16.886763
62.805 16.430666
62.810 16.821878
62.815 17.293419
62.820 17.620764
62.825 17.544794
62.830 18.089516
62.835 18.679811
62.840 19.214993
62.845 18.785883
62.850 18.184496
62.855 18.055054
62.860 18.248848
62.865 17.538555
62.870 16.950747
62.875 16.884081
62.880 17.120346
62.885 17.253813
62.890 16.95512
62.895 16.495943
62.900 16.256123
62.905 16.655834
62.910 16.54034
62.915 16.954735
62.920 16.739626
62.925 16.690987
62.930 17.228945
62.935 17.402201
62.940 17.395119
62.945 16.67119
62.950 15.857116
62.955 15.690031
62.960 15.564606
62.965 15.447753
62.970 15.464858
62.975 16.243244
62.980 17.268545
62.985 17.72654
62.990 18.202463
62.995 18.18421
63.000 18.07896
63.005 18.202763
63.010 17.125654
63.015 16.516573
63.020 15.999347
63.025 15.388124
63.030 15.582914
63.035 15.696437
63.040 15.255519
63.045 15.561299
63.050 16.001209
63.055 16.608904
63.060 16.846701
63.065 16.583281
63.070 16.365042
63.075 16.990662
63.080 17.304956
63.085 16.968817
63.090 16.500956
63.095 16.507477
63.100 16.361855
63.105 16.3459
63.110 16.44894
63.115 16.540228
63.120 17.397846
63.125 17.735308
63.130 18.39155
63.135 18.619276
63.140 18.14979
63.145 17.492592
63.150 17.167683
63.155 16.79068
63.160 17.157824
63.165 17.386675
63.170 18.09705
63.175 19.096926
63.180 19.719063
63.185 19.867256
63.190 19.922226
63.195 19.361485
63.200 18.99777
63.205 18.794273
63.210 18.722254
63.215 18.478699
63.220 18.310171
63.225 18.217443
63.230 18.750751
63.235 19.000202
63.240 18.877638
63.245 18.853016
63.250 19.060358
63.255 18.827198
63.260 18.506804
63.265 18.128441
63.270 17.41329
63.275 17.753664
63.280 17.64843
63.285 17.360533
63.290 16.921227
63.295 17.02499
63.300 17.107729
63.305 17.311335
63.310 16.954212
63.315 16.821655
63.320 17.161833
63.325 17.852022
63.330 17.97089
63.335 17.620007
63.340 17.171713
63.345 17.180553
63.350 17.191738
63.355 16.416496
63.360 16.097832
63.365 16.14081
63.370 17.026478
63.375 17.502459
63.380 17.273525
63.385 17.493605
63.390 17.983616
63.395 18.102961
63.400 18.054224
63.405 17.282482
63.410 17.065857
63.415 17.154778
63.420 16.882591
63.425 16.622578
63.430 17.006777
63.435 16.894457
63.440 17.336361
63.445 17.703438
63.450 17.737795
63.455 17.339142
63.460 17.298691
63.465 16.657471
63.470 16.975817
63.475 17.341663
63.480 17.214172
63.485 17.833998
63.490 18.258415
63.495 18.391878
63.500 18.556925
63.505 18.558863
63.510 17.906939
63.515 17.848091
63.520 17.553076
63.525 17.382427
63.530 17.666061
63.535 18.166492
63.540 18.033619
63.545 18.589149
63.550 18.830482
63.555 19.22114
63.560 19.760347
63.565 19.498138
63.570 18.865728
63.575 18.889935
63.580 18.581833
63.585 18.310144
63.590 17.757048
63.595 17.537987
63.600 17.176901
63.605 17.541958
63.610 17.219084
63.615 17.542147
63.620 17.392765
63.625 17.254036
63.630 16.992771
63.635 17.517265
63.640 17.52747
63.645 17.914639
63.650 17.912584
63.655 18.349754
63.660 18.920742
63.665 19.384768
63.670 19.270357
63.675 19.623085
63.680 19.745392
63.685 19.386784
63.690 18.970207
63.695 19.003382
63.700 19.093204
63.705 19.029299
63.710 18.387608
63.715 17.883804
63.720 18.235962
63.725 18.903831
63.730 19.141451
63.735 19.15177
63.740 19.345219
63.745 19.642166
63.750 20.052891
63.755 19.442635
63.760 18.690613
63.765 18.199623
63.770 17.578695
63.775 17.307707
63.780 17.071617
63.785 16.881979
63.790 17.305292
63.795 17.04789
63.800 16.639021
63.805 16.762852
63.810 17.054792
63.815 17.489586
63.820 17.636105
63.825 17.673811
63.830 18.181246
63.835 19.024549
63.840 19.817589
63.845 19.90674
63.850 19.235218
63.855 18.883806
63.860 19.387026
63.865 20.065916
63.870 20.15942
63.875 20.478882
63.880 20.812235
63.885 21.475506
63.890 22.262537
63.895 22.011948
63.900 21.874886
63.905 21.896147
63.910 21.924212
63.915 21.759758
63.920 21.936123
63.925 21.847776
63.930 21.899061
63.935 22.069365
63.940 22.113653
63.945 21.375795
63.950 22.13294
63.955 22.486124
63.960 22.562765
63.965 22.857979
63.970 22.536482
63.975 22.936069
63.980 23.809637
63.985 23.67997
63.990 23.638393
63.995 23.76811
64.000 24.38512
64.005 24.008234
64.010 23.959236
64.015 24.512108
64.020 25.005259
64.025 24.786978
64.030 24.852509
64.035 24.820066
64.040 25.391451
64.045 25.314631
64.050 25.216341
64.055 25.105659
64.060 25.475296
64.065 25.292301
64.070 25.463406
64.075 25.750906
64.080 25.629347
64.085 25.801186
64.090 25.402718
64.095 26.032688
64.100 26.762932
64.105 26.809261
64.110 27.18865
64.115 27.446363
64.120 28.325581
64.125 29.429972
64.130 29.894678
64.135 30.824261
64.140 31.792425
64.145 32.026329
64.150 32.449944
64.155 33.119331
64.160 33.268463
64.165 33.197388
64.170 32.830421
64.175 32.897488
64.180 33.93536
64.185 34.344715
64.190 34.170544
64.195 35.261909
64.200 36.004848
64.205 35.847588
64.210 36.140057
64.215 35.914265
64.220 36.928345
64.225 37.576569
64.230 37.225662
64.235 37.29237
64.240 38.403656
64.245 38.792278
64.250 39.293007
64.255 41.00185
64.260 41.620098
64.265 42.522171
64.270 42.844177
64.275 42.396435
64.280 42.839874
64.285 43.098854
64.290 42.400063
64.295 42.275093
64.300 42.11414
64.305 42.402603
64.310 43.586605
64.315 43.795551
64.320 44.391956
64.325 44.41774
64.330 44.459076
64.335 44.759903
64.340 44.890762
64.345 44.80563
64.350 44.4631
64.355 44.38147
64.360 46.238636
64.365 46.808525
64.370 47.252296
64.375 47.768654
64.380 48.381203
64.385 48.798668
64.390 48.155102
64.395 46.924137
64.400 46.757919
64.405 45.811958
64.410 45.194786
64.415 44.163441
64.420 43.67852
64.425 44.481647
64.430 44.96262
64.435 45.45863
64.440 46.353203
64.445 46.082447
64.450 45.855179
64.455 45.757359
64.460 45.194973
64.465 44.213757
64.470 42.964119
64.475 41.709347
64.480 41.179832
64.485 41.245575
64.490 40.623665
64.495 39.483906
64.500 38.930943
64.505 39.090855
64.510 38.743404
64.515 38.649994
64.520 37.629303
64.525 37.842289
64.530 37.92384
64.535 37.149292
64.540 36.597691
64.545 36.18425
64.550 36.189678
64.555 36.415844
64.560 35.897842
64.565 35.209427
64.570 33.861782
64.575 33.159554
64.580 33.057434
64.585 32.054684
64.590 31.508984
64.595 30.5553
64.600 29.982506
64.605 30.419704
64.610 30.399902
64.615 29.800524
64.620 29.407604
64.625 29.580626
64.630 29.859926
64.635 29.826385
64.640 30.072803
64.645 29.667164
64.650 30.102978
64.655 29.891304
64.660 29.448656
64.665 29.400442
64.670 28.786938
64.675 27.502197
64.680 26.997942
64.685 26.266176
64.690 26.129744
64.695 25.374908
64.700 24.861647
64.705 24.707853
64.710 24.278376
64.715 23.883947
64.720 23.515882
64.725 22.925663
64.730 23.074106
64.735 23.244534
64.740 22.705551
64.745 22.14839
64.750 21.836708
64.755 21.678062
64.760 21.758633
64.765 21.009785
64.770 20.197924
64.775 20.475132
64.780 20.886417
64.785 20.991833
64.790 20.833157
64.795 20.728745
64.800 21.340195
64.805 21.77062
64.810 21.312771
64.815 21.411337
64.820 21.710205
64.825 21.649181
64.830 21.484991
64.835 20.825796
64.840 20.807306
64.845 20.97809
64.850 20.911594
64.855 20.307808
64.860 20.273151
64.865 20.550547
64.870 20.983551
64.875 21.357594
64.880 21.754976
64.885 21.186922
64.890 21.367245
64.895 21.253403
64.900 21.500868
64.905 21.141203
64.910 21.203226
64.915 20.789982
64.920 21.36669
64.925 21.70509
64.930 22.051203
64.935 21.891769
64.940 22.087414
64.945 22.160522
64.950 23.17001
64.955 24.347395
64.960 24.578644
64.965 25.114975
64.970 25.119984
64.975 26.082951
64.980 26.653515
64.985 26.478785
64.990 25.700964
64.995 25.690239
65.000 25.678658
65.005 26.373098
65.010 26.364721
65.015 26.111134
65.020 26.267424
65.025 26.362511
65.030 26.721474
65.035 26.702869
65.040 26.500187
65.045 26.149462
65.050 26.251648
65.055 26.084776
65.060 25.765825
65.065 25.566351
65.070 25.638674
65.075 25.575865
65.080 25.492876
65.085 25.667225
65.090 25.715773
65.095 26.372097
65.100 26.739269
65.105 27.023655
65.110 27.255787
65.115 27.528408
65.120 27.123148
65.125 27.236719
65.130 27.583078
65.135 28.161358
65.140 28.340546
65.145 28.61515
65.150 28.571194
65.155 28.59631
65.160 29.326889
65.165 29.035887
65.170 28.639778
65.175 28.821768
65.180 28.770519
65.185 28.936104
65.190 29.443605
65.195 29.31941
65.200 29.938135
65.205 30.442532
65.210 30.600039
65.215 31.178316
65.220 31.128374
65.225 30.948721
65.230 31.014183
65.235 30.557419
65.240 30.837612
65.245 30.730816
65.250 30.021019
65.255 30.328144
65.260 30.905783
65.265 30.59425
65.270 30.395609
65.275 30.825602
65.280 31.379112
65.285 31.628355
65.290 31.567045
65.295 31.191742
65.300 31.291328
65.305 31.219917
65.310 30.927635
65.315 31.53619
65.320 32.230137
65.325 31.977947
65.330 32.298508
65.335 32.602749
65.340 32.997986
65.345 32.96471
65.350 32.045696
65.355 32.421253
65.360 33.051258
65.365 33.247707
65.370 33.952744
65.375 34.710075
65.380 34.929653
65.385 35.407349
65.390 35.415642
65.395 35.378075
65.400 35.29744
65.405 35.226086
65.410 35.666042
65.415 35.857777
65.420 35.478725
65.425 35.088577
65.430 35.347
65.435 36.194759
65.440 35.6675
65.445 35.123466
65.450 34.793034
65.455 34.957401
65.460 35.002697
65.465 34.870872
65.470 34.674606
65.475 35.9818
65.480 36.237061
65.485 36.29884
65.490 36.578728
65.495 37.20586
65.500 37.184883
65.505 37.49403
65.510 37.18248
65.515 36.996639
65.520 37.725777
65.525 37.810581
65.530 38.077423
65.535 38.926132
65.540 38.740234
65.545 38.971626
65.550 39.259567
65.555 38.628155
65.560 38.590767
65.565 38.699059
65.570 38.551872
65.575 39.118828
65.580 39.388458
65.585 39.186337
65.590 39.511242
65.595 39.530186
65.600 39.357887
65.605 38.864754
65.610 38.203373
65.615 38.236839
65.620 39.397137
65.625 40.103733
65.630 39.889893
65.635 39.629467
65.640 40.227089
65.645 40.540813
65.650 39.521957
65.655 38.295143
65.660 38.12672
65.665 38.493946
65.670 38.130878
65.675 37.508011
65.680 37.116123
65.685 37.385765
65.690 37.826054
65.695 37.612679
65.700 37.408367
65.705 37.60083
65.710 37.415287
65.715 37.815056
65.720 37.536663
65.725 37.192272
65.730 37.175411
65.735 37.546829
65.740 37.303486
65.745 37.112301
65.750 36.715572
65.755 36.773037
65.760 36.781326
65.765 36.5327
65.770 36.008011
65.775 35.682182
65.780 35.564747
65.785 35.989426
65.790 36.614105
65.795 36.63755
65.800 36.699368
65.805 37.000797
65.810 37.226147
65.815 36.697811
65.820 35.612656
65.825 35.570793
65.830 35.155407
65.835 34.775753
65.840 34.951691
65.845 35.002857
65.850 36.129433
65.855 36.671883
65.860 35.335159
65.865 35.163731
65.870 35.267544
65.875 34.594875
65.880 34.646957
65.885 33.838688
65.890 32.505432
65.895 32.490906
65.900 31.926239
65.905 31.263365
65.910 31.382271
65.915 30.951349
65.920 31.041819
65.925 31.737783
65.930 31.17135
65.935 31.478165
65.940 30.959742
65.945 29.844576
65.950 29.701946
65.955 28.568575
65.960 27.854567
65.965 27.691046
65.970 27.379309
65.975 27.547985
65.980 27.422701
65.985 27.288923
65.990 27.957582
65.995 27.250624
66.000 26.835955
66.005 25.926714
66.010 25.541224
66.015 25.477072
66.020 25.579237
66.025 24.608362
66.030 24.989037
66.035 25.481133
66.040 25.593082
66.045 25.972212
66.050 25.947775
66.055 25.382544
66.060 25.79492
66.065 25.922279
66.070 25.936657
66.075 25.998644
66.080 25.4191
66.085 25.678944
66.090 25.335873
66.095 25.57976
66.100 24.873215
66.105 24.327225
66.110 24.381599
66.115 24.674452
66.120 24.141657
66.125 23.967289
66.130 22.991463
66.135 22.731915
66.140 22.226274
66.145 21.889015
66.150 21.350538
66.155 21.605345
66.160 22.263731
66.165 22.878017
66.170 22.452011
66.175 22.140282
66.180 22.347221
66.185 22.010263
66.190 21.537567
66.195 20.885229
66.200 19.890087
66.205 19.533806
66.210 19.270109
66.215 19.357624
66.220 19.817265
66.225 20.326237
66.230 20.478596
66.235 21.26605
66.240 21.837372
66.245 22.203815
66.250 22.379255
66.255 22.142704
66.260 21.866713
66.265 22.019823
66.270 21.505985
66.275 21.626108
66.280 21.792906
66.285 21.617308
66.290 21.100821
66.295 20.721233
66.300 20.802965
66.305 20.786112
66.310 20.888725
66.315 20.669554
66.320 20.692652
66.325 20.689318
66.330 20.153776
66.335 19.631165
66.340 19.393068
66.345 18.139811
66.350 17.646204
66.355 17.379084
66.360 18.079557
66.365 18.473341
66.370 18.41643
66.375 19.385687
66.380 20.490337
66.385 20.493361
66.390 20.897409
66.395 20.978439
66.400 20.783237
66.405 20.586624
66.410 19.8985
66.415 20.202572
66.420 20.175797
66.425 19.598675
66.430 19.270678
66.435 19.337601
66.440 19.772148
66.445 19.479614
66.450 18.615805
66.455 18.138695
66.460 18.219492
66.465 18.207258
66.470 18.317013
66.475 17.837059
66.480 18.597303
66.485 18.988693
66.490 19.83176
66.495 19.98065
66.500 19.732924
66.505 19.686777
66.510 19.783121
66.515 19.557941
66.520 19.422701
66.525 18.586157
66.530 17.875299
66.535 17.904278
66.540 17.823706
66.545 17.777227
66.550 16.824715
66.555 16.512121
66.560 16.557091
66.565 17.175491
66.570 17.216417
66.575 17.212063
66.580 16.93371
66.585 17.007433
66.590 17.106398
66.595 17.166578
66.600 17.449745
66.605 17.74151
66.610 17.746038
66.615 17.876013
66.620 18.462404
66.625 18.927645
66.630 18.99929
66.635 18.706663
66.640 18.516579
66.645 18.629442
66.650 19.313694
66.655 19.508499
66.660 19.41477
66.665 19.478626
66.670 19.177275
66.675 19.21456
66.680 19.450241
66.685 19.636293
66.690 19.474951
66.695 19.425835
66.700 19.002909
66.705 19.340357
66.710 19.330294
66.715 19.412529
66.720 19.103825
66.725 18.978201
66.730 18.986317
66.735 18.862434
66.740 18.360083
66.745 18.201622
66.750 17.637558
66.755 17.450117
66.760 18.032656
66.765 18.157639
66.770 18.59837
66.775 19.621067
66.780 19.949863
66.785 19.990452
66.790 19.937948
66.795 19.236774
66.800 19.367249
66.805 19.755054
66.810 19.347404
66.815 19.190132
66.820 19.43602
66.825 19.291302
66.830 18.89761
66.835 18.007015
66.840 16.97312
66.845 16.534613
66.850 16.627008
66.855 16.039608
66.860 16.505144
66.865 17.382792
66.870 18.328276
66.875 18.320612
66.880 18.491179
66.885 18.507256
66.890 18.921238
66.895 18.648787
66.900 18.141012
66.905 17.845184
66.910 17.80485
66.915 17.610422
66.920 17.360729
66.925 17.295441
66.930 17.308134
66.935 18.350691
66.940 18.365129
66.945 18.541769
66.950 18.668417
66.955 18.535479
66.960 18.673769
66.965 19.233658
66.970 18.760166
66.975 19.176857
66.980 19.554966
66.985 19.71143
66.990 20.088766
66.995 19.955164
67.000 19.194574
67.005 18.881342
67.010 18.431505
67.015 18.138273
67.020 17.991829
67.025 18.058044
67.030 18.151653
67.035 17.987865
67.040 18.411089
67.045 18.562508
67.050 18.660465
67.055 18.149645
67.060 18.150246
67.065 17.931183
67.070 17.871952
67.075 17.840441
67.080 18.082176
67.085 18.429205
67.090 18.552109
67.095 18.00741
67.100 18.470739
67.105 19.050064
67.110 18.439915
67.115 18.096947
67.120 18.346537
67.125 18.04027
67.130 18.184303
67.135 18.168571
67.140 17.654528
67.145 17.968336
67.150 18.106928
67.155 18.388977
67.160 19.022312
67.165 19.055336
67.170 18.696861
67.175 18.966789
67.180 19.0975
67.185 19.062325
67.190 18.723825
67.195 18.955482
67.200 18.872387
67.205 19.356085
67.210 19.278248
67.215 18.839327
67.220 19.233931
67.225 19.472324
67.230 19.681589
67.235 19.67312
67.240 19.312912
67.245 19.882072
67.250 20.451515
67.255 19.922705
67.260 19.96715
67.265 19.829884
67.270 19.555298
67.275 19.365286
67.280 18.909182
67.285 18.835344
67.290 18.935564
67.295 18.408407
67.300 18.12142
67.305 18.370274
67.310 18.765995
67.315 18.894426
67.320 19.142786
67.325 19.497602
67.330 20.063604
67.335 19.896856
67.340 19.362698
67.345 18.721886
67.350 18.275017
67.355 17.809938
67.360 16.920994
67.365 16.588188
67.370 16.616756
67.375 17.227922
67.380 18.062105
67.385 17.793898
67.390 18.10079
67.395 18.291798
67.400 18.053902
67.405 17.993132
67.410 17.39868
67.415 17.194504
67.420 17.492224
67.425 17.401264
67.430 17.62219
67.435 17.33342
67.440 17.808855
67.445 18.202982
67.450 17.973843
67.455 17.439674
67.460 17.175278
67.465 16.982445
67.470 17.365614
67.475 17.19404
67.480 16.818241
67.485 17.217266
67.490 17.299742
67.495 17.023691
67.500 17.551044
67.505 17.734993
67.510 18.107267
67.515 18.420704
67.520 18.760685
67.525 19.700592
67.530 19.853502
67.535 19.140539
67.540 18.89312
67.545 18.994068
67.550 18.759871
67.555 17.845562
67.560 16.778416
67.565 16.709
67.570 16.794546
67.575 16.684223
67.580 16.28734
67.585 16.747704
67.590 17.41884
67.595 17.507278
67.600 17.52566
67.605 17.523432
67.610 17.770945
67.615 17.728096
67.620 17.039112
67.625 17.330227
67.630 17.576656
67.635 17.627172
67.640 17.615835
67.645 17.705532
67.650 18.251091
67.655 18.283751
67.660 17.934141
67.665 18.567207
67.670 18.774237
67.675 18.69875
67.680 18.368383
67.685 18.060646
67.690 18.605867
67.695 19.144129
67.700 18.784414
67.705 19.473976
67.710 19.734228
67.715 19.900293
67.720 19.552422
67.725 19.498594
67.730 19.636021
67.735 19.483566
67.740 19.137104
67.745 19.566341
67.750 19.60486
67.755 19.786469
67.760 18.416399
67.765 17.801317
67.770 17.452675
67.775 17.33811
67.780 16.679489
67.785 16.88508
67.790 16.967247
67.795 17.400637
67.800 17.770472
67.805 17.904972
67.810 17.757505
67.815 17.542061
67.820 17.38015
67.825 17.711447
67.830 18.098007
67.835 18.309124
67.840 18.034828
67.845 18.075546
67.850 18.301119
67.855 18.380724
67.860 18.489584
67.865 18.513554
67.870 18.307758
67.875 18.408661
67.880 18.263693
67.885 17.980143
67.890 17.975361
67.895 17.683477
67.900 17.916401
67.905 18.322523
67.910 18.567064
67.915 19.200294
67.920 19.826529
67.925 19.720301
67.930 20.185627
67.935 19.786896
67.940 19.619915
67.945 20.137047
67.950 20.099375
67.955 19.610077
67.960 19.879946
67.965 19.768776
67.970 19.05192
67.975 18.860023
67.980 18.329924
67.985 18.024645
67.990 17.803202
67.995 17.638321
68.000 17.794073
68.005 18.410051
68.010 19.251045
68.015 19.737894
68.020 20.210688
68.025 20.170578
68.030 20.378202
68.035 20.322515
68.040 20.262119
68.045 19.730017
68.050 19.678984
68.055 19.948938
68.060 20.043352
68.065 19.648556
68.070 19.737986
68.075 20.162411
68.080 19.974566
68.085 19.50844
68.090 18.665905
68.095 18.680134
68.100 18.513718
68.105 18.50466
68.110 18.45048
68.115 18.152124
68.120 18.488829
68.125 18.780743
68.130 19.018209
68.135 19.238777
68.140 18.836212
68.145 19.366573
68.150 20.135118
68.155 19.924715
68.160 20.246778
68.165 20.290302
68.170 20.123177
68.175 19.840431
68.180 19.17495
68.185 19.0319
68.190 19.724541
68.195 20.242798
68.200 20.912111
68.205 21.324774
68.210 22.202618
68.215 22.598516
68.220 22.950645
68.225 23.295279
68.230 22.912371
68.235 22.32938
68.240 22.276087
68.245 22.150648
68.250 21.812672
68.255 21.765438
68.260 21.364943
68.265 21.549629
68.270 21.944067
68.275 21.88129
68.280 22.06321
68.285 22.534334
68.290 21.84585
68.295 21.586964
68.300 21.172081
68.305 21.071438
68.310 21.027512
68.315 20.858477
68.320 21.005138
68.325 20.943253
68.330 20.94075
68.335 21.082449
68.340 21.038189
68.345 21.25066
68.350 21.420698
68.355 21.707058
68.360 22.493614
68.365 23.162315
68.370 24.185587
68.375 24.39352
68.380 24.559172
68.385 24.500565
68.390 24.216217
68.395 24.127954
68.400 23.684519
68.405 23.398834
68.410 23.645704
68.415 23.676395
68.420 24.238178
68.425 25.23023
68.430 25.829489
68.435 26.234493
68.440 26.424006
68.445 27.093714
68.450 27.371687
68.455 28.006187
68.460 27.941317
68.465 28.084641
68.470 27.905231
68.475 27.780247
68.480 27.317842
68.485 27.658817
68.490 27.362598
68.495 26.880651
68.500 26.607689
68.505 26.765324
68.510 26.892191
68.515 26.587366
68.520 26.047153
68.525 26.077829
68.530 26.605185
68.535 27.083685
68.540 27.884563
68.545 27.848806
68.550 28.268543
68.555 29.064526
68.560 28.972254
68.565 29.274757
68.570 29.173252
68.575 29.02747
68.580 29.559984
68.585 29.65053
68.590 29.721163
68.595 29.70582
68.600 29.523603
68.605 29.560314
68.610 29.74925
68.615 29.977798
68.620 30.524231
68.625 30.41424
68.630 30.713287
68.635 30.891956
68.640 30.856359
68.645 30.898369
68.650 31.233429
68.655 31.081852
68.660 31.364733
68.665 31.924297
68.670 32.636589
68.675 33.051495
68.680 33.943356
68.685 33.692215
68.690 33.194206
68.695 33.000153
68.700 32.281734
68.705 31.685339
68.710 31.607275
68.715 30.93091
68.720 30.957556
68.725 32.138725
68.730 32.346935
68.735 32.420063
68.740 32.428646
68.745 32.433784
68.750 32.816853
68.755 33.635342
68.760 33.731186
68.765 33.259724
68.770 33.973831
68.775 34.202976
68.780 33.870159
68.785 33.438293
68.790 33.345047
68.795 33.352722
68.800 34.278141
68.805 34.670467
68.810 35.035641
68.815 35.189022
68.820 35.328487
68.825 35.371937
68.830 36.032162
68.835 36.58643
68.840 36.161736
68.845 36.020226
68.850 36.488861
68.855 36.855598
68.860 36.75555
68.865 36.055908
68.870 35.52129
68.875 34.925537
68.880 35.539856
68.885 35.371788
68.890 35.252834
68.895 35.093121
68.900 35.1026
68.905 35.391724
68.910 35.869434
68.915 36.358681
68.920 36.200985
68.925 36.59095
68.930 36.810719
68.935 36.274704
68.940 36.163506
68.945 35.608566
68.950 34.770752
68.955 34.79781
68.960 34.258438
68.965 34.881409
68.970 35.363178
68.975 35.527504
68.980 36.055717
68.985 35.550674
68.990 35.478477
68.995 35.039463
69.000 34.72324
69.005 34.243382
69.010 33.704826
69.015 32.712906
69.020 31.962955
69.025 31.222801
69.030 31.569986
69.035 30.54122
69.040 30.342777
69.045 30.565542
69.050 31.193735
69.055 31.563423
69.060 31.90839
69.065 32.0396
69.070 32.522144
69.075 32.317089
69.080 32.395912
69.085 32.653545
69.090 33.073067
69.095 32.780853
69.100 32.554482
69.105 32.614788
69.110 32.050266
69.115 31.77186
69.120 31.322401
69.125 30.423134
69.130 29.586521
69.135 29.146372
69.140 29.09462
69.145 28.952196
69.150 28.045021
69.155 28.035622
69.160 28.0618
69.165 28.032694
69.170 27.665302
69.175 27.132441
69.180 27.578419
69.185 29.149336
69.190 29.350382
69.195 29.36746
69.200 29.827879
69.205 29.277372
69.210 28.76577
69.215 28.102768
69.220 26.610777
69.225 26.581615
69.230 26.125427
69.235 26.027805
69.240 26.549654
69.245 25.765587
69.250 25.069906
69.255 24.746559
69.260 24.327421
69.265 24.266266
69.270 24.190943
69.275 23.908197
69.280 24.682936
69.285 25.223198
69.290 25.473619
69.295 25.539038
69.300 25.626303
69.305 25.029514
69.310 24.513718
69.315 24.176531
69.320 23.674774
69.325 23.505152
69.330 23.240372
69.335 22.586369
69.340 22.084471
69.345 21.979158
69.350 21.132406
69.355 20.840044
69.360 20.279434
69.365 19.907074
69.370 19.472519
69.375 19.123487
69.380 18.976458
69.385 18.935965
69.390 19.107338
69.395 19.190779
69.400 19.213652
69.405 20.199192
69.410 21.002802
69.415 20.842421
69.420 20.755947
69.425 20.166208
69.430 20.191648
69.435 20.354473
69.440 20.386513
69.445 20.411219
69.450 20.446072
69.455 21.504137
69.460 22.016302
69.465 21.757053
69.470 21.107412
69.475 20.590752
69.480 20.68133
69.485 20.316439
69.490 19.188362
69.495 18.980688
69.500 18.987909
69.505 19.133154
69.510 18.914925
69.515 19.090963
69.520 19.311119
69.525 19.479729
69.530 18.888699
69.535 19.227213
69.540 19.747129
69.545 20.272606
69.550 20.013411
69.555 19.241716
69.560 19.510294
69.565 20.042517
69.570 19.603897
69.575 19.171314
69.580 18.687473
69.585 18.471296
69.590 18.646147
69.595 18.6709
69.600 18.558514
69.605 18.784872
69.610 19.024019
69.615 19.13002
69.620 20.235771
69.625 20.712814
69.630 20.175716
69.635 19.946608
69.640 19.581118
69.645 20.200029
69.650 20.206848
69.655 19.671392
69.660 19.641653
69.665 20.573233
69.670 21.300825
69.675 21.214977
69.680 20.500484
69.685 20.064756
69.690 19.403412
69.695 19.193523
69.700 19.221672
69.705 19.060516
69.710 19.095192
69.715 19.284683
69.720 19.197487
69.725 19.508734
69.730 19.732622
69.735 19.207277
69.740 19.063759
69.745 19.215693
69.750 18.977921
69.755 19.070976
69.760 19.376307
69.765 19.382425
69.770 19.414827
69.775 19.882595
69.780 19.275742
69.785 19.782658
69.790 19.497774
69.795 19.108297
69.800 19.090778
69.805 18.436869
69.810 18.144791
69.815 18.5231
69.820 18.463202
69.825 18.728176
69.830 18.367249
69.835 18.632011
69.840 18.292645
69.845 18.637331
69.850 19.157894
69.855 19.5882
69.860 19.521196
69.865 19.457785
69.870 19.154165
69.875 20.061005
69.880 19.641535
69.885 19.046843
69.890 18.905247
69.895 18.975626
69.900 19.127687
69.905 19.575531
69.910 19.053335
69.915 18.735758
69.920 18.4708
69.925 18.542789
69.930 18.02058
69.935 18.364656
69.940 18.436651
69.945 18.909388
69.950 18.952095
69.955 19.249659
69.960 19.159697
69.965 18.792339
69.970 17.653013
69.975 16.732723
69.980 16.011168
69.985 15.608827
69.990 15.20263
69.995 14.957174
70.000 16.147041
70.005 16.555607
70.010 16.549786
70.015 16.649332
70.020 16.761047
70.025 17.371092
70.030 17.908325
70.035 17.588585
70.040 18.293716
70.045 18.536528
70.050 18.458139
70.055 17.899441
70.060 17.495901
70.065 16.82556
70.070 16.360775
70.075 16.225563
70.080 16.33902
70.085 17.051756
70.090 17.886232
70.095 17.975422
70.100 18.506525
70.105 18.471867
70.110 18.610281
70.115 18.716595
70.120 18.694302
70.125 18.891275
70.130 18.896135
70.135 19.104673
70.140 19.414314
70.145 19.247484
70.150 19.43824
70.155 19.22086
70.160 18.791224
70.165 18.534174
70.170 18.278982
70.175 18.07649
70.180 18.229383
70.185 17.625858
70.190 17.647707
70.195 18.15233
70.200 18.207279
70.205 18.50024
70.210 18.243391
70.215 18.500355
70.220 19.115034
70.225 18.834538
70.230 18.15843
70.235 17.970753
70.240 17.789618
70.245 17.376034
70.250 17.540752
70.255 17.708136
70.260 17.756151
70.265 17.610722
70.270 17.086437
70.275 17.240898
70.280 17.510471
70.285 17.27479
70.290 16.996801
70.295 17.402334
70.300 18.10549
70.305 18.506828
70.310 18.979202
70.315 19.232224
70.320 19.291233
70.325 19.062439
70.330 18.973108
70.335 19.07296
70.340 19.497913
70.345 18.723888
70.350 18.949018
70.355 18.905529
70.360 18.473488
70.365 18.413219
70.370 18.214775
70.375 18.449896
70.380 18.554073
70.385 18.774132
70.390 19.197853
70.395 19.783634
70.400 19.833965
70.405 19.505188
70.410 18.878235
70.415 19.173717
70.420 18.29859
70.425 17.875107
70.430 17.225239
70.435 16.768932
70.440 16.640894
70.445 16.604389
70.450 16.231958
70.455 16.469496
70.460 16.749233
70.465 17.462328
70.470 18.03129
70.475 18.39216
70.480 18.599031
70.485 18.811541
70.490 18.642097
70.495 18.174845
70.500 18.027958
70.505 18.19721
70.510 17.992348
70.515 18.243628
70.520 18.185072
70.525 18.313118
70.530 18.376255
70.535 17.641119
70.540 17.091831
70.545 16.690418
70.550 16.318632
70.555 16.62281
70.560 17.002193
70.565 17.327717
70.570 17.690895
70.575 18.279638
70.580 19.034147
70.585 19.34045
70.590 18.864061
70.595 18.596134
70.600 18.213415
70.605 17.810312
70.610 18.297874
70.615 18.444654
70.620 18.711412
70.625 18.416267
70.630 18.596197
70.635 19.066338
70.640 18.94762
70.645 18.252367
70.650 17.813757
70.655 17.84321
70.660 18.42717
70.665 18.188484
70.670 18.088596
70.675 18.124447
70.680 17.907085
70.685 18.120754
70.690 18.866707
70.695 19.136026
70.700 19.27388
70.705 19.419926
70.710 19.771126
70.715 20.198055
70.720 19.109276
70.725 18.02084
70.730 17.86426
70.735 17.759943
70.740 17.93045
70.745 17.62005
70.750 17.487368
70.755 18.218803
70.760 18.436214
70.765 17.992617
70.770 17.729177
70.775 17.216213
70.780 17.153053
70.785 17.766407
70.790 17.329603
70.795 17.18738
70.800 17.467813
70.805 17.65239
70.810 17.547184
70.815 17.361006
70.820 16.474808
70.825 16.381874
70.830 16.557587
70.835 16.935423
70.840 17.351818
70.845 17.692078
70.850 17.489023
70.855 17.277193
70.860 17.336498
70.865 17.712608
70.870 17.946281
70.875 17.917042
70.880 17.850395
70.885 18.200174
70.890 18.752243
70.895 18.943184
70.900 18.820726
70.905 18.103703
70.910 17.956482
70.915 17.830114
70.920 17.74684
70.925 17.524782
70.930 17.122707
70.935 16.786942
70.940 17.086725
70.945 17.105812
70.950 17.08717
70.955 17.986437
70.960 18.341135
70.965 18.132732
70.970 18.052444
70.975 17.920568
70.980 18.162897
70.985 18.053854
70.990 17.148514
70.995 16.645336
71.000 17.015404
71.005 17.163321
71.010 17.500055
71.015 17.766966
71.020 18.123493
71.025 18.509846
71.030 18.261831
71.035 18.214899
71.040 18.615755
71.045 17.88389
71.050 17.92104
71.055 18.160723
71.060 17.669445
71.065 17.586267
71.070 17.042841
71.075 16.831619
71.080 17.158972
71.085 17.285311
71.090 17.016285
71.095 17.600019
71.100 18.239658
71.105 18.235886
71.110 17.963806
71.115 17.520935
71.120 17.184446
71.125 16.937582
71.130 16.968239
71.135 17.151323
71.140 17.691154
71.145 17.779095
71.150 18.450401
71.155 18.610849
71.160 19.345551
71.165 19.761534
71.170 20.118597
71.175 19.897959
71.180 19.618216
71.185 19.062479
71.190 18.720119
71.195 18.103275
71.200 17.716421
71.205 17.103535
71.210 17.630686
71.215 17.899002
71.220 17.746901
71.225 17.272802
71.230 16.944561
71.235 16.955677
71.240 16.954443
71.245 16.672167
71.250 17.075926
71.255 17.765551
71.260 18.122522
71.265 18.640656
71.270 18.752947
71.275 18.649254
71.280 18.83905
71.285 18.718496
71.290 19.035606
71.295 19.326817
71.300 19.045177
71.305 18.984262
71.310 19.205927
71.315 19.032675
71.320 19.567514
71.325 19.325111
71.330 19.201624
71.335 19.973038
71.340 19.801144
71.345 19.165899
71.350 18.746275
71.355 18.461533
71.360 18.795418
71.365 18.566189
71.370 17.759018
71.375 17.980402
71.380 18.600147
71.385 18.818365
71.390 18.570066
71.395 18.194101
71.400 17.918922
71.405 17.692312
71.410 17.708799
71.415 17.585159
71.420 17.548733
71.425 17.152561
71.430 16.739332
71.435 16.714853
71.440 16.658161
71.445 16.743172
71.450 17.016171
71.455 16.710566
71.460 17.056139
71.465 17.49469
71.470 18.364914
71.475 18.769741
71.480 18.175045
71.485 17.96113
71.490 18.318535
71.495 18.055614
71.500 18.152437
71.505 18.26969
71.510 18.343843
71.515 18.430347
71.520 17.919712
71.525 18.007572
71.530 18.228588
71.535 18.059906
71.540 17.035894
71.545 16.784836
71.550 17.408249
71.555 17.762037
71.560 17.800343
71.565 17.938545
71.570 18.133974
71.575 18.662882
71.580 18.424824
71.585 17.990246
71.590 18.12565
71.595 17.556932
71.600 17.35783
71.605 17.013834
71.610 17.489714
71.615 17.721155
71.620 17.806097
71.625 17.94249
71.630 18.360256
71.635 18.579037
71.640 18.684998
71.645 19.194029
71.650 19.367834
71.655 19.123928
71.660 18.770868
71.665 18.406509
71.670 18.343767
71.675 18.06204
71.680 17.58659
71.685 17.629351
71.690 17.88131
71.695 18.071438
71.700 18.184582
71.705 18.361429
71.710 18.002659
71.715 17.91324
71.720 18.259083
71.725 18.186087
71.730 17.988411
71.735 17.504717
71.740 17.505548
71.745 17.704494
71.750 17.663054
71.755 17.349913
71.760 17.283434
71.765 17.782057
71.770 18.302534
71.775 18.66572
71.780 18.717661
71.785 19.045103
71.790 18.746555
71.795 19.046307
71.800 18.61949
71.805 18.118301
71.810 17.840803
71.815 17.746243
71.820 17.643194
71.825 17.526802
71.830 17.587099
71.835 17.68803
71.840 17.650948
71.845 18.01746
71.850 18.088884
71.855 18.353245
71.860 18.635954
71.865 18.134703
71.870 18.209126
71.875 18.484337
71.880 18.032442
71.885 18.197153
71.890 18.562408
71.895 19.14216
71.900 19.289665
71.905 19.498686
71.910 19.964018
71.915 20.330915
71.920 20.272648
71.925 19.580767
71.930 19.116482
71.935 19.353359
71.940 18.889542
71.945 18.110817
71.950 18.054974
71.955 17.960081
71.960 18.16165
71.965 18.179407
71.970 17.945204
71.975 18.820881
71.980 18.879187
71.985 19.025354
71.990 18.682808
71.995 18.610693
72.000 18.240002
72.005 18.236116
72.010 17.451416
72.015 17.466291
72.020 17.53443
72.025 17.075911
72.030 16.898159
72.035 17.376947
72.040 17.336456
72.045 17.412725
72.050 18.094818
72.055 18.288084
72.060 18.410885
72.065 19.033688
72.070 18.87101
72.075 19.241745
72.080 19.292051
72.085 17.896564
72.090 17.766457
72.095 17.895393
72.100 17.533953
72.105 17.685022
72.110 17.636295
72.115 17.775242
72.120 17.877798
72.125 18.122143
72.130 18.430561
72.135 18.227299
72.140 17.42341
72.145 16.956961
72.150 17.108406
72.155 17.462585
72.160 17.099098
72.165 17.116198
72.170 17.490356
72.175 17.640091
72.180 17.356918
72.185 17.170286
72.190 16.719767
72.195 16.629532
72.200 16.38365
72.205 15.831075
72.210 16.107319
72.215 16.49452
72.220 16.125944
72.225 16.276014
72.230 16.889774
72.235 17.236998
72.240 17.548637
72.245 17.107573
72.250 17.15761
72.255 17.667667
72.260 17.274759
72.265 16.604933
72.270 16.288527
72.275 16.26416
72.280 16.441917
72.285 16.004326
72.290 16.469261
72.295 16.23785
72.300 16.286621
72.305 16.751995
72.310 16.951674
72.315 17.085083
72.320 16.968765
72.325 16.976099
72.330 17.205288
72.335 16.896593
72.340 16.67618
72.345 16.605955
72.350 17.488821
72.355 17.567865
72.360 17.727514
72.365 19.080433
72.370 19.57625
72.375 19.370781
72.380 19.524117
72.385 18.913488
72.390 18.825598
72.395 17.788872
72.400 16.412933
72.405 15.924823
72.410 16.250633
72.415 16.082134
72.420 15.959648
72.425 16.397146
72.430 17.365728
72.435 17.738983
72.440 17.924255
72.445 17.734224
72.450 17.954027
72.455 18.24239
72.460 17.501207
72.465 17.362755
72.470 17.528231
72.475 17.672962
72.480 17.361782
72.485 16.556835
72.490 16.696081
72.495 17.069382
72.500 17.059612
72.505 16.991705
72.510 17.296938
72.515 17.945009
72.520 18.444622
72.525 18.337511
72.530 18.03347
72.535 18.293697
72.540 18.494011
72.545 18.19525
72.550 18.396772
72.555 18.187389
72.560 17.997688
72.565 18.017548
72.570 17.205769
72.575 17.119244
72.580 17.028236
72.585 16.439651
72.590 16.134556
72.595 16.321476
72.600 16.516111
72.605 16.680826
72.610 16.616583
72.615 17.032726
72.620 17.399128
72.625 17.796795
72.630 17.679131
72.635 17.989452
72.640 18.019974
72.645 17.75382
72.650 17.249943
72.655 16.888935
72.660 17.027361
72.665 16.363092
72.670 15.514229
72.675 15.809014
72.680 15.731976
72.685 16.051836
72.690 16.259445
72.695 16.077587
72.700 16.254574
72.705 16.533749
72.710 16.581432
72.715 16.454866
72.720 17.021664
72.725 16.660208
72.730 16.615009
72.735 17.013123
72.740 16.599926
72.745 16.715618
72.750 16.564913
72.755 15.81814
72.760 15.782137
72.765 15.78528
72.770 15.8991
72.775 15.962424
72.780 15.755401
72.785 15.935142
72.790 16.469316
72.795 16.422888
72.800 16.290554
72.805 16.61969
72.810 16.071793
72.815 16.022686
72.820 15.703558
72.825 15.797108
72.830 16.104868
72.835 16.362574
72.840 16.990271
72.845 17.19175
72.850 17.420679
72.855 17.762997
72.860 17.623323
72.865 17.559788
72.870 17.430401
72.875 16.852425
72.880 16.738346
72.885 16.217621
72.890 16.191673
72.895 16.604147
72.900 16.798857
72.905 16.706062
72.910 17.33073
72.915 18.171005
72.920 18.280775
72.925 17.508629
72.930 17.32634
72.935 16.886351
72.940 16.520636
72.945 16.444738
72.950 16.407093
72.955 16.604057
72.960 17.135075
72.965 17.006363
72.970 17.905201
72.975 18.065613
72.980 17.787695
72.985 17.379532
72.990 17.451796
72.995 17.841894
73.000 18.018444
