!@!!GADDS PLOTSO FILE: Chi integration type
!@!!Title/SampleName: map-16c
!@!!Comment: ?
!@!!User: Bruker Instrument Administrator
!@!!Site: University of Illinois Chicago
!@!!Frame: map-16c_01_000.gfrm
!@!!Wavelengths    1.54184   1.54056   1.54439
!@!!Frame angles: 2Theta: 63.000 Omega: 50.000 Phi: 0.000 Chi: 90.000
!@!!Integration range: 2Theta: 53.000 to 73.000  Gamma: -105.000 to -75.000
!@!!Integration method: bin normalized
!@!N
!@!SS
!@!M
!@!L 0.0 0.0 0.0 0.0
!@!XDegrees
!@!YCounts
53.000 4.342781
53.005 4.03423
53.010 3.747191
53.015 3.703324
53.020 3.583091
53.025 3.801192
53.030 3.981869
53.035 4.028677
53.040 4.46013
53.045 4.595469
53.050 4.614902
53.055 4.69665
53.060 4.845062
53.065 4.698869
53.070 4.705415
53.075 4.476377
53.080 4.431306
53.085 4.505705
53.090 4.566328
53.095 4.640278
53.100 4.531243
53.105 4.172267
53.110 4.147334
53.115 3.969284
53.120 3.995927
53.125 3.827942
53.130 3.931007
53.135 3.848262
53.140 3.885137
53.145 3.715828
53.150 3.557742
53.155 3.276939
53.160 3.234958
53.165 3.27389
53.170 3.335912
53.175 3.352967
53.180 3.440147
53.185 3.330329
53.190 3.378671
53.195 3.294506
53.200 2.9915
53.205 2.889585
53.210 2.822014
53.215 2.947336
53.220 3.102541
53.225 3.132091
53.230 3.018389
53.235 3.289123
53.240 3.69319
53.245 3.799612
53.250 3.777231
53.255 3.573903
53.260 3.474034
53.265 3.553915
53.270 3.486743
53.275 3.469602
53.280 3.328871
53.285 3.429646
53.290 3.548239
53.295 3.825093
53.300 3.759736
53.305 3.563611
53.310 3.609041
53.315 3.777812
53.320 3.846996
53.325 3.7963
53.330 3.801614
53.335 4.10725
53.340 4.294925
53.345 4.239745
53.350 4.369915
53.355 4.41055
53.360 4.321601
53.365 4.229589
53.370 4.142217
53.375 4.129463
53.380 4.148103
53.385 4.191981
53.390 4.427399
53.395 4.472776
53.400 4.554253
53.405 4.670452
53.410 4.594315
53.415 4.48281
53.420 4.45697
53.425 4.620558
53.430 4.593439
53.435 4.306111
53.440 4.046646
53.445 4.191914
53.450 4.065584
53.455 3.828036
53.460 3.347393
53.465 3.145542
53.470 3.394318
53.475 3.356398
53.480 3.140584
53.485 3.397301
53.490 3.269212
53.495 3.513168
53.500 3.62058
53.505 3.484887
53.510 3.388417
53.515 3.337096
53.520 3.067829
53.525 3.212151
53.530 3.1569
53.535 3.36776
53.540 3.369213
53.545 3.545043
53.550 3.61769
53.555 3.962262
53.560 3.951777
53.565 3.906653
53.570 3.842773
53.575 3.978525
53.580 3.948538
53.585 3.85253
53.590 3.474573
53.595 3.507096
53.600 3.737322
53.605 3.746563
53.610 3.808924
53.615 3.881334
53.620 4.393721
53.625 4.780019
53.630 4.718172
53.635 4.30599
53.640 4.151877
53.645 4.033197
53.650 4.025808
53.655 3.595814
53.660 3.411155
53.665 3.477999
53.670 3.683505
53.675 3.997574
53.680 4.054683
53.685 3.89989
53.690 3.886082
53.695 3.950787
53.700 4.267678
53.705 4.339873
53.710 4.135994
53.715 4.078503
53.720 4.10869
53.725 4.110055
53.730 4.055191
53.735 3.585058
53.740 3.374894
53.745 3.374926
53.750 3.597109
53.755 3.77809
53.760 4.067515
53.765 4.189989
53.770 4.407654
53.775 4.627435
53.780 4.537115
53.785 4.645106
53.790 4.767335
53.795 5.012136
53.800 4.87114
53.805 4.769433
53.810 4.678843
53.815 4.568731
53.820 4.378163
53.825 4.046105
53.830 3.868211
53.835 4.017673
53.840 4.299972
53.845 4.367328
53.850 4.431196
53.855 4.383325
53.860 4.526903
53.865 4.975698
53.870 4.81584
53.875 4.719843
53.880 4.672206
53.885 4.522052
53.890 4.266379
53.895 3.623048
53.900 3.24786
53.905 3.100116
53.910 2.82646
53.915 2.930616
53.920 2.88497
53.925 3.072207
53.930 3.413492
53.935 3.470858
53.940 3.80361
53.945 3.959316
53.950 4.072793
53.955 4.213765
53.960 4.277396
53.965 4.130704
53.970 3.870361
53.975 3.581702
53.980 3.645889
53.985 3.354566
53.990 3.431126
53.995 3.40156
54.000 3.397025
54.005 3.527782
54.010 3.373342
54.015 3.114178
54.020 3.333024
54.025 3.294961
54.030 3.578685
54.035 3.548657
54.040 3.471285
54.045 3.766811
54.050 4.10206
54.055 4.121024
54.060 4.190833
54.065 3.78872
54.070 3.904651
54.075 4.166136
54.080 4.454274
54.085 4.305634
54.090 4.226951
54.095 3.948275
54.100 4.218327
54.105 4.129872
54.110 3.766361
54.115 3.558603
54.120 3.542631
54.125 3.647127
54.130 3.647957
54.135 3.424854
54.140 3.420806
54.145 3.391928
54.150 3.475108
54.155 3.537689
54.160 3.607507
54.165 3.852928
54.170 4.057152
54.175 4.235769
54.180 4.249306
54.185 4.033326
54.190 3.963567
54.195 3.730117
54.200 3.521698
54.205 3.341988
54.210 3.19656
54.215 3.5116
54.220 3.428573
54.225 3.49344
54.230 3.766754
54.235 3.788467
54.240 3.846323
54.245 3.842071
54.250 3.434728
54.255 3.58243
54.260 3.36349
54.265 3.14631
54.270 3.699715
54.275 4.038483
54.280 4.243445
54.285 4.582736
54.290 4.612108
54.295 4.6577
54.300 5.010203
54.305 4.716875
54.310 4.562776
54.315 4.308486
54.320 4.133751
54.325 4.023639
54.330 4.201114
54.335 3.876834
54.340 3.689934
54.345 3.428778
54.350 3.519965
54.355 3.48168
54.360 3.473094
54.365 3.404881
54.370 3.413156
54.375 3.65453
54.380 4.0105
54.385 4.05705
54.390 4.319429
54.395 4.274218
54.400 4.060462
54.405 4.051047
54.410 3.704091
54.415 3.588196
54.420 3.299205
54.425 3.11387
54.430 3.303957
54.435 3.596423
54.440 3.668915
54.445 3.981424
54.450 4.337337
54.455 4.618678
54.460 4.789876
54.465 4.386039
54.470 4.287433
54.475 4.497046
54.480 4.481797
54.485 4.343014
54.490 4.445936
54.495 4.389906
54.500 4.607939
54.505 4.4359
54.510 4.328357
54.515 4.350614
54.520 4.296511
54.525 4.048195
54.530 4.095361
54.535 4.46476
54.540 4.816182
54.545 4.708847
54.550 4.552797
54.555 4.593935
54.560 4.556925
54.565 4.468668
54.570 4.365774
54.575 4.34657
54.580 4.224612
54.585 4.381837
54.590 4.506668
54.595 4.641222
54.600 4.664651
54.605 4.502203
54.610 4.72542
54.615 4.786503
54.620 4.534096
54.625 4.318413
54.630 4.344107
54.635 4.208652
54.640 4.068536
54.645 3.890522
54.650 4.161592
54.655 4.341685
54.660 4.46312
54.665 4.595264
54.670 4.692196
54.675 4.64694
54.680 4.427982
54.685 4.353563
54.690 4.599806
54.695 4.484729
54.700 4.590275
54.705 4.661555
54.710 4.60851
54.715 4.583435
54.720 4.366746
54.725 4.311242
54.730 4.311903
54.735 4.162208
54.740 4.069221
54.745 4.345765
54.750 4.391886
54.755 4.215812
54.760 3.795445
54.765 3.812716
54.770 4.167749
54.775 4.300479
54.780 4.154584
54.785 4.175837
54.790 4.132406
54.795 4.393191
54.800 4.400408
54.805 4.239705
54.810 4.112846
54.815 3.937476
54.820 4.138306
54.825 4.34384
54.830 4.535882
54.835 4.49287
54.840 4.55277
54.845 4.840086
54.850 5.273083
54.855 5.344662
54.860 5.082503
54.865 4.551826
54.870 4.157512
54.875 3.754771
54.880 3.506404
54.885 2.951076
54.890 2.948225
54.895 3.28317
54.900 3.566308
54.905 3.535514
54.910 3.603805
54.915 3.559914
54.920 3.893205
54.925 3.925071
54.930 3.610987
54.935 3.677414
54.940 4.061564
54.945 4.308722
54.950 4.367387
54.955 3.943263
54.960 4.146676
54.965 4.564978
54.970 4.508675
54.975 4.320207
54.980 4.244111
54.985 4.657674
54.990 4.831673
54.995 4.491106
55.000 4.093348
55.005 4.078114
55.010 4.182285
55.015 4.042457
55.020 3.716609
55.025 3.607522
55.030 3.741457
55.035 3.952043
55.040 4.178935
55.045 3.987684
55.050 4.175597
55.055 4.447569
55.060 4.438743
55.065 4.383779
55.070 4.293028
55.075 3.986004
55.080 3.828922
55.085 3.836733
55.090 3.941437
55.095 4.074675
55.100 3.994632
55.105 4.026514
55.110 4.554107
55.115 4.573078
55.120 4.459574
55.125 4.12541
55.130 4.025853
55.135 4.064295
55.140 3.957481
55.145 3.720169
55.150 3.935565
55.155 3.88906
55.160 3.899328
55.165 4.067407
55.170 4.164827
55.175 4.197414
55.180 4.109759
55.185 3.899616
55.190 3.981368
55.195 4.178296
55.200 4.048379
55.205 3.817074
55.210 3.611921
55.215 3.629349
55.220 3.798186
55.225 4.020813
55.230 4.047997
55.235 4.078403
55.240 4.637712
55.245 5.121299
55.250 5.069441
55.255 5.277414
55.260 5.174229
55.265 5.291286
55.270 5.257038
55.275 4.861362
55.280 4.871913
55.285 4.896525
55.290 4.550786
55.295 4.250381
55.300 4.14993
55.305 4.298449
55.310 4.296497
55.315 4.273745
55.320 4.312855
55.325 4.453325
55.330 4.334668
55.335 4.343154
55.340 4.417932
55.345 4.377346
55.350 4.15169
55.355 4.243589
55.360 4.469611
55.365 4.54276
55.370 4.703169
55.375 4.380733
55.380 4.472678
55.385 4.670797
55.390 4.242153
55.395 4.209011
55.400 4.152823
55.405 4.130087
55.410 4.236883
55.415 4.298534
55.420 4.43816
55.425 4.392589
55.430 4.430695
55.435 4.463861
55.440 4.253771
55.445 4.31811
55.450 4.454261
55.455 4.47332
55.460 4.653906
55.465 4.639575
55.470 4.715032
55.475 4.9128
55.480 5.084669
55.485 4.864608
55.490 5.103337
55.495 5.126379
55.500 5.064811
55.505 5.239895
55.510 5.230169
55.515 5.00098
55.520 5.237884
55.525 5.235218
55.530 5.288806
55.535 5.341604
55.540 5.070708
55.545 5.058195
55.550 4.63206
55.555 4.341223
55.560 4.09043
55.565 4.041292
55.570 3.888392
55.575 3.763604
55.580 4.001091
55.585 4.166244
55.590 4.099589
55.595 4.409915
55.600 4.310349
55.605 4.795697
55.610 4.705935
55.615 4.652005
55.620 4.706287
55.625 4.667367
55.630 4.506637
55.635 4.542195
55.640 4.308526
55.645 4.391664
55.650 4.401023
55.655 4.570434
55.660 4.494757
55.665 4.191457
55.670 4.035863
55.675 3.91185
55.680 4.11263
55.685 3.961821
55.690 3.860856
55.695 3.938678
55.700 3.991747
55.705 4.084808
55.710 4.187491
55.715 3.988885
55.720 3.901098
55.725 3.882547
55.730 3.890688
55.735 4.146913
55.740 4.203183
55.745 4.108931
55.750 4.302539
55.755 4.415394
55.760 4.758374
55.765 4.930066
55.770 4.62157
55.775 4.800913
55.780 5.032218
55.785 4.923364
55.790 4.986617
55.795 4.670977
55.800 4.358591
55.805 4.33062
55.810 4.126012
55.815 3.804033
55.820 3.620627
55.825 3.676761
55.830 3.620853
55.835 3.872495
55.840 3.951583
55.845 3.896145
55.850 4.266724
55.855 4.126881
55.860 3.837409
55.865 3.764599
55.870 3.85353
55.875 4.191122
55.880 4.785247
55.885 4.908918
55.890 5.250796
55.895 5.628335
55.900 5.864899
55.905 5.631516
55.910 5.334124
55.915 4.918684
55.920 4.787022
55.925 4.527838
55.930 4.213981
55.935 3.985403
55.940 4.04593
55.945 3.90811
55.950 3.85447
55.955 3.894125
55.960 4.102629
55.965 4.179116
55.970 4.190125
55.975 3.941436
55.980 4.402685
55.985 4.439042
55.990 4.537217
55.995 4.794818
56.000 5.083553
56.005 4.95844
56.010 5.196982
56.015 4.772289
56.020 4.782018
56.025 4.378697
56.030 3.964278
56.035 3.799535
56.040 3.929698
56.045 3.80871
56.050 3.72465
56.055 3.662114
56.060 3.921328
56.065 3.898326
56.070 3.99045
56.075 4.166875
56.080 4.042123
56.085 4.179966
56.090 4.163116
56.095 4.109193
56.100 4.294413
56.105 4.399039
56.110 4.349841
56.115 4.609029
56.120 4.658538
56.125 4.839723
56.130 5.006805
56.135 4.975031
56.140 4.906321
56.145 4.984155
56.150 4.689782
56.155 4.77638
56.160 4.534067
56.165 4.335574
56.170 4.174551
56.175 4.196153
56.180 4.107395
56.185 4.212609
56.190 4.259417
56.195 4.915783
56.200 5.376592
56.205 5.538677
56.210 5.444551
56.215 5.529335
56.220 5.688691
56.225 5.522669
56.230 4.829288
56.235 4.550809
56.240 4.655132
56.245 4.891061
56.250 4.82784
56.255 4.902657
56.260 4.988489
56.265 5.149592
56.270 5.287312
56.275 5.233874
56.280 4.98959
56.285 4.773606
56.290 4.840744
56.295 5.153545
56.300 5.25606
56.305 5.242014
56.310 5.261391
56.315 5.253462
56.320 4.938229
56.325 4.491478
56.330 4.172201
56.335 4.095937
56.340 4.17571
56.345 3.996334
56.350 4.213835
56.355 4.639781
56.360 4.62589
56.365 4.598107
56.370 4.542093
56.375 4.55167
56.380 4.521525
56.385 4.444616
56.390 4.303966
56.395 4.53337
56.400 4.706359
56.405 4.629221
56.410 4.451541
56.415 4.74185
56.420 4.709383
56.425 4.579158
56.430 4.422746
56.435 4.397799
56.440 4.418687
56.445 4.366647
56.450 4.448931
56.455 4.524908
56.460 4.730922
56.465 5.027709
56.470 5.099799
56.475 5.312049
56.480 5.75492
56.485 5.690769
56.490 5.634727
56.495 5.698151
56.500 5.564666
56.505 5.694443
56.510 5.540018
56.515 5.169079
56.520 5.219731
56.525 5.27872
56.530 5.149747
56.535 5.168191
56.540 5.425571
56.545 5.724666
56.550 5.796613
56.555 5.72274
56.560 5.713325
56.565 6.012865
56.570 5.779051
56.575 5.580731
56.580 5.343206
56.585 5.169533
56.590 4.93204
56.595 4.992987
56.600 4.707458
56.605 4.582655
56.610 4.756522
56.615 4.67949
56.620 4.583953
56.625 4.538453
56.630 4.116729
56.635 3.925416
56.640 3.973095
56.645 3.910289
56.650 4.063428
56.655 4.586688
56.660 5.206705
56.665 5.566117
56.670 5.980358
56.675 6.241971
56.680 5.975304
56.685 6.148314
56.690 5.957567
56.695 5.706139
56.700 5.643267
56.705 5.43699
56.710 5.424027
56.715 5.665779
56.720 5.772383
56.725 5.713916
56.730 5.473651
56.735 5.516108
56.740 5.404317
56.745 5.169153
56.750 4.967771
56.755 4.638319
56.760 4.668303
56.765 4.744697
56.770 4.566692
56.775 4.457705
56.780 4.5144
56.785 4.882588
56.790 5.091512
56.795 5.540321
56.800 5.360508
56.805 5.437893
56.810 5.500921
56.815 5.415867
56.820 5.168449
56.825 5.010957
56.830 4.541831
56.835 4.484082
56.840 4.192988
56.845 4.070168
56.850 4.023551
56.855 3.874431
56.860 3.893942
56.865 4.313189
56.870 4.800592
56.875 5.0791
56.880 5.103773
56.885 5.038218
56.890 4.868643
56.895 4.685909
56.900 4.585614
56.905 4.640107
56.910 4.50602
56.915 4.447613
56.920 4.496879
56.925 4.720471
56.930 4.83153
56.935 4.609847
56.940 4.520211
56.945 4.992916
56.950 5.312979
56.955 5.382946
56.960 5.629196
56.965 5.48528
56.970 5.025083
56.975 4.679702
56.980 4.457982
56.985 4.31408
56.990 4.350503
56.995 4.269728
57.000 4.320521
57.005 4.774956
57.010 4.960772
57.015 5.069259
57.020 5.250668
57.025 5.609309
57.030 5.542186
57.035 5.458013
57.040 5.306652
57.045 5.24978
57.050 5.308412
57.055 5.115912
57.060 4.660225
57.065 4.691846
57.070 4.864397
57.075 5.303692
57.080 5.389025
57.085 5.313254
57.090 5.124857
57.095 5.384439
57.100 5.611043
57.105 5.554843
57.110 5.270287
57.115 5.149629
57.120 5.126519
57.125 5.176927
57.130 5.039299
57.135 5.174807
57.140 5.390052
57.145 5.559111
57.150 5.681998
57.155 5.638133
57.160 5.819653
57.165 6.04898
57.170 5.996739
57.175 5.954736
57.180 5.891281
57.185 5.68884
57.190 6.17838
57.195 6.020053
57.200 5.969051
57.205 5.98441
57.210 5.818165
57.215 5.883443
57.220 6.108737
57.225 5.786882
57.230 5.796133
57.235 5.362088
57.240 4.948517
57.245 5.117892
57.250 4.876208
57.255 4.474122
57.260 4.121203
57.265 3.827775
57.270 4.202886
57.275 4.555999
57.280 4.609454
57.285 4.846481
57.290 5.071805
57.295 5.247359
57.300 5.231691
57.305 5.24705
57.310 5.014377
57.315 5.350111
57.320 5.555689
57.325 5.542381
57.330 5.70443
57.335 5.676778
57.340 5.447299
57.345 5.533651
57.350 5.024326
57.355 4.87709
57.360 4.992241
57.365 4.68381
57.370 4.779258
57.375 5.076479
57.380 5.129806
57.385 5.180733
57.390 5.121363
57.395 5.267898
57.400 5.74407
57.405 5.970273
57.410 6.000081
57.415 5.83762
57.420 5.704255
57.425 5.717966
57.430 5.576551
57.435 5.329043
57.440 5.24507
57.445 5.069297
57.450 5.021665
57.455 5.049541
57.460 4.914757
57.465 4.924157
57.470 4.991727
57.475 4.852345
57.480 4.736056
57.485 4.746899
57.490 4.824364
57.495 4.923369
57.500 5.124527
57.505 4.98326
57.510 5.270661
57.515 5.378577
57.520 5.464818
57.525 5.204116
57.530 4.990331
57.535 4.86175
57.540 4.932475
57.545 4.728991
57.550 4.51909
57.555 4.698126
57.560 5.082041
57.565 5.385758
57.570 5.340143
57.575 5.219924
57.580 5.558647
57.585 6.046671
57.590 6.31661
57.595 6.407795
57.600 6.6742
57.605 6.867594
57.610 6.604849
57.615 6.324322
57.620 6.206806
57.625 5.859002
57.630 5.623177
57.635 5.424011
57.640 5.228865
57.645 5.503847
57.650 5.582582
57.655 5.543607
57.660 5.328351
57.665 5.160602
57.670 5.015876
57.675 5.02988
57.680 4.723933
57.685 4.6069
57.690 4.576893
57.695 4.870488
57.700 4.847682
57.705 4.726124
57.710 4.865752
57.715 5.29608
57.720 5.643829
57.725 5.787078
57.730 5.70874
57.735 5.761192
57.740 5.916118
57.745 5.638295
57.750 5.378274
57.755 4.87425
57.760 4.625147
57.765 4.713645
57.770 4.486272
57.775 4.381907
57.780 4.636439
57.785 4.621082
57.790 4.859828
57.795 4.845796
57.800 4.847049
57.805 5.276836
57.810 5.328136
57.815 4.921978
57.820 4.727249
57.825 4.491055
57.830 4.878247
57.835 4.911395
57.840 4.636364
57.845 4.813682
57.850 5.213661
57.855 5.641053
57.860 5.852032
57.865 5.707068
57.870 5.651303
57.875 5.68403
57.880 5.565523
57.885 5.826432
57.890 5.760813
57.895 5.691981
57.900 5.901984
57.905 5.952082
57.910 5.809507
57.915 5.578413
57.920 5.135853
57.925 4.748311
57.930 4.870237
57.935 4.742692
57.940 5.135173
57.945 5.391414
57.950 5.540383
57.955 5.837602
57.960 6.163686
57.965 5.865236
57.970 5.399478
57.975 5.079753
57.980 4.908393
57.985 4.888433
57.990 4.766889
57.995 4.962601
58.000 5.237202
58.005 5.70883
58.010 6.022738
58.015 6.442995
58.020 6.475547
58.025 6.396082
58.030 6.320239
58.035 6.128387
58.040 5.292527
58.045 5.046869
58.050 4.974182
58.055 4.940627
58.060 4.649319
58.065 4.286051
58.070 4.499978
58.075 4.754359
58.080 4.85176
58.085 4.818952
58.090 5.109899
58.095 5.379562
58.100 5.464193
58.105 5.576089
58.110 5.844784
58.115 6.117785
58.120 6.03951
58.125 5.825924
58.130 5.849193
58.135 5.928642
58.140 5.563809
58.145 5.355565
58.150 5.211697
58.155 5.095694
58.160 5.116617
58.165 5.152527
58.170 5.172976
58.175 5.321949
58.180 5.123824
58.185 4.78309
58.190 5.083766
58.195 5.00402
58.200 4.837255
58.205 4.853204
58.210 4.829294
58.215 5.139531
58.220 5.296905
58.225 5.278869
58.230 5.396309
58.235 5.712815
58.240 5.731511
58.245 5.677047
58.250 5.3992
58.255 5.267291
58.260 4.983094
58.265 4.858003
58.270 4.687769
58.275 4.629456
58.280 4.728722
58.285 5.063849
58.290 4.869915
58.295 5.271471
58.300 5.31061
58.305 5.389802
58.310 5.217858
58.315 5.295279
58.320 5.383707
58.325 6.157251
58.330 6.232654
58.335 6.262483
58.340 6.602267
58.345 6.755206
58.350 6.643904
58.355 6.334356
58.360 5.630714
58.365 5.435271
58.370 5.167117
58.375 4.947501
58.380 5.103161
58.385 4.958568
58.390 5.054245
58.395 5.378961
58.400 5.490313
58.405 5.488687
58.410 5.502365
58.415 5.289267
58.420 5.833281
58.425 6.135256
58.430 6.029788
58.435 6.030513
58.440 6.033774
58.445 5.813006
58.450 5.996208
58.455 5.639419
58.460 5.370947
58.465 5.34537
58.470 5.386807
58.475 5.33704
58.480 5.523338
58.485 5.203176
58.490 4.815779
58.495 5.02355
58.500 4.985952
58.505 5.055884
58.510 5.277986
58.515 5.310914
58.520 5.729724
58.525 6.203654
58.530 6.060205
58.535 5.913282
58.540 5.630785
58.545 5.604963
58.550 5.45796
58.555 5.243191
58.560 4.658566
58.565 4.526708
58.570 4.718245
58.575 5.08532
58.580 4.838067
58.585 4.729197
58.590 4.670166
58.595 4.84298
58.600 5.163287
58.605 5.07617
58.610 4.948822
58.615 5.184232
58.620 5.419819
58.625 5.557058
58.630 5.770006
58.635 5.515282
58.640 5.788811
58.645 5.47784
58.650 5.362855
58.655 5.284887
58.660 5.387331
58.665 5.098155
58.670 5.169986
58.675 5.29879
58.680 5.723874
58.685 5.523689
58.690 5.60212
58.695 6.175165
58.700 6.27976
58.705 6.338209
58.710 6.098003
58.715 5.97265
58.720 6.193667
58.725 5.918639
58.730 5.669591
58.735 5.771955
58.740 5.683395
58.745 5.560764
58.750 5.367471
58.755 5.504823
58.760 5.617634
58.765 5.305692
58.770 5.25746
58.775 5.502722
58.780 5.543324
58.785 5.633968
58.790 5.598607
58.795 5.524383
58.800 5.449411
58.805 5.423481
58.810 5.290707
58.815 5.471392
58.820 5.550865
58.825 5.57087
58.830 5.67974
58.835 6.30021
58.840 6.920441
58.845 6.829108
58.850 6.939925
58.855 7.48565
58.860 7.873338
58.865 7.939701
58.870 7.721887
58.875 7.518386
58.880 7.567226
58.885 7.615823
58.890 7.001658
58.895 6.572536
58.900 6.39135
58.905 6.020488
58.910 5.717424
58.915 5.686655
58.920 5.681405
58.925 5.575673
58.930 5.536964
58.935 5.585946
58.940 5.653891
58.945 5.785289
58.950 6.023237
58.955 5.928663
58.960 6.085936
58.965 6.138611
58.970 6.342209
58.975 6.550293
58.980 6.444768
58.985 6.755221
58.990 7.026945
58.995 7.025234
59.000 6.776803
59.005 6.958182
59.010 6.841868
59.015 6.556164
59.020 6.092164
59.025 5.928895
59.030 5.817441
59.035 5.832145
59.040 5.347757
59.045 5.629955
59.050 5.916893
59.055 5.677622
59.060 5.443527
59.065 5.567945
59.070 5.849307
59.075 5.879006
59.080 6.101459
59.085 6.077638
59.090 6.425819
59.095 6.474218
59.100 6.444185
59.105 6.483674
59.110 6.389344
59.115 6.094141
59.120 5.645722
59.125 5.326194
59.130 5.702295
59.135 5.664648
59.140 5.433035
59.145 5.447704
59.150 5.627627
59.155 5.934633
59.160 6.05679
59.165 5.801407
59.170 5.948792
59.175 5.91198
59.180 5.588249
59.185 5.449049
59.190 5.47969
59.195 5.35042
59.200 5.588311
59.205 5.221394
59.210 5.568828
59.215 6.214539
59.220 6.184214
59.225 6.382968
59.230 6.544682
59.235 6.616579
59.240 6.859241
59.245 6.857528
59.250 6.868708
59.255 6.996662
59.260 6.54156
59.265 6.029386
59.270 5.528641
59.275 5.488501
59.280 5.512724
59.285 5.244667
59.290 5.354443
59.295 5.40311
59.300 5.559809
59.305 6.005245
59.310 6.174666
59.315 6.023461
59.320 5.529668
59.325 5.469157
59.330 5.958792
59.335 5.879182
59.340 6.034604
59.345 5.671784
59.350 5.49371
59.355 6.192592
59.360 6.271138
59.365 6.470486
59.370 6.796538
59.375 6.354621
59.380 6.721573
59.385 7.016008
59.390 6.736542
59.395 6.231846
59.400 5.901621
59.405 5.86517
59.410 5.832555
59.415 5.525423
59.420 5.349365
59.425 5.471091
59.430 5.724411
59.435 5.621891
59.440 5.704982
59.445 5.769344
59.450 5.908534
59.455 5.871586
59.460 5.381794
59.465 5.458422
59.470 5.522092
59.475 5.655708
59.480 5.780185
59.485 5.738247
59.490 5.951634
59.495 6.96777
59.500 6.724408
59.505 6.322114
59.510 6.255345
59.515 6.132133
59.520 6.274957
59.525 6.14049
59.530 5.272912
59.535 5.404382
59.540 5.763942
59.545 5.778399
59.550 5.83746
59.555 5.614203
59.560 5.78394
59.565 5.941963
59.570 5.902607
59.575 5.479453
59.580 5.448701
59.585 5.468687
59.590 5.483404
59.595 5.467438
59.600 5.912426
59.605 6.098338
59.610 6.297028
59.615 6.215569
59.620 6.188611
59.625 6.041917
59.630 5.863005
59.635 5.376086
59.640 5.424931
59.645 5.582349
59.650 5.446959
59.655 5.58378
59.660 5.600239
59.665 5.696678
59.670 5.951548
59.675 5.898284
59.680 6.065008
59.685 6.424823
59.690 6.325547
59.695 6.638723
59.700 6.99963
59.705 6.96128
59.710 6.812189
59.715 6.41416
59.720 6.286974
59.725 6.253405
59.730 5.976626
59.735 5.22915
59.740 5.128404
59.745 5.321523
59.750 5.34525
59.755 5.25917
59.760 5.607383
59.765 5.903017
59.770 5.895681
59.775 5.983265
59.780 5.927967
59.785 5.997075
59.790 5.965116
59.795 5.624006
59.800 5.676616
59.805 6.296577
59.810 6.697243
59.815 6.678532
59.820 6.895998
59.825 6.880878
59.830 6.934408
59.835 6.77966
59.840 6.521907
59.845 6.165501
59.850 6.20875
59.855 6.11653
59.860 6.282504
59.865 6.20395
59.870 5.954109
59.875 5.721741
59.880 5.906672
59.885 5.981367
59.890 5.951959
59.895 5.678932
59.900 5.549872
59.905 5.856899
59.910 6.048679
59.915 5.64897
59.920 5.32084
59.925 5.186344
59.930 5.296905
59.935 5.355847
59.940 5.273476
59.945 5.217885
59.950 5.333951
59.955 5.675971
59.960 5.776325
59.965 6.057359
59.970 6.271567
59.975 6.112904
59.980 6.171693
59.985 6.114823
59.990 5.660712
59.995 5.520005
60.000 5.120751
60.005 4.971606
60.010 5.327085
60.015 5.741568
60.020 5.989786
60.025 6.432654
60.030 6.603422
60.035 6.442716
60.040 6.499456
60.045 6.421147
60.050 6.15115
60.055 6.077015
60.060 6.043545
60.065 6.150618
60.070 6.420208
60.075 6.173189
60.080 5.860044
60.085 5.973743
60.090 5.942793
60.095 6.078389
60.100 6.128407
60.105 6.473898
60.110 6.49923
60.115 6.68185
60.120 7.007829
60.125 7.05445
60.130 6.889546
60.135 7.041127
60.140 6.585742
60.145 6.706377
60.150 6.651099
60.155 6.087859
60.160 5.841928
60.165 5.729096
60.170 5.572715
60.175 5.745897
60.180 5.437565
60.185 5.23448
60.190 5.288665
60.195 5.46383
60.200 5.410218
60.205 5.457261
60.210 5.320324
60.215 5.570391
60.220 5.783312
60.225 5.891124
60.230 5.881791
60.235 6.055953
60.240 6.124568
60.245 6.231569
60.250 6.193428
60.255 5.860866
60.260 5.692568
60.265 5.676773
60.270 5.41792
60.275 5.413283
60.280 5.420153
60.285 5.449368
60.290 5.365729
60.295 5.692831
60.300 6.025824
60.305 6.102365
60.310 6.096141
60.315 6.278433
60.320 6.313541
60.325 6.162449
60.330 5.755778
60.335 5.397955
60.340 5.450859
60.345 5.434566
60.350 5.139877
60.355 5.213916
60.360 5.492723
60.365 5.653076
60.370 5.679385
60.375 5.367256
60.380 5.497445
60.385 5.469498
60.390 5.521283
60.395 5.493935
60.400 5.375959
60.405 5.9067
60.410 6.046007
60.415 5.871739
60.420 5.996633
60.425 5.73235
60.430 5.804038
60.435 5.893724
60.440 5.552798
60.445 5.704932
60.450 5.907722
60.455 5.968404
60.460 6.084016
60.465 5.89113
60.470 5.822588
60.475 6.1807
60.480 6.155003
60.485 6.150352
60.490 6.239281
60.495 6.37735
60.500 6.715048
60.505 6.684753
60.510 6.384295
60.515 6.249554
60.520 6.078862
60.525 6.191835
60.530 6.224131
60.535 6.084137
60.540 5.995996
60.545 5.746051
60.550 5.755102
60.555 5.674191
60.560 5.439079
60.565 4.96439
60.570 4.68208
60.575 4.650398
60.580 4.974765
60.585 5.278372
60.590 5.534279
60.595 5.887478
60.600 6.310554
60.605 6.665818
60.610 6.873092
60.615 6.84486
60.620 6.425591
60.625 6.26072
60.630 5.926248
60.635 6.028103
60.640 6.125584
60.645 5.916617
60.650 5.833282
60.655 5.883917
60.660 5.855338
60.665 5.899504
60.670 5.900791
60.675 5.892868
60.680 5.82839
60.685 5.869298
60.690 5.587358
60.695 5.711897
60.700 5.73228
60.705 5.560366
60.710 5.553844
60.715 5.700441
60.720 5.829284
60.725 6.193615
60.730 6.178637
60.735 6.279695
60.740 6.268174
60.745 6.395132
60.750 6.459847
60.755 6.68189
60.760 6.650581
60.765 6.574226
60.770 6.370258
60.775 6.203695
60.780 6.085711
60.785 5.954432
60.790 5.596735
60.795 5.622104
60.800 5.676081
60.805 5.888471
60.810 6.608818
60.815 6.493652
60.820 6.430267
60.825 6.574076
60.830 6.124671
60.835 5.944549
60.840 5.496741
60.845 4.943692
60.850 4.763888
60.855 4.968038
60.860 5.078799
60.865 5.358605
60.870 5.436615
60.875 5.502317
60.880 5.665738
60.885 6.102196
60.890 6.101787
60.895 6.088579
60.900 6.509356
60.905 6.570047
60.910 6.603601
60.915 6.535859
60.920 6.142646
60.925 5.875657
60.930 5.671551
60.935 5.388921
60.940 5.455049
60.945 5.570077
60.950 5.358205
60.955 5.24066
60.960 5.455745
60.965 5.658613
60.970 5.51708
60.975 5.489543
60.980 5.620557
60.985 6.127462
60.990 6.478264
60.995 6.600898
61.000 6.431396
61.005 6.484303
61.010 6.067489
61.015 5.696906
61.020 5.452022
61.025 5.327816
61.030 5.110929
61.035 5.306423
61.040 5.804353
61.045 6.071773
61.050 6.381654
61.055 6.215316
61.060 6.550098
61.065 6.747974
61.070 6.704987
61.075 6.403125
61.080 6.547335
61.085 6.500409
61.090 6.592729
61.095 6.187501
61.100 5.867313
61.105 5.671254
61.110 5.429946
61.115 5.471776
61.120 5.562662
61.125 5.547575
61.130 5.634319
61.135 5.8752
61.140 5.756015
61.145 5.822156
61.150 5.718132
61.155 5.684319
61.160 5.670491
61.165 5.529652
61.170 5.384572
61.175 5.671813
61.180 5.904326
61.185 5.676027
61.190 5.76253
61.195 5.922899
61.200 6.383489
61.205 6.610787
61.210 6.438152
61.215 6.404585
61.220 6.697692
61.225 6.603845
61.230 6.633486
61.235 6.188298
61.240 5.897099
61.245 5.912061
61.250 6.298452
61.255 6.5576
61.260 6.671567
61.265 6.494922
61.270 6.796826
61.275 7.17739
61.280 7.165646
61.285 6.677214
61.290 6.727965
61.295 6.652383
61.300 6.879124
61.305 6.855916
61.310 6.929392
61.315 7.108346
61.320 6.94035
61.325 6.553626
61.330 6.627884
61.335 6.443812
61.340 6.501432
61.345 6.464388
61.350 6.392307
61.355 6.698914
61.360 6.795567
61.365 6.649505
61.370 6.960608
61.375 6.837898
61.380 6.430925
61.385 6.338488
61.390 6.134427
61.395 6.310273
61.400 6.525443
61.405 6.370683
61.410 6.464979
61.415 6.910895
61.420 7.135883
61.425 7.152469
61.430 6.94636
61.435 6.780438
61.440 7.021267
61.445 6.767768
61.450 6.424175
61.455 6.115091
61.460 5.948102
61.465 5.83727
61.470 5.895957
61.475 6.238681
61.480 6.39726
61.485 6.514531
61.490 6.639871
61.495 7.0058
61.500 7.308301
61.505 7.017546
61.510 6.616038
61.515 6.699564
61.520 6.657169
61.525 6.721365
61.530 6.467288
61.535 6.445895
61.540 6.813791
61.545 6.908831
61.550 7.050208
61.555 7.189
61.560 7.291644
61.565 7.402113
61.570 7.462235
61.575 7.425752
61.580 7.035671
61.585 6.662607
61.590 6.797064
61.595 6.775623
61.600 6.744104
61.605 6.43547
61.610 6.205941
61.615 6.362144
61.620 6.416038
61.625 6.195475
61.630 5.820461
61.635 5.659035
61.640 5.758596
61.645 6.073374
61.650 6.468031
61.655 6.556696
61.660 6.740227
61.665 7.224896
61.670 7.234046
61.675 7.243655
61.680 7.112104
61.685 6.697729
61.690 6.592458
61.695 6.323883
61.700 6.139489
61.705 6.329817
61.710 6.342866
61.715 6.294694
61.720 6.672521
61.725 6.665536
61.730 6.712505
61.735 6.739574
61.740 6.404481
61.745 6.366684
61.750 6.247867
61.755 6.284544
61.760 6.618907
61.765 6.739594
61.770 6.692636
61.775 6.940049
61.780 6.972398
61.785 6.982224
61.790 6.723214
61.795 6.714231
61.800 6.568428
61.805 6.33045
61.810 6.01386
61.815 6.148644
61.820 6.385734
61.825 6.441793
61.830 6.278991
61.835 6.281077
61.840 6.667264
61.845 6.828864
61.850 6.593069
61.855 6.41222
61.860 6.436366
61.865 6.840774
61.870 6.859653
61.875 6.770716
61.880 7.141036
61.885 7.356946
61.890 7.958556
61.895 8.223977
61.900 7.892664
61.905 7.933504
61.910 8.259598
61.915 8.066313
61.920 7.801005
61.925 6.999177
61.930 6.696721
61.935 7.15323
61.940 7.256563
61.945 6.749315
61.950 6.74263
61.955 7.076048
61.960 7.211574
61.965 6.82711
61.970 6.479574
61.975 6.384288
61.980 6.306954
61.985 6.250577
61.990 5.946776
61.995 6.207412
62.000 6.558597
62.005 6.436882
62.010 6.557858
62.015 6.986752
62.020 7.149062
62.025 7.156511
62.030 7.129358
62.035 7.039865
62.040 7.135177
62.045 7.120497
62.050 6.862701
62.055 6.936517
62.060 7.03455
62.065 6.723046
62.070 6.4365
62.075 6.283245
62.080 5.852742
62.085 5.884224
62.090 5.598616
62.095 5.630824
62.100 5.671577
62.105 6.061692
62.110 6.16972
62.115 6.900326
62.120 7.247262
62.125 7.667601
62.130 7.65676
62.135 8.144646
62.140 7.840172
62.145 7.764066
62.150 7.405713
62.155 7.078702
62.160 7.026569
62.165 7.287813
62.170 7.330677
62.175 7.706313
62.180 7.871327
62.185 8.059361
62.190 7.806472
62.195 7.407541
62.200 7.058854
62.205 6.942604
62.210 6.748669
62.215 6.80825
62.220 6.711114
62.225 6.959861
62.230 7.03314
62.235 6.994172
62.240 6.807279
62.245 6.639014
62.250 6.673687
62.255 6.714409
62.260 6.676106
62.265 6.686477
62.270 6.439555
62.275 6.337075
62.280 6.238834
62.285 6.00161
62.290 5.919566
62.295 5.821324
62.300 5.819319
62.305 5.861575
62.310 5.877657
62.315 5.869312
62.320 6.035
62.325 6.044785
62.330 6.026606
62.335 5.997817
62.340 6.017984
62.345 6.164915
62.350 6.35159
62.355 6.189072
62.360 6.15266
62.365 6.208493
62.370 6.412169
62.375 6.579041
62.380 6.39829
62.385 6.139224
62.390 6.239171
62.395 6.408053
62.400 6.318799
62.405 6.111999
62.410 5.822354
62.415 5.778872
62.420 5.871463
62.425 5.64316
62.430 5.48903
62.435 5.516495
62.440 5.778511
62.445 6.42652
62.450 6.628545
62.455 6.621387
62.460 6.847435
62.465 6.902325
62.470 7.23903
62.475 7.470204
62.480 7.518821
62.485 7.86708
62.490 8.050431
62.495 7.974511
62.500 8.325087
62.505 8.372753
62.510 8.112677
62.515 7.967041
62.520 7.81423
62.525 7.561666
62.530 7.511724
62.535 7.238511
62.540 6.841262
62.545 6.860838
62.550 6.506216
62.555 6.324173
62.560 6.327635
62.565 6.142341
62.570 6.00638
62.575 5.753143
62.580 5.548341
62.585 5.739055
62.590 5.646832
62.595 5.704189
62.600 6.013135
62.605 6.347441
62.610 6.582666
62.615 6.67197
62.620 6.766226
62.625 6.85855
62.630 7.127886
62.635 7.048657
62.640 6.800031
62.645 7.20034
62.650 7.080278
62.655 7.522396
62.660 7.555452
62.665 7.22584
62.670 7.45472
62.675 7.605734
62.680 7.485536
62.685 7.622573
62.690 7.502141
62.695 7.852653
62.700 8.36727
62.705 8.4538
62.710 8.342
62.715 8.375148
62.720 8.420496
62.725 8.537916
62.730 8.522282
62.735 8.271466
62.740 8.19386
62.745 8.124017
62.750 8.088763
62.755 7.918985
62.760 7.396931
62.765 7.247956
62.770 7.304985
62.775 7.120096
62.780 7.024688
62.785 6.927157
62.790 6.871088
62.795 7.150221
62.800 7.162922
62.805 7.261187
62.810 7.546491
62.815 7.548584
62.820 7.667886
62.825 7.670059
62.830 7.390561
62.835 7.622144
62.840 7.54876
62.845 7.313783
62.850 7.287096
62.855 7.543468
62.860 8.116657
62.865 8.286629
62.870 7.965535
62.875 7.919466
62.880 7.917157
62.885 7.708977
62.890 7.611868
62.895 7.319894
62.900 7.25
62.905 6.896386
62.910 6.89928
62.915 7.234561
62.920 7.661054
62.925 7.406396
62.930 7.330969
62.935 7.237868
62.940 7.305218
62.945 7.076941
62.950 6.785997
62.955 6.464547
62.960 6.348321
62.965 6.286287
62.970 6.753342
62.975 7.286043
62.980 7.584781
62.985 7.618142
62.990 8.016076
62.995 8.174304
63.000 8.77445
63.005 8.592626
63.010 8.42061
63.015 8.270954
63.020 7.99802
63.025 7.826305
63.030 7.521898
63.035 6.497694
63.040 5.948629
63.045 5.140556
63.050 5.075415
63.055 5.096308
63.060 4.761822
63.065 4.897175
63.070 5.089799
63.075 5.32502
63.080 5.684678
63.085 5.590488
63.090 5.865264
63.095 5.93836
63.100 6.311091
63.105 6.411654
63.110 6.393674
63.115 6.648214
63.120 6.967321
63.125 7.042017
63.130 7.236159
63.135 7.044873
63.140 6.846942
63.145 7.033329
63.150 6.804569
63.155 6.583443
63.160 6.590887
63.165 6.234733
63.170 6.152705
63.175 6.286925
63.180 6.254536
63.185 6.154188
63.190 6.256663
63.195 6.136198
63.200 6.433047
63.205 6.463305
63.210 6.680568
63.215 6.720922
63.220 6.951833
63.225 6.792359
63.230 6.752166
63.235 6.541255
63.240 6.262384
63.245 5.971596
63.250 6.053361
63.255 5.896099
63.260 6.26574
63.265 6.56143
63.270 6.392801
63.275 6.934506
63.280 7.368591
63.285 7.741921
63.290 7.813865
63.295 8.051803
63.300 7.799476
63.305 7.995227
63.310 7.839165
63.315 7.610449
63.320 7.292266
63.325 7.19568
63.330 7.040761
63.335 7.169606
63.340 7.302234
63.345 7.242086
63.350 7.191786
63.355 7.338295
63.360 7.571384
63.365 7.321903
63.370 7.326638
63.375 7.025469
63.380 6.768892
63.385 6.889304
63.390 6.631488
63.395 6.179254
63.400 6.262158
63.405 6.302949
63.410 6.523765
63.415 6.427876
63.420 6.280468
63.425 6.430811
63.430 7.062477
63.435 7.072614
63.440 6.855322
63.445 7.111493
63.450 7.515077
63.455 7.75716
63.460 7.244891
63.465 6.637627
63.470 6.513232
63.475 6.690605
63.480 6.486764
63.485 6.344143
63.490 6.583064
63.495 6.782089
63.500 6.969326
63.505 6.872627
63.510 6.781834
63.515 6.687923
63.520 6.792622
63.525 6.325431
63.530 6.153267
63.535 5.969719
63.540 6.419601
63.545 6.293824
63.550 6.217072
63.555 5.952254
63.560 6.181741
63.565 6.477561
63.570 6.37795
63.575 6.17063
63.580 6.295127
63.585 6.134335
63.590 6.062696
63.595 6.279038
63.600 6.447218
63.605 6.424032
63.610 6.271555
63.615 6.340383
63.620 6.539958
63.625 6.358129
63.630 6.015398
63.635 5.922505
63.640 5.982645
63.645 5.99394
63.650 5.949007
63.655 5.757469
63.660 6.013081
63.665 6.047595
63.670 6.625337
63.675 6.869803
63.680 6.827089
63.685 6.98958
63.690 6.986632
63.695 6.686741
63.700 6.467247
63.705 5.946024
63.710 5.680144
63.715 5.824645
63.720 5.650133
63.725 5.864325
63.730 5.995092
63.735 6.165786
63.740 6.078512
63.745 6.608382
63.750 6.653154
63.755 6.664212
63.760 6.468714
63.765 6.500624
63.770 6.454381
63.775 6.615991
63.780 6.274906
63.785 6.171263
63.790 6.653343
63.795 6.974994
63.800 7.127746
63.805 7.172077
63.810 6.898042
63.815 6.651562
63.820 6.671157
63.825 6.401587
63.830 6.31996
63.835 6.362295
63.840 6.674124
63.845 6.911289
63.850 6.842352
63.855 6.74378
63.860 6.808035
63.865 6.812649
63.870 6.45725
63.875 6.181985
63.880 6.210243
63.885 6.551668
63.890 7.030978
63.895 7.308827
63.900 7.716894
63.905 7.797643
63.910 7.684386
63.915 7.531113
63.920 7.112265
63.925 6.379075
63.930 5.783602
63.935 5.442423
63.940 5.564116
63.945 5.914482
63.950 6.116827
63.955 6.470563
63.960 7.01273
63.965 7.606289
63.970 7.96042
63.975 7.792702
63.980 7.425907
63.985 7.122176
63.990 6.718827
63.995 6.365084
64.000 5.483105
64.005 5.133286
64.010 5.565461
64.015 5.777656
64.020 6.071763
64.025 6.451935
64.030 6.555989
64.035 6.893334
64.040 6.755287
64.045 6.29721
64.050 6.573236
64.055 6.79482
64.060 6.709348
64.065 6.598158
64.070 6.659462
64.075 6.833559
64.080 6.696327
64.085 6.284763
64.090 6.166139
64.095 6.237261
64.100 6.194681
64.105 6.299498
64.110 6.478419
64.115 6.769544
64.120 6.788968
64.125 6.672019
64.130 6.78654
64.135 7.091746
64.140 7.191424
64.145 7.137752
64.150 6.880971
64.155 6.739309
64.160 6.740023
64.165 6.510252
64.170 6.121603
64.175 5.650143
64.180 5.379234
64.185 5.346519
64.190 5.537992
64.195 5.339397
64.200 5.335077
64.205 5.628584
64.210 5.984848
64.215 5.903705
64.220 6.07886
64.225 6.264387
64.230 6.417637
64.235 6.61993
64.240 6.835948
64.245 6.802492
64.250 7.21217
64.255 7.414888
64.260 7.186953
64.265 7.109127
64.270 7.225489
64.275 7.090376
64.280 6.873716
64.285 6.735335
64.290 6.766317
64.295 6.802345
64.300 6.951786
64.305 6.671547
64.310 6.921896
64.315 7.212264
64.320 6.763759
64.325 6.432172
64.330 6.678125
64.335 6.382466
64.340 6.283807
64.345 5.916857
64.350 5.83803
64.355 6.215384
64.360 6.516136
64.365 6.628045
64.370 7.062731
64.375 7.281027
64.380 7.340447
64.385 7.364868
64.390 7.065605
64.395 6.704084
64.400 6.689876
64.405 6.266306
64.410 6.531209
64.415 6.52792
64.420 6.542634
64.425 6.695487
64.430 6.492846
64.435 6.426212
64.440 6.828575
64.445 6.760274
64.450 6.632294
64.455 6.557154
64.460 6.643395
64.465 7.30748
64.470 7.124852
64.475 6.804567
64.480 6.638239
64.485 6.399333
64.490 6.404793
64.495 6.5112
64.500 5.957103
64.505 5.981718
64.510 6.009362
64.515 6.285453
64.520 6.669504
64.525 6.391716
64.530 6.437346
64.535 6.823629
64.540 6.653598
64.545 6.595154
64.550 6.625408
64.555 6.689292
64.560 7.002625
64.565 6.379113
64.570 5.966179
64.575 6.482057
64.580 6.690998
64.585 6.76617
64.590 6.937613
64.595 7.094673
64.600 7.844018
64.605 8.031967
64.610 7.856868
64.615 7.527499
64.620 7.197139
64.625 7.001539
64.630 7.135304
64.635 6.61522
64.640 6.296506
64.645 6.025246
64.650 6.0069
64.655 6.126353
64.660 6.054057
64.665 5.877009
64.670 6.157757
64.675 6.590663
64.680 6.794521
64.685 6.917161
64.690 6.851003
64.695 6.491521
64.700 6.718492
64.705 6.899963
64.710 7.278295
64.715 7.05613
64.720 6.853784
64.725 7.206448
64.730 7.533311
64.735 7.402954
64.740 7.145209
64.745 6.774464
64.750 6.641533
64.755 6.975307
64.760 7.07389
64.765 7.376815
64.770 7.131752
64.775 6.974495
64.780 7.099516
64.785 7.285201
64.790 6.997448
64.795 6.732624
64.800 6.502172
64.805 6.526691
64.810 6.481229
64.815 6.737424
64.820 7.050494
64.825 6.890431
64.830 6.843936
64.835 6.982919
64.840 7.481817
64.845 7.465872
64.850 7.416347
64.855 7.261542
64.860 7.54334
64.865 7.967387
64.870 8.127371
64.875 8.257235
64.880 8.677089
64.885 8.769107
64.890 8.925257
64.895 8.797497
64.900 8.548588
64.905 8.123254
64.910 7.643735
64.915 7.177973
64.920 7.337649
64.925 7.382177
64.930 7.362995
64.935 7.368144
64.940 7.637114
64.945 7.712949
64.950 7.980396
64.955 7.813774
64.960 7.630328
64.965 7.554161
64.970 7.583151
64.975 7.403859
64.980 7.520033
64.985 7.278597
64.990 7.012521
64.995 7.238443
65.000 7.435895
65.005 7.359399
65.010 7.654449
65.015 7.470899
65.020 7.988752
65.025 8.600224
65.030 8.91242
65.035 9.157825
65.040 9.16499
65.045 8.781306
65.050 8.805317
65.055 8.273505
65.060 7.404833
65.065 6.987307
65.070 6.394042
65.075 6.865948
65.080 7.362422
65.085 7.22945
65.090 7.28095
65.095 7.327596
65.100 7.189188
65.105 7.622473
65.110 7.327544
65.115 7.285794
65.120 7.242721
65.125 6.973885
65.130 7.175801
65.135 7.698943
65.140 7.514207
65.145 7.246017
65.150 7.197721
65.155 7.324262
65.160 7.691796
65.165 7.420859
65.170 7.13507
65.175 7.038498
65.180 7.112062
65.185 7.198606
65.190 7.378304
65.195 7.233037
65.200 7.117277
65.205 6.952779
65.210 6.977221
65.215 6.887554
65.220 6.810453
65.225 7.013509
65.230 6.77163
65.235 7.047405
65.240 6.919063
65.245 7.312262
65.250 7.516266
65.255 7.537774
65.260 7.486718
65.265 7.71817
65.270 7.536654
65.275 7.666337
65.280 7.539996
65.285 7.295546
65.290 7.240074
65.295 7.53847
65.300 7.901644
65.305 8.133921
65.310 8.340462
65.315 8.500203
65.320 8.529768
65.325 8.22694
65.330 7.744999
65.335 7.523322
65.340 7.578836
65.345 7.708823
65.350 7.666429
65.355 7.792773
65.360 8.092158
65.365 8.210913
65.370 8.125599
65.375 7.85678
65.380 7.468085
65.385 7.119651
65.390 6.671326
65.395 6.537806
65.400 6.130202
65.405 6.386143
65.410 6.599773
65.415 6.356601
65.420 6.549927
65.425 6.652251
65.430 6.522743
65.435 6.55964
65.440 6.377617
65.445 6.438813
65.450 6.394615
65.455 6.36398
65.460 7.045435
65.465 7.08328
65.470 7.23303
65.475 6.995001
65.480 6.828328
65.485 6.874279
65.490 6.832491
65.495 6.47959
65.500 6.541226
65.505 6.266478
65.510 6.566509
65.515 6.749332
65.520 7.123709
65.525 7.156394
65.530 7.10099
65.535 7.297333
65.540 7.687407
65.545 7.247548
65.550 7.05422
65.555 6.541601
65.560 6.597198
65.565 6.632473
65.570 6.493813
65.575 6.576733
65.580 6.794677
65.585 7.033452
65.590 7.170946
65.595 6.881431
65.600 6.694213
65.605 6.692823
65.610 6.596423
65.615 6.264176
65.620 6.19975
65.625 6.481949
65.630 6.764455
65.635 6.955833
65.640 7.110012
65.645 7.124079
65.650 7.83666
65.655 7.719704
65.660 7.601769
65.665 7.686204
65.670 7.871997
65.675 7.671464
65.680 7.719545
65.685 7.367443
65.690 7.422368
65.695 7.431649
65.700 7.320315
65.705 7.266471
65.710 6.967998
65.715 6.7813
65.720 6.934803
65.725 7.105831
65.730 7.298411
65.735 7.246201
65.740 7.48845
65.745 7.951704
65.750 8.103812
65.755 8.269533
65.760 8.051127
65.765 7.981313
65.770 8.115155
65.775 7.638236
65.780 7.238807
65.785 7.283906
65.790 7.160798
65.795 7.160466
65.800 6.826837
65.805 6.678936
65.810 6.669825
65.815 6.738518
65.820 6.364532
65.825 6.292799
65.830 6.49052
65.835 6.565475
65.840 6.630694
65.845 6.717333
65.850 6.976524
65.855 6.940586
65.860 6.714655
65.865 6.434335
65.870 6.346946
65.875 6.323291
65.880 6.230384
65.885 6.108512
65.890 6.506763
65.895 6.651738
65.900 6.659965
65.905 6.810472
65.910 7.22675
65.915 7.412303
65.920 7.334667
65.925 6.90399
65.930 6.572706
65.935 6.90753
65.940 6.970379
65.945 6.774695
65.950 6.839027
65.955 7.030697
65.960 7.508153
65.965 8.135445
65.970 8.173365
65.975 8.088134
65.980 7.880192
65.985 7.759527
65.990 7.669658
65.995 7.277278
66.000 6.678107
66.005 6.363634
66.010 6.041671
66.015 5.885905
66.020 6.095973
66.025 6.173498
66.030 6.513763
66.035 6.855314
66.040 7.012708
66.045 7.149574
66.050 7.211715
66.055 6.719748
66.060 6.540169
66.065 6.789348
66.070 6.939168
66.075 7.073949
66.080 7.273548
66.085 7.42113
66.090 7.8394
66.095 8.008173
66.100 7.48974
66.105 7.012784
66.110 6.800935
66.115 6.581419
66.120 6.588986
66.125 6.414196
66.130 6.470937
66.135 6.840399
66.140 6.93955
66.145 7.040785
66.150 7.263163
66.155 7.364528
66.160 7.392247
66.165 7.382954
66.170 7.242155
66.175 7.364884
66.180 7.205043
66.185 7.126257
66.190 6.876141
66.195 6.697579
66.200 6.243396
66.205 6.361092
66.210 6.660559
66.215 6.934564
66.220 6.95621
66.225 6.841304
66.230 6.998651
66.235 7.275964
66.240 6.9757
66.245 6.602709
66.250 6.276892
66.255 6.21687
66.260 6.163923
66.265 6.542688
66.270 6.799009
66.275 7.325767
66.280 7.217513
66.285 6.999459
66.290 7.071177
66.295 7.223655
66.300 6.669514
66.305 6.665429
66.310 6.261375
66.315 6.598855
66.320 6.846133
66.325 7.037375
66.330 6.888556
66.335 6.722732
66.340 6.404314
66.345 6.775066
66.350 6.815833
66.355 6.681615
66.360 6.471236
66.365 6.662568
66.370 7.014244
66.375 7.173616
66.380 7.275684
66.385 7.651147
66.390 7.884771
66.395 8.313518
66.400 8.216182
66.405 7.755097
66.410 7.723268
66.415 7.227914
66.420 6.720123
66.425 6.510063
66.430 6.345204
66.435 6.274144
66.440 6.543823
66.445 6.522057
66.450 6.567557
66.455 6.77352
66.460 6.91046
66.465 7.0233
66.470 7.490819
66.475 7.379055
66.480 7.20748
66.485 7.227192
66.490 7.094015
66.495 7.119236
66.500 6.853118
66.505 6.524599
66.510 6.708849
66.515 7.104187
66.520 7.154552
66.525 7.045404
66.530 6.643944
66.535 6.635986
66.540 6.838783
66.545 6.74574
66.550 6.236381
66.555 6.149969
66.560 6.452947
66.565 7.027901
66.570 7.231493
66.575 6.941052
66.580 6.732768
66.585 7.152839
66.590 6.984946
66.595 7.065009
66.600 6.728323
66.605 6.475376
66.610 6.534175
66.615 6.346982
66.620 6.34275
66.625 6.402609
66.630 6.436745
66.635 6.330483
66.640 6.238174
66.645 6.08303
66.650 6.129671
66.655 6.227818
66.660 6.425271
66.665 6.211849
66.670 6.488004
66.675 6.786699
66.680 7.197124
66.685 7.345002
66.690 6.86421
66.695 6.406146
66.700 6.182148
66.705 6.16069
66.710 6.214391
66.715 6.22296
66.720 6.421235
66.725 6.60571
66.730 6.829554
66.735 6.979799
66.740 6.697409
66.745 6.444738
66.750 6.278871
66.755 6.406682
66.760 6.267019
66.765 6.18109
66.770 6.04593
66.775 6.114173
66.780 5.952458
66.785 5.765887
66.790 6.009094
66.795 6.366735
66.800 6.719766
66.805 6.726364
66.810 6.720486
66.815 6.942146
66.820 7.092427
66.825 6.746604
66.830 6.40772
66.835 6.160162
66.840 6.33814
66.845 6.575994
66.850 6.544077
66.855 6.262674
66.860 6.477456
66.865 6.755026
66.870 6.645012
66.875 6.644062
66.880 6.53916
66.885 6.602728
66.890 6.698242
66.895 6.449696
66.900 6.560754
66.905 6.993668
66.910 7.379484
66.915 7.879498
66.920 7.955601
66.925 8.278344
66.930 8.78885
66.935 8.688774
66.940 8.472643
66.945 7.976824
66.950 7.758048
66.955 7.92938
66.960 8.090827
66.965 7.498027
66.970 7.471789
66.975 7.659807
66.980 7.677174
66.985 7.373556
66.990 7.204811
66.995 6.904456
67.000 6.921767
67.005 6.821081
67.010 6.796369
67.015 6.662107
67.020 6.746925
67.025 6.51678
67.030 6.516512
67.035 6.503207
67.040 6.722059
67.045 6.550508
67.050 6.537695
67.055 6.7368
67.060 7.092258
67.065 6.992762
67.070 7.044698
67.075 6.641434
67.080 6.670785
67.085 6.586708
67.090 6.48645
67.095 6.634872
67.100 6.847907
67.105 7.133878
67.110 7.521998
67.115 7.667081
67.120 8.071832
67.125 8.164974
67.130 7.645478
67.135 7.300943
67.140 6.987669
67.145 6.440926
67.150 6.266243
67.155 6.084831
67.160 6.034925
67.165 6.225256
67.170 6.498347
67.175 6.708198
67.180 7.230531
67.185 7.605877
67.190 7.777919
67.195 7.718377
67.200 7.485842
67.205 7.872328
67.210 7.744397
67.215 7.337344
67.220 7.464979
67.225 7.352137
67.230 7.760025
67.235 8.00731
67.240 7.530607
67.245 7.75176
67.250 8.190044
67.255 7.986597
67.260 7.723548
67.265 7.346842
67.270 7.632601
67.275 8.040605
67.280 8.230597
67.285 8.080116
67.290 8.155742
67.295 8.355752
67.300 8.756791
67.305 8.563333
67.310 8.227427
67.315 7.9701
67.320 7.508873
67.325 7.00275
67.330 7.077268
67.335 6.940536
67.340 7.123472
67.345 7.152483
67.350 7.062983
67.355 7.331848
67.360 7.652511
67.365 7.515929
67.370 7.332975
67.375 7.077931
67.380 7.12853
67.385 7.340246
67.390 7.460047
67.395 7.507559
67.400 7.578349
67.405 7.798789
67.410 8.209019
67.415 7.924518
67.420 7.709124
67.425 7.763085
67.430 7.907937
67.435 7.638202
67.440 7.515292
67.445 7.617733
67.450 8.198411
67.455 8.351785
67.460 8.118162
67.465 7.959552
67.470 7.717017
67.475 7.519082
67.480 7.494372
67.485 7.436979
67.490 7.618455
67.495 7.63989
67.500 7.899023
67.505 8.242432
67.510 8.253272
67.515 7.922501
67.520 8.030144
67.525 8.083255
67.530 7.98328
67.535 8.112259
67.540 8.131445
67.545 8.035886
67.550 7.927962
67.555 7.645236
67.560 7.625971
67.565 7.634275
67.570 7.539987
67.575 7.338728
67.580 7.47086
67.585 7.642951
67.590 7.644113
67.595 7.798395
67.600 8.053554
67.605 8.002629
67.610 8.137826
67.615 8.451691
67.620 8.320101
67.625 8.346853
67.630 8.103496
67.635 7.603131
67.640 7.551564
67.645 7.370505
67.650 6.957032
67.655 6.930465
67.660 6.702519
67.665 6.811454
67.670 7.162428
67.675 7.313976
67.680 7.268321
67.685 7.263848
67.690 7.123717
67.695 7.237325
67.700 6.979773
67.705 6.884133
67.710 6.944641
67.715 7.058735
67.720 7.038458
67.725 7.140904
67.730 6.755972
67.735 6.789814
67.740 6.827778
67.745 6.665249
67.750 6.553474
67.755 6.516172
67.760 6.627535
67.765 7.092894
67.770 7.121986
67.775 7.299852
67.780 7.500197
67.785 7.848935
67.790 8.318434
67.795 8.680272
67.800 8.525984
67.805 8.722878
67.810 8.922455
67.815 8.882028
67.820 8.491088
67.825 8.377512
67.830 8.12991
67.835 8.005506
67.840 7.739993
67.845 7.489842
67.850 7.349797
67.855 7.797808
67.860 7.55112
67.865 7.50667
67.870 7.616481
67.875 7.628509
67.880 7.636864
67.885 7.794974
67.890 7.420963
67.895 7.721767
67.900 8.004585
67.905 8.138483
67.910 7.809746
67.915 7.672632
67.920 7.633996
67.925 7.806258
67.930 7.817801
67.935 7.913507
67.940 8.070381
67.945 8.440309
67.950 8.473473
67.955 8.171894
67.960 8.333203
67.965 8.026679
67.970 8.001518
67.975 8.127864
67.980 8.326308
67.985 8.446987
67.990 8.850163
67.995 8.597593
68.000 8.687302
68.005 8.644324
68.010 8.799249
68.015 8.548245
68.020 8.460947
68.025 8.175798
68.030 7.926227
68.035 7.551407
68.040 7.137322
68.045 6.784679
68.050 6.766514
68.055 6.933989
68.060 7.0767
68.065 7.447354
68.070 7.944335
68.075 8.186451
68.080 8.233449
68.085 8.130671
68.090 7.821549
68.095 7.914503
68.100 7.929056
68.105 7.723838
68.110 7.71755
68.115 7.844444
68.120 7.683875
68.125 7.693626
68.130 7.543159
68.135 7.276518
68.140 7.783365
68.145 7.841667
68.150 7.827856
68.155 7.7978
68.160 7.764153
68.165 8.067306
68.170 8.167015
68.175 7.783398
68.180 7.900979
68.185 8.234044
68.190 8.476928
68.195 8.293447
68.200 7.916166
68.205 7.711735
68.210 7.497253
68.215 6.978523
68.220 6.877743
68.225 6.743942
68.230 6.705966
68.235 6.611475
68.240 6.897856
68.245 6.944869
68.250 7.010298
68.255 6.817651
68.260 6.892998
68.265 6.978607
68.270 7.099813
68.275 6.898976
68.280 6.887748
68.285 6.719718
68.290 6.705094
68.295 6.665459
68.300 6.677106
68.305 6.807055
68.310 7.060629
68.315 7.434352
68.320 7.451836
68.325 7.580489
68.330 7.385361
68.335 7.193616
68.340 7.132504
68.345 6.901309
68.350 6.477645
68.355 6.843883
68.360 6.940674
68.365 7.259342
68.370 7.810911
68.375 7.680305
68.380 7.365854
68.385 7.423828
68.390 6.962575
68.395 6.958888
68.400 6.822922
68.405 6.698128
68.410 6.612621
68.415 6.982265
68.420 6.969109
68.425 7.041397
68.430 7.198364
68.435 7.112442
68.440 7.009408
68.445 6.906864
68.450 7.046233
68.455 6.858311
68.460 6.411148
68.465 6.111096
68.470 5.953097
68.475 5.669689
68.480 5.573565
68.485 5.236443
68.490 5.453896
68.495 5.995301
68.500 6.013704
68.505 6.145918
68.510 6.333243
68.515 6.693678
68.520 6.997921
68.525 6.844212
68.530 6.734277
68.535 6.746069
68.540 6.845632
68.545 6.999772
68.550 6.952031
68.555 7.180715
68.560 7.578994
68.565 7.59742
68.570 7.713581
68.575 7.699684
68.580 7.558525
68.585 7.60434
68.590 7.239593
68.595 6.86187
68.600 6.587441
68.605 6.870883
68.610 6.959684
68.615 7.019867
68.620 6.831634
68.625 7.063719
68.630 7.222783
68.635 7.25624
68.640 6.986727
68.645 6.587991
68.650 6.461783
68.655 6.51982
68.660 6.701682
68.665 6.847379
68.670 7.04842
68.675 6.996426
68.680 6.949631
68.685 7.113325
68.690 7.467261
68.695 7.493183
68.700 7.39638
68.705 7.515115
68.710 7.621509
68.715 7.822736
68.720 7.654049
68.725 7.281853
68.730 7.172419
68.735 7.367114
68.740 7.103458
68.745 7.149211
68.750 6.835217
68.755 7.020602
68.760 7.06986
68.765 6.710756
68.770 6.910708
68.775 6.918961
68.780 7.144366
68.785 7.514437
68.790 7.448359
68.795 7.813982
68.800 8.051387
68.805 7.986113
68.810 7.966819
68.815 7.8534
68.820 7.951915
68.825 7.977509
68.830 7.984258
68.835 7.798223
68.840 7.591663
68.845 7.565831
68.850 7.434814
68.855 7.272551
68.860 7.070427
68.865 6.954017
68.870 6.979925
68.875 6.796441
68.880 6.471767
68.885 6.321609
68.890 6.112195
68.895 6.124953
68.900 6.15082
68.905 6.317033
68.910 6.638187
68.915 6.978382
68.920 7.27052
68.925 7.69187
68.930 7.523906
68.935 7.215497
68.940 6.814715
68.945 6.648094
68.950 6.838929
68.955 6.590226
68.960 6.597064
68.965 6.998549
68.970 7.298977
68.975 7.84039
68.980 7.794291
68.985 7.804261
68.990 7.810592
68.995 7.534726
69.000 7.635383
69.005 8.051239
69.010 8.123866
69.015 8.335345
69.020 8.387654
69.025 8.385802
69.030 8.569928
69.035 8.375569
69.040 8.04184
69.045 7.77038
69.050 7.764184
69.055 7.825284
69.060 7.807866
69.065 7.610734
69.070 7.567089
69.075 7.839633
69.080 8.146702
69.085 8.319704
69.090 8.260569
69.095 8.547959
69.100 9.202625
69.105 9.202744
69.110 9.072314
69.115 8.954429
69.120 9.078586
69.125 8.923303
69.130 8.59602
69.135 8.166303
69.140 8.112167
69.145 7.907277
69.150 7.38812
69.155 7.58167
69.160 7.796307
69.165 7.735331
69.170 7.497019
69.175 7.375631
69.180 7.761947
69.185 8.063096
69.190 7.679919
69.195 7.535686
69.200 7.669484
69.205 7.631279
69.210 7.383787
69.215 7.281444
69.220 7.315285
69.225 7.217986
69.230 7.133854
69.235 7.181772
69.240 7.279401
69.245 7.268467
69.250 7.166389
69.255 7.065404
69.260 7.033277
69.265 6.789805
69.270 6.539372
69.275 6.49824
69.280 6.534711
69.285 6.594088
69.290 6.565823
69.295 6.972105
69.300 7.243939
69.305 7.335278
69.310 7.413456
69.315 7.603063
69.320 7.849677
69.325 8.081121
69.330 7.70737
69.335 7.839432
69.340 7.859113
69.345 8.174193
69.350 8.356554
69.355 8.3222
69.360 8.206125
69.365 8.098582
69.370 7.880077
69.375 7.826892
69.380 7.169148
69.385 6.631433
69.390 6.43868
69.395 6.639608
69.400 6.924883
69.405 7.017293
69.410 7.155664
69.415 7.571661
69.420 7.876881
69.425 7.788511
69.430 7.649136
69.435 7.788865
69.440 7.832311
69.445 7.949177
69.450 7.591661
69.455 7.347793
69.460 7.339883
69.465 7.06518
69.470 6.819163
69.475 6.785374
69.480 6.380864
69.485 6.336678
69.490 6.516256
69.495 6.988692
69.500 7.112029
69.505 6.799766
69.510 6.918888
69.515 7.52167
69.520 7.854362
69.525 7.508499
69.530 6.905256
69.535 7.018459
69.540 7.500431
69.545 7.341605
69.550 7.161766
69.555 7.10767
69.560 7.371351
69.565 7.665516
69.570 7.995454
69.575 7.869364
69.580 7.569291
69.585 7.377505
69.590 7.350874
69.595 7.072496
69.600 6.670272
69.605 6.541178
69.610 7.001122
69.615 7.394777
69.620 7.131914
69.625 6.939813
69.630 7.122297
69.635 7.614477
69.640 7.522256
69.645 7.259204
69.650 7.123282
69.655 7.339088
69.660 7.5249
69.665 7.400077
69.670 7.031913
69.675 6.982607
69.680 6.887643
69.685 6.937584
69.690 7.052123
69.695 7.132264
69.700 7.394269
69.705 7.687719
69.710 7.498457
69.715 7.563106
69.720 7.641253
69.725 7.514277
69.730 7.447225
69.735 7.078407
69.740 7.129725
69.745 7.056166
69.750 6.811777
69.755 6.736263
69.760 7.18688
69.765 7.423058
69.770 7.445117
69.775 7.00423
69.780 7.379601
69.785 7.716902
69.790 7.440525
69.795 7.172348
69.800 6.883362
69.805 6.806687
69.810 6.797908
69.815 6.725739
69.820 6.404475
69.825 6.18541
69.830 6.332659
69.835 6.693614
69.840 6.662903
69.845 6.715442
69.850 6.861572
69.855 7.540896
69.860 7.673647
69.865 7.698898
69.870 7.258109
69.875 7.442957
69.880 7.460149
69.885 7.349436
69.890 7.12992
69.895 7.378361
69.900 7.676952
69.905 8.587726
69.910 8.539051
69.915 8.441451
69.920 7.963974
69.925 8.038962
69.930 8.324573
69.935 8.317898
69.940 8.058306
69.945 7.984563
69.950 8.066319
69.955 8.545495
69.960 8.394892
69.965 7.68988
69.970 6.944352
69.975 6.87146
69.980 6.917736
69.985 6.608821
69.990 6.78612
69.995 6.945038
70.000 7.302144
70.005 7.394283
70.010 7.67004
70.015 8.048006
70.020 8.320056
70.025 7.997565
70.030 8.065357
70.035 8.294503
70.040 8.417408
70.045 7.834823
70.050 7.937538
70.055 7.861539
70.060 7.907604
70.065 8.040086
70.070 8.033407
70.075 8.112215
70.080 8.299501
70.085 8.144547
70.090 8.292849
70.095 8.222985
70.100 7.912977
70.105 7.595527
70.110 7.223297
70.115 7.495506
70.120 7.462415
70.125 7.30631
70.130 7.400757
70.135 7.733131
70.140 8.065251
70.145 8.36752
70.150 8.257658
70.155 8.284703
70.160 8.195499
70.165 8.030468
70.170 7.110191
70.175 6.962814
70.180 6.720623
70.185 6.499436
70.190 6.534721
70.195 6.750654
70.200 7.038621
70.205 7.21497
70.210 7.636063
70.215 7.931028
70.220 7.994806
70.225 7.989213
70.230 7.974277
70.235 8.331058
70.240 8.605341
70.245 8.77382
70.250 8.996368
70.255 9.310743
70.260 9.737408
70.265 9.614423
70.270 9.291722
70.275 9.299577
70.280 8.727571
70.285 8.526277
70.290 8.280705
70.295 8.286415
70.300 8.570551
70.305 8.853179
70.310 9.025649
70.315 8.821429
70.320 8.673545
70.325 8.720249
70.330 8.642525
70.335 8.533623
70.340 8.453094
70.345 8.297481
70.350 8.377563
70.355 8.425716
70.360 8.101919
70.365 7.910897
70.370 8.104436
70.375 8.484898
70.380 8.425075
70.385 8.051417
70.390 8.232205
70.395 8.319435
70.400 8.633808
70.405 8.689481
70.410 8.064996
70.415 7.98011
70.420 8.379208
70.425 8.355913
70.430 7.866623
70.435 7.462106
70.440 7.537209
70.445 7.917644
70.450 7.958812
70.455 8.38574
70.460 8.392251
70.465 8.691109
70.470 8.410175
70.475 8.597725
70.480 8.915597
70.485 8.943166
70.490 8.540884
70.495 8.660171
70.500 8.741075
70.505 8.849239
70.510 8.530234
70.515 8.629942
70.520 8.411025
70.525 8.438017
70.530 8.114911
70.535 8.349565
70.540 8.213491
70.545 8.000314
70.550 7.832631
70.555 8.203184
70.560 8.205426
70.565 8.415496
70.570 8.454021
70.575 8.637596
70.580 8.291134
70.585 8.04878
70.590 8.172403
70.595 7.949743
70.600 7.713188
70.605 7.79533
70.610 7.860171
70.615 7.858062
70.620 7.732655
70.625 7.442219
70.630 7.643652
70.635 7.482787
70.640 6.961432
70.645 7.22721
70.650 7.848828
70.655 8.001536
70.660 8.374389
70.665 8.374736
70.670 8.577963
70.675 8.94108
70.680 8.484256
70.685 8.102251
70.690 7.765513
70.695 7.966416
70.700 8.533288
70.705 8.512847
70.710 8.472652
70.715 8.787097
70.720 8.880193
70.725 8.963717
70.730 8.501572
70.735 7.845395
70.740 7.8755
70.745 7.618899
70.750 7.459157
70.755 7.459832
70.760 7.363375
70.765 7.444829
70.770 7.559257
70.775 7.172976
70.780 6.983815
70.785 6.967988
70.790 6.999007
70.795 6.817722
70.800 6.920331
70.805 6.917832
70.810 7.47503
70.815 7.508613
70.820 7.595894
70.825 7.79102
70.830 8.137849
70.835 7.789596
70.840 7.905921
70.845 7.90612
70.850 8.079417
70.855 7.977847
70.860 7.797367
70.865 7.939469
70.870 8.040257
70.875 7.761415
70.880 7.428019
70.885 7.667071
70.890 7.421856
70.895 7.376184
70.900 7.166868
70.905 7.207095
70.910 7.143957
70.915 6.8272
70.920 6.729806
70.925 7.214187
70.930 7.270939
70.935 7.297707
70.940 7.397664
70.945 7.365361
70.950 7.318059
70.955 7.147432
70.960 7.153738
70.965 6.911807
70.970 6.964749
70.975 7.303967
70.980 7.563784
70.985 7.634513
70.990 7.185154
70.995 6.972241
71.000 7.076035
71.005 6.801227
71.010 6.548013
71.015 6.751961
71.020 6.836148
71.025 6.907161
71.030 7.274713
71.035 7.572734
71.040 7.740452
71.045 7.685844
71.050 7.532061
71.055 7.746325
71.060 7.691439
71.065 7.35223
71.070 6.910024
71.075 6.874954
71.080 7.185975
71.085 7.131471
71.090 7.536032
71.095 7.420119
71.100 7.299297
71.105 7.329069
71.110 6.959577
71.115 6.818248
71.120 6.77174
71.125 6.209215
71.130 6.250416
71.135 6.419776
71.140 6.955276
71.145 7.403944
71.150 7.30856
71.155 7.155102
71.160 7.350852
71.165 7.368382
71.170 7.293817
71.175 7.03219
71.180 6.51145
71.185 6.753926
71.190 6.937099
71.195 7.222449
71.200 7.670088
71.205 7.919287
71.210 8.232994
71.215 8.463671
71.220 8.077312
71.225 7.928879
71.230 8.120706
71.235 7.635817
71.240 7.213793
71.245 7.025155
71.250 6.832526
71.255 6.990082
71.260 6.568412
71.265 6.217437
71.270 6.4012
71.275 6.576825
71.280 6.820223
71.285 7.438708
71.290 7.482189
71.295 8.057826
71.300 8.168612
71.305 8.138283
71.310 8.007789
71.315 7.790404
71.320 7.796855
71.325 7.526781
71.330 7.579153
71.335 7.575957
71.340 7.542063
71.345 7.727973
71.350 7.765177
71.355 7.983263
71.360 8.295459
71.365 7.8519
71.370 7.419367
71.375 7.587884
71.380 7.100295
71.385 6.852049
71.390 6.78127
71.395 6.196944
71.400 6.184338
71.405 6.235558
71.410 6.455082
71.415 6.445909
71.420 6.412852
71.425 6.296413
71.430 6.657686
71.435 6.981649
71.440 6.889695
71.445 6.552957
71.450 6.680764
71.455 6.933789
71.460 7.155145
71.465 7.184673
71.470 6.979485
71.475 6.92071
71.480 7.278663
71.485 7.139952
71.490 7.111653
71.495 6.939388
71.500 6.725467
71.505 6.814562
71.510 7.008085
71.515 7.260139
71.520 7.604819
71.525 7.620795
71.530 8.021247
71.535 8.097145
71.540 8.128432
71.545 8.525676
71.550 8.596574
71.555 8.356303
71.560 8.215876
71.565 8.257751
71.570 8.262319
71.575 8.008984
71.580 7.253745
71.585 7.11968
71.590 7.120002
71.595 6.992978
71.600 7.283061
71.605 7.134019
71.610 7.355259
71.615 7.635067
71.620 7.709902
71.625 8.379575
71.630 8.393086
71.635 8.106501
71.640 8.585878
71.645 8.656628
71.650 8.315634
71.655 7.827948
71.660 7.347087
71.665 7.615628
71.670 7.683876
71.675 7.412336
71.680 7.130621
71.685 7.117713
71.690 7.279056
71.695 7.10104
71.700 6.916388
71.705 7.05103
71.710 7.257348
71.715 7.301727
71.720 7.389709
71.725 7.359508
71.730 7.290417
71.735 7.243639
71.740 7.347117
71.745 7.519976
71.750 7.40594
71.755 7.097775
71.760 7.303078
71.765 7.316372
71.770 6.903266
71.775 6.136292
71.780 5.812289
71.785 5.960773
71.790 6.108538
71.795 5.954775
71.800 6.180357
71.805 6.476544
71.810 6.707578
71.815 6.796902
71.820 6.750347
71.825 6.524755
71.830 6.559549
71.835 6.672265
71.840 7.041331
71.845 7.220623
71.850 7.771778
71.855 7.867069
71.860 8.393969
71.865 8.748868
71.870 8.466165
71.875 8.065988
71.880 8.038514
71.885 7.819685
71.890 7.915788
71.895 7.507412
71.900 7.398744
71.905 7.749259
71.910 7.852309
71.915 7.496815
71.920 7.009166
71.925 6.806843
71.930 6.731829
71.935 6.441932
71.940 6.122274
71.945 6.418869
71.950 7.306419
71.955 7.649055
71.960 7.909431
71.965 8.155394
71.970 8.54688
71.975 8.766706
71.980 8.373998
71.985 8.062225
71.990 7.944842
71.995 7.595079
72.000 7.181344
72.005 7.0564
72.010 6.941841
72.015 7.11073
72.020 6.79824
72.025 6.783798
72.030 6.94205
72.035 7.135933
72.040 6.809449
72.045 6.652166
72.050 6.531141
72.055 6.974561
72.060 7.20734
72.065 7.337392
72.070 7.507465
72.075 7.656814
72.080 7.718026
72.085 8.009705
72.090 7.640136
72.095 7.71365
72.100 7.841326
72.105 7.849546
72.110 7.782878
72.115 7.757687
72.120 7.516585
72.125 7.506048
72.130 7.173874
72.135 6.873279
72.140 7.128181
72.145 7.343426
72.150 7.322886
72.155 7.603253
72.160 7.194748
72.165 6.966837
72.170 6.715607
72.175 6.397218
72.180 6.303956
72.185 6.28981
72.190 6.191357
72.195 6.592777
72.200 6.841334
72.205 6.639656
72.210 6.633623
72.215 6.838526
72.220 6.959262
72.225 6.795822
72.230 6.6937
72.235 6.78544
72.240 7.25989
72.245 7.336479
72.250 6.696572
72.255 6.874899
72.260 6.975521
72.265 7.100133
72.270 6.773686
72.275 6.399093
72.280 6.853492
72.285 7.155641
72.290 7.203652
72.295 7.622392
72.300 7.958845
72.305 8.611452
72.310 8.787827
72.315 8.791287
72.320 8.775132
72.325 8.378909
72.330 7.961252
72.335 7.626037
72.340 7.436835
72.345 7.43227
72.350 7.584743
72.355 7.644574
72.360 7.461414
72.365 7.820375
72.370 7.876912
72.375 8.170484
72.380 8.187504
72.385 7.661677
72.390 7.647511
72.395 7.968231
72.400 7.837282
72.405 7.972412
72.410 7.504175
72.415 7.28294
72.420 7.272084
72.425 7.354239
72.430 7.307281
72.435 7.473882
72.440 7.094263
72.445 6.95254
72.450 7.22014
72.455 7.409074
72.460 7.26709
72.465 6.818762
72.470 6.76467
72.475 7.092062
72.480 7.109803
72.485 7.074427
72.490 6.953564
72.495 7.008309
72.500 7.301741
72.505 7.222117
72.510 6.810828
72.515 6.809538
72.520 6.96007
72.525 7.552505
72.530 7.873984
72.535 7.775003
72.540 8.065799
72.545 8.502144
72.550 9.132457
72.555 8.884426
72.560 8.567148
72.565 8.142117
72.570 7.770655
72.575 7.563838
72.580 7.109509
72.585 6.830926
72.590 6.873228
72.595 6.816155
72.600 7.344889
72.605 7.610723
72.610 7.524186
72.615 7.260879
72.620 7.455846
72.625 7.541428
72.630 7.509975
72.635 7.844965
72.640 7.806851
72.645 7.874051
72.650 7.817142
72.655 7.798259
72.660 7.681732
72.665 7.062697
72.670 7.108154
72.675 7.438914
72.680 7.850655
72.685 7.853748
72.690 7.388029
72.695 7.494289
72.700 7.403723
72.705 6.833951
72.710 6.595147
72.715 6.822098
72.720 6.877361
72.725 6.732823
72.730 6.706625
72.735 7.079053
72.740 7.707719
72.745 7.536624
72.750 7.341339
72.755 7.820585
72.760 7.998313
72.765 7.795834
72.770 7.660382
72.775 7.279987
72.780 7.152926
72.785 7.103594
72.790 6.532279
72.795 6.592979
72.800 6.723959
72.805 7.183178
72.810 7.239985
72.815 7.337356
72.820 7.453074
72.825 7.374779
72.830 7.618876
72.835 7.261983
72.840 6.63406
72.845 6.581355
72.850 6.697654
72.855 6.71905
72.860 6.52839
72.865 6.390423
72.870 6.506124
72.875 6.993321
72.880 7.354166
72.885 6.963181
72.890 7.416809
72.895 7.607598
72.900 7.556004
72.905 7.690055
72.910 7.429946
72.915 7.264428
72.920 7.531013
72.925 7.287271
72.930 7.606096
72.935 7.502284
72.940 7.536113
72.945 7.502427
72.950 7.684977
72.955 7.663761
72.960 7.743665
72.965 7.833358
72.970 7.961257
72.975 8.007717
72.980 8.005634
72.985 7.762339
72.990 7.868189
72.995 7.612062
73.000 7.606483
