!@!!GADDS PLOTSO FILE: Chi integration type
!@!!Title/SampleName: map-72
!@!!Comment: ?
!@!!User: Bruker Instrument Administrator
!@!!Site: University of Illinois Chicago
!@!!Frame: map-72_01_000.gfrm
!@!!Wavelengths    1.54184   1.54056   1.54439
!@!!Frame angles: 2Theta: 63.000 Omega: 50.000 Phi: 0.000 Chi: 90.000
!@!!Integration range: 2Theta: 53.000 to 73.000  Gamma: -105.000 to -75.000
!@!!Integration method: bin normalized
!@!N
!@!SS
!@!M
!@!L 0.0 0.0 0.0 0.0
!@!XDegrees
!@!YCounts
53.000 9.191933
53.005 9.870333
53.010 10.626828
53.015 10.783005
53.020 10.427575
53.025 10.390701
53.030 10.750601
53.035 10.548063
53.040 9.943671
53.045 9.61992
53.050 9.952781
53.055 10.487912
53.060 10.929425
53.065 10.442116
53.070 10.291897
53.075 10.292488
53.080 10.331052
53.085 10.124693
53.090 10.070392
53.095 9.620765
53.100 10.248362
53.105 10.897427
53.110 10.837378
53.115 10.516269
53.120 10.499642
53.125 10.572898
53.130 10.454425
53.135 9.944669
53.140 9.518927
53.145 9.48332
53.150 9.3803
53.155 8.873764
53.160 8.488626
53.165 8.682799
53.170 8.607768
53.175 8.841758
53.180 9.32266
53.185 9.426896
53.190 9.587219
53.195 9.966228
53.200 10.169213
53.205 10.039373
53.210 10.128947
53.215 9.997796
53.220 10.932543
53.225 11.254688
53.230 11.193547
53.235 11.32404
53.240 11.500246
53.245 11.750149
53.250 11.506493
53.255 11.582331
53.260 11.318706
53.265 11.29543
53.270 11.443395
53.275 11.690425
53.280 11.730388
53.285 11.012417
53.290 10.653091
53.295 10.42333
53.300 10.168865
53.305 9.767537
53.310 9.342186
53.315 9.095825
53.320 9.271075
53.325 9.555098
53.330 9.691504
53.335 9.294923
53.340 9.106268
53.345 9.210911
53.350 9.461922
53.355 9.708473
53.360 9.902013
53.365 10.418565
53.370 10.686421
53.375 11.139127
53.380 11.429263
53.385 11.063487
53.390 10.970183
53.395 10.955439
53.400 11.104576
53.405 10.999096
53.410 11.065964
53.415 11.158113
53.420 11.241623
53.425 11.105854
53.430 10.921559
53.435 11.205072
53.440 11.415949
53.445 11.205462
53.450 11.113742
53.455 11.515018
53.460 11.962408
53.465 11.766586
53.470 11.465412
53.475 11.432356
53.480 11.372678
53.485 11.48831
53.490 10.735084
53.495 10.446589
53.500 10.47282
53.505 10.441237
53.510 10.317722
53.515 10.69897
53.520 10.839249
53.525 11.083892
53.530 10.917478
53.535 11.123565
53.540 10.949179
53.545 11.039789
53.550 10.567676
53.555 10.54879
53.560 10.474889
53.565 10.68833
53.570 11.033175
53.575 11.088695
53.580 10.950339
53.585 10.930565
53.590 10.840837
53.595 10.773335
53.600 10.340378
53.605 9.797373
53.610 9.561331
53.615 9.650807
53.620 9.426801
53.625 9.359138
53.630 9.395586
53.635 10.117025
53.640 10.435143
53.645 10.552093
53.650 10.541816
53.655 10.816156
53.660 11.104362
53.665 11.00145
53.670 10.629939
53.675 10.601738
53.680 10.803406
53.685 11.62156
53.690 12.002795
53.695 12.16327
53.700 12.212481
53.705 12.156303
53.710 12.322312
53.715 11.809821
53.720 10.90659
53.725 10.27564
53.730 10.162373
53.735 10.506019
53.740 10.818402
53.745 10.876892
53.750 10.825048
53.755 11.261422
53.760 11.643387
53.765 11.204543
53.770 11.15204
53.775 10.92002
53.780 11.148664
53.785 11.288692
53.790 10.568111
53.795 10.389687
53.800 10.905197
53.805 10.464662
53.810 10.212911
53.815 10.312044
53.820 10.928352
53.825 11.855413
53.830 11.664968
53.835 10.913238
53.840 11.084164
53.845 10.991583
53.850 10.510064
53.855 9.956232
53.860 9.620227
53.865 9.747236
53.870 9.812864
53.875 9.343001
53.880 9.026463
53.885 9.044807
53.890 8.718659
53.895 8.397084
53.900 8.433445
53.905 8.421275
53.910 8.51683
53.915 8.830934
53.920 9.154858
53.925 9.779272
53.930 10.638312
53.935 11.16884
53.940 11.723177
53.945 12.156613
53.950 12.0411
53.955 11.756053
53.960 11.728561
53.965 11.445046
53.970 10.802835
53.975 10.585335
53.980 10.547892
53.985 10.804899
53.990 10.670256
53.995 10.886802
54.000 11.395375
54.005 11.585065
54.010 11.413219
54.015 11.374772
54.020 11.082198
54.025 11.115372
54.030 10.931984
54.035 10.663341
54.040 10.694399
54.045 10.73525
54.050 10.912018
54.055 11.209658
54.060 10.689938
54.065 9.673046
54.070 9.529171
54.075 9.482278
54.080 9.58236
54.085 9.999968
54.090 9.886518
54.095 10.576018
54.100 11.499661
54.105 11.914097
54.110 12.650403
54.115 12.394156
54.120 12.045124
54.125 11.951891
54.130 11.927267
54.135 11.757833
54.140 10.936996
54.145 10.428765
54.150 10.69915
54.155 10.646795
54.160 10.897182
54.165 10.3206
54.170 10.612056
54.175 10.775493
54.180 11.063069
54.185 11.398196
54.190 11.499722
54.195 11.063125
54.200 11.336962
54.205 11.568421
54.210 11.671616
54.215 11.473656
54.220 11.813357
54.225 12.005196
54.230 12.509679
54.235 12.643971
54.240 12.341296
54.245 12.174159
54.250 12.127886
54.255 11.554767
54.260 11.165769
54.265 10.895627
54.270 10.975198
54.275 10.935239
54.280 11.073099
54.285 10.945986
54.290 11.416714
54.295 11.747005
54.300 11.49957
54.305 11.349031
54.310 11.612779
54.315 11.852526
54.320 11.845267
54.325 11.103056
54.330 10.892606
54.335 10.933183
54.340 11.139749
54.345 11.262289
54.350 11.069722
54.355 11.014737
54.360 11.394521
54.365 11.968311
54.370 12.014751
54.375 11.535749
54.380 11.343998
54.385 11.262485
54.390 11.434923
54.395 11.288404
54.400 10.999946
54.405 10.928453
54.410 10.772238
54.415 10.612159
54.420 10.534406
54.425 10.487522
54.430 10.633431
54.435 11.063189
54.440 11.23593
54.445 11.523549
54.450 11.672161
54.455 11.553825
54.460 11.588213
54.465 11.239404
54.470 11.094675
54.475 10.990164
54.480 10.625126
54.485 10.461658
54.490 10.704677
54.495 10.777311
54.500 10.725937
54.505 10.146368
54.510 10.055215
54.515 10.369552
54.520 10.438924
54.525 10.269257
54.530 10.4665
54.535 11.042576
54.540 11.711269
54.545 11.837101
54.550 11.886145
54.555 12.014365
54.560 12.410712
54.565 12.049142
54.570 12.030754
54.575 11.884581
54.580 12.145037
54.585 12.371702
54.590 12.110823
54.595 11.93869
54.600 12.062681
54.605 12.246866
54.610 11.941486
54.615 11.354516
54.620 11.090724
54.625 11.709835
54.630 11.564721
54.635 11.136701
54.640 10.605719
54.645 10.544205
54.650 10.931338
54.655 10.649694
54.660 10.432859
54.665 10.886158
54.670 11.347617
54.675 11.979684
54.680 12.123912
54.685 12.198698
54.690 12.394403
54.695 11.913054
54.700 11.823891
54.705 11.249656
54.710 10.992766
54.715 11.352179
54.720 11.604102
54.725 11.477298
54.730 11.355634
54.735 10.968391
54.740 10.968099
54.745 11.151028
54.750 10.637106
54.755 10.523083
54.760 10.901908
54.765 11.036536
54.770 11.058542
54.775 11.19866
54.780 11.495297
54.785 11.234562
54.790 10.823199
54.795 10.775953
54.800 10.716841
54.805 10.90973
54.810 10.932363
54.815 10.821948
54.820 10.861073
54.825 11.14722
54.830 11.310802
54.835 11.874434
54.840 11.973812
54.845 11.909218
54.850 11.873162
54.855 12.243132
54.860 11.94114
54.865 11.645096
54.870 11.123248
54.875 11.202145
54.880 11.810153
54.885 11.882375
54.890 11.867928
54.895 12.184979
54.900 12.325036
54.905 12.486643
54.910 12.268847
54.915 11.621565
54.920 11.637592
54.925 12.034043
54.930 12.416908
54.935 12.406513
54.940 12.306328
54.945 12.566635
54.950 12.90485
54.955 12.519984
54.960 11.948862
54.965 11.834157
54.970 12.042214
54.975 11.782858
54.980 11.052312
54.985 10.752407
54.990 10.930678
54.995 11.093862
55.000 11.112375
55.005 11.160784
55.010 11.355433
55.015 12.443775
55.020 12.829471
55.025 12.745229
55.030 11.907275
55.035 11.901114
55.040 12.156659
55.045 12.176849
55.050 12.521388
55.055 12.718083
55.060 12.790765
55.065 13.158876
55.070 12.872822
55.075 12.848985
55.080 12.964725
55.085 12.446173
55.090 12.449159
55.095 12.563643
55.100 12.557637
55.105 12.651958
55.110 12.764182
55.115 12.61916
55.120 12.051562
55.125 11.818241
55.130 11.895277
55.135 11.654655
55.140 11.376017
55.145 11.129733
55.150 11.021299
55.155 11.649259
55.160 11.853092
55.165 11.853316
55.170 12.268819
55.175 12.306445
55.180 11.913089
55.185 11.692148
55.190 11.293708
55.195 11.187958
55.200 11.116045
55.205 10.963482
55.210 11.377316
55.215 11.966656
55.220 11.91343
55.225 11.33293
55.230 10.854988
55.235 10.949921
55.240 10.75811
55.245 10.432931
55.250 10.127366
55.255 10.721518
55.260 11.366965
55.265 11.661
55.270 11.800004
55.275 12.082118
55.280 12.586307
55.285 12.546445
55.290 12.532439
55.295 12.120073
55.300 12.166499
55.305 12.297085
55.310 11.887386
55.315 11.669759
55.320 11.916403
55.325 11.874596
55.330 12.309457
55.335 12.447959
55.340 12.840949
55.345 12.707219
55.350 12.549668
55.355 12.238559
55.360 12.279249
55.365 11.896017
55.370 11.551376
55.375 11.385899
55.380 11.77948
55.385 11.861892
55.390 11.696484
55.395 11.848931
55.400 11.534061
55.405 11.209111
55.410 10.808874
55.415 10.521646
55.420 10.732235
55.425 11.173173
55.430 11.152481
55.435 11.367311
55.440 11.854884
55.445 12.148804
55.450 11.726686
55.455 11.248266
55.460 11.025395
55.465 11.274749
55.470 11.570481
55.475 11.686056
55.480 11.395923
55.485 11.432749
55.490 11.871517
55.495 12.007889
55.500 12.019635
55.505 11.964454
55.510 11.693933
55.515 12.204669
55.520 12.369201
55.525 12.366035
55.530 11.91761
55.535 11.758078
55.540 12.016372
55.545 11.981908
55.550 12.104482
55.555 12.682163
55.560 12.55878
55.565 13.64067
55.570 13.511011
55.575 13.470664
55.580 13.453174
55.585 13.519925
55.590 13.587712
55.595 13.480093
55.600 13.303344
55.605 12.925838
55.610 12.53171
55.615 12.703358
55.620 12.428569
55.625 11.901154
55.630 12.133691
55.635 12.059972
55.640 12.168534
55.645 12.085583
55.650 12.379995
55.655 12.505277
55.660 12.546268
55.665 12.620418
55.670 12.548219
55.675 12.951911
55.680 13.215938
55.685 13.10993
55.690 13.522321
55.695 13.512104
55.700 13.083385
55.705 13.390036
55.710 13.640294
55.715 13.686721
55.720 13.958321
55.725 13.696258
55.730 13.246428
55.735 13.44519
55.740 13.339344
55.745 12.815252
55.750 12.392366
55.755 11.609236
55.760 11.572328
55.765 12.116147
55.770 12.064482
55.775 11.572248
55.780 11.76471
55.785 12.196072
55.790 12.142611
55.795 12.136936
55.800 12.062446
55.805 11.996909
55.810 12.562464
55.815 12.580241
55.820 12.396271
55.825 12.602975
55.830 12.855643
55.835 13.128908
55.840 13.337538
55.845 13.158195
55.850 13.088347
55.855 13.442919
55.860 13.38349
55.865 13.025475
55.870 12.686862
55.875 12.806899
55.880 12.691561
55.885 12.615603
55.890 13.106741
55.895 13.161273
55.900 12.828957
55.905 12.566649
55.910 13.140015
55.915 13.332718
55.920 13.375355
55.925 12.956989
55.930 13.295004
55.935 13.41739
55.940 13.204561
55.945 12.835154
55.950 12.672043
55.955 12.939203
55.960 13.237442
55.965 13.199751
55.970 13.665071
55.975 13.828337
55.980 14.436823
55.985 14.723605
55.990 14.070877
55.995 13.572924
56.000 13.681885
56.005 13.442679
56.010 12.791704
56.015 12.003009
56.020 11.944075
56.025 11.887578
56.030 11.434694
56.035 11.654199
56.040 11.715551
56.045 12.222344
56.050 12.416877
56.055 12.707148
56.060 12.983883
56.065 13.649667
56.070 13.467627
56.075 13.587021
56.080 13.290297
56.085 12.955463
56.090 12.677353
56.095 12.792356
56.100 12.585602
56.105 12.093302
56.110 12.206669
56.115 12.475031
56.120 12.776155
56.125 13.004279
56.130 12.797722
56.135 12.53339
56.140 13.116657
56.145 12.84286
56.150 12.749882
56.155 13.392216
56.160 13.74623
56.165 13.657039
56.170 13.667901
56.175 13.387827
56.180 13.666804
56.185 13.640797
56.190 13.039613
56.195 12.769765
56.200 13.099545
56.205 12.808722
56.210 13.036603
56.215 13.160501
56.220 13.347517
56.225 13.170953
56.230 13.364176
56.235 13.756239
56.240 13.714279
56.245 13.682968
56.250 13.381057
56.255 13.579143
56.260 13.550486
56.265 13.262984
56.270 13.090396
56.275 13.177598
56.280 12.970115
56.285 13.090141
56.290 12.785945
56.295 13.040575
56.300 13.229851
56.305 13.40875
56.310 13.608407
56.315 13.929399
56.320 14.297876
56.325 14.192751
56.330 13.891879
56.335 14.028901
56.340 13.755219
56.345 13.452397
56.350 12.836411
56.355 12.42596
56.360 12.165493
56.365 12.156191
56.370 12.064499
56.375 12.085632
56.380 12.264799
56.385 12.625941
56.390 13.211597
56.395 14.001506
56.400 14.189456
56.405 14.361221
56.410 14.542501
56.415 14.524523
56.420 14.924922
56.425 14.819661
56.430 14.649287
56.435 14.406906
56.440 14.046618
56.445 13.929339
56.450 13.933073
56.455 13.553465
56.460 13.02075
56.465 12.913992
56.470 13.019732
56.475 13.208652
56.480 13.079624
56.485 12.832558
56.490 13.01899
56.495 13.533643
56.500 13.691961
56.505 13.844447
56.510 14.275791
56.515 14.712027
56.520 15.020712
56.525 14.3194
56.530 14.266317
56.535 13.9136
56.540 13.39927
56.545 12.977786
56.550 12.464128
56.555 12.367088
56.560 12.593966
56.565 12.843451
56.570 13.233242
56.575 13.249871
56.580 13.179461
56.585 13.514014
56.590 13.592967
56.595 13.692916
56.600 13.152901
56.605 13.029581
56.610 13.275041
56.615 13.357255
56.620 13.483091
56.625 13.612656
56.630 13.662282
56.635 13.677556
56.640 13.915572
56.645 13.909357
56.650 13.693145
56.655 13.261456
56.660 13.479372
56.665 13.166256
56.670 13.671691
56.675 13.810268
56.680 13.911971
56.685 14.010612
56.690 14.369493
56.695 14.251267
56.700 14.453174
56.705 14.144152
56.710 14.235342
56.715 14.669161
56.720 14.742561
56.725 14.877442
56.730 15.060493
56.735 15.076026
56.740 15.595361
56.745 15.627318
56.750 15.497827
56.755 15.466269
56.760 15.13623
56.765 14.805183
56.770 14.529088
56.775 13.683687
56.780 13.330012
56.785 13.358348
56.790 13.398797
56.795 13.545316
56.800 13.664152
56.805 14.06771
56.810 14.863068
56.815 15.115541
56.820 15.146951
56.825 15.050467
56.830 15.096415
56.835 15.315084
56.840 15.123368
56.845 14.56145
56.850 14.417283
56.855 14.698885
56.860 14.543322
56.865 14.708138
56.870 14.99049
56.875 14.850636
56.880 14.800843
56.885 14.29032
56.890 13.709692
56.895 14.025691
56.900 13.357459
56.905 13.072341
56.910 12.746564
56.915 13.07197
56.920 13.940096
56.925 14.453963
56.930 14.463074
56.935 14.79371
56.940 14.504309
56.945 14.566565
56.950 14.278344
56.955 13.620108
56.960 13.335898
56.965 12.880787
56.970 12.96625
56.975 13.815698
56.980 14.253531
56.985 14.714455
56.990 14.75553
56.995 14.591284
57.000 14.814474
57.005 15.426941
57.010 15.550261
57.015 15.881322
57.020 15.646497
57.025 15.997028
57.030 15.977034
57.035 15.517812
57.040 15.239864
57.045 14.644578
57.050 14.117601
57.055 14.257765
57.060 14.240229
57.065 14.80051
57.070 14.877933
57.075 14.36943
57.080 14.136515
57.085 13.873602
57.090 13.840185
57.095 13.787271
57.100 13.541553
57.105 13.597201
57.110 13.135229
57.115 13.045823
57.120 13.178378
57.125 13.208896
57.130 13.133045
57.135 13.175818
57.140 13.331977
57.145 14.288855
57.150 15.285946
57.155 15.256586
57.160 15.208285
57.165 15.08163
57.170 14.992293
57.175 15.169281
57.180 14.870018
57.185 14.549667
57.190 14.71823
57.195 14.487312
57.200 14.774928
57.205 14.713083
57.210 14.301389
57.215 14.301135
57.220 14.487244
57.225 14.307446
57.230 14.084106
57.235 14.856882
57.240 15.283035
57.245 15.818866
57.250 15.700924
57.255 15.258058
57.260 15.235385
57.265 15.950866
57.270 15.273847
57.275 14.705707
57.280 14.462509
57.285 14.488137
57.290 14.719048
57.295 15.433747
57.300 14.672293
57.305 14.127095
57.310 14.934892
57.315 15.061386
57.320 15.673887
57.325 15.882558
57.330 15.49058
57.335 15.791318
57.340 16.228481
57.345 15.735108
57.350 14.941786
57.355 14.749591
57.360 14.278029
57.365 13.828016
57.370 13.924258
57.375 14.614259
57.380 14.506674
57.385 14.724826
57.390 14.462404
57.395 14.546665
57.400 15.326223
57.405 15.240558
57.410 14.656493
57.415 14.836123
57.420 15.171341
57.425 15.237811
57.430 15.168632
57.435 14.735023
57.440 14.439949
57.445 14.645135
57.450 14.332076
57.455 14.117014
57.460 14.242048
57.465 14.428336
57.470 14.59636
57.475 14.622408
57.480 14.433268
57.485 14.897847
57.490 15.465978
57.495 15.585477
57.500 15.268636
57.505 15.26376
57.510 15.504389
57.515 15.481041
57.520 15.53321
57.525 15.625883
57.530 15.689882
57.535 16.505493
57.540 16.808844
57.545 16.681499
57.550 16.447088
57.555 16.202925
57.560 15.485868
57.565 15.176051
57.570 15.480883
57.575 15.653542
57.580 15.932404
57.585 16.397081
57.590 16.830853
57.595 16.960976
57.600 16.65868
57.605 15.664427
57.610 15.152412
57.615 15.133548
57.620 14.963396
57.625 14.789275
57.630 15.294481
57.635 15.638102
57.640 16.118103
57.645 15.905636
57.650 15.983216
57.655 16.185316
57.660 16.311829
57.665 16.028713
57.670 15.511646
57.675 15.348408
57.680 15.833193
57.685 16.344875
57.690 16.386063
57.695 17.002136
57.700 17.194502
57.705 17.472305
57.710 17.268988
57.715 17.075985
57.720 16.216402
57.725 16.149593
57.730 16.011395
57.735 16.936609
57.740 17.38077
57.745 17.299019
57.750 17.276213
57.755 17.348579
57.760 16.979658
57.765 16.307495
57.770 15.434587
57.775 15.692455
57.780 15.862618
57.785 16.479479
57.790 16.546322
57.795 16.427238
57.800 16.023996
57.805 15.878283
57.810 15.717452
57.815 16.235794
57.820 16.0779
57.825 16.131958
57.830 16.42889
57.835 17.17078
57.840 17.650856
57.845 17.810799
57.850 17.447489
57.855 17.457176
57.860 17.644495
57.865 17.98247
57.870 18.039545
57.875 17.705906
57.880 17.425205
57.885 17.157301
57.890 16.931786
57.895 16.676487
57.900 16.765024
57.905 16.481134
57.910 16.357838
57.915 16.615376
57.920 16.565863
57.925 16.168184
57.930 16.189873
57.935 15.963546
57.940 16.303135
57.945 16.610411
57.950 16.702658
57.955 16.928684
57.960 17.160984
57.965 17.484589
57.970 17.055273
57.975 16.591421
57.980 16.54925
57.985 16.761248
57.990 17.35853
57.995 17.42593
58.000 17.056429
58.005 17.310316
58.010 17.234398
58.015 17.298761
58.020 16.48971
58.025 16.089972
58.030 16.433037
58.035 16.370579
58.040 16.634119
58.045 17.652351
58.050 18.248156
58.055 19.279221
58.060 19.386415
58.065 19.13221
58.070 19.224764
58.075 19.001869
58.080 18.750679
58.085 18.264589
58.090 17.38039
58.095 17.271627
58.100 17.317831
58.105 17.425306
58.110 17.361071
58.115 17.393961
58.120 17.660431
58.125 17.648149
58.130 17.647579
58.135 17.618382
58.140 17.591124
58.145 17.761946
58.150 17.095646
58.155 17.473637
58.160 18.001692
58.165 18.323675
58.170 19.279696
58.175 19.817556
58.180 19.938526
58.185 19.212448
58.190 18.765652
58.195 18.962847
58.200 18.816799
58.205 18.595255
58.210 18.516695
58.215 18.382254
58.220 19.217531
58.225 19.514439
58.230 19.313932
58.235 19.166971
58.240 19.059446
58.245 18.887018
58.250 18.854181
58.255 19.20685
58.260 19.206512
58.265 19.077362
58.270 18.645678
58.275 18.677824
58.280 19.136347
58.285 18.884277
58.290 18.134035
58.295 18.111593
58.300 18.519964
58.305 18.8631
58.310 18.588001
58.315 18.226133
58.320 18.566463
58.325 19.249346
58.330 19.334669
58.335 19.462456
58.340 19.657356
58.345 19.811537
58.350 20.663332
58.355 21.078201
58.360 21.437757
58.365 21.952005
58.370 22.551693
58.375 22.976204
58.380 23.295153
58.385 23.193615
58.390 23.596449
58.395 23.838436
58.400 23.839134
58.405 24.183674
58.410 24.550592
58.415 24.938457
58.420 25.61166
58.425 25.322248
58.430 25.094873
58.435 25.035852
58.440 25.556351
58.445 25.828554
58.450 25.86832
58.455 26.310635
58.460 27.417376
58.465 28.503389
58.470 28.385231
58.475 28.110794
58.480 28.410988
58.485 28.056
58.490 27.649778
58.495 27.883427
58.500 27.844427
58.505 28.271826
58.510 28.306044
58.515 28.439194
58.520 28.738035
58.525 28.915745
58.530 28.027069
58.535 28.373526
58.540 29.16033
58.545 29.971622
58.550 29.937561
58.555 30.798157
58.560 31.617413
58.565 31.727247
58.570 31.528311
58.575 31.585327
58.580 31.50671
58.585 31.668133
58.590 31.776291
58.595 31.955223
58.600 32.773323
58.605 33.259052
58.610 33.069046
58.615 33.413784
58.620 33.821838
58.625 34.190533
58.630 33.871323
58.635 33.520798
58.640 33.166321
58.645 32.924797
58.650 32.600483
58.655 32.580788
58.660 32.397163
58.665 32.698715
58.670 32.848133
58.675 32.668907
58.680 32.40279
58.685 31.211287
58.690 30.716957
58.695 30.44463
58.700 30.654188
58.705 30.109442
58.710 29.868149
58.715 30.33312
58.720 31.320936
58.725 31.399391
58.730 30.673054
58.735 29.705288
58.740 30.07675
58.745 30.182148
58.750 29.90321
58.755 29.337997
58.760 29.520937
58.765 28.966223
58.770 28.640812
58.775 27.652649
58.780 26.992811
58.785 26.062031
58.790 25.704443
58.795 25.613459
58.800 26.252663
58.805 26.904095
58.810 27.797308
58.815 28.037712
58.820 27.833855
58.825 28.016695
58.830 27.51458
58.835 26.571402
58.840 25.890215
58.845 25.276386
58.850 24.729877
58.855 25.059383
58.860 24.343243
58.865 24.464872
58.870 24.44709
58.875 24.100855
58.880 24.013121
58.885 23.932039
58.890 23.652733
58.895 24.201435
58.900 24.247869
58.905 23.577557
58.910 22.791847
58.915 21.961092
58.920 21.815329
58.925 21.878439
58.930 21.130451
58.935 20.554174
58.940 20.557514
58.945 20.477987
58.950 20.86038
58.955 20.369745
58.960 19.806124
58.965 19.588898
58.970 19.381876
58.975 20.008606
58.980 20.336008
58.985 20.125898
58.990 20.278534
58.995 20.074579
59.000 20.35775
59.005 20.49456
59.010 20.670729
59.015 20.979691
59.020 20.988644
59.025 21.193235
59.030 21.49095
59.035 21.769705
59.040 21.413372
59.045 20.341806
59.050 19.459101
59.055 18.938913
59.060 18.740299
59.065 18.212439
59.070 17.850397
59.075 18.401714
59.080 18.878551
59.085 18.908571
59.090 18.603275
59.095 18.639559
59.100 19.040379
59.105 18.544395
59.110 17.614201
59.115 17.045555
59.120 17.374735
59.125 17.916735
59.130 17.767927
59.135 17.406639
59.140 17.553572
59.145 18.239622
59.150 18.139551
59.155 18.006821
59.160 17.967684
59.165 17.612997
59.170 17.824316
59.175 17.802362
59.180 18.120811
59.185 18.357965
59.190 18.304319
59.195 18.271954
59.200 18.404478
59.205 18.214661
59.210 18.340981
59.215 17.696022
59.220 17.480772
59.225 17.18144
59.230 17.053036
59.235 16.836752
59.240 17.199913
59.245 17.047029
59.250 17.199768
59.255 17.215174
59.260 16.966684
59.265 16.896326
59.270 16.835136
59.275 16.29615
59.280 16.098886
59.285 15.93976
59.290 16.103968
59.295 16.544329
59.300 16.79726
59.305 17.24157
59.310 17.167509
59.315 17.207232
59.320 17.350494
59.325 17.416121
59.330 17.459845
59.335 17.428143
59.340 17.598009
59.345 17.608841
59.350 17.509399
59.355 17.304508
59.360 17.495844
59.365 17.352182
59.370 17.191311
59.375 17.440447
59.380 17.549246
59.385 17.827126
59.390 18.682024
59.395 19.046358
59.400 19.106785
59.405 18.969576
59.410 18.116358
59.415 17.944849
59.420 17.634588
59.425 16.83243
59.430 16.725863
59.435 16.476881
59.440 16.382673
59.445 16.519234
59.450 16.706995
59.455 16.573147
59.460 17.015427
59.465 17.250792
59.470 17.847618
59.475 17.990028
59.480 17.553185
59.485 17.839233
59.490 17.704382
59.495 16.96884
59.500 16.816187
59.505 16.392086
59.510 16.551754
59.515 16.799997
59.520 16.238171
59.525 15.849622
59.530 15.332277
59.535 14.9482
59.540 14.903465
59.545 14.715642
59.550 14.447507
59.555 15.268465
59.560 15.840277
59.565 16.474102
59.570 16.309357
59.575 16.480124
59.580 16.874207
59.585 17.16527
59.590 16.253733
59.595 15.80933
59.600 15.30547
59.605 15.170079
59.610 14.860449
59.615 14.592749
59.620 14.514174
59.625 15.002954
59.630 15.270064
59.635 15.254519
59.640 15.626931
59.645 16.005297
59.650 16.201698
59.655 16.581545
59.660 16.385508
59.665 16.045406
59.670 15.732779
59.675 15.499343
59.680 15.362065
59.685 15.346596
59.690 15.245789
59.695 15.601479
59.700 16.165583
59.705 16.304607
59.710 16.064957
59.715 15.561898
59.720 15.79205
59.725 15.507267
59.730 15.424037
59.735 15.56331
59.740 15.862181
59.745 16.71846
59.750 16.899584
59.755 16.59432
59.760 16.552212
59.765 16.842064
59.770 16.818239
59.775 16.84252
59.780 16.907286
59.785 17.037174
59.790 17.029972
59.795 16.93504
59.800 16.507282
59.805 16.666023
59.810 16.735975
59.815 16.068167
59.820 15.584419
59.825 15.645472
59.830 15.606225
59.835 15.39318
59.840 15.129563
59.845 14.985281
59.850 15.083653
59.855 15.811868
59.860 15.56198
59.865 15.468604
59.870 15.766251
59.875 16.392462
59.880 16.276691
59.885 16.333536
59.890 16.674536
59.895 17.155886
59.900 17.007956
59.905 16.716448
59.910 15.720658
59.915 15.323544
59.920 15.478652
59.925 14.982721
59.930 15.050761
59.935 15.715749
59.940 15.864614
59.945 16.591511
59.950 16.856459
59.955 16.701073
59.960 17.34399
59.965 17.568527
59.970 17.070313
59.975 16.754446
59.980 16.037983
59.985 15.687311
59.990 15.755842
59.995 15.197542
60.000 14.961166
60.005 14.556459
60.010 14.547297
60.015 15.375413
60.020 15.7975
60.025 15.812346
60.030 15.759362
60.035 15.873166
60.040 16.587563
60.045 16.600653
60.050 16.400644
60.055 16.745041
60.060 16.836405
60.065 17.315718
60.070 17.063572
60.075 16.394997
60.080 16.069775
60.085 16.024569
60.090 16.26779
60.095 16.163664
60.100 15.861451
60.105 16.37232
60.110 16.77137
60.115 16.996593
60.120 17.052752
60.125 16.793201
60.130 16.373465
60.135 16.148403
60.140 16.203144
60.145 16.555714
60.150 16.571156
60.155 15.736848
60.160 15.341871
60.165 15.799992
60.170 15.957223
60.175 15.586466
60.180 15.492476
60.185 15.535055
60.190 16.071218
60.195 16.534929
60.200 15.881081
60.205 15.682967
60.210 15.914279
60.215 15.842889
60.220 15.998391
60.225 16.002609
60.230 15.98509
60.235 16.486736
60.240 16.270245
60.245 16.31859
60.250 16.517839
60.255 16.389212
60.260 16.098373
60.265 16.058661
60.270 16.007708
60.275 16.432035
60.280 16.143015
60.285 15.759007
60.290 16.223806
60.295 16.863081
60.300 17.135365
60.305 16.766623
60.310 16.340532
60.315 16.610785
60.320 16.424738
60.325 16.133715
60.330 15.41532
60.335 15.369769
60.340 15.824202
60.345 16.179317
60.350 16.096651
60.355 15.986761
60.360 16.092081
60.365 16.009348
60.370 15.451339
60.375 14.809712
60.380 14.546027
60.385 14.348477
60.390 14.476872
60.395 14.509675
60.400 14.338131
60.405 14.697886
60.410 15.346312
60.415 15.023056
60.420 15.059133
60.425 15.318106
60.430 15.501216
60.435 15.967155
60.440 15.81665
60.445 16.067669
60.450 16.427408
60.455 16.232494
60.460 15.971099
60.465 15.901056
60.470 16.27319
60.475 17.114302
60.480 17.071625
60.485 17.218092
60.490 17.700483
60.495 17.882643
60.500 17.568869
60.505 16.968454
60.510 15.960076
60.515 15.974442
60.520 15.837805
60.525 16.291367
60.530 16.232552
60.535 15.556529
60.540 15.398531
60.545 15.438391
60.550 15.389188
60.555 15.556905
60.560 14.861202
60.565 14.694025
60.570 15.05871
60.575 15.229721
60.580 15.132175
60.585 14.802645
60.590 14.745547
60.595 14.98511
60.600 15.511459
60.605 15.799627
60.610 16.111046
60.615 16.596601
60.620 17.166483
60.625 17.49489
60.630 17.380728
60.635 17.137903
60.640 16.649242
60.645 16.06139
60.650 16.169899
60.655 16.10627
60.660 15.740609
60.665 15.343858
60.670 15.218904
60.675 15.87704
60.680 15.840234
60.685 15.990172
60.690 15.746611
60.695 15.98504
60.700 16.560812
60.705 16.656292
60.710 16.245674
60.715 15.92145
60.720 15.170221
60.725 15.415227
60.730 15.631687
60.735 15.74576
60.740 16.182545
60.745 16.555555
60.750 16.955479
60.755 17.24218
60.760 16.921532
60.765 16.413454
60.770 15.708571
60.775 14.831553
60.780 14.75815
60.785 14.93058
60.790 14.996048
60.795 15.045058
60.800 15.327301
60.805 16.049652
60.810 16.349379
60.815 16.043987
60.820 15.918435
60.825 15.961963
60.830 16.093737
60.835 15.96505
60.840 15.83672
60.845 16.024204
60.850 16.078712
60.855 16.594667
60.860 16.963131
60.865 17.428221
60.870 17.770618
60.875 17.414516
60.880 16.771402
60.885 16.469198
60.890 15.970737
60.895 15.474647
60.900 15.436291
60.905 15.305207
60.910 16.049301
60.915 16.704023
60.920 16.994537
60.925 16.751877
60.930 16.578024
60.935 16.399309
60.940 16.700026
60.945 16.605595
60.950 16.487293
60.955 16.892786
60.960 17.214207
60.965 17.687008
60.970 17.657619
60.975 16.851061
60.980 16.683987
60.985 17.212395
60.990 16.885847
60.995 16.735928
61.000 16.583847
61.005 16.325031
61.010 17.075436
61.015 16.992086
61.020 16.768188
61.025 16.867172
61.030 16.874527
61.035 16.792345
61.040 17.31719
61.045 17.547375
61.050 17.897797
61.055 17.425371
61.060 17.183619
61.065 17.067635
61.070 16.612598
61.075 16.02487
61.080 15.454206
61.085 15.128907
61.090 15.331775
61.095 15.70435
61.100 15.895654
61.105 16.15801
61.110 16.66958
61.115 16.930355
61.120 17.4335
61.125 18.143555
61.130 18.035152
61.135 17.973215
61.140 18.334919
61.145 18.340271
61.150 17.904011
61.155 17.553619
61.160 16.913633
61.165 17.118893
61.170 17.114758
61.175 16.682533
61.180 16.962841
61.185 16.790257
61.190 16.502157
61.195 16.369766
61.200 16.158901
61.205 17.029087
61.210 16.920937
61.215 16.290928
61.220 16.656794
61.225 17.145838
61.230 18.147554
61.235 18.285618
61.240 17.402494
61.245 17.375843
61.250 17.369747
61.255 17.332644
61.260 17.114681
61.265 16.864931
61.270 16.700041
61.275 16.901711
61.280 17.011732
61.285 17.640413
61.290 17.62862
61.295 17.726582
61.300 16.926477
61.305 16.678997
61.310 16.525848
61.315 16.437357
61.320 16.576159
61.325 16.541492
61.330 16.566687
61.335 17.145117
61.340 17.619471
61.345 17.368792
61.350 16.966202
61.355 16.720022
61.360 17.149975
61.365 17.830244
61.370 17.708538
61.375 17.891356
61.380 18.402512
61.385 18.527935
61.390 18.113359
61.395 18.163883
61.400 17.882673
61.405 17.171051
61.410 16.529716
61.415 16.079088
61.420 15.606089
61.425 15.500807
61.430 15.200388
61.435 15.49544
61.440 16.872194
61.445 17.06077
61.450 16.983318
61.455 17.659174
61.460 17.940163
61.465 17.485897
61.470 16.811209
61.475 15.788427
61.480 16.069809
61.485 16.534178
61.490 16.579527
61.495 16.144724
61.500 16.323689
61.505 16.591101
61.510 16.634956
61.515 16.187553
61.520 16.456896
61.525 16.680883
61.530 16.835066
61.535 16.661476
61.540 16.40625
61.545 16.386232
61.550 16.378317
61.555 16.032623
61.560 15.982784
61.565 16.122211
61.570 16.277468
61.575 16.523479
61.580 17.239548
61.585 17.683388
61.590 17.853361
61.595 17.887165
61.600 17.689579
61.605 17.461491
61.610 17.20241
61.615 16.969719
61.620 16.929873
61.625 16.728804
61.630 16.004379
61.635 16.043423
61.640 16.524355
61.645 16.861439
61.650 16.880043
61.655 17.050486
61.660 17.404165
61.665 17.917883
61.670 17.810143
61.675 17.822311
61.680 17.528006
61.685 17.159357
61.690 16.694653
61.695 16.602228
61.700 16.861681
61.705 17.212961
61.710 17.18302
61.715 16.960419
61.720 16.851299
61.725 17.051626
61.730 16.644598
61.735 16.47986
61.740 16.067593
61.745 15.651525
61.750 15.988979
61.755 16.140705
61.760 16.023977
61.765 16.050581
61.770 15.85084
61.775 15.97807
61.780 15.937854
61.785 15.553333
61.790 15.918433
61.795 16.697073
61.800 17.143221
61.805 17.329657
61.810 17.383224
61.815 18.522875
61.820 19.558189
61.825 19.608747
61.830 18.92123
61.835 18.960102
61.840 19.049528
61.845 18.816833
61.850 17.510828
61.855 17.106241
61.860 17.322008
61.865 17.347946
61.870 17.157566
61.875 17.284342
61.880 17.791111
61.885 18.660225
61.890 19.16271
61.895 18.888697
61.900 18.771317
61.905 19.069717
61.910 18.543221
61.915 18.263269
61.920 17.518278
61.925 17.025278
61.930 17.019135
61.935 17.688934
61.940 17.565203
61.945 17.877598
61.950 17.881691
61.955 17.818476
61.960 17.163712
61.965 16.87936
61.970 16.438614
61.975 16.581121
61.980 16.140398
61.985 16.366774
61.990 16.870926
61.995 17.332808
62.000 17.435066
62.005 16.829206
62.010 17.139029
62.015 17.994675
62.020 18.010458
62.025 17.69046
62.030 17.574905
62.035 17.764521
62.040 18.020134
62.045 17.17399
62.050 17.010296
62.055 17.244183
62.060 17.169638
62.065 16.712374
62.070 16.86491
62.075 16.6616
62.080 16.694969
62.085 15.78053
62.090 15.148972
62.095 15.445287
62.100 16.194981
62.105 16.10413
62.110 16.43207
62.115 16.874472
62.120 17.53915
62.125 17.644083
62.130 17.580698
62.135 17.653196
62.140 17.515661
62.145 17.46347
62.150 17.24859
62.155 17.179815
62.160 17.563227
62.165 17.950897
62.170 18.061548
62.175 18.44602
62.180 18.974113
62.185 19.080385
62.190 19.13518
62.195 18.872454
62.200 18.336462
62.205 17.420954
62.210 17.343464
62.215 16.6378
62.220 16.250458
62.225 15.901317
62.230 15.680318
62.235 16.25004
62.240 16.733824
62.245 17.131611
62.250 17.579189
62.255 18.070147
62.260 18.4335
62.265 18.297915
62.270 17.686714
62.275 17.497244
62.280 16.679892
62.285 16.739925
62.290 16.763325
62.295 16.543346
62.300 16.59099
62.305 16.712418
62.310 16.880283
62.315 17.194475
62.320 16.646582
62.325 16.213322
62.330 16.253836
62.335 16.185141
62.340 15.903193
62.345 15.891287
62.350 15.739921
62.355 15.549711
62.360 15.487069
62.365 15.567051
62.370 15.661953
62.375 15.882921
62.380 16.373455
62.385 16.534029
62.390 16.955162
62.395 17.569401
62.400 17.840265
62.405 17.955065
62.410 18.196278
62.415 17.67662
62.420 17.680925
62.425 18.074255
62.430 18.059122
62.435 18.335381
62.440 18.448372
62.445 18.372417
62.450 18.432291
62.455 19.054852
62.460 18.989902
62.465 18.15254
62.470 17.942034
62.475 17.783419
62.480 17.597052
62.485 17.533529
62.490 16.862446
62.495 16.866457
62.500 17.159025
62.505 17.022432
62.510 16.786289
62.515 17.038683
62.520 17.6231
62.525 17.739887
62.530 17.434069
62.535 16.967194
62.540 17.293541
62.545 17.671324
62.550 17.484575
62.555 16.63574
62.560 16.562077
62.565 16.69142
62.570 16.784361
62.575 16.802982
62.580 16.069328
62.585 15.815119
62.590 15.883277
62.595 15.968184
62.600 16.622272
62.605 16.943909
62.610 16.470524
62.615 17.143974
62.620 17.412363
62.625 17.064789
62.630 16.700661
62.635 16.492826
62.640 16.590057
62.645 16.826668
62.650 16.791494
62.655 16.980583
62.660 17.816277
62.665 17.937912
62.670 17.770609
62.675 18.055696
62.680 18.306816
62.685 18.201145
62.690 17.961218
62.695 17.695072
62.700 17.990641
62.705 18.249605
62.710 17.964849
62.715 17.955154
62.720 17.655979
62.725 17.645018
62.730 18.188072
62.735 17.811224
62.740 17.519503
62.745 17.540585
62.750 17.294106
62.755 17.629978
62.760 17.95327
62.765 17.108704
62.770 16.975023
62.775 17.079718
62.780 17.208036
62.785 16.848305
62.790 16.648407
62.795 16.201176
62.800 16.392189
62.805 16.600983
62.810 16.258516
62.815 15.709517
62.820 16.151382
62.825 16.563883
62.830 16.391466
62.835 16.249971
62.840 16.281
62.845 16.39909
62.850 16.591284
62.855 16.600473
62.860 16.212147
62.865 16.497452
62.870 16.609554
62.875 16.701611
62.880 16.933451
62.885 17.032845
62.890 16.79649
62.895 16.815975
62.900 17.319439
62.905 17.234655
62.910 17.112598
62.915 16.93046
62.920 17.249855
62.925 17.029444
62.930 17.149744
62.935 16.966982
62.940 16.875252
62.945 17.0133
62.950 17.2409
62.955 17.268774
62.960 18.012272
62.965 17.968245
62.970 17.738377
62.975 17.386404
62.980 17.178829
62.985 16.89572
62.990 17.557007
62.995 17.648262
63.000 17.691462
63.005 18.033552
63.010 18.839832
63.015 19.127134
63.020 18.691511
63.025 17.547945
63.030 16.969351
63.035 16.627186
63.040 16.671717
63.045 15.996455
63.050 16.118393
63.055 16.377804
63.060 16.776257
63.065 17.041311
63.070 17.344048
63.075 17.620007
63.080 17.956911
63.085 17.577738
63.090 17.658709
63.095 17.489647
63.100 17.529339
63.105 17.524464
63.110 17.20187
63.115 17.294712
63.120 17.788893
63.125 17.941746
63.130 18.02364
63.135 18.018736
63.140 17.845179
63.145 17.506811
63.150 17.288998
63.155 17.176601
63.160 17.319036
63.165 17.466309
63.170 17.649975
63.175 17.332745
63.180 17.131384
63.185 17.239609
63.190 16.831526
63.195 16.61776
63.200 16.313391
63.205 16.272118
63.210 16.816368
63.215 17.456371
63.220 17.415903
63.225 17.765383
63.230 18.207767
63.235 18.433403
63.240 18.87639
63.245 18.589148
63.250 18.204903
63.255 18.230761
63.260 18.596527
63.265 18.410723
63.270 18.425112
63.275 17.850035
63.280 18.362156
63.285 18.679409
63.290 18.300522
63.295 18.619673
63.300 18.704641
63.305 18.354458
63.310 18.725481
63.315 18.915314
63.320 19.011965
63.325 18.966351
63.330 18.219299
63.335 18.071033
63.340 18.318863
63.345 17.783243
63.350 17.472313
63.355 18.124844
63.360 18.84726
63.365 18.726688
63.370 18.630907
63.375 18.985817
63.380 19.328405
63.385 19.794285
63.390 19.074766
63.395 18.574369
63.400 19.079403
63.405 19.357758
63.410 18.977486
63.415 18.809277
63.420 18.370003
63.425 18.399765
63.430 18.236752
63.435 17.905642
63.440 17.801384
63.445 17.931501
63.450 18.302492
63.455 17.732637
63.460 17.737715
63.465 18.42906
63.470 18.408211
63.475 18.69858
63.480 18.878521
63.485 18.953798
63.490 19.413334
63.495 19.380913
63.500 19.212227
63.505 19.455509
63.510 19.441124
63.515 19.055225
63.520 19.20064
63.525 19.223967
63.530 19.232962
63.535 19.270321
63.540 18.987555
63.545 18.544352
63.550 18.53693
63.555 18.213711
63.560 18.243437
63.565 18.191183
63.570 17.469065
63.575 17.224998
63.580 17.688906
63.585 18.022476
63.590 18.057163
63.595 17.540495
63.600 17.267353
63.605 17.773186
63.610 18.229578
63.615 18.005648
63.620 17.780897
63.625 17.856878
63.630 18.216206
63.635 18.259249
63.640 18.158457
63.645 18.191299
63.650 17.969149
63.655 17.980211
63.660 18.300898
63.665 18.988998
63.670 19.051933
63.675 18.957573
63.680 19.012875
63.685 19.951725
63.690 20.292156
63.695 20.128027
63.700 19.930216
63.705 20.010813
63.710 20.322655
63.715 20.135632
63.720 19.321527
63.725 19.237888
63.730 19.200636
63.735 19.18545
63.740 19.401592
63.745 18.732115
63.750 18.273598
63.755 18.702448
63.760 18.676968
63.765 18.721626
63.770 19.148027
63.775 19.264482
63.780 20.025082
63.785 20.582296
63.790 20.939831
63.795 20.870932
63.800 20.976633
63.805 20.031057
63.810 19.672335
63.815 20.057709
63.820 19.653015
63.825 19.19475
63.830 19.236866
63.835 19.032618
63.840 19.321466
63.845 19.291622
63.850 19.162462
63.855 19.798182
63.860 19.937855
63.865 19.672974
63.870 20.105864
63.875 20.145338
63.880 20.253805
63.885 20.192467
63.890 20.296051
63.895 20.925146
63.900 21.316536
63.905 21.84655
63.910 23.203066
63.915 23.348181
63.920 23.037243
63.925 22.751797
63.930 22.525728
63.935 22.636141
63.940 22.240166
63.945 21.821802
63.950 22.122396
63.955 22.917351
63.960 23.4589
63.965 23.372219
63.970 23.29018
63.975 23.250189
63.980 23.182417
63.985 22.929546
63.990 22.992311
63.995 23.66613
64.000 24.15822
64.005 24.232109
64.010 24.516743
64.015 24.912298
64.020 25.765574
64.025 25.535992
64.030 24.968391
64.035 25.035709
64.040 25.398615
64.045 25.813683
64.050 25.671566
64.055 25.27844
64.060 24.791193
64.065 25.151659
64.070 25.981697
64.075 26.245106
64.080 26.455061
64.085 27.878311
64.090 29.158905
64.095 30.260551
64.100 30.281244
64.105 30.352348
64.110 31.09553
64.115 31.538181
64.120 32.077915
64.125 32.315231
64.130 32.388603
64.135 33.111095
64.140 33.311672
64.145 33.454735
64.150 33.111427
64.155 33.089542
64.160 33.918758
64.165 35.264408
64.170 35.752533
64.175 35.938499
64.180 36.232758
64.185 36.363941
64.190 36.090763
64.195 35.158535
64.200 34.571754
64.205 34.523426
64.210 34.456524
64.215 34.296711
64.220 34.999073
64.225 35.494759
64.230 36.530933
64.235 36.70591
64.240 36.715504
64.245 37.571484
64.250 37.733871
64.255 37.604927
64.260 37.797623
64.265 37.677174
64.270 37.444843
64.275 38.124428
64.280 38.258522
64.285 39.36179
64.290 40.252937
64.295 39.947105
64.300 40.453892
64.305 41.66544
64.310 42.099323
64.315 42.129021
64.320 42.00523
64.325 41.508701
64.330 41.502472
64.335 41.175919
64.340 40.416348
64.345 40.165573
64.350 40.64325
64.355 41.469131
64.360 42.858589
64.365 43.939743
64.370 43.932575
64.375 44.299538
64.380 44.145069
64.385 43.671726
64.390 43.003529
64.395 42.404282
64.400 42.04414
64.405 41.473583
64.410 41.088867
64.415 40.575642
64.420 40.370747
64.425 40.324718
64.430 40.597919
64.435 40.752228
64.440 41.500168
64.445 41.587017
64.450 41.715996
64.455 40.770885
64.460 40.380291
64.465 39.987
64.470 39.205196
64.475 38.654968
64.480 38.856564
64.485 39.55801
64.490 40.300282
64.495 40.279255
64.500 40.148506
64.505 40.366302
64.510 39.944576
64.515 38.789974
64.520 37.381405
64.525 37.128632
64.530 36.493858
64.535 35.515858
64.540 34.762619
64.545 34.63406
64.550 34.698139
64.555 34.522728
64.560 33.397011
64.565 33.097206
64.570 32.612328
64.575 31.963638
64.580 31.715361
64.585 31.622496
64.590 31.606201
64.595 31.941906
64.600 31.61965
64.605 31.103195
64.610 30.496552
64.615 30.116835
64.620 29.783115
64.625 29.729006
64.630 29.088987
64.635 28.803202
64.640 28.540329
64.645 28.424847
64.650 27.874565
64.655 27.433023
64.660 27.066332
64.665 27.584831
64.670 27.881384
64.675 27.293257
64.680 27.277138
64.685 27.237783
64.690 26.844904
64.695 26.082619
64.700 24.978329
64.705 24.390116
64.710 24.479088
64.715 24.695734
64.720 25.202793
64.725 24.964935
64.730 25.058201
64.735 25.233631
64.740 25.034597
64.745 25.178801
64.750 24.558912
64.755 23.362606
64.760 23.964354
64.765 24.382799
64.770 24.521612
64.775 23.963421
64.780 23.378138
64.785 23.976336
64.790 24.287928
64.795 23.586124
64.800 22.910608
64.805 22.567083
64.810 22.940968
64.815 22.578773
64.820 21.903921
64.825 21.374414
64.830 21.322243
64.835 21.74592
64.840 21.624651
64.845 21.775728
64.850 22.175035
64.855 22.392197
64.860 22.733963
64.865 22.682487
64.870 22.547419
64.875 22.803867
64.880 22.422375
64.885 21.644415
64.890 20.709482
64.895 20.900526
64.900 21.761789
64.905 21.915739
64.910 22.263557
64.915 22.524
64.920 23.053385
64.925 23.462477
64.930 23.379923
64.935 23.285545
64.940 23.455315
64.945 22.911207
64.950 22.797855
64.955 22.791296
64.960 23.435883
64.965 23.118433
64.970 22.12166
64.975 22.102192
64.980 22.542461
64.985 22.872559
64.990 23.170759
64.995 23.338482
65.000 23.349756
65.005 23.883402
65.010 24.096977
65.015 23.641809
65.020 24.596834
65.025 24.765352
65.030 24.479637
65.035 24.841169
65.040 24.960007
65.045 24.717289
65.050 25.023062
65.055 24.636997
65.060 24.690931
65.065 25.573317
65.070 26.04936
65.075 25.69742
65.080 26.281548
65.085 27.085443
65.090 27.257822
65.095 27.295439
65.100 27.151928
65.105 27.255804
65.110 27.620977
65.115 27.386681
65.120 27.756407
65.125 27.896769
65.130 28.772282
65.135 28.281101
65.140 28.573284
65.145 29.211493
65.150 29.220783
65.155 28.252144
65.160 28.107407
65.165 27.646488
65.170 27.875244
65.175 27.095476
65.180 26.604971
65.185 26.472973
65.190 26.802052
65.195 27.105797
65.200 27.380247
65.205 26.960779
65.210 26.771324
65.215 26.784107
65.220 26.939575
65.225 27.46714
65.230 27.51016
65.235 27.496983
65.240 28.147541
65.245 28.857683
65.250 29.781387
65.255 29.794666
65.260 29.621452
65.265 29.480179
65.270 29.246561
65.275 29.668419
65.280 29.685108
65.285 29.706692
65.290 30.039362
65.295 30.066322
65.300 30.053898
65.305 30.116055
65.310 30.325788
65.315 30.075029
65.320 29.680092
65.325 29.855873
65.330 29.567511
65.335 29.124382
65.340 29.435963
65.345 29.766685
65.350 29.809853
65.355 29.756365
65.360 29.714029
65.365 30.367495
65.370 30.311199
65.375 29.694784
65.380 29.380695
65.385 28.849962
65.390 28.543867
65.395 28.724611
65.400 28.993093
65.405 29.528364
65.410 29.79344
65.415 30.044092
65.420 31.013411
65.425 31.211813
65.430 30.927874
65.435 30.577089
65.440 30.891195
65.445 30.454788
65.450 30.946489
65.455 30.925295
65.460 31.473511
65.465 31.671274
65.470 31.731964
65.475 31.357628
65.480 32.184387
65.485 32.048912
65.490 32.381401
65.495 32.160263
65.500 31.938595
65.505 32.371777
65.510 33.039398
65.515 33.473503
65.520 33.657284
65.525 33.97105
65.530 34.82061
65.535 35.41172
65.540 35.577877
65.545 35.875122
65.550 35.577267
65.555 35.585533
65.560 35.537075
65.565 34.759071
65.570 34.689926
65.575 35.069775
65.580 35.577255
65.585 35.381477
65.590 34.981888
65.595 35.456486
65.600 35.432495
65.605 35.27763
65.610 35.473618
65.615 35.860481
65.620 36.872723
65.625 37.033936
65.630 36.692139
65.635 37.069164
65.640 37.155476
65.645 37.053616
65.650 36.783218
65.655 36.029076
65.660 35.64698
65.665 35.94466
65.670 37.215244
65.675 37.919823
65.680 37.754681
65.685 37.307411
65.690 38.726776
65.695 39.567139
65.700 39.461197
65.705 38.382652
65.710 37.857765
65.715 37.75819
65.720 37.957455
65.725 37.444366
65.730 37.563526
65.735 38.314747
65.740 38.356575
65.745 38.409206
65.750 38.80978
65.755 38.373158
65.760 37.961864
65.765 37.37727
65.770 36.787628
65.775 36.996017
65.780 37.327576
65.785 36.939804
65.790 36.586254
65.795 36.441414
65.800 36.577354
65.805 36.925961
65.810 36.731865
65.815 36.468307
65.820 36.414101
65.825 36.857586
65.830 36.234627
65.835 35.7099
65.840 35.739819
65.845 35.968727
65.850 35.63763
65.855 35.764378
65.860 35.365326
65.865 35.505016
65.870 35.390171
65.875 34.406662
65.880 33.937721
65.885 33.779209
65.890 34.228092
65.895 34.838913
65.900 34.9286
65.905 34.844364
65.910 34.332088
65.915 34.379486
65.920 34.811852
65.925 34.100143
65.930 34.665154
65.935 35.56588
65.940 35.267456
65.945 35.689594
65.950 35.97097
65.955 35.796791
65.960 35.809048
65.965 34.489281
65.970 33.23373
65.975 33.865768
65.980 33.378273
65.985 32.48164
65.990 31.721001
65.995 31.423664
66.000 31.422234
66.005 31.624111
66.010 31.431301
66.015 31.588984
66.020 31.552973
66.025 31.534321
66.030 30.968794
66.035 30.765022
66.040 30.623745
66.045 30.407303
66.050 30.561907
66.055 31.234766
66.060 30.430922
66.065 29.886791
66.070 29.871386
66.075 29.550531
66.080 28.721661
66.085 28.978407
66.090 29.172565
66.095 29.868189
66.100 30.029629
66.105 30.074461
66.110 29.780607
66.115 29.717173
66.120 28.684378
66.125 28.158476
66.130 27.521866
66.135 27.396276
66.140 27.515734
66.145 27.611053
66.150 27.123049
66.155 27.291435
66.160 27.098949
66.165 27.8552
66.170 27.531406
66.175 27.369061
66.180 27.739933
66.185 27.603659
66.190 27.651287
66.195 27.16275
66.200 26.743343
66.205 27.237242
66.210 27.058691
66.215 26.982172
66.220 26.892788
66.225 26.394659
66.230 26.513458
66.235 26.075277
66.240 25.099096
66.245 25.108955
66.250 24.719286
66.255 25.270264
66.260 25.374866
66.265 25.326679
66.270 26.119692
66.275 26.357504
66.280 26.232956
66.285 25.794905
66.290 25.233158
66.295 25.792892
66.300 25.767904
66.305 24.550091
66.310 24.001431
66.315 24.283764
66.320 25.332321
66.325 25.560583
66.330 24.650072
66.335 24.505268
66.340 25.071352
66.345 25.004204
66.350 24.609737
66.355 24.750736
66.360 24.448662
66.365 24.039579
66.370 24.118736
66.375 23.723881
66.380 23.915602
66.385 23.276606
66.390 22.726849
66.395 22.857883
66.400 23.484798
66.405 23.331186
66.410 22.966967
66.415 22.621897
66.420 22.705725
66.425 22.32098
66.430 21.78705
66.435 21.080853
66.440 20.972891
66.445 21.350702
66.450 20.958094
66.455 20.084734
66.460 19.673979
66.465 20.039471
66.470 20.297649
66.475 20.130217
66.480 20.503984
66.485 21.033375
66.490 21.643156
66.495 22.030067
66.500 21.663307
66.505 22.029808
66.510 22.35088
66.515 22.158642
66.520 22.33119
66.525 22.415546
66.530 22.763897
66.535 22.983265
66.540 22.613695
66.545 22.173632
66.550 21.777246
66.555 21.845282
66.560 22.193157
66.565 21.716328
66.570 21.516716
66.575 21.615377
66.580 21.148642
66.585 20.695187
66.590 20.451479
66.595 20.198229
66.600 20.309731
66.605 20.423361
66.610 20.251329
66.615 20.873734
66.620 21.699858
66.625 21.415739
66.630 21.66411
66.635 22.035511
66.640 21.907082
66.645 21.754519
66.650 21.729073
66.655 21.630709
66.660 21.413954
66.665 20.871355
66.670 20.959925
66.675 20.916494
66.680 20.516336
66.685 19.766787
66.690 19.491425
66.695 19.118418
66.700 18.720896
66.705 18.655796
66.710 18.593458
66.715 19.048864
66.720 19.317795
66.725 19.957554
66.730 20.371695
66.735 20.355787
66.740 20.522949
66.745 21.16638
66.750 21.849506
66.755 21.78056
66.760 21.241005
66.765 21.664547
66.770 21.872839
66.775 21.703867
66.780 21.058521
66.785 20.395994
66.790 20.325676
66.795 20.044449
66.800 19.358219
66.805 19.483801
66.810 19.606112
66.815 19.402536
66.820 19.005142
66.825 19.267986
66.830 19.530304
66.835 19.812851
66.840 19.697271
66.845 19.88748
66.850 19.928116
66.855 20.266998
66.860 20.550613
66.865 20.671906
66.870 20.65406
66.875 20.045576
66.880 19.861799
66.885 20.098776
66.890 19.822495
66.895 18.886992
66.900 18.536837
66.905 18.408747
66.910 18.465006
66.915 18.458456
66.920 18.14262
66.925 18.168154
66.930 18.247248
66.935 18.553732
66.940 18.713011
66.945 18.393003
66.950 18.320353
66.955 18.615839
66.960 18.773724
66.965 19.130754
66.970 19.656271
66.975 20.169933
66.980 20.613085
66.985 20.775574
66.990 20.618696
66.995 20.479551
67.000 20.43689
67.005 20.004122
67.010 19.51207
67.015 19.321501
67.020 18.833815
67.025 18.77319
67.030 18.764235
67.035 18.998953
67.040 19.398808
67.045 19.533144
67.050 19.470989
67.055 19.681643
67.060 19.615721
67.065 19.417139
67.070 18.519964
67.075 18.324121
67.080 18.273241
67.085 18.145529
67.090 18.399776
67.095 19.036909
67.100 19.800913
67.105 20.435741
67.110 20.673605
67.115 21.155731
67.120 21.630199
67.125 21.506065
67.130 20.88105
67.135 20.040949
67.140 19.554482
67.145 18.746616
67.150 18.3438
67.155 17.631039
67.160 17.799316
67.165 18.042429
67.170 18.201376
67.175 18.573681
67.180 19.000395
67.185 19.425198
67.190 20.12026
67.195 20.262169
67.200 20.471785
67.205 20.127226
67.210 19.052752
67.215 18.890064
67.220 19.442089
67.225 19.329613
67.230 19.135208
67.235 18.94701
67.240 18.616444
67.245 18.910608
67.250 18.390978
67.255 17.875217
67.260 18.09453
67.265 18.625799
67.270 18.939203
67.275 19.194199
67.280 19.119452
67.285 18.990639
67.290 18.616674
67.295 18.178385
67.300 17.777325
67.305 17.708488
67.310 18.152809
67.315 18.958393
67.320 18.982763
67.325 18.708965
67.330 18.300425
67.335 18.734728
67.340 18.704567
67.345 18.742367
67.350 18.308767
67.355 18.849625
67.360 19.23085
67.365 19.627354
67.370 19.753857
67.375 19.956707
67.380 20.241329
67.385 20.683548
67.390 19.436491
67.395 19.166372
67.400 18.866365
67.405 18.166595
67.410 17.596476
67.415 17.571484
67.420 18.295973
67.425 19.027098
67.430 19.294807
67.435 19.366308
67.440 19.902515
67.445 20.178028
67.450 19.91699
67.455 19.417784
67.460 19.353355
67.465 19.599144
67.470 19.21697
67.475 18.770191
67.480 18.482515
67.485 18.484896
67.490 18.494829
67.495 18.953617
67.500 18.949274
67.505 19.44145
67.510 19.709101
67.515 19.740486
67.520 20.434725
67.525 20.723705
67.530 20.615862
67.535 20.763073
67.540 20.386242
67.545 19.997295
67.550 20.449137
67.555 19.736906
67.560 19.133238
67.565 18.566257
67.570 18.180477
67.575 18.026062
67.580 18.044464
67.585 17.439693
67.590 17.566233
67.595 17.896238
67.600 18.703869
67.605 19.069052
67.610 19.682648
67.615 20.009424
67.620 20.386154
67.625 20.153088
67.630 20.108728
67.635 19.560017
67.640 18.92181
67.645 18.643787
67.650 18.743536
67.655 18.902645
67.660 19.404791
67.665 20.008467
67.670 20.201254
67.675 20.473354
67.680 20.809975
67.685 20.800428
67.690 20.661425
67.695 20.566628
67.700 20.075239
67.705 20.451275
67.710 20.698946
67.715 20.619442
67.720 20.991587
67.725 21.136171
67.730 21.139278
67.735 20.829248
67.740 20.283682
67.745 20.134729
67.750 19.980759
67.755 18.979919
67.760 19.226395
67.765 19.624765
67.770 19.622759
67.775 19.776525
67.780 19.759041
67.785 19.53631
67.790 19.731165
67.795 18.936985
67.800 18.387911
67.805 18.778917
67.810 19.326767
67.815 19.335663
67.820 19.593275
67.825 19.975201
67.830 20.467915
67.835 20.74181
67.840 20.096914
67.845 19.432579
67.850 19.602335
67.855 19.620394
67.860 19.103889
67.865 18.749811
67.870 18.715782
67.875 18.643501
67.880 18.197672
67.885 17.856274
67.890 18.169203
67.895 18.300547
67.900 18.266197
67.905 18.744316
67.910 19.373821
67.915 19.594349
67.920 19.529137
67.925 19.241203
67.930 19.583168
67.935 19.821783
67.940 19.246889
67.945 19.446253
67.950 19.821844
67.955 19.970087
67.960 19.847248
67.965 19.322279
67.970 19.167933
67.975 19.028091
67.980 18.649208
67.985 18.199301
67.990 18.378017
67.995 18.216576
68.000 18.561852
68.005 18.404991
68.010 18.737885
68.015 19.206299
68.020 19.584402
68.025 19.76535
68.030 19.819212
68.035 20.119196
68.040 20.576515
68.045 20.901096
68.050 20.983988
68.055 20.902155
68.060 20.317963
68.065 20.045263
68.070 19.895317
68.075 19.783335
68.080 19.402645
68.085 19.413134
68.090 20.004604
68.095 20.750765
68.100 21.455454
68.105 21.853645
68.110 22.217722
68.115 21.783203
68.120 21.364206
68.125 20.424801
68.130 20.352453
68.135 19.722126
68.140 18.749002
68.145 18.247885
68.150 18.233252
68.155 18.395281
68.160 18.893913
68.165 19.025913
68.170 19.252808
68.175 19.072584
68.180 19.057058
68.185 19.474094
68.190 19.863325
68.195 19.982533
68.200 20.144558
68.205 20.55267
68.210 21.102602
68.215 21.257563
68.220 21.414911
68.225 21.281292
68.230 20.741318
68.235 20.544277
68.240 19.999964
68.245 20.300377
68.250 20.52133
68.255 19.882645
68.260 19.930079
68.265 20.421171
68.270 20.883419
68.275 21.421158
68.280 21.287704
68.285 20.95188
68.290 21.529505
68.295 21.14645
68.300 20.884384
68.305 20.32856
68.310 19.189306
68.315 19.009752
68.320 19.319092
68.325 19.511299
68.330 19.850441
68.335 20.022089
68.340 20.696619
68.345 21.77141
68.350 21.959328
68.355 21.825365
68.360 21.448536
68.365 21.743008
68.370 21.889122
68.375 21.563242
68.380 22.057262
68.385 22.344519
68.390 22.987206
68.395 23.469198
68.400 22.887373
68.405 22.915285
68.410 22.91431
68.415 22.892481
68.420 23.46756
68.425 23.067984
68.430 22.911816
68.435 23.984295
68.440 24.213741
68.445 24.503935
68.450 24.47946
68.455 23.858301
68.460 24.492496
68.465 24.525915
68.470 24.034521
68.475 24.777481
68.480 24.714979
68.485 24.104197
68.490 24.573673
68.495 24.220894
68.500 24.001705
68.505 23.950718
68.510 23.908972
68.515 24.216064
68.520 25.009535
68.525 25.422253
68.530 25.750391
68.535 25.98457
68.540 25.946871
68.545 25.901636
68.550 26.048559
68.555 25.875311
68.560 26.084072
68.565 26.289371
68.570 26.770174
68.575 26.728878
68.580 26.213171
68.585 26.499989
68.590 26.707224
68.595 27.18384
68.600 27.732803
68.605 27.717081
68.610 28.072662
68.615 28.910824
68.620 28.809959
68.625 28.550842
68.630 27.643375
68.635 27.516108
68.640 28.43166
68.645 28.241932
68.650 28.061409
68.655 28.269901
68.660 28.833899
68.665 28.80481
68.670 28.913603
68.675 28.295513
68.680 28.89732
68.685 29.533266
68.690 29.532055
68.695 30.183498
68.700 31.249443
68.705 31.005856
68.710 30.695492
68.715 29.974184
68.720 29.572206
68.725 29.853947
68.730 29.590206
68.735 29.373922
68.740 29.297441
68.745 29.645998
68.750 29.618065
68.755 30.727474
68.760 31.006796
68.765 30.364058
68.770 30.16045
68.775 30.047293
68.780 30.944702
68.785 31.555363
68.790 31.728085
68.795 32.359879
68.800 33.379375
68.805 34.049213
68.810 34.420006
68.815 34.011105
68.820 34.657875
68.825 34.385082
68.830 34.534775
68.835 34.85873
68.840 34.92318
68.845 35.137753
68.850 34.962341
68.855 35.285053
68.860 35.452225
68.865 35.044804
68.870 35.366287
68.875 35.30011
68.880 35.281883
68.885 34.547504
68.890 33.785748
68.895 33.532654
68.900 33.233738
68.905 32.715633
68.910 32.822372
68.915 32.626453
68.920 32.607651
68.925 32.371155
68.930 32.351112
68.935 32.375397
68.940 32.603607
68.945 32.549335
68.950 32.74704
68.955 32.394249
68.960 33.006069
68.965 33.427113
68.970 33.224934
68.975 32.485703
68.980 32.650127
68.985 33.53035
68.990 33.973381
68.995 33.454552
69.000 33.470497
69.005 33.354874
69.010 33.464111
69.015 33.17469
69.020 32.715931
69.025 33.104485
69.030 32.605
69.035 32.593731
69.040 33.323215
69.045 33.821823
69.050 34.447838
69.055 34.367004
69.060 34.078125
69.065 33.775841
69.070 32.951237
69.075 33.104321
69.080 32.401188
69.085 32.075424
69.090 32.366199
69.095 32.250671
69.100 33.36961
69.105 33.915504
69.110 33.707729
69.115 34.112434
69.120 33.687565
69.125 33.240265
69.130 33.621109
69.135 33.842468
69.140 34.181911
69.145 33.354805
69.150 32.816639
69.155 32.493557
69.160 32.797367
69.165 32.334579
69.170 31.439995
69.175 31.695599
69.180 32.393196
69.185 32.732418
69.190 32.638878
69.195 31.784555
69.200 31.18368
69.205 31.100637
69.210 30.315748
69.215 30.105246
69.220 30.256428
69.225 30.428259
69.230 30.767506
69.235 30.689688
69.240 30.200472
69.245 30.508535
69.250 30.067892
69.255 30.052069
69.260 29.59116
69.265 29.705948
69.270 29.49161
69.275 28.590218
69.280 27.75477
69.285 27.421371
69.290 27.505949
69.295 27.289553
69.300 26.49877
69.305 27.067169
69.310 28.096277
69.315 28.421614
69.320 27.538233
69.325 26.391676
69.330 27.024065
69.335 27.363932
69.340 26.885136
69.345 26.688936
69.350 26.090424
69.355 26.613022
69.360 26.34819
69.365 25.589874
69.370 25.306837
69.375 24.57049
69.380 24.17683
69.385 23.895412
69.390 24.181959
69.395 23.922342
69.400 23.60792
69.405 23.662632
69.410 23.785656
69.415 24.010424
69.420 24.404528
69.425 24.146252
69.430 24.869495
69.435 25.705647
69.440 26.298872
69.445 25.742411
69.450 24.618406
69.455 24.19574
69.460 23.891569
69.465 23.209946
69.470 21.900469
69.475 20.794964
69.480 21.045401
69.485 20.845125
69.490 20.874607
69.495 20.653696
69.500 20.352636
69.505 20.486479
69.510 21.043802
69.515 21.638958
69.520 22.100882
69.525 22.771257
69.530 22.85849
69.535 22.90262
69.540 23.214838
69.545 23.324303
69.550 22.864489
69.555 22.512753
69.560 21.829313
69.565 22.412992
69.570 22.747229
69.575 22.667721
69.580 22.222153
69.585 22.910748
69.590 22.633749
69.595 22.632282
69.600 22.084696
69.605 21.974146
69.610 22.116255
69.615 21.882805
69.620 21.214855
69.625 20.812759
69.630 20.965952
69.635 21.061325
69.640 20.66802
69.645 20.579729
69.650 20.842813
69.655 20.622747
69.660 20.496809
69.665 19.949471
69.670 19.983711
69.675 20.415733
69.680 20.090519
69.685 20.3869
69.690 20.783998
69.695 21.166834
69.700 21.32082
69.705 21.0264
69.710 20.455219
69.715 19.754915
69.720 19.855551
69.725 19.949982
69.730 20.155191
69.735 20.424999
69.740 21.074263
69.745 22.182838
69.750 22.834099
69.755 23.327496
69.760 23.511106
69.765 23.829222
69.770 23.655838
69.775 23.297873
69.780 22.598433
69.785 22.073185
69.790 21.267485
69.795 21.112309
69.800 20.954924
69.805 20.558464
69.810 19.947353
69.815 20.111673
69.820 20.833923
69.825 20.533695
69.830 19.886129
69.835 19.353542
69.840 19.084295
69.845 19.239958
69.850 18.866171
69.855 18.575401
69.860 18.845921
69.865 19.208254
69.870 19.319765
69.875 19.21323
69.880 19.316967
69.885 19.480642
69.890 19.379875
69.895 19.935751
69.900 19.893185
69.905 19.781046
69.910 19.605385
69.915 19.690048
69.920 19.333723
69.925 19.044302
69.930 17.992052
69.935 18.129786
69.940 18.653721
69.945 19.339174
69.950 19.444475
69.955 18.978464
69.960 18.416504
69.965 18.139671
69.970 18.08433
69.975 17.667217
69.980 17.305014
69.985 17.24688
69.990 18.031282
69.995 18.796276
70.000 19.105734
70.005 19.342417
70.010 19.49744
70.015 20.012814
70.020 20.05687
70.025 19.775511
70.030 19.637144
70.035 19.721876
70.040 19.939386
70.045 20.028746
70.050 19.564159
70.055 19.496927
70.060 19.043936
70.065 19.340565
70.070 19.275019
70.075 19.180891
70.080 18.978722
70.085 19.436226
70.090 19.738346
70.095 20.348948
70.100 19.880526
70.105 19.678892
70.110 19.803741
70.115 19.401569
70.120 19.08358
70.125 18.527128
70.130 18.391125
70.135 19.257313
70.140 19.107759
70.145 19.567799
70.150 20.177252
70.155 20.596638
70.160 20.317308
70.165 20.064531
70.170 19.680935
70.175 19.561346
70.180 18.855602
70.185 18.290245
70.190 17.874273
70.195 18.066469
70.200 18.192722
70.205 17.860678
70.210 17.980742
70.215 17.819668
70.220 17.799751
70.225 18.032696
70.230 18.065578
70.235 17.944324
70.240 18.223763
70.245 18.327845
70.250 18.894337
70.255 18.920481
70.260 19.218088
70.265 18.931803
70.270 18.741041
70.275 18.33708
70.280 18.254505
70.285 18.009518
70.290 17.570978
70.295 17.262072
70.300 17.145828
70.305 17.192047
70.310 17.441931
70.315 17.052858
70.320 17.124241
70.325 17.309402
70.330 17.429945
70.335 17.442595
70.340 17.674866
70.345 17.62463
70.350 18.308302
70.355 18.336714
70.360 18.257553
70.365 18.408733
70.370 18.820738
70.375 18.818176
70.380 18.601547
70.385 18.199621
70.390 18.635315
70.395 18.886753
70.400 19.001448
70.405 19.064569
70.410 19.149252
70.415 19.628754
70.420 19.212111
70.425 19.108768
70.430 18.981443
70.435 19.037542
70.440 19.307789
70.445 19.430984
70.450 18.726864
70.455 18.698019
70.460 18.908125
70.465 18.669359
70.470 18.753057
70.475 18.937826
70.480 18.749641
70.485 19.309391
70.490 19.729246
70.495 19.780087
70.500 19.87923
70.505 19.650116
70.510 19.267677
70.515 19.476658
70.520 19.396935
70.525 19.171848
70.530 18.902016
70.535 18.974115
70.540 19.431257
70.545 18.829405
70.550 18.902349
70.555 19.053823
70.560 19.137312
70.565 19.451387
70.570 19.189722
70.575 18.674446
70.580 19.320623
70.585 19.526003
70.590 19.711016
70.595 19.990891
70.600 19.745293
70.605 20.051636
70.610 20.276117
70.615 20.060926
70.620 19.686554
70.625 19.88772
70.630 20.090006
70.635 19.843269
70.640 19.276604
70.645 18.239574
70.650 17.675287
70.655 17.360025
70.660 16.966789
70.665 16.3451
70.670 16.588665
70.675 17.137888
70.680 18.107246
70.685 18.399214
70.690 18.810318
70.695 18.403265
70.700 18.220848
70.705 18.273964
70.710 17.616598
70.715 17.681284
70.720 17.746931
70.725 17.674345
70.730 18.156797
70.735 18.554724
70.740 18.743107
70.745 18.88133
70.750 19.222544
70.755 19.096586
70.760 19.37718
70.765 19.095192
70.770 18.664198
70.775 18.198458
70.780 18.260761
70.785 17.591621
70.790 17.80234
70.795 17.56529
70.800 17.981178
70.805 18.474157
70.810 19.212715
70.815 19.815088
70.820 20.414265
70.825 19.821167
70.830 19.376657
70.835 19.243937
70.840 18.796093
70.845 18.211241
70.850 17.960779
70.855 18.227999
70.860 18.778688
70.865 19.63443
70.870 19.776119
70.875 19.813972
70.880 20.040785
70.885 19.84675
70.890 19.155367
70.895 18.542013
70.900 17.855581
70.905 17.808758
70.910 17.750214
70.915 17.987329
70.920 18.187162
70.925 18.698545
70.930 19.211847
70.935 19.593288
70.940 19.622715
70.945 19.703243
70.950 18.920486
70.955 18.537998
70.960 18.278318
70.965 17.929705
70.970 17.878042
70.975 18.011772
70.980 18.27726
70.985 18.6273
70.990 18.94875
70.995 18.895538
71.000 19.009783
71.005 18.732273
71.010 17.992336
71.015 17.840179
71.020 17.776173
71.025 17.529673
71.030 17.757103
71.035 17.837893
71.040 18.009409
71.045 18.330112
71.050 18.405876
71.055 17.999237
71.060 17.71236
71.065 17.249865
71.070 17.283222
71.075 17.101122
71.080 16.818268
71.085 16.933006
71.090 17.228924
71.095 17.599583
71.100 17.815678
71.105 17.608017
71.110 17.748648
71.115 17.863308
71.120 17.58782
71.125 17.786968
71.130 18.345434
71.135 17.962944
71.140 17.906755
71.145 18.321459
71.150 18.595575
71.155 18.71574
71.160 18.638945
71.165 18.270397
71.170 18.461031
71.175 19.036581
71.180 18.908638
71.185 18.822742
71.190 18.945671
71.195 18.424894
71.200 18.892155
71.205 19.087626
71.210 18.424625
71.215 18.076551
71.220 17.932274
71.225 17.862558
71.230 18.320766
71.235 17.91729
71.240 17.886103
71.245 18.281973
71.250 18.973036
71.255 18.846062
71.260 18.425604
71.265 18.396076
71.270 18.045597
71.275 17.764984
71.280 17.619884
71.285 17.428659
71.290 17.930719
71.295 18.11334
71.300 18.415262
71.305 19.404091
71.310 19.81115
71.315 19.502321
71.320 19.41659
71.325 19.549589
71.330 19.402632
71.335 19.013952
71.340 18.712187
71.345 18.457476
71.350 18.503271
71.355 18.425537
71.360 18.57477
71.365 18.77696
71.370 18.859886
71.375 18.892494
71.380 19.02508
71.385 18.752048
71.390 18.29455
71.395 18.291136
71.400 17.883739
71.405 17.239538
71.410 16.87991
71.415 16.691999
71.420 17.047766
71.425 17.513487
71.430 17.292841
71.435 17.946627
71.440 18.371021
71.445 18.746157
71.450 19.430115
71.455 19.09408
71.460 18.604502
71.465 18.265293
71.470 17.579227
71.475 17.610447
71.480 17.175922
71.485 16.991795
71.490 17.140514
71.495 17.556828
71.500 18.126268
71.505 18.094364
71.510 18.255678
71.515 18.296946
71.520 18.104799
71.525 18.166937
71.530 18.137579
71.535 18.573328
71.540 19.080248
71.545 18.900261
71.550 18.889406
71.555 19.085917
71.560 19.060143
71.565 18.420242
71.570 18.060272
71.575 17.630026
71.580 18.159201
71.585 18.630455
71.590 18.627428
71.595 19.018696
71.600 19.212328
71.605 19.163488
71.610 19.195585
71.615 18.225197
71.620 18.149736
71.625 17.612267
71.630 17.232403
71.635 17.295488
71.640 17.275335
71.645 17.846155
71.650 18.131935
71.655 18.291367
71.660 18.767296
71.665 18.803051
71.670 18.703859
71.675 19.068142
71.680 19.06378
71.685 18.913376
71.690 18.707258
71.695 18.55806
71.700 18.857285
71.705 19.542894
71.710 19.211832
71.715 19.28607
71.720 19.972488
71.725 19.681959
71.730 19.3999
71.735 18.810133
71.740 18.451012
71.745 18.637589
71.750 18.919619
71.755 19.103712
71.760 19.283638
71.765 19.319521
71.770 19.738737
71.775 19.945637
71.780 19.082413
71.785 18.636803
71.790 18.312563
71.795 18.413496
71.800 18.688442
71.805 18.870001
71.810 18.974762
71.815 19.268663
71.820 18.859636
71.825 18.849319
71.830 18.811703
71.835 18.166155
71.840 17.52033
71.845 17.290936
71.850 17.160831
71.855 17.270906
71.860 17.171595
71.865 17.70064
71.870 17.846596
71.875 17.673702
71.880 17.4846
71.885 17.742563
71.890 18.132675
71.895 17.955517
71.900 17.406607
71.905 17.702595
71.910 18.05761
71.915 17.934542
71.920 17.464394
71.925 17.520626
71.930 17.87816
71.935 17.920088
71.940 17.470854
71.945 17.608191
71.950 17.719189
71.955 17.585281
71.960 17.062729
71.965 16.943731
71.970 17.096657
71.975 17.341002
71.980 17.787676
71.985 17.995083
71.990 18.655603
71.995 18.82497
72.000 18.747419
72.005 18.512529
72.010 18.164906
72.015 17.998898
72.020 18.185966
72.025 18.246208
72.030 18.96496
72.035 19.422838
72.040 20.076496
72.045 20.295626
72.050 19.934938
72.055 19.432209
72.060 18.663845
72.065 18.226398
72.070 17.94824
72.075 17.358492
72.080 16.883713
72.085 17.214859
72.090 17.095261
72.095 17.396757
72.100 17.481432
72.105 17.864269
72.110 18.640665
72.115 19.259279
72.120 19.166595
72.125 19.453259
72.130 19.280479
72.135 19.084747
72.140 19.024397
72.145 18.694885
72.150 18.392973
72.155 18.060497
72.160 17.706514
72.165 17.390406
72.170 17.820602
72.175 17.839716
72.180 18.309101
72.185 17.891945
72.190 17.980734
72.195 18.466455
72.200 18.560299
72.205 18.67733
72.210 18.839266
72.215 19.186798
72.220 19.160355
72.225 19.415319
72.230 19.482567
72.235 19.379005
72.240 18.784542
72.245 18.442417
72.250 17.87533
72.255 17.656994
72.260 17.193087
72.265 17.366232
72.270 17.216196
72.275 16.943277
72.280 17.106899
72.285 17.645432
72.290 17.933205
72.295 18.423048
72.300 18.454681
72.305 18.523991
72.310 18.577665
72.315 18.27059
72.320 18.200228
72.325 17.62306
72.330 17.65855
72.335 18.044641
72.340 18.268429
72.345 18.131212
72.350 17.970425
72.355 18.0138
72.360 18.021751
72.365 17.747894
72.370 17.10565
72.375 17.036953
72.380 17.446762
72.385 18.324663
72.390 18.596842
72.395 18.443287
72.400 18.226728
72.405 18.190042
72.410 18.039499
72.415 18.066099
72.420 17.640779
72.425 17.462269
72.430 17.716467
72.435 17.456385
72.440 17.41633
72.445 18.002207
72.450 18.023888
72.455 18.426437
72.460 18.318352
72.465 18.42634
72.470 18.728683
72.475 18.651751
72.480 18.370165
72.485 18.215372
72.490 18.254776
72.495 18.206764
72.500 18.491121
72.505 18.311007
72.510 18.180368
72.515 17.837946
72.520 17.750605
72.525 17.838881
72.530 17.239059
72.535 16.882792
72.540 16.898699
72.545 16.975994
72.550 17.12878
72.555 17.343393
72.560 17.42823
72.565 17.598162
72.570 17.44698
72.575 17.639126
72.580 18.223146
72.585 18.16943
72.590 17.893696
72.595 18.02939
72.600 18.798018
72.605 19.593395
72.610 19.596451
72.615 18.900352
72.620 18.70722
72.625 18.784374
72.630 18.554981
72.635 18.109964
72.640 17.334606
72.645 17.349657
72.650 17.027061
72.655 16.733755
72.660 16.539316
72.665 16.235846
72.670 16.080458
72.675 16.278366
72.680 15.760237
72.685 15.894306
72.690 16.651348
72.695 16.802626
72.700 16.820698
72.705 16.41222
72.710 16.457933
72.715 16.913586
72.720 17.163324
72.725 17.182482
72.730 17.587967
72.735 17.979614
72.740 18.21373
72.745 17.705603
72.750 17.601589
72.755 17.556845
72.760 17.215008
72.765 17.301878
72.770 17.220852
72.775 17.78544
72.780 17.692465
72.785 17.822134
72.790 16.678171
72.795 16.314213
72.800 16.163067
72.805 15.86961
72.810 15.568191
72.815 15.636483
72.820 15.593021
72.825 16.29035
72.830 16.707203
72.835 17.210289
72.840 17.512611
72.845 18.039448
72.850 18.067379
72.855 17.561337
72.860 17.307989
72.865 16.845201
72.870 16.735106
72.875 16.195236
72.880 15.961459
72.885 15.89809
72.890 16.029119
72.895 16.298735
72.900 15.963731
72.905 15.95096
72.910 15.941631
72.915 16.188807
72.920 16.737875
72.925 16.678434
72.930 16.987322
72.935 17.093555
72.940 17.219671
72.945 16.986765
72.950 16.580324
72.955 16.288004
72.960 16.938227
72.965 17.081299
72.970 17.599752
72.975 17.7848
72.980 18.030949
72.985 17.901051
72.990 18.205128
72.995 17.834381
73.000 17.549475
