!@!!GADDS PLOTSO FILE: Chi integration type
!@!!Title/SampleName: map-ec
!@!!Comment: ?
!@!!User: Bruker Instrument Administrator
!@!!Site: University of Illinois Chicago
!@!!Frame: map-ec_01_000.gfrm
!@!!Wavelengths    1.54184   1.54056   1.54439
!@!!Frame angles: 2Theta: 63.000 Omega: 50.000 Phi: 0.000 Chi: 90.000
!@!!Integration range: 2Theta: 53.000 to 73.000  Gamma: -105.000 to -75.000
!@!!Integration method: bin normalized
!@!N
!@!SS
!@!M
!@!L 0.0 0.0 0.0 0.0
!@!XDegrees
!@!YCounts
53.000 5.992891
53.005 5.616719
53.010 5.45338
53.015 5.491303
53.020 5.668319
53.025 5.659007
53.030 5.870389
53.035 6.087722
53.040 6.13552
53.045 6.225922
53.050 6.19253
53.055 6.068676
53.060 6.310877
53.065 6.506858
53.070 6.684007
53.075 7.007099
53.080 7.00564
53.085 6.958071
53.090 6.683142
53.095 6.068565
53.100 6.028431
53.105 5.890074
53.110 5.545002
53.115 5.404666
53.120 5.624846
53.125 6.309814
53.130 6.438795
53.135 6.441121
53.140 6.492514
53.145 6.620596
53.150 6.752844
53.155 6.60026
53.160 6.360507
53.165 6.564167
53.170 6.28708
53.175 6.098524
53.180 6.069963
53.185 6.067187
53.190 5.7718
53.195 5.227266
53.200 4.630968
53.205 4.543825
53.210 4.644431
53.215 4.992275
53.220 5.071104
53.225 5.362668
53.230 6.114868
53.235 6.745596
53.240 7.35563
53.245 7.597347
53.250 7.133461
53.255 7.247971
53.260 7.646464
53.265 7.670935
53.270 7.45978
53.275 7.565686
53.280 8.04009
53.285 8.110482
53.290 7.695448
53.295 7.021174
53.300 6.70532
53.305 6.484217
53.310 5.906655
53.315 5.854286
53.320 6.366651
53.325 6.352465
53.330 6.184406
53.335 5.930274
53.340 5.765937
53.345 5.488102
53.350 5.137362
53.355 5.314642
53.360 5.976913
53.365 6.736259
53.370 7.323878
53.375 7.95091
53.380 8.284762
53.385 8.467872
53.390 8.607601
53.395 8.514662
53.400 8.375092
53.405 8.300279
53.410 8.107798
53.415 8.23632
53.420 7.882119
53.425 7.888348
53.430 7.623652
53.435 7.762605
53.440 7.81501
53.445 7.513904
53.450 7.599471
53.455 8.12564
53.460 8.080636
53.465 8.036545
53.470 7.793573
53.475 7.749476
53.480 7.87422
53.485 7.456586
53.490 6.689873
53.495 6.622102
53.500 6.379966
53.505 6.178169
53.510 6.164666
53.515 6.128988
53.520 5.823605
53.525 5.976455
53.530 6.183931
53.535 6.376196
53.540 6.311292
53.545 6.10175
53.550 6.560082
53.555 6.803236
53.560 6.753123
53.565 6.949099
53.570 6.83216
53.575 6.955256
53.580 6.909445
53.585 6.418305
53.590 6.593025
53.595 6.605921
53.600 6.695286
53.605 6.808382
53.610 6.457813
53.615 6.498178
53.620 6.776322
53.625 6.783391
53.630 6.59962
53.635 6.906288
53.640 7.621758
53.645 7.963824
53.650 8.198037
53.655 8.071161
53.660 7.886329
53.665 7.830424
53.670 7.681596
53.675 7.265613
53.680 7.201425
53.685 6.812364
53.690 6.953311
53.695 6.887301
53.700 6.547724
53.705 6.196326
53.710 6.09707
53.715 6.177866
53.720 6.196046
53.725 6.060181
53.730 6.395926
53.735 7.030482
53.740 7.427174
53.745 7.708045
53.750 7.603213
53.755 7.887269
53.760 8.097384
53.765 8.104792
53.770 7.657448
53.775 7.580998
53.780 7.756266
53.785 8.008795
53.790 7.98878
53.795 7.793236
53.800 7.391702
53.805 7.547377
53.810 7.701432
53.815 7.73158
53.820 7.437793
53.825 7.299222
53.830 7.41672
53.835 7.797175
53.840 7.901302
53.845 7.596287
53.850 7.304184
53.855 7.119647
53.860 7.430634
53.865 7.671776
53.870 7.449363
53.875 7.597668
53.880 7.766278
53.885 8.196844
53.890 8.215226
53.895 8.520817
53.900 8.417631
53.905 8.577818
53.910 8.173713
53.915 7.843408
53.920 8.076883
53.925 8.028357
53.930 7.747824
53.935 7.775409
53.940 7.593916
53.945 8.003023
53.950 8.024026
53.955 7.879584
53.960 7.90808
53.965 7.823037
53.970 7.856588
53.975 7.633998
53.980 7.389387
53.985 7.492277
53.990 7.329255
53.995 6.969387
54.000 6.577269
54.005 6.396616
54.010 6.695295
54.015 6.884113
54.020 7.024484
54.025 7.327618
54.030 7.571671
54.035 7.866381
54.040 7.932251
54.045 7.782097
54.050 7.430436
54.055 7.186289
54.060 7.171566
54.065 7.28928
54.070 7.259136
54.075 7.167149
54.080 7.225387
54.085 7.540964
54.090 7.767807
54.095 8.208356
54.100 8.584332
54.105 8.752497
54.110 9.046555
54.115 8.871561
54.120 8.515276
54.125 8.028836
54.130 7.318918
54.135 7.324494
54.140 7.236025
54.145 7.142075
54.150 7.046576
54.155 7.102033
54.160 7.11471
54.165 6.937666
54.170 6.760947
54.175 6.791726
54.180 7.013455
54.185 7.074257
54.190 7.474841
54.195 7.856861
54.200 8.044277
54.205 8.00405
54.210 8.178145
54.215 8.085068
54.220 8.167148
54.225 7.950334
54.230 7.788978
54.235 7.897937
54.240 8.051765
54.245 7.996499
54.250 8.334817
54.255 8.363542
54.260 8.467621
54.265 8.487334
54.270 8.525582
54.275 8.132567
54.280 7.538946
54.285 7.40953
54.290 7.148883
54.295 6.90901
54.300 6.893686
54.305 6.78049
54.310 7.465861
54.315 7.765466
54.320 7.742905
54.325 8.128696
54.330 8.558338
54.335 8.540038
54.340 8.6095
54.345 8.271048
54.350 8.364263
54.355 8.387291
54.360 8.408994
54.365 8.340072
54.370 8.121647
54.375 8.074183
54.380 7.895382
54.385 7.910352
54.390 7.930657
54.395 7.890099
54.400 7.857656
54.405 8.248755
54.410 8.368746
54.415 8.351298
54.420 8.318172
54.425 8.306568
54.430 8.247956
54.435 8.225981
54.440 8.066699
54.445 8.021065
54.450 7.919494
54.455 7.55175
54.460 7.372399
54.465 6.906773
54.470 7.082493
54.475 6.875943
54.480 6.53783
54.485 6.752412
54.490 6.658195
54.495 6.927274
54.500 7.207045
54.505 6.981109
54.510 7.033564
54.515 7.314396
54.520 7.252544
54.525 7.115142
54.530 6.907478
54.535 6.83758
54.540 7.1311
54.545 7.325534
54.550 7.600067
54.555 7.885182
54.560 8.234658
54.565 8.203178
54.570 8.067872
54.575 7.912932
54.580 8.022385
54.585 7.830463
54.590 7.609427
54.595 7.611529
54.600 7.838491
54.605 7.652061
54.610 7.557588
54.615 7.440795
54.620 7.665186
54.625 7.913058
54.630 8.078236
54.635 8.418485
54.640 8.763616
54.645 9.296783
54.650 9.274316
54.655 9.2269
54.660 9.291442
54.665 9.113495
54.670 8.957693
54.675 8.580791
54.680 8.262857
54.685 8.321115
54.690 8.492119
54.695 8.781003
54.700 9.073135
54.705 8.96911
54.710 8.82711
54.715 9.149071
54.720 8.545403
54.725 8.417384
54.730 8.011869
54.735 7.775725
54.740 7.742305
54.745 8.086901
54.750 7.913641
54.755 7.925341
54.760 7.714326
54.765 7.631589
54.770 7.457711
54.775 7.566651
54.780 7.298716
54.785 7.36729
54.790 7.868377
54.795 8.037026
54.800 8.259866
54.805 8.403912
54.810 8.449506
54.815 8.412599
54.820 8.352962
54.825 8.502272
54.830 8.519897
54.835 8.561771
54.840 8.765323
54.845 8.890675
54.850 9.299547
54.855 9.179423
54.860 9.099055
54.865 9.087852
54.870 9.149194
54.875 9.329103
54.880 9.563993
54.885 9.748434
54.890 9.711085
54.895 9.73405
54.900 9.844387
54.905 9.786919
54.910 9.997316
54.915 9.723632
54.920 9.635965
54.925 9.556485
54.930 9.596574
54.935 9.714334
54.940 9.508265
54.945 9.222947
54.950 9.162074
54.955 8.952729
54.960 8.642288
54.965 8.227769
54.970 7.738684
54.975 7.534749
54.980 7.197099
54.985 6.852021
54.990 6.810723
54.995 7.121064
55.000 7.025865
55.005 6.967076
55.010 6.730656
55.015 7.516796
55.020 8.078671
55.025 8.094666
55.030 7.844266
55.035 8.198367
55.040 8.37701
55.045 8.433462
55.050 7.738918
55.055 7.626514
55.060 8.269493
55.065 8.384695
55.070 8.567454
55.075 8.956299
55.080 9.394601
55.085 9.955187
55.090 9.734137
55.095 9.338518
55.100 9.688187
55.105 9.833934
55.110 10.308582
55.115 9.935161
55.120 9.611702
55.125 9.437027
55.130 9.56681
55.135 9.008689
55.140 8.094761
55.145 7.607976
55.150 7.789641
55.155 7.892784
55.160 8.118337
55.165 8.125137
55.170 8.29495
55.175 8.408332
55.180 8.645465
55.185 9.08019
55.190 9.276501
55.195 9.280442
55.200 9.476983
55.205 9.757469
55.210 10.662864
55.215 10.625247
55.220 9.972816
55.225 9.548652
55.230 9.649501
55.235 10.095784
55.240 9.753642
55.245 9.487425
55.250 9.377846
55.255 9.660346
55.260 9.829576
55.265 9.676702
55.270 9.506046
55.275 9.687908
55.280 9.305791
55.285 9.357463
55.290 9.309091
55.295 9.325426
55.300 8.830958
55.305 8.426035
55.310 8.13682
55.315 7.786152
55.320 7.879536
55.325 7.996311
55.330 8.234927
55.335 8.696366
55.340 9.254454
55.345 9.52088
55.350 10.239254
55.355 10.169261
55.360 10.374087
55.365 10.215441
55.370 9.906717
55.375 9.314383
55.380 9.114061
55.385 8.742413
55.390 8.582777
55.395 8.74409
55.400 9.06426
55.405 9.308512
55.410 9.314451
55.415 9.664948
55.420 9.76392
55.425 10.506305
55.430 10.659406
55.435 10.767841
55.440 10.850397
55.445 10.850424
55.450 10.618233
55.455 10.302495
55.460 9.504272
55.465 9.056842
55.470 9.025502
55.475 9.211877
55.480 9.157322
55.485 9.110255
55.490 8.883557
55.495 9.015744
55.500 8.98919
55.505 8.573768
55.510 8.225974
55.515 8.185849
55.520 8.488654
55.525 8.779202
55.530 8.912826
55.535 8.821797
55.540 8.938868
55.545 9.609729
55.550 10.05387
55.555 10.528845
55.560 10.848134
55.565 10.568439
55.570 10.363816
55.575 10.234905
55.580 9.609539
55.585 9.14975
55.590 8.70488
55.595 8.621861
55.600 8.65267
55.605 9.114719
55.610 9.171519
55.615 9.152366
55.620 8.836209
55.625 8.825234
55.630 8.539541
55.635 8.412724
55.640 8.114814
55.645 8.719674
55.650 9.098516
55.655 9.218457
55.660 9.390244
55.665 9.750631
55.670 10.097553
55.675 9.772021
55.680 9.591003
55.685 9.512366
55.690 9.495879
55.695 9.254121
55.700 9.203084
55.705 9.121564
55.710 9.242607
55.715 9.888329
55.720 9.898339
55.725 9.963302
55.730 10.048712
55.735 9.471813
55.740 9.492358
55.745 9.526397
55.750 8.775284
55.755 8.709691
55.760 8.720514
55.765 8.813063
55.770 9.185401
55.775 9.393645
55.780 9.196455
55.785 9.244646
55.790 9.517466
55.795 9.029755
55.800 8.962166
55.805 8.688373
55.810 8.250979
55.815 8.250724
55.820 8.106335
55.825 7.785345
55.830 8.047859
55.835 8.569226
55.840 8.722721
55.845 8.853237
55.850 8.575784
55.855 8.730356
55.860 9.045996
55.865 9.023592
55.870 8.504137
55.875 9.08423
55.880 9.354631
55.885 9.583583
55.890 9.562467
55.895 9.358871
55.900 9.140674
55.905 9.158023
55.910 8.869806
55.915 9.116581
55.920 9.277594
55.925 9.557864
55.930 9.881353
55.935 10.037642
55.940 10.030611
55.945 10.354321
55.950 10.083162
55.955 10.106897
55.960 10.337198
55.965 10.499895
55.970 10.749321
55.975 10.947073
55.980 10.744041
55.985 10.699698
55.990 10.260221
55.995 9.720028
56.000 9.889129
56.005 9.63855
56.010 9.311993
56.015 9.304129
56.020 9.584664
56.025 9.467857
56.030 9.437509
56.035 8.96473
56.040 8.767186
56.045 8.665846
56.050 8.766521
56.055 9.286856
56.060 9.606684
56.065 9.692475
56.070 9.816414
56.075 10.126042
56.080 10.760931
56.085 10.292271
56.090 9.493285
56.095 9.6202
56.100 9.491425
56.105 10.128222
56.110 10.501886
56.115 10.139385
56.120 10.663584
56.125 11.12356
56.130 11.646582
56.135 11.582023
56.140 11.254722
56.145 11.138445
56.150 11.232786
56.155 10.912976
56.160 10.286613
56.165 9.920531
56.170 10.148919
56.175 10.050169
56.180 9.059554
56.185 8.712091
56.190 8.851313
56.195 9.103318
56.200 8.712864
56.205 8.456595
56.210 8.641177
56.215 9.492162
56.220 10.008755
56.225 10.055702
56.230 10.398028
56.235 11.029587
56.240 11.289484
56.245 10.848176
56.250 10.758421
56.255 10.360076
56.260 10.289445
56.265 10.210512
56.270 9.879119
56.275 10.04316
56.280 9.972169
56.285 9.822077
56.290 10.23842
56.295 10.186593
56.300 9.718444
56.305 9.433106
56.310 9.331706
56.315 9.650753
56.320 9.807132
56.325 10.113024
56.330 9.967433
56.335 10.000397
56.340 10.092996
56.345 9.841489
56.350 9.387729
56.355 9.007615
56.360 9.001459
56.365 9.565239
56.370 9.611993
56.375 9.756886
56.380 10.163271
56.385 10.540559
56.390 10.456647
56.395 9.885245
56.400 9.905268
56.405 10.06671
56.410 10.627748
56.415 10.602889
56.420 10.331826
56.425 10.324798
56.430 10.28019
56.435 9.829575
56.440 9.595487
56.445 9.203713
56.450 8.775633
56.455 9.17262
56.460 9.695208
56.465 9.846397
56.470 10.080539
56.475 10.367198
56.480 10.255038
56.485 10.620885
56.490 10.74588
56.495 10.701119
56.500 10.850512
56.505 10.785312
56.510 10.688747
56.515 10.599814
56.520 10.420221
56.525 10.447542
56.530 10.661931
56.535 10.928308
56.540 10.620036
56.545 10.661454
56.550 10.34562
56.555 10.245576
56.560 10.118098
56.565 9.965076
56.570 10.084291
56.575 10.387535
56.580 10.576058
56.585 11.218529
56.590 11.071168
56.595 10.898067
56.600 10.616828
56.605 10.639659
56.610 10.836503
56.615 10.763845
56.620 10.570023
56.625 10.486458
56.630 10.030312
56.635 9.842875
56.640 9.578486
56.645 9.418581
56.650 9.65386
56.655 9.795304
56.660 10.088774
56.665 10.406463
56.670 10.776127
56.675 10.817376
56.680 10.701607
56.685 10.460426
56.690 10.335929
56.695 10.486848
56.700 10.538116
56.705 10.417849
56.710 10.097938
56.715 10.023706
56.720 9.87495
56.725 9.812593
56.730 9.659472
56.735 9.906356
56.740 10.295494
56.745 10.973065
56.750 11.248982
56.755 11.697939
56.760 12.132135
56.765 12.22935
56.770 11.819866
56.775 11.193685
56.780 10.700078
56.785 10.461531
56.790 10.115458
56.795 9.801536
56.800 9.819694
56.805 10.061527
56.810 10.465931
56.815 10.692662
56.820 10.494324
56.825 10.647193
56.830 10.909708
56.835 10.588164
56.840 10.672338
56.845 10.895167
56.850 11.238127
56.855 11.166245
56.860 11.082901
56.865 10.952407
56.870 10.979178
56.875 10.8084
56.880 10.265013
56.885 10.016169
56.890 9.562704
56.895 9.885912
56.900 9.419183
56.905 9.231782
56.910 8.977778
56.915 9.063674
56.920 9.672296
56.925 10.56743
56.930 10.578483
56.935 11.509041
56.940 12.023221
56.945 12.415895
56.950 12.254779
56.955 11.690913
56.960 11.385105
56.965 11.643705
56.970 11.759428
56.975 11.807829
56.980 11.582487
56.985 11.939724
56.990 12.05424
56.995 11.637334
57.000 11.470642
57.005 11.17718
57.010 11.01026
57.015 11.185864
57.020 11.263544
57.025 10.900667
57.030 11.064327
57.035 11.110562
57.040 11.083691
57.045 11.282277
57.050 11.380984
57.055 11.631494
57.060 12.055038
57.065 11.338634
57.070 10.866743
57.075 10.614085
57.080 10.470345
57.085 10.112935
57.090 9.591449
57.095 9.927094
57.100 10.449379
57.105 10.671724
57.110 10.53328
57.115 10.510523
57.120 10.019915
57.125 9.947904
57.130 9.85164
57.135 9.655707
57.140 10.066787
57.145 10.283682
57.150 10.079196
57.155 10.868382
57.160 10.713005
57.165 10.438807
57.170 10.453963
57.175 10.04962
57.180 10.019569
57.185 9.938107
57.190 9.833665
57.195 10.290545
57.200 10.456903
57.205 10.534985
57.210 10.564908
57.215 10.587257
57.220 10.65033
57.225 10.758516
57.230 11.16042
57.235 11.270664
57.240 11.218963
57.245 11.271257
57.250 11.65665
57.255 11.827978
57.260 11.567471
57.265 11.51589
57.270 11.449031
57.275 11.100246
57.280 10.644826
57.285 10.204119
57.290 10.005495
57.295 9.870554
57.300 9.861494
57.305 9.809952
57.310 10.353765
57.315 10.828532
57.320 10.929925
57.325 11.155293
57.330 11.144288
57.335 11.058511
57.340 11.029194
57.345 10.804439
57.350 10.778916
57.355 10.941294
57.360 10.899103
57.365 11.107378
57.370 11.012988
57.375 11.056721
57.380 11.216846
57.385 11.850167
57.390 12.010818
57.395 11.973626
57.400 11.763423
57.405 11.830112
57.410 11.883472
57.415 11.798884
57.420 11.35284
57.425 11.254125
57.430 11.323225
57.435 11.345363
57.440 11.734323
57.445 12.00979
57.450 12.192052
57.455 12.154605
57.460 11.981368
57.465 12.033837
57.470 11.980059
57.475 11.754735
57.480 11.688686
57.485 10.874669
57.490 11.167614
57.495 11.919049
57.500 12.054353
57.505 12.298053
57.510 12.19479
57.515 12.520996
57.520 13.064755
57.525 13.112767
57.530 12.945056
57.535 13.346208
57.540 13.205459
57.545 13.520918
57.550 12.859508
57.555 12.749752
57.560 12.35141
57.565 11.644813
57.570 11.288659
57.575 11.50488
57.580 11.070356
57.585 11.441718
57.590 11.582498
57.595 12.364357
57.600 13.644225
57.605 13.675143
57.610 14.039165
57.615 14.07355
57.620 14.066427
57.625 14.031507
57.630 13.511661
57.635 12.619427
57.640 12.57979
57.645 12.350823
57.650 12.825553
57.655 13.254603
57.660 13.739202
57.665 13.667151
57.670 13.473073
57.675 13.394361
57.680 13.56916
57.685 13.46632
57.690 13.240871
57.695 13.006712
57.700 13.067983
57.705 13.34024
57.710 13.418537
57.715 13.594832
57.720 13.106328
57.725 12.859403
57.730 12.725965
57.735 13.067677
57.740 13.351527
57.745 13.23844
57.750 13.201913
57.755 13.808639
57.760 14.040191
57.765 14.422343
57.770 14.053261
57.775 13.932109
57.780 13.648053
57.785 14.306397
57.790 14.176114
57.795 13.900129
57.800 12.943054
57.805 12.753502
57.810 12.408063
57.815 12.438153
57.820 11.69506
57.825 11.713716
57.830 12.335593
57.835 13.164372
57.840 13.185313
57.845 13.713755
57.850 13.258582
57.855 12.855832
57.860 12.744924
57.865 12.070273
57.870 11.871051
57.875 12.185822
57.880 12.313353
57.885 12.744625
57.890 13.045358
57.895 12.833841
57.900 12.980404
57.905 12.999378
57.910 12.890977
57.915 13.027452
57.920 13.603721
57.925 14.031746
57.930 14.07029
57.935 14.754627
57.940 14.567513
57.945 14.338694
57.950 13.692134
57.955 13.527663
57.960 13.542477
57.965 13.419106
57.970 13.075537
57.975 13.219437
57.980 13.375288
57.985 13.684478
57.990 13.533004
57.995 13.288613
58.000 13.610446
58.005 14.175718
58.010 14.256688
58.015 14.431001
58.020 13.947867
58.025 13.720742
58.030 13.846263
58.035 13.967875
58.040 13.858406
58.045 14.017336
58.050 13.989185
58.055 14.277184
58.060 13.986383
58.065 14.197924
58.070 13.7005
58.075 13.080268
58.080 13.063027
58.085 12.581996
58.090 12.199361
58.095 12.163436
58.100 11.727638
58.105 11.562874
58.110 11.08391
58.115 11.203246
58.120 11.524917
58.125 11.979224
58.130 12.310359
58.135 12.624446
58.140 12.841476
58.145 13.363809
58.150 13.458637
58.155 14.029003
58.160 14.390692
58.165 14.508174
58.170 15.469563
58.175 15.773805
58.180 15.402543
58.185 15.313702
58.190 14.748646
58.195 14.422007
58.200 14.491751
58.205 14.078449
58.210 14.367167
58.215 15.381346
58.220 15.640864
58.225 16.014147
58.230 16.389425
58.235 16.495319
58.240 16.313101
58.245 16.575352
58.250 16.091425
58.255 16.349726
58.260 16.545595
58.265 16.526361
58.270 16.091673
58.275 16.396444
58.280 16.234259
58.285 16.221689
58.290 16.40526
58.295 16.485626
58.300 16.127804
58.305 16.035219
58.310 16.080492
58.315 16.114407
58.320 16.631865
58.325 16.006615
58.330 16.42555
58.335 17.395361
58.340 18.251429
58.345 18.168083
58.350 18.174257
58.355 18.132828
58.360 18.091646
58.365 17.587744
58.370 17.368105
58.375 17.048317
58.380 17.340527
58.385 17.562017
58.390 17.761139
58.395 18.405937
58.400 18.643785
58.405 18.346804
58.410 18.145834
58.415 18.248081
58.420 19.093872
58.425 19.399343
58.430 19.283201
58.435 19.381102
58.440 19.460161
58.445 20.148569
58.450 19.806593
58.455 18.974463
58.460 19.417952
58.465 20.261755
58.470 20.365593
58.475 20.88356
58.480 21.228895
58.485 22.30311
58.490 23.196619
58.495 22.944939
58.500 22.856121
58.505 23.203781
58.510 23.440275
58.515 23.365116
58.520 23.323204
58.525 23.525375
58.530 23.919941
58.535 24.774178
58.540 25.599649
58.545 25.87429
58.550 25.913977
58.555 26.016157
58.560 26.355251
58.565 26.279186
58.570 26.143591
58.575 26.116066
58.580 25.929935
58.585 26.115694
58.590 27.295769
58.595 28.039488
58.600 28.303169
58.605 28.699364
58.610 29.208532
58.615 30.070883
58.620 30.205383
58.625 29.506132
58.630 29.597561
58.635 30.222193
58.640 30.039917
58.645 29.562981
58.650 29.554436
58.655 29.777817
58.660 29.52198
58.665 29.035568
58.670 27.967928
58.675 27.956966
58.680 27.771231
58.685 27.544243
58.690 27.564335
58.695 27.815098
58.700 28.09869
58.705 28.55352
58.710 28.455061
58.715 27.869068
58.720 27.168221
58.725 27.15053
58.730 26.387691
58.735 25.796665
58.740 25.476435
58.745 25.098709
58.750 25.680536
58.755 25.962488
58.760 25.956902
58.765 25.901831
58.770 25.643887
58.775 24.949768
58.780 24.465698
58.785 23.464447
58.790 23.133396
58.795 22.762518
58.800 22.265888
58.805 21.781836
58.810 22.372141
58.815 22.957045
58.820 22.7302
58.825 22.623741
58.830 21.571121
58.835 21.131477
58.840 20.840664
58.845 20.597767
58.850 20.585545
58.855 21.156584
58.860 21.199532
58.865 21.921299
58.870 22.004961
58.875 21.70903
58.880 21.308228
58.885 20.450834
58.890 19.727827
58.895 19.141428
58.900 18.785994
58.905 17.928192
58.910 16.891434
58.915 16.631823
58.920 16.627943
58.925 16.854084
58.930 16.590813
58.935 16.856894
58.940 17.791142
58.945 18.518435
58.950 18.186054
58.955 17.7211
58.960 17.199219
58.965 17.379656
58.970 16.949484
58.975 16.840855
58.980 16.458719
58.985 16.353947
58.990 16.715324
58.995 17.009386
59.000 16.565823
59.005 16.132856
59.010 16.154482
59.015 16.637661
59.020 16.338169
59.025 15.590056
59.030 15.092979
59.035 15.151154
59.040 15.801413
59.045 15.738405
59.050 14.906061
59.055 14.992989
59.060 14.861382
59.065 14.550487
59.070 14.290353
59.075 13.662978
59.080 13.596799
59.085 13.676916
59.090 13.62185
59.095 13.807614
59.100 14.324023
59.105 14.483284
59.110 14.499568
59.115 14.270111
59.120 14.722156
59.125 14.694487
59.130 14.891957
59.135 14.750234
59.140 15.062788
59.145 15.472301
59.150 15.372844
59.155 15.272146
59.160 15.544374
59.165 15.283941
59.170 15.292174
59.175 14.698209
59.180 14.046209
59.185 13.642628
59.190 13.106226
59.195 12.831109
59.200 13.002308
59.205 12.575043
59.210 12.727273
59.215 12.796968
59.220 12.713956
59.225 13.08632
59.230 12.933226
59.235 12.348034
59.240 12.682344
59.245 12.317347
59.250 12.51262
59.255 13.040954
59.260 13.077
59.265 13.435434
59.270 13.446692
59.275 13.253372
59.280 13.480862
59.285 13.486777
59.290 13.541265
59.295 13.563373
59.300 13.483521
59.305 13.958275
59.310 13.966386
59.315 13.790041
59.320 13.889956
59.325 13.713503
59.330 13.685378
59.335 13.833686
59.340 13.857553
59.345 14.062225
59.350 14.168936
59.355 13.754587
59.360 13.274425
59.365 13.078614
59.370 12.96775
59.375 12.726971
59.380 12.423353
59.385 12.238983
59.390 12.974401
59.395 13.033466
59.400 12.885619
59.405 12.677859
59.410 12.968775
59.415 13.494987
59.420 14.070669
59.425 13.47923
59.430 13.816632
59.435 13.767773
59.440 14.545266
59.445 14.241554
59.450 13.742853
59.455 13.028874
59.460 13.38949
59.465 13.108062
59.470 13.444042
59.475 13.266803
59.480 13.804371
59.485 14.039945
59.490 14.853184
59.495 15.124322
59.500 15.135658
59.505 14.844023
59.510 14.405197
59.515 14.172363
59.520 14.246295
59.525 13.449139
59.530 13.382855
59.535 13.603222
59.540 13.41756
59.545 13.248111
59.550 13.0339
59.555 13.539846
59.560 13.840577
59.565 13.657595
59.570 13.508827
59.575 13.848819
59.580 14.025337
59.585 14.118637
59.590 13.441709
59.595 13.605243
59.600 13.637338
59.605 13.437331
59.610 13.214231
59.615 13.51007
59.620 13.265656
59.625 13.263434
59.630 12.983564
59.635 13.007009
59.640 13.214403
59.645 13.460227
59.650 13.021196
59.655 13.327085
59.660 13.715878
59.665 13.45866
59.670 13.271491
59.675 13.31393
59.680 12.795723
59.685 13.04167
59.690 13.036867
59.695 12.704006
59.700 12.74458
59.705 13.292259
59.710 13.335215
59.715 13.747609
59.720 13.916433
59.725 14.123963
59.730 14.660128
59.735 14.997079
59.740 14.585584
59.745 14.343462
59.750 14.240213
59.755 13.999199
59.760 13.663579
59.765 13.396982
59.770 12.809635
59.775 12.807515
59.780 12.940361
59.785 13.12916
59.790 12.962847
59.795 13.076332
59.800 13.125784
59.805 13.444854
59.810 13.890208
59.815 14.014604
59.820 13.803079
59.825 14.183799
59.830 13.936283
59.835 13.541091
59.840 13.145484
59.845 12.82095
59.850 12.327164
59.855 12.370811
59.860 12.175669
59.865 12.856586
59.870 13.021593
59.875 12.927198
59.880 12.774948
59.885 13.10719
59.890 12.990773
59.895 12.672923
59.900 12.155242
59.905 12.657591
59.910 13.730835
59.915 14.034881
59.920 14.249885
59.925 14.510087
59.930 14.851502
59.935 14.312854
59.940 13.511127
59.945 12.374668
59.950 11.811513
59.955 11.760352
59.960 11.510736
59.965 11.368092
59.970 11.466593
59.975 11.671565
59.980 12.478118
59.985 12.843606
59.990 12.771731
59.995 12.699205
60.000 12.571976
60.005 12.936793
60.010 13.221019
60.015 13.204678
60.020 12.729267
60.025 12.620371
60.030 12.64176
60.035 12.67973
60.040 12.84163
60.045 12.393112
60.050 11.77336
60.055 12.251805
60.060 12.437008
60.065 12.794904
60.070 13.128128
60.075 13.286263
60.080 13.820454
60.085 14.175694
60.090 14.272403
60.095 14.41055
60.100 13.854691
60.105 14.12403
60.110 14.331228
60.115 14.271836
60.120 14.308249
60.125 14.137973
60.130 14.301412
60.135 14.77552
60.140 14.664144
60.145 14.521179
60.150 14.841003
60.155 15.496294
60.160 15.19921
60.165 14.950127
60.170 14.501388
60.175 13.902122
60.180 13.587399
60.185 13.271648
60.190 13.014925
60.195 13.379364
60.200 13.081807
60.205 13.349471
60.210 13.566606
60.215 13.535546
60.220 13.548818
60.225 13.251264
60.230 13.334019
60.235 13.584349
60.240 13.454083
60.245 13.674776
60.250 14.432837
60.255 14.86756
60.260 14.494428
60.265 14.0437
60.270 13.820765
60.275 14.268694
60.280 14.193919
60.285 13.282006
60.290 13.512355
60.295 13.972676
60.300 14.025754
60.305 14.124103
60.310 13.327654
60.315 13.009796
60.320 13.020558
60.325 12.217841
60.330 12.160374
60.335 12.74366
60.340 12.924376
60.345 13.483511
60.350 14.137329
60.355 13.92907
60.360 14.332046
60.365 14.531795
60.370 14.639528
60.375 14.922378
60.380 14.796303
60.385 14.37016
60.390 14.539615
60.395 14.69571
60.400 14.292497
60.405 13.419659
60.410 13.097557
60.415 12.486654
60.420 12.635309
60.425 12.474769
60.430 12.172902
60.435 12.231346
60.440 12.871704
60.445 12.894513
60.450 13.050535
60.455 13.444956
60.460 13.695633
60.465 13.568587
60.470 13.356451
60.475 13.069889
60.480 13.085822
60.485 13.531672
60.490 13.16088
60.495 13.218304
60.500 13.164672
60.505 13.591637
60.510 14.181802
60.515 14.661791
60.520 14.421174
60.525 14.61262
60.530 14.683211
60.535 14.72932
60.540 15.013558
60.545 14.521886
60.550 13.980652
60.555 13.956102
60.560 13.917205
60.565 13.803452
60.570 13.568255
60.575 13.275623
60.580 13.50385
60.585 14.332181
60.590 14.968112
60.595 14.721562
60.600 14.894735
60.605 14.851931
60.610 14.235846
60.615 13.648267
60.620 13.420126
60.625 12.737055
60.630 12.652384
60.635 12.846337
60.640 13.164589
60.645 14.128326
60.650 14.750546
60.655 14.406484
60.660 14.608722
60.665 14.899493
60.670 14.886243
60.675 15.147193
60.680 14.587647
60.685 14.241084
60.690 14.076249
60.695 14.078017
60.700 14.210481
60.705 14.335711
60.710 13.843261
60.715 13.69934
60.720 14.086336
60.725 14.379834
60.730 14.248948
60.735 14.229196
60.740 14.098537
60.745 14.307918
60.750 14.480864
60.755 14.394761
60.760 14.241997
60.765 14.293175
60.770 14.022923
60.775 14.573185
60.780 14.76534
60.785 14.97167
60.790 14.941182
60.795 15.058148
60.800 15.043261
60.805 14.780028
60.810 13.962786
60.815 13.888135
60.820 13.985787
60.825 14.044452
60.830 13.855394
60.835 13.759956
60.840 13.668038
60.845 13.986644
60.850 13.736849
60.855 13.642483
60.860 13.734643
60.865 13.774077
60.870 13.857121
60.875 14.373875
60.880 14.424582
60.885 14.563429
60.890 14.479822
60.895 14.150048
60.900 14.466149
60.905 14.420322
60.910 13.627761
60.915 12.893558
60.920 12.725363
60.925 12.278437
60.930 12.671739
60.935 12.638314
60.940 12.599581
60.945 13.302164
60.950 14.07635
60.955 14.308783
60.960 14.177775
60.965 14.224796
60.970 13.960058
60.975 14.124965
60.980 14.018351
60.985 13.809923
60.990 13.672814
60.995 13.63301
61.000 12.997504
61.005 13.510725
61.010 13.460406
61.015 13.233603
61.020 13.349287
61.025 13.513122
61.030 13.784636
61.035 13.751141
61.040 13.395235
61.045 13.377523
61.050 13.411024
61.055 12.777526
61.060 12.309251
61.065 11.861955
61.070 12.191316
61.075 12.186101
61.080 12.212059
61.085 12.382315
61.090 13.192349
61.095 13.932007
61.100 14.078951
61.105 14.216998
61.110 14.174666
61.115 14.226137
61.120 14.095485
61.125 13.677114
61.130 13.704869
61.135 14.047717
61.140 14.179596
61.145 14.294744
61.150 14.200452
61.155 14.413507
61.160 14.590942
61.165 14.403197
61.170 14.067289
61.175 13.864706
61.180 13.910962
61.185 14.155566
61.190 14.604526
61.195 14.9663
61.200 15.586416
61.205 15.626322
61.210 15.846622
61.215 16.03816
61.220 16.114531
61.225 16.08498
61.230 16.395691
61.235 16.510675
61.240 16.536022
61.245 16.352592
61.250 16.059242
61.255 15.577083
61.260 15.134919
61.265 14.550268
61.270 14.089008
61.275 13.9361
61.280 13.715566
61.285 13.706239
61.290 13.853401
61.295 13.825258
61.300 13.914952
61.305 13.952189
61.310 14.242917
61.315 14.277054
61.320 14.380596
61.325 14.075164
61.330 14.059173
61.335 13.361312
61.340 13.712234
61.345 13.551739
61.350 13.388609
61.355 13.244935
61.360 13.667848
61.365 13.915121
61.370 14.000834
61.375 13.686443
61.380 14.051421
61.385 14.160841
61.390 14.585208
61.395 14.589543
61.400 14.525805
61.405 14.33308
61.410 14.186151
61.415 14.300381
61.420 14.72049
61.425 14.506037
61.430 14.178477
61.435 14.184075
61.440 14.736174
61.445 14.952556
61.450 15.443239
61.455 15.276466
61.460 14.784745
61.465 14.536521
61.470 14.399978
61.475 13.799597
61.480 13.702732
61.485 13.523791
61.490 13.627016
61.495 14.023006
61.500 14.37823
61.505 14.549655
61.510 14.735003
61.515 14.117076
61.520 13.535849
61.525 13.922318
61.530 14.12309
61.535 14.070425
61.540 14.388002
61.545 15.041271
61.550 15.861185
61.555 15.999838
61.560 15.829925
61.565 16.142025
61.570 16.199615
61.575 15.790192
61.580 15.117945
61.585 14.641555
61.590 14.275605
61.595 13.961456
61.600 13.634109
61.605 13.919095
61.610 14.655972
61.615 15.004943
61.620 15.100587
61.625 14.990559
61.630 14.719848
61.635 14.643518
61.640 13.99601
61.645 13.570874
61.650 13.794128
61.655 14.030754
61.660 14.498302
61.665 14.515089
61.670 14.357364
61.675 14.24449
61.680 13.814747
61.685 13.732994
61.690 14.18084
61.695 14.531104
61.700 14.85975
61.705 14.767394
61.710 14.846519
61.715 15.077137
61.720 14.79472
61.725 14.260562
61.730 13.885736
61.735 13.714733
61.740 13.799217
61.745 14.115776
61.750 14.383229
61.755 14.561141
61.760 14.460059
61.765 14.607351
61.770 14.819448
61.775 15.15027
61.780 14.957872
61.785 15.154588
61.790 15.418997
61.795 15.384641
61.800 15.666542
61.805 15.683693
61.810 15.664343
61.815 15.427583
61.820 14.935061
61.825 15.178764
61.830 14.956138
61.835 14.779043
61.840 14.654325
61.845 14.393263
61.850 14.79282
61.855 14.672388
61.860 14.147578
61.865 14.098751
61.870 13.94426
61.875 14.275435
61.880 14.565318
61.885 14.914348
61.890 15.526569
61.895 16.087677
61.900 16.506639
61.905 16.406099
61.910 15.99694
61.915 15.509048
61.920 15.081402
61.925 15.108032
61.930 14.499721
61.935 13.875596
61.940 14.006877
61.945 14.2485
61.950 14.221909
61.955 13.824902
61.960 13.120948
61.965 13.754384
61.970 13.966863
61.975 13.811617
61.980 14.064355
61.985 14.146937
61.990 14.123495
61.995 13.853621
62.000 13.612167
62.005 13.93339
62.010 14.030696
62.015 13.722816
62.020 13.604763
62.025 13.757123
62.030 13.626539
62.035 13.421267
62.040 13.350451
62.045 13.700988
62.050 13.974407
62.055 14.284273
62.060 14.219537
62.065 14.586443
62.070 14.512461
62.075 13.888655
62.080 13.449688
62.085 13.14122
62.090 13.27987
62.095 13.324775
62.100 13.46572
62.105 13.758429
62.110 13.831955
62.115 14.229673
62.120 14.950504
62.125 14.90043
62.130 15.048338
62.135 14.830695
62.140 15.065932
62.145 15.5057
62.150 15.435863
62.155 14.805505
62.160 15.149852
62.165 15.654371
62.170 16.329844
62.175 16.459352
62.180 16.281895
62.185 16.009308
62.190 16.187277
62.195 15.747828
62.200 15.546794
62.205 15.438961
62.210 15.738238
62.215 15.607982
62.220 15.858369
62.225 15.912788
62.230 15.817047
62.235 15.178831
62.240 14.687913
62.245 14.325689
62.250 14.480888
62.255 14.763073
62.260 14.955812
62.265 15.29648
62.270 15.446571
62.275 15.310968
62.280 15.080927
62.285 15.340583
62.290 14.94984
62.295 14.680968
62.300 14.496879
62.305 14.899297
62.310 15.196131
62.315 14.495461
62.320 14.312427
62.325 14.048698
62.330 13.978355
62.335 13.878425
62.340 13.774084
62.345 13.670251
62.350 13.980185
62.355 13.78298
62.360 13.984
62.365 14.43732
62.370 14.502286
62.375 14.09511
62.380 14.165543
62.385 14.200479
62.390 14.241201
62.395 14.371383
62.400 14.575932
62.405 14.750012
62.410 14.660157
62.415 14.993949
62.420 15.267474
62.425 15.439281
62.430 15.194327
62.435 14.735658
62.440 14.737976
62.445 15.203764
62.450 15.79242
62.455 16.083851
62.460 16.031155
62.465 16.541567
62.470 16.723461
62.475 17.137968
62.480 16.849724
62.485 16.165882
62.490 15.840569
62.495 15.767273
62.500 15.147765
62.505 14.918862
62.510 14.335728
62.515 14.018332
62.520 14.010344
62.525 13.965779
62.530 13.876968
62.535 13.853806
62.540 13.14291
62.545 13.181617
62.550 13.523849
62.555 12.93515
62.560 12.564241
62.565 12.351593
62.570 12.776177
62.575 13.248947
62.580 13.346273
62.585 13.267705
62.590 13.719562
62.595 13.776011
62.600 13.97377
62.605 13.71622
62.610 13.61545
62.615 13.656633
62.620 14.040567
62.625 14.004088
62.630 14.985254
62.635 15.507867
62.640 15.914741
62.645 16.22238
62.650 16.065083
62.655 16.014528
62.660 16.198265
62.665 15.859015
62.670 15.08646
62.675 14.54458
62.680 14.358401
62.685 14.307477
62.690 14.065586
62.695 13.523099
62.700 13.77896
62.705 14.10297
62.710 14.796475
62.715 14.938566
62.720 15.362462
62.725 16.05479
62.730 16.471342
62.735 16.420834
62.740 16.330141
62.745 16.141552
62.750 16.211506
62.755 15.713711
62.760 14.949074
62.765 14.84936
62.770 14.758872
62.775 14.137014
62.780 14.007494
62.785 14.134198
62.790 14.927619
62.795 15.228959
62.800 15.434023
62.805 15.435962
62.810 16.136311
62.815 16.190517
62.820 16.186741
62.825 16.229166
62.830 16.420029
62.835 16.025759
62.840 16.399334
62.845 16.024946
62.850 16.408361
62.855 16.032078
62.860 15.647449
62.865 15.863326
62.870 16.143408
62.875 15.491156
62.880 15.087442
62.885 14.918613
62.890 14.939301
62.895 14.809757
62.900 14.874372
62.905 14.83269
62.910 15.238699
62.915 15.780286
62.920 15.922455
62.925 15.801724
62.930 15.916763
62.935 15.316379
62.940 14.854
62.945 14.244316
62.950 13.571672
62.955 13.305946
62.960 13.176082
62.965 13.216355
62.970 13.508273
62.975 14.274885
62.980 15.047576
62.985 15.251865
62.990 15.280586
62.995 15.69381
63.000 15.845066
63.005 15.590502
63.010 15.146461
63.015 14.982837
63.020 15.351016
63.025 15.652499
63.030 15.17474
63.035 15.030256
63.040 15.174981
63.045 15.651551
63.050 15.902414
63.055 16.191339
63.060 16.4468
63.065 17.082212
63.070 17.038342
63.075 16.894339
63.080 16.35235
63.085 15.959442
63.090 15.796766
63.095 15.442029
63.100 15.333452
63.105 15.583014
63.110 16.228626
63.115 16.816294
63.120 17.009188
63.125 16.958864
63.130 16.932613
63.135 16.456663
63.140 15.65031
63.145 15.133618
63.150 15.331005
63.155 15.574212
63.160 15.560233
63.165 15.590425
63.170 16.097044
63.175 16.792967
63.180 17.136248
63.185 16.643579
63.190 16.351919
63.195 16.280344
63.200 16.199289
63.205 15.876333
63.210 15.265776
63.215 14.68714
63.220 14.477713
63.225 14.221929
63.230 14.40696
63.235 14.374802
63.240 14.380411
63.245 14.818487
63.250 15.605944
63.255 16.150288
63.260 16.482693
63.265 16.854477
63.270 17.081083
63.275 17.12569
63.280 17.091921
63.285 16.676146
63.290 16.270555
63.295 16.232243
63.300 15.559397
63.305 15.305098
63.310 15.215486
63.315 14.990598
63.320 15.650021
63.325 16.016041
63.330 16.419905
63.335 16.473518
63.340 16.65584
63.345 16.875914
63.350 16.917898
63.355 16.042957
63.360 15.502278
63.365 15.33246
63.370 15.466786
63.375 15.587451
63.380 15.769921
63.385 15.5593
63.390 15.509736
63.395 15.450247
63.400 15.272318
63.405 15.286798
63.410 15.611707
63.415 15.350728
63.420 15.196094
63.425 15.262333
63.430 14.903951
63.435 14.592557
63.440 14.384983
63.445 13.913417
63.450 13.966182
63.455 14.640807
63.460 15.277993
63.465 16.13201
63.470 16.12694
63.475 15.532096
63.480 15.707089
63.485 15.947626
63.490 16.588346
63.495 16.670626
63.500 16.123659
63.505 16.573046
63.510 17.244102
63.515 17.286888
63.520 16.754637
63.525 16.150209
63.530 15.649859
63.535 16.368839
63.540 16.193811
63.545 15.97632
63.550 16.194479
63.555 16.830559
63.560 16.645937
63.565 16.79384
63.570 16.058973
63.575 16.537651
63.580 16.806284
63.585 16.94315
63.590 16.885115
63.595 17.317116
63.600 17.604277
63.605 18.5786
63.610 18.117783
63.615 17.842892
63.620 17.835619
63.625 17.27566
63.630 16.888155
63.635 16.164295
63.640 15.913006
63.645 16.274958
63.650 16.11108
63.655 15.661648
63.660 16.077675
63.665 15.730634
63.670 16.359612
63.675 16.371773
63.680 16.746449
63.685 16.992857
63.690 17.126047
63.695 17.028769
63.700 17.519146
63.705 17.280443
63.710 17.082233
63.715 17.032759
63.720 17.116272
63.725 17.41045
63.730 17.242376
63.735 16.722145
63.740 16.370087
63.745 16.148087
63.750 15.73662
63.755 15.182363
63.760 14.937933
63.765 15.005542
63.770 15.394065
63.775 15.468884
63.780 15.197331
63.785 15.361488
63.790 16.024448
63.795 16.129347
63.800 16.362593
63.805 16.070589
63.810 16.400831
63.815 17.150694
63.820 17.314516
63.825 17.001509
63.830 16.667549
63.835 16.897127
63.840 17.337652
63.845 17.591536
63.850 17.537981
63.855 17.32724
63.860 17.29262
63.865 17.900955
63.870 18.000162
63.875 17.962997
63.880 17.568644
63.885 17.64752
63.890 18.011587
63.895 18.388487
63.900 18.464142
63.905 18.493496
63.910 18.664845
63.915 19.029583
63.920 18.752611
63.925 17.984907
63.930 17.948336
63.935 18.434492
63.940 18.33357
63.945 18.277714
63.950 18.424168
63.955 19.374022
63.960 20.270227
63.965 20.805225
63.970 20.614569
63.975 20.925758
63.980 21.24995
63.985 21.394058
63.990 21.012011
63.995 21.320513
64.000 20.773741
64.005 21.008213
64.010 21.447733
64.015 21.715176
64.020 21.329647
64.025 21.109632
64.030 20.747637
64.035 21.164536
64.040 21.53849
64.045 21.888651
64.050 22.642941
64.055 22.903034
64.060 23.53636
64.065 23.778294
64.070 24.134485
64.075 24.181129
64.080 23.750868
64.085 23.489161
64.090 23.66699
64.095 23.497271
64.100 23.298613
64.105 23.204805
64.110 23.038805
64.115 23.740528
64.120 24.362219
64.125 24.173119
64.130 24.600039
64.135 25.071493
64.140 25.108095
64.145 25.464537
64.150 25.829449
64.155 26.384485
64.160 27.285049
64.165 28.099695
64.170 29.528564
64.175 29.848715
64.180 30.591528
64.185 30.913227
64.190 30.509645
64.195 31.407019
64.200 31.048225
64.205 30.631151
64.210 31.053854
64.215 31.165243
64.220 31.282131
64.225 32.371986
64.230 32.287464
64.235 32.566689
64.240 32.306442
64.245 32.884823
64.250 32.686131
64.255 33.225166
64.260 33.82935
64.265 34.298374
64.270 34.858208
64.275 35.529701
64.280 35.119682
64.285 34.911434
64.290 35.957977
64.295 35.738686
64.300 36.06319
64.305 37.021156
64.310 37.339134
64.315 38.346226
64.320 39.435043
64.325 39.998074
64.330 40.118324
64.335 40.03191
64.340 40.310516
64.345 40.923336
64.350 40.882187
64.355 40.732143
64.360 40.835873
64.365 41.423473
64.370 41.788872
64.375 41.591091
64.380 42.170116
64.385 41.679043
64.390 40.769836
64.395 40.112244
64.400 40.001022
64.405 40.052505
64.410 39.769455
64.415 38.752537
64.420 39.631031
64.425 41.301865
64.430 41.948971
64.435 41.694538
64.440 41.481361
64.445 40.869297
64.450 40.002766
64.455 39.366863
64.460 38.48954
64.465 37.368431
64.470 36.837482
64.475 36.826015
64.480 37.248268
64.485 37.575081
64.490 37.498425
64.495 37.303753
64.500 38.077034
64.505 38.047039
64.510 36.990437
64.515 36.837864
64.520 37.443691
64.525 36.778557
64.530 36.248665
64.535 36.008724
64.540 36.480213
64.545 36.974991
64.550 37.136311
64.555 36.569592
64.560 36.863071
64.565 36.996525
64.570 36.266544
64.575 36.082355
64.580 35.485218
64.585 35.081959
64.590 34.610886
64.595 33.736996
64.600 33.457996
64.605 32.413273
64.610 31.279963
64.615 30.227276
64.620 29.658081
64.625 29.811584
64.630 29.781868
64.635 29.167191
64.640 28.934149
64.645 28.764774
64.650 28.37516
64.655 27.690746
64.660 27.596327
64.665 27.632729
64.670 27.684605
64.675 27.490767
64.680 27.378561
64.685 27.215408
64.690 26.977093
64.695 26.420795
64.700 25.402628
64.705 25.39439
64.710 25.200764
64.715 24.856781
64.720 24.890779
64.725 24.423859
64.730 23.86516
64.735 23.723381
64.740 22.810509
64.745 22.778498
64.750 22.200056
64.755 21.761942
64.760 22.177563
64.765 22.259996
64.770 21.727785
64.775 21.647156
64.780 20.761757
64.785 20.573874
64.790 20.211683
64.795 19.581158
64.800 19.938936
64.805 19.883436
64.810 19.732424
64.815 20.28986
64.820 21.320683
64.825 22.262152
64.830 22.248022
64.835 21.820801
64.840 21.943842
64.845 22.024332
64.850 22.556414
64.855 21.469719
64.860 20.518906
64.865 21.058907
64.870 21.390339
64.875 21.069031
64.880 20.998848
64.885 20.683056
64.890 21.271166
64.895 21.746067
64.900 21.036976
64.905 21.315458
64.910 21.574352
64.915 21.276083
64.920 21.161394
64.925 20.841444
64.930 20.288799
64.935 20.247101
64.940 20.209982
64.945 20.239689
64.950 20.572165
64.955 20.395399
64.960 20.996798
64.965 22.140226
64.970 22.749041
64.975 23.175278
64.980 23.62644
64.985 24.72839
64.990 25.38788
64.995 25.949562
65.000 26.292147
65.005 26.540201
65.010 26.846451
65.015 27.174376
65.020 26.988552
65.025 27.157722
65.030 26.55279
65.035 26.581303
65.040 26.690807
65.045 26.542147
65.050 26.257572
65.055 26.228857
65.060 26.767756
65.065 27.367315
65.070 27.730717
65.075 27.907316
65.080 28.013288
65.085 27.909149
65.090 27.140749
65.095 26.811928
65.100 26.05723
65.105 25.584225
65.110 25.3881
65.115 25.32885
65.120 25.8692
65.125 26.735693
65.130 27.391632
65.135 27.902908
65.140 28.257751
65.145 28.476408
65.150 29.028582
65.155 29.654768
65.160 29.322783
65.165 29.025263
65.170 28.594521
65.175 28.755764
65.180 28.871267
65.185 28.79756
65.190 28.085018
65.195 28.782227
65.200 29.11343
65.205 29.590971
65.210 29.388636
65.215 29.440138
65.220 29.313293
65.225 29.387281
65.230 29.714478
65.235 29.75271
65.240 30.164679
65.245 30.564493
65.250 30.762564
65.255 30.79393
65.260 31.378525
65.265 31.478924
65.270 32.145157
65.275 32.334785
65.280 32.851082
65.285 33.276787
65.290 33.43454
65.295 33.762253
65.300 33.399475
65.305 33.781883
65.310 33.721451
65.315 32.96711
65.320 32.698006
65.325 32.303406
65.330 32.016083
65.335 32.309715
65.340 32.377403
65.345 32.249226
65.350 32.450043
65.355 32.215229
65.360 32.226887
65.365 32.298649
65.370 32.235378
65.375 32.556122
65.380 32.81937
65.385 32.74902
65.390 32.987381
65.395 32.990685
65.400 32.464451
65.405 31.648375
65.410 30.690327
65.415 30.1661
65.420 30.329353
65.425 30.581457
65.430 31.190849
65.435 32.216358
65.440 33.054039
65.445 33.648834
65.450 34.203075
65.455 34.887337
65.460 35.262524
65.465 35.290741
65.470 34.622868
65.475 34.61137
65.480 34.175922
65.485 34.45821
65.490 34.384628
65.495 34.378838
65.500 33.957645
65.505 34.467262
65.510 34.911938
65.515 34.474644
65.520 33.65612
65.525 33.045918
65.530 33.131599
65.535 33.456436
65.540 33.261307
65.545 33.108982
65.550 33.367168
65.555 34.258984
65.560 34.631149
65.565 34.437923
65.570 34.634399
65.575 34.626144
65.580 34.778744
65.585 35.254139
65.590 35.084606
65.595 34.682148
65.600 34.431393
65.605 34.333508
65.610 34.052551
65.615 33.506638
65.620 33.236004
65.625 32.777317
65.630 33.273888
65.635 33.072102
65.640 33.317905
65.645 33.392944
65.650 33.402668
65.655 32.97403
65.660 33.036201
65.665 33.023285
65.670 33.005836
65.675 33.023102
65.680 33.412498
65.685 33.502556
65.690 33.975491
65.695 33.866039
65.700 33.984127
65.705 33.970753
65.710 33.071941
65.715 32.723194
65.720 32.41177
65.725 32.584625
65.730 32.151005
65.735 32.110538
65.740 32.202564
65.745 31.823183
65.750 31.790583
65.755 32.019619
65.760 31.318317
65.765 31.729006
65.770 31.211472
65.775 31.462204
65.780 32.243237
65.785 32.836712
65.790 32.552727
65.795 32.995697
65.800 32.571278
65.805 32.754902
65.810 32.14304
65.815 31.392403
65.820 29.908693
65.825 29.308336
65.830 29.237238
65.835 28.898129
65.840 28.519112
65.845 28.610521
65.850 28.2854
65.855 27.845461
65.860 27.712042
65.865 27.047676
65.870 27.633249
65.875 27.953436
65.880 28.074783
65.885 27.917994
65.890 27.910587
65.895 28.262758
65.900 28.578991
65.905 28.320011
65.910 27.373043
65.915 26.570847
65.920 27.074627
65.925 28.19849
65.930 28.223269
65.935 27.548405
65.940 26.590544
65.945 26.383081
65.950 26.031904
65.955 25.705687
65.960 24.406546
65.965 24.120836
65.970 24.27338
65.975 24.346525
65.980 24.62993
65.985 24.749672
65.990 24.33007
65.995 24.413847
66.000 23.939137
66.005 24.067596
66.010 24.695271
66.015 24.565201
66.020 24.473827
66.025 24.691389
66.030 24.647238
66.035 25.270584
66.040 24.825562
66.045 23.775242
66.050 23.585464
66.055 23.638107
66.060 22.608629
66.065 21.863287
66.070 21.177444
66.075 20.74181
66.080 20.728697
66.085 20.936195
66.090 20.697691
66.095 20.846979
66.100 20.813337
66.105 20.045153
66.110 20.498674
66.115 20.69096
66.120 20.494875
66.125 20.632509
66.130 20.583326
66.135 20.255955
66.140 20.627338
66.145 19.793999
66.150 19.305107
66.155 18.789875
66.160 18.562239
66.165 18.654196
66.170 18.797689
66.175 18.664253
66.180 19.042498
66.185 18.914162
66.190 19.187969
66.195 18.792036
66.200 18.686499
66.205 18.881397
66.210 18.777214
66.215 19.194492
66.220 19.294807
66.225 18.751062
66.230 18.652231
66.235 18.419043
66.240 18.302963
66.245 18.270447
66.250 17.770456
66.255 17.791607
66.260 18.344875
66.265 18.529545
66.270 19.07324
66.275 19.076254
66.280 19.630486
66.285 19.433752
66.290 19.306974
66.295 19.040163
66.300 19.207323
66.305 18.407766
66.310 17.95188
66.315 17.925846
66.320 18.631292
66.325 18.78549
66.330 18.879667
66.335 19.118116
66.340 18.663942
66.345 18.461637
66.350 17.955303
66.355 17.526636
66.360 17.503462
66.365 17.519917
66.370 17.347151
66.375 18.579393
66.380 18.628223
66.385 18.552896
66.390 18.124792
66.395 17.819582
66.400 17.722704
66.405 17.524752
66.410 17.143467
66.415 16.644562
66.420 16.547375
66.425 15.997
66.430 15.996655
66.435 15.93061
66.440 15.697868
66.445 16.166384
66.450 16.915047
66.455 17.366047
66.460 17.897699
66.465 17.869864
66.470 17.447229
66.475 17.661024
66.480 17.209986
66.485 16.517159
66.490 16.666431
66.495 16.812014
66.500 17.376841
66.505 17.718508
66.510 17.336475
66.515 17.003246
66.520 17.464664
66.525 17.14056
66.530 16.678476
66.535 16.217785
66.540 15.839574
66.545 16.1828
66.550 16.314301
66.555 15.909863
66.560 15.752255
66.565 16.202398
66.570 16.748325
66.575 16.518642
66.580 16.557232
66.585 16.492155
66.590 16.548603
66.595 16.952518
66.600 17.012703
66.605 17.280502
66.610 17.581444
66.615 17.220652
66.620 17.047075
66.625 17.307858
66.630 16.996714
66.635 16.434845
66.640 15.835561
66.645 15.977542
66.650 15.87466
66.655 16.058561
66.660 15.82305
66.665 16.035107
66.670 16.279884
66.675 16.465197
66.680 16.45425
66.685 16.887928
66.690 16.882784
66.695 16.822083
66.700 16.826342
66.705 16.741249
66.710 16.60907
66.715 16.330769
66.720 16.803608
66.725 16.554684
66.730 16.39584
66.735 16.241312
66.740 15.720244
66.745 16.030228
66.750 16.555977
66.755 16.085857
66.760 16.926966
66.765 17.185125
66.770 17.512348
66.775 17.925659
66.780 17.590714
66.785 17.479021
66.790 16.86783
66.795 16.13077
66.800 16.292404
66.805 15.999054
66.810 15.982187
66.815 16.167425
66.820 15.920784
66.825 16.546171
66.830 16.263849
66.835 16.065207
66.840 16.540808
66.845 16.451565
66.850 16.861851
66.855 17.081936
66.860 16.708652
66.865 17.018812
66.870 16.883471
66.875 17.01811
66.880 16.989061
66.885 16.499834
66.890 16.319023
66.895 16.826233
66.900 17.710283
66.905 17.925127
66.910 17.680592
66.915 17.448303
66.920 16.878227
66.925 16.520048
66.930 16.038944
66.935 15.752484
66.940 15.385849
66.945 15.39949
66.950 15.47929
66.955 16.070086
66.960 16.36969
66.965 16.485126
66.970 16.338648
66.975 16.454197
66.980 16.376078
66.985 16.472267
66.990 16.528076
66.995 16.660582
67.000 16.650738
67.005 16.69277
67.010 16.801945
67.015 16.396769
67.020 16.379246
67.025 16.423319
67.030 15.933455
67.035 15.388977
67.040 15.485053
67.045 16.110434
67.050 16.885166
67.055 17.197128
67.060 17.637302
67.065 18.108883
67.070 17.985643
67.075 17.920424
67.080 17.501858
67.085 17.476427
67.090 16.901278
67.095 16.512886
67.100 16.606991
67.105 17.195961
67.110 16.604713
67.115 16.62689
67.120 16.974592
67.125 17.268951
67.130 17.4879
67.135 17.570671
67.140 17.810995
67.145 17.896111
67.150 17.660135
67.155 17.422947
67.160 17.216915
67.165 17.137308
67.170 16.980753
67.175 16.914337
67.180 17.455679
67.185 17.302765
67.190 17.282101
67.195 17.696447
67.200 17.317572
67.205 17.487038
67.210 17.20615
67.215 16.777443
67.220 17.489483
67.225 17.753635
67.230 17.579302
67.235 17.764111
67.240 17.409338
67.245 17.613693
67.250 17.556757
67.255 16.9582
67.260 16.491631
67.265 16.448887
67.270 16.206615
67.275 15.65301
67.280 15.368822
67.285 14.838464
67.290 14.654638
67.295 14.781399
67.300 14.871054
67.305 15.160179
67.310 15.871388
67.315 15.982151
67.320 16.176952
67.325 16.280352
67.330 16.091167
67.335 16.077507
67.340 16.350601
67.345 16.345585
67.350 16.340698
67.355 16.631363
67.360 16.383492
67.365 16.284502
67.370 15.92818
67.375 16.041771
67.380 15.647566
67.385 15.809924
67.390 16.375462
67.395 16.84864
67.400 17.204472
67.405 17.576355
67.410 17.133509
67.415 17.288622
67.420 17.159748
67.425 16.706411
67.430 16.685873
67.435 16.463577
67.440 16.593601
67.445 16.467524
67.450 16.477577
67.455 16.521276
67.460 16.583612
67.465 16.38397
67.470 16.250486
67.475 15.834796
67.480 15.893247
67.485 15.884592
67.490 15.94572
67.495 15.683631
67.500 16.008055
67.505 15.542056
67.510 15.580823
67.515 16.100651
67.520 16.717262
67.525 16.96093
67.530 16.92712
67.535 16.647959
67.540 17.214178
67.545 17.376963
67.550 16.81316
67.555 16.761692
67.560 16.781502
67.565 17.304064
67.570 17.730391
67.575 18.120037
67.580 18.141048
67.585 17.966194
67.590 18.032841
67.595 18.266087
67.600 17.891312
67.605 17.537884
67.610 17.391693
67.615 17.671045
67.620 17.556223
67.625 17.048401
67.630 17.444946
67.635 17.199915
67.640 17.055799
67.645 16.889267
67.650 17.013968
67.655 17.433475
67.660 17.188253
67.665 16.795656
67.670 17.015907
67.675 17.649784
67.680 17.445517
67.685 17.289188
67.690 17.635195
67.695 17.770515
67.700 17.414852
67.705 17.118168
67.710 17.005859
67.715 17.270798
67.720 17.589912
67.725 17.618807
67.730 17.450275
67.735 17.665062
67.740 17.588516
67.745 17.17383
67.750 16.737221
67.755 15.730643
67.760 15.216441
67.765 15.475344
67.770 15.865559
67.775 16.392179
67.780 16.796314
67.785 17.109724
67.790 17.191532
67.795 17.671467
67.800 17.963545
67.805 17.943398
67.810 17.583773
67.815 17.078726
67.820 16.904659
67.825 16.726822
67.830 16.815344
67.835 16.795116
67.840 17.000147
67.845 17.248259
67.850 17.253109
67.855 17.519047
67.860 17.808352
67.865 17.221453
67.870 16.703609
67.875 16.198023
67.880 16.302086
67.885 17.063511
67.890 17.074394
67.895 17.203796
67.900 17.996021
67.905 18.284485
67.910 17.992746
67.915 17.744326
67.920 17.195026
67.925 17.074459
67.930 16.654364
67.935 15.784321
67.940 16.129335
67.945 16.704905
67.950 16.837753
67.955 16.858179
67.960 17.217514
67.965 17.596189
67.970 17.77816
67.975 17.600899
67.980 17.413332
67.985 17.613802
67.990 17.974234
67.995 17.744482
68.000 17.438499
68.005 17.094276
68.010 17.110441
68.015 16.979954
68.020 16.584599
68.025 16.551271
68.030 16.390991
68.035 16.727291
68.040 16.922737
68.045 16.991261
68.050 16.900234
68.055 17.446899
68.060 17.039791
68.065 16.959799
68.070 16.858946
68.075 16.66403
68.080 16.959408
68.085 17.20915
68.090 16.90731
68.095 16.505238
68.100 16.642574
68.105 17.144733
68.110 17.25754
68.115 16.643332
68.120 16.533022
68.125 17.018555
68.130 17.786428
68.135 17.629883
68.140 17.165075
68.145 17.255917
68.150 17.720638
68.155 17.699789
68.160 17.741806
68.165 17.871912
68.170 17.978569
68.175 18.114502
68.180 18.363779
68.185 18.275829
68.190 18.395676
68.195 18.073212
68.200 17.656017
68.205 17.627378
68.210 17.474697
68.215 17.857155
68.220 18.049116
68.225 18.303795
68.230 18.982462
68.235 19.635456
68.240 20.041897
68.245 20.025192
68.250 20.025473
68.255 19.695
68.260 20.26433
68.265 20.188221
68.270 20.618052
68.275 20.094122
68.280 20.071486
68.285 20.139168
68.290 20.227516
68.295 19.835981
68.300 19.814411
68.305 19.74122
68.310 20.716032
68.315 21.419895
68.320 21.620413
68.325 22.295965
68.330 22.199755
68.335 22.169104
68.340 22.139894
68.345 22.236572
68.350 21.387653
68.355 21.02124
68.360 20.408894
68.365 20.852348
68.370 20.926296
68.375 20.431736
68.380 20.760141
68.385 21.946669
68.390 23.297596
68.395 23.587784
68.400 23.246868
68.405 23.916626
68.410 24.48727
68.415 24.634687
68.420 24.333582
68.425 24.434179
68.430 24.756056
68.435 25.386818
68.440 25.345068
68.445 26.150404
68.450 26.097057
68.455 26.542042
68.460 26.809019
68.465 27.214396
68.470 27.117123
68.475 27.395391
68.480 27.003761
68.485 27.132502
68.490 27.292177
68.495 27.077551
68.500 27.03285
68.505 27.307182
68.510 27.392956
68.515 27.798517
68.520 28.163017
68.525 27.936651
68.530 27.897831
68.535 27.903494
68.540 28.128151
68.545 28.382177
68.550 28.434052
68.555 28.286028
68.560 28.93821
68.565 29.026352
68.570 29.603909
68.575 29.246735
68.580 28.881163
68.585 28.810125
68.590 29.118216
68.595 28.983454
68.600 29.296488
68.605 29.335178
68.610 29.958881
68.615 30.742468
68.620 31.069643
68.625 30.620152
68.630 30.027798
68.635 29.534008
68.640 29.705639
68.645 29.589331
68.650 29.129
68.655 28.965704
68.660 29.804644
68.665 30.348879
68.670 30.355595
68.675 30.295992
68.680 30.061338
68.685 29.770424
68.690 30.165722
68.695 29.846611
68.700 30.03871
68.705 30.266188
68.710 29.82375
68.715 29.662521
68.720 29.985594
68.725 30.693396
68.730 31.16971
68.735 31.470388
68.740 31.084085
68.745 31.239626
68.750 32.004734
68.755 31.858288
68.760 31.210035
68.765 30.635141
68.770 30.348164
68.775 30.727278
68.780 30.201935
68.785 29.716703
68.790 29.955505
68.795 30.321457
68.800 30.692106
68.805 30.380308
68.810 30.918911
68.815 31.437454
68.820 32.032135
68.825 32.372528
68.830 31.785139
68.835 32.33329
68.840 32.767406
68.845 32.14687
68.850 31.710413
68.855 31.452694
68.860 31.528963
68.865 32.063244
68.870 31.607594
68.875 31.03315
68.880 30.863111
68.885 30.93265
68.890 30.004068
68.895 30.021812
68.900 29.432199
68.905 29.358223
68.910 29.72364
68.915 29.753172
68.920 29.614986
68.925 29.825239
68.930 30.089708
68.935 29.863062
68.940 29.326313
68.945 29.047609
68.950 29.626543
68.955 29.996288
68.960 29.713099
68.965 28.827274
68.970 28.596407
68.975 29.056793
68.980 29.039236
68.985 28.413857
68.990 28.371738
68.995 28.198135
69.000 28.916506
69.005 29.749109
69.010 30.178728
69.015 29.632051
69.020 29.471798
69.025 29.288002
69.030 29.425194
69.035 28.592365
69.040 27.991892
69.045 28.376432
69.050 29.208937
69.055 29.944813
69.060 29.846048
69.065 29.637075
69.070 29.71237
69.075 29.571749
69.080 28.760199
69.085 28.042307
69.090 27.860659
69.095 27.904531
69.100 28.410299
69.105 29.056208
69.110 28.911646
69.115 29.078196
69.120 28.863792
69.125 28.143192
69.130 27.69838
69.135 27.019295
69.140 26.386574
69.145 26.21874
69.150 25.81451
69.155 25.630854
69.160 25.406475
69.165 25.219288
69.170 24.907639
69.175 24.129305
69.180 23.166759
69.185 22.834166
69.190 22.748838
69.195 22.76375
69.200 22.770447
69.205 22.919277
69.210 23.375706
69.215 24.11619
69.220 24.413635
69.225 24.166336
69.230 23.885588
69.235 23.242702
69.240 22.576414
69.245 22.922651
69.250 22.564867
69.255 22.187784
69.260 21.856802
69.265 21.822657
69.270 21.889214
69.275 22.365488
69.280 21.672014
69.285 21.685717
69.290 21.572966
69.295 21.573952
69.300 21.416853
69.305 21.471622
69.310 21.050865
69.315 20.407379
69.320 19.848267
69.325 19.677959
69.330 19.863462
69.335 19.660038
69.340 19.199194
69.345 19.127876
69.350 19.298094
69.355 19.555111
69.360 19.523972
69.365 19.318159
69.370 19.455677
69.375 19.829937
69.380 19.800537
69.385 19.351131
69.390 19.195114
69.395 19.36857
69.400 19.462643
69.405 19.026884
69.410 18.413122
69.415 18.193687
69.420 18.047478
69.425 18.098478
69.430 18.203262
69.435 18.571037
69.440 19.008825
69.445 19.542046
69.450 19.672451
69.455 19.605904
69.460 18.950838
69.465 18.63278
69.470 18.769947
69.475 18.507637
69.480 18.129013
69.485 17.97937
69.490 18.576439
69.495 18.528648
69.500 18.399317
69.505 18.601559
69.510 18.194883
69.515 18.269205
69.520 18.565941
69.525 18.509872
69.530 19.209515
69.535 18.766365
69.540 18.444656
69.545 18.965395
69.550 19.073236
69.555 17.842278
69.560 17.617445
69.565 17.379665
69.570 17.777708
69.575 18.009926
69.580 17.786255
69.585 17.337061
69.590 17.804672
69.595 17.731472
69.600 17.252409
69.605 16.655163
69.610 16.429676
69.615 16.099644
69.620 16.368643
69.625 16.548685
69.630 17.088856
69.635 17.940119
69.640 18.112116
69.645 18.499128
69.650 18.843315
69.655 18.671432
69.660 18.365761
69.665 17.856705
69.670 17.09873
69.675 16.768255
69.680 16.520107
69.685 16.496357
69.690 16.47003
69.695 16.76268
69.700 17.089075
69.705 17.478872
69.710 17.647371
69.715 17.731678
69.720 18.283316
69.725 18.423416
69.730 19.026875
69.735 18.806061
69.740 18.726254
69.745 18.593775
69.750 17.978682
69.755 17.724583
69.760 18.333685
69.765 17.919434
69.770 18.00255
69.775 17.924152
69.780 18.169897
69.785 18.541849
69.790 18.336643
69.795 17.381872
69.800 16.959139
69.805 16.89048
69.810 17.071621
69.815 17.379156
69.820 17.408274
69.825 17.643167
69.830 18.028624
69.835 18.304913
69.840 18.411575
69.845 18.91218
69.850 18.693602
69.855 18.447794
69.860 18.042894
69.865 17.67979
69.870 17.623249
69.875 17.612667
69.880 16.994547
69.885 16.851713
69.890 16.749132
69.895 16.520761
69.900 16.707226
69.905 16.792332
69.910 16.457115
69.915 16.365704
69.920 16.730738
69.925 16.966019
69.930 16.981668
69.935 16.87912
69.940 16.538612
69.945 16.598398
69.950 16.624037
69.955 16.941559
69.960 17.273058
69.965 17.814686
69.970 17.825958
69.975 17.964087
69.980 18.255625
69.985 18.578857
69.990 18.154783
69.995 17.18198
70.000 16.668955
70.005 16.169567
70.010 16.199076
70.015 16.477303
70.020 15.996771
70.025 16.057875
70.030 16.73818
70.035 17.107927
70.040 17.233551
70.045 16.520655
70.050 16.230438
70.055 16.129219
70.060 16.579271
70.065 17.033035
70.070 17.159109
70.075 17.833618
70.080 17.965387
70.085 17.752907
70.090 17.847191
70.095 17.318117
70.100 17.323141
70.105 17.639433
70.110 17.802748
70.115 18.405113
70.120 18.43745
70.125 18.712778
70.130 19.009689
70.135 17.846451
70.140 16.974728
70.145 16.560995
70.150 16.365461
70.155 16.605404
70.160 16.174784
70.165 15.741374
70.170 16.220039
70.175 15.999012
70.180 15.516083
70.185 16.179628
70.190 16.248127
70.195 16.595629
70.200 16.922886
70.205 17.113041
70.210 17.801504
70.215 18.120239
70.220 17.006546
70.225 16.872778
70.230 16.417765
70.235 16.219942
70.240 16.029276
70.245 16.088781
70.250 16.274082
70.255 16.534014
70.260 16.915854
70.265 17.318752
70.270 17.877485
70.275 17.798994
70.280 17.890961
70.285 18.391212
70.290 18.37356
70.295 18.17182
70.300 18.379393
70.305 18.311893
70.310 18.228714
70.315 18.203617
70.320 18.007177
70.325 17.939365
70.330 17.564388
70.335 17.051357
70.340 16.618401
70.345 16.28186
70.350 15.986896
70.355 15.81177
70.360 15.880616
70.365 16.321751
70.370 16.211973
70.375 16.699663
70.380 17.370596
70.385 17.252455
70.390 17.484226
70.395 17.602495
70.400 17.827209
70.405 18.355698
70.410 17.875919
70.415 17.794901
70.420 17.320143
70.425 17.358955
70.430 17.256031
70.435 16.664398
70.440 16.454489
70.445 16.785143
70.450 16.632055
70.455 16.833454
70.460 16.533278
70.465 16.445963
70.470 16.475653
70.475 16.310688
70.480 15.600561
70.485 15.666666
70.490 15.755272
70.495 16.073994
70.500 16.453808
70.505 16.434448
70.510 16.913851
70.515 17.636707
70.520 17.837797
70.525 17.708765
70.530 17.760693
70.535 17.823181
70.540 17.893385
70.545 17.786484
70.550 17.911316
70.555 18.051929
70.560 17.812733
70.565 17.278864
70.570 17.329588
70.575 16.862606
70.580 16.457344
70.585 15.864099
70.590 15.819383
70.595 16.041292
70.600 15.783408
70.605 15.65446
70.610 15.926468
70.615 16.386333
70.620 16.393385
70.625 16.057697
70.630 16.006739
70.635 16.262793
70.640 16.703571
70.645 16.594652
70.650 16.990997
70.655 16.962452
70.660 17.357983
70.665 18.025515
70.670 17.834139
70.675 17.755373
70.680 18.007957
70.685 17.933174
70.690 18.139078
70.695 17.629967
70.700 17.255404
70.705 17.497671
70.710 17.371946
70.715 16.76128
70.720 16.64489
70.725 16.984522
70.730 17.004906
70.735 16.779131
70.740 16.4398
70.745 16.798916
70.750 16.764585
70.755 16.87299
70.760 16.524826
70.765 16.444309
70.770 16.467543
70.775 16.835009
70.780 16.233084
70.785 15.997433
70.790 15.915482
70.795 16.069183
70.800 15.989966
70.805 16.097805
70.810 16.270758
70.815 16.992559
70.820 17.560514
70.825 17.579065
70.830 17.971922
70.835 18.264927
70.840 17.770311
70.845 17.681273
70.850 17.711163
70.855 17.532745
70.860 16.799746
70.865 16.612669
70.870 16.652004
70.875 16.584902
70.880 16.563622
70.885 16.137178
70.890 16.101337
70.895 16.034008
70.900 15.594671
70.905 15.695905
70.910 15.825924
70.915 15.620606
70.920 15.972821
70.925 16.065342
70.930 16.515381
70.935 16.993458
70.940 17.300747
70.945 17.307663
70.950 17.380745
70.955 17.172485
70.960 17.021458
70.965 16.868011
70.970 16.406267
70.975 16.736906
70.980 16.689154
70.985 16.505056
70.990 16.500368
70.995 16.455248
71.000 16.571236
71.005 16.431147
71.010 15.423816
71.015 15.343756
71.020 15.315416
71.025 14.974647
71.030 14.7673
71.035 14.793485
71.040 14.882201
71.045 15.517929
71.050 15.669954
71.055 16.100277
71.060 16.707952
71.065 17.202511
71.070 17.01413
71.075 16.873415
71.080 16.452059
71.085 16.193514
71.090 15.493703
71.095 15.509905
71.100 15.74009
71.105 16.360796
71.110 16.535015
71.115 16.810518
71.120 17.008593
71.125 17.605696
71.130 17.306845
71.135 17.112085
71.140 16.545929
71.145 16.021761
71.150 15.88288
71.155 15.855027
71.160 15.570431
71.165 15.792438
71.170 15.643356
71.175 15.576918
71.180 15.574222
71.185 15.676398
71.190 15.553705
71.195 15.529523
71.200 15.446533
71.205 15.4315
71.210 16.036999
71.215 16.54215
71.220 16.49592
71.225 16.742445
71.230 16.407133
71.235 16.04355
71.240 16.044998
71.245 15.765732
71.250 15.519897
71.255 15.1838
71.260 14.937775
71.265 15.585677
71.270 16.492731
71.275 17.174786
71.280 17.198208
71.285 17.015301
71.290 17.250677
71.295 17.589239
71.300 17.5508
71.305 16.971045
71.310 16.254213
71.315 16.32308
71.320 16.743641
71.325 16.766186
71.330 16.080393
71.335 15.860495
71.340 16.042368
71.345 16.284443
71.350 15.981837
71.355 15.679292
71.360 15.914136
71.365 15.838412
71.370 15.52789
71.375 14.893325
71.380 14.868654
71.385 15.30977
71.390 15.301187
71.395 15.269918
71.400 15.683313
71.405 16.183372
71.410 17.009987
71.415 17.590538
71.420 17.988892
71.425 17.904367
71.430 17.724075
71.435 17.639109
71.440 17.40567
71.445 17.458956
71.450 16.886484
71.455 16.582407
71.460 16.643572
71.465 16.966534
71.470 16.673828
71.475 16.156824
71.480 15.843456
71.485 15.677567
71.490 15.556603
71.495 15.37056
71.500 15.356224
71.505 16.169088
71.510 16.293118
71.515 16.511902
71.520 17.111855
71.525 17.489067
71.530 17.341827
71.535 16.864862
71.540 16.792585
71.545 16.856726
71.550 16.59697
71.555 16.243713
71.560 15.947852
71.565 15.873623
71.570 16.161673
71.575 15.856714
71.580 15.784478
71.585 16.057903
71.590 15.914052
71.595 16.246336
71.600 16.57938
71.605 16.026747
71.610 15.942101
71.615 15.747165
71.620 15.416479
71.625 15.203885
71.630 15.587115
71.635 16.081669
71.640 16.564974
71.645 16.961229
71.650 16.900793
71.655 17.970459
71.660 18.427202
71.665 18.13003
71.670 18.395727
71.675 18.624723
71.680 18.847622
71.685 19.59828
71.690 18.816813
71.695 18.387459
71.700 18.0984
71.705 17.373995
71.710 16.909475
71.715 16.65062
71.720 16.494894
71.725 16.593897
71.730 16.608835
71.735 16.402275
71.740 17.204285
71.745 17.51594
71.750 17.645918
71.755 16.94643
71.760 17.114628
71.765 17.303068
71.770 17.246935
71.775 17.174553
71.780 17.031244
71.785 16.315483
71.790 16.422558
71.795 16.47179
71.800 16.48708
71.805 16.631769
71.810 16.819574
71.815 17.306746
71.820 17.591232
71.825 17.426863
71.830 17.182306
71.835 16.772779
71.840 16.688501
71.845 16.393805
71.850 16.329798
71.855 16.866617
71.860 17.417494
71.865 17.664165
71.870 17.937914
71.875 18.056425
71.880 17.872444
71.885 18.206377
71.890 17.992794
71.895 17.707821
71.900 17.613283
71.905 17.19866
71.910 16.295298
71.915 16.029257
71.920 15.787552
71.925 15.375643
71.930 15.448818
71.935 15.632398
71.940 15.830581
71.945 15.923486
71.950 15.762246
71.955 15.225591
71.960 15.354437
71.965 15.01367
71.970 15.109598
71.975 15.124301
71.980 15.40114
71.985 15.681958
71.990 15.937631
71.995 15.94808
72.000 16.36204
72.005 16.23171
72.010 16.132517
72.015 16.200527
72.020 16.185772
72.025 16.458879
72.030 16.19783
72.035 15.889857
72.040 16.315357
72.045 16.94548
72.050 16.784094
72.055 16.789528
72.060 16.640589
72.065 16.869429
72.070 16.729586
72.075 16.024359
72.080 15.675835
72.085 16.14397
72.090 16.610859
72.095 16.301497
72.100 16.491335
72.105 16.584354
72.110 16.890686
72.115 16.909573
72.120 16.910234
72.125 16.678238
72.130 17.178003
72.135 17.374054
72.140 17.634483
72.145 17.146488
72.150 16.760498
72.155 16.259178
72.160 16.197798
72.165 16.177467
72.170 15.909183
72.175 15.747568
72.180 16.193415
72.185 16.828962
72.190 16.967775
72.195 16.646856
72.200 16.133377
72.205 16.415585
72.210 16.429123
72.215 16.380625
72.220 16.102348
72.225 16.437197
72.230 16.675791
72.235 16.807108
72.240 16.285501
72.245 16.234037
72.250 15.204662
72.255 15.261265
72.260 15.277691
72.265 15.138577
72.270 15.316603
72.275 15.665051
72.280 15.514169
72.285 16.411461
72.290 16.66853
72.295 17.002441
72.300 17.447205
72.305 17.535645
72.310 17.90151
72.315 18.737003
72.320 18.300083
72.325 17.393728
72.330 17.368303
72.335 17.270258
72.340 17.562538
72.345 17.262646
72.350 17.243771
72.355 17.262272
72.360 17.05621
72.365 16.618193
72.370 16.569984
72.375 16.359898
72.380 16.703833
72.385 16.824999
72.390 17.092712
72.395 17.100233
72.400 17.084446
72.405 17.084034
72.410 17.013184
72.415 16.230768
72.420 16.062698
72.425 16.027979
72.430 16.100773
72.435 16.189163
72.440 15.765993
72.445 15.996775
72.450 16.466829
72.455 16.192734
72.460 15.985838
72.465 15.914965
72.470 15.760347
72.475 15.997766
72.480 16.186388
72.485 16.281624
72.490 16.145428
72.495 16.301043
72.500 15.888689
72.505 15.748341
72.510 15.185372
72.515 14.475229
72.520 13.995245
72.525 13.970359
72.530 13.988039
72.535 14.272406
72.540 14.55889
72.545 14.673212
72.550 15.029948
72.555 15.192
72.560 15.726283
72.565 15.95573
72.570 16.116999
72.575 16.466873
72.580 16.870377
72.585 17.593025
72.590 17.809488
72.595 17.352619
72.600 17.741488
72.605 17.387522
72.610 16.920172
72.615 16.786573
72.620 16.583477
72.625 16.432528
72.630 16.11062
72.635 15.710271
72.640 15.126222
72.645 15.047951
72.650 14.379285
72.655 14.694811
72.660 15.200439
72.665 15.607523
72.670 15.972534
72.675 16.638582
72.680 17.112938
72.685 17.084944
72.690 16.842253
72.695 16.854549
72.700 16.769682
72.705 16.662371
72.710 16.466753
72.715 16.418053
72.720 16.536152
72.725 16.553492
72.730 16.300747
72.735 15.965955
72.740 16.212263
72.745 15.770462
72.750 15.851865
72.755 15.737019
72.760 15.556805
72.765 16.219183
72.770 16.200289
72.775 16.319456
72.780 16.103994
72.785 16.305687
72.790 16.047041
72.795 16.101746
72.800 15.300386
72.805 15.298834
72.810 15.291761
72.815 15.375318
72.820 14.333423
72.825 13.900527
72.830 14.018817
72.835 14.366519
72.840 14.281839
72.845 14.405451
72.850 14.548113
72.855 16.08066
72.860 17.187687
72.865 16.919916
72.870 17.217598
72.875 16.954573
72.880 16.736824
72.885 16.435009
72.890 15.937954
72.895 15.707116
72.900 15.617616
72.905 15.678753
72.910 16.328587
72.915 16.726759
72.920 16.690042
72.925 16.131798
72.930 16.434673
72.935 16.041401
72.940 16.436939
72.945 15.653699
72.950 15.819742
72.955 15.578336
72.960 14.975575
72.965 14.77374
72.970 14.797755
72.975 14.358091
72.980 14.700523
72.985 14.313376
72.990 14.282358
72.995 14.516067
73.000 14.573544
