!@!!GADDS PLOTSO FILE: Chi integration type
!@!!Title/SampleName: map-2f
!@!!Comment: ?
!@!!User: Bruker Instrument Administrator
!@!!Site: University of Illinois Chicago
!@!!Frame: map-2f_01_000.gfrm
!@!!Wavelengths    1.54184   1.54056   1.54439
!@!!Frame angles: 2Theta: 63.000 Omega: 50.000 Phi: 0.000 Chi: 90.000
!@!!Integration range: 2Theta: 53.000 to 73.000  Gamma: -105.000 to -75.000
!@!!Integration method: bin normalized
!@!N
!@!SS
!@!M
!@!L 0.0 0.0 0.0 0.0
!@!XDegrees
!@!YCounts
53.000 9.59967
53.005 9.634123
53.010 9.521731
53.015 9.314094
53.020 9.311546
53.025 9.533168
53.030 9.380966
53.035 9.13845
53.040 8.908707
53.045 9.043797
53.050 9.315014
53.055 9.023088
53.060 9.363878
53.065 9.730912
53.070 9.616571
53.075 9.649266
53.080 9.33912
53.085 9.342032
53.090 9.565183
53.095 9.457749
53.100 9.864006
53.105 10.358416
53.110 10.960405
53.115 11.0438
53.120 10.848077
53.125 11.369682
53.130 11.421818
53.135 11.981411
53.140 11.833336
53.145 11.530869
53.150 11.227406
53.155 11.467165
53.160 11.111824
53.165 10.27847
53.170 9.45126
53.175 9.480209
53.180 9.782018
53.185 10.305933
53.190 9.722867
53.195 9.93523
53.200 10.055099
53.205 10.286167
53.210 9.95148
53.215 9.721771
53.220 9.535252
53.225 9.399005
53.230 9.577886
53.235 9.673815
53.240 9.34716
53.245 9.583851
53.250 9.770355
53.255 9.41549
53.260 9.269904
53.265 8.788847
53.270 8.567628
53.275 8.859294
53.280 9.062049
53.285 9.943172
53.290 10.630365
53.295 11.06496
53.300 11.493927
53.305 11.659058
53.310 11.462526
53.315 11.108723
53.320 10.963555
53.325 11.339668
53.330 11.540393
53.335 11.823801
53.340 11.926153
53.345 11.908744
53.350 11.859595
53.355 11.245368
53.360 11.001145
53.365 11.140194
53.370 11.268629
53.375 11.743494
53.380 11.783612
53.385 11.975863
53.390 11.712151
53.395 11.505033
53.400 11.130454
53.405 10.668036
53.410 10.590691
53.415 11.362827
53.420 11.680242
53.425 11.755332
53.430 11.432159
53.435 11.406318
53.440 11.209143
53.445 10.769068
53.450 9.99926
53.455 9.870178
53.460 10.078764
53.465 9.796077
53.470 10.05363
53.475 10.234479
53.480 10.556724
53.485 10.605762
53.490 10.993689
53.495 11.187753
53.500 11.799102
53.505 11.963004
53.510 12.390094
53.515 12.387626
53.520 12.324429
53.525 11.946608
53.530 11.622316
53.535 11.201558
53.540 11.388181
53.545 11.104679
53.550 11.176708
53.555 10.878995
53.560 10.943672
53.565 11.508418
53.570 11.579211
53.575 11.334676
53.580 11.242307
53.585 11.269325
53.590 11.526115
53.595 10.984386
53.600 10.552861
53.605 10.196245
53.610 10.234081
53.615 10.123817
53.620 9.945305
53.625 10.21742
53.630 10.69257
53.635 10.825351
53.640 11.261724
53.645 11.426193
53.650 11.523584
53.655 11.380556
53.660 10.974892
53.665 11.189407
53.670 11.322948
53.675 10.974038
53.680 10.301844
53.685 10.151045
53.690 10.413573
53.695 10.513536
53.700 10.782803
53.705 10.994302
53.710 11.018018
53.715 11.35836
53.720 11.524546
53.725 11.176348
53.730 11.321944
53.735 10.830332
53.740 10.620158
53.745 10.584442
53.750 10.356125
53.755 10.157043
53.760 10.171263
53.765 10.344482
53.770 10.328745
53.775 10.584576
53.780 11.087101
53.785 11.279002
53.790 11.07675
53.795 10.891827
53.800 10.717535
53.805 10.702482
53.810 10.359784
53.815 10.07851
53.820 9.772653
53.825 10.216928
53.830 9.853372
53.835 9.290948
53.840 9.468329
53.845 9.915328
53.850 10.320786
53.855 10.758924
53.860 11.192644
53.865 11.861305
53.870 12.478491
53.875 12.728619
53.880 12.647336
53.885 12.892658
53.890 12.919691
53.895 12.650522
53.900 12.274326
53.905 12.034352
53.910 11.705956
53.915 11.382616
53.920 10.987001
53.925 11.053452
53.930 10.891723
53.935 10.741135
53.940 10.690171
53.945 10.889828
53.950 11.137654
53.955 11.483475
53.960 11.437858
53.965 11.972449
53.970 12.044708
53.975 11.902333
53.980 11.850426
53.985 11.903365
53.990 11.801502
53.995 11.847567
54.000 11.286372
54.005 11.237941
54.010 11.133721
54.015 11.019038
54.020 11.293787
54.025 10.825738
54.030 10.782728
54.035 11.531546
54.040 11.817831
54.045 12.036262
54.050 11.719662
54.055 11.853621
54.060 12.238034
54.065 11.998869
54.070 11.545178
54.075 11.702308
54.080 12.250143
54.085 12.409921
54.090 12.384843
54.095 12.930376
54.100 12.796981
54.105 13.169685
54.110 12.982735
54.115 12.489665
54.120 12.414322
54.125 11.957952
54.130 11.860732
54.135 11.856312
54.140 11.78576
54.145 11.522642
54.150 11.625729
54.155 11.464207
54.160 11.526628
54.165 11.428322
54.170 11.320717
54.175 11.085438
54.180 11.592043
54.185 11.717983
54.190 12.008916
54.195 11.710479
54.200 11.023046
54.205 10.975725
54.210 10.759492
54.215 10.602314
54.220 10.326829
54.225 10.184961
54.230 10.572062
54.235 11.674484
54.240 12.195848
54.245 12.836345
54.250 12.918993
54.255 13.090549
54.260 13.303081
54.265 13.20262
54.270 13.342317
54.275 13.241215
54.280 12.918328
54.285 12.72597
54.290 12.939458
54.295 12.857259
54.300 13.361211
54.305 12.67586
54.310 12.171139
54.315 11.984289
54.320 11.521097
54.325 11.268656
54.330 11.205617
54.335 10.885861
54.340 11.11978
54.345 11.256778
54.350 11.22591
54.355 11.746661
54.360 12.099087
54.365 12.015491
54.370 12.117752
54.375 11.923946
54.380 12.011602
54.385 12.91554
54.390 12.647915
54.395 12.148713
54.400 11.79995
54.405 11.630282
54.410 11.470072
54.415 11.134522
54.420 10.441572
54.425 10.050254
54.430 10.265218
54.435 9.855352
54.440 9.88941
54.445 10.35225
54.450 10.616598
54.455 10.759389
54.460 11.101955
54.465 11.612062
54.470 11.58882
54.475 11.389135
54.480 11.168147
54.485 10.932936
54.490 10.602864
54.495 10.392986
54.500 9.934301
54.505 10.149814
54.510 10.235826
54.515 10.000449
54.520 10.206787
54.525 10.550854
54.530 10.505083
54.535 10.88573
54.540 10.951472
54.545 11.030165
54.550 11.343874
54.555 11.335692
54.560 11.402139
54.565 11.63284
54.570 11.671321
54.575 11.718899
54.580 11.348365
54.585 11.255548
54.590 11.228687
54.595 10.913218
54.600 10.840516
54.605 11.065701
54.610 11.565969
54.615 12.016376
54.620 11.78198
54.625 12.047245
54.630 12.338597
54.635 12.289501
54.640 12.074043
54.645 11.685709
54.650 11.982597
54.655 11.587249
54.660 11.251659
54.665 11.573682
54.670 11.703688
54.675 11.959719
54.680 12.319034
54.685 12.531761
54.690 13.169425
54.695 13.049663
54.700 12.392563
54.705 12.023745
54.710 11.98541
54.715 11.523796
54.720 10.963038
54.725 10.924319
54.730 11.359804
54.735 11.972985
54.740 12.620506
54.745 12.353683
54.750 12.713963
54.755 13.481283
54.760 13.731786
54.765 13.635898
54.770 13.212949
54.775 12.437712
54.780 12.605597
54.785 12.71969
54.790 11.736215
54.795 11.652237
54.800 11.722244
54.805 12.017168
54.810 12.508204
54.815 12.268793
54.820 12.024954
54.825 11.945212
54.830 11.318382
54.835 11.229114
54.840 11.397541
54.845 11.346536
54.850 11.720757
54.855 11.862191
54.860 12.308155
54.865 13.014904
54.870 13.313688
54.875 13.145566
54.880 12.843073
54.885 12.623355
54.890 12.695902
54.895 12.956923
54.900 12.549253
54.905 11.783725
54.910 11.689782
54.915 11.411
54.920 11.815651
54.925 11.902233
54.930 11.415272
54.935 11.506601
54.940 12.272511
54.945 12.605639
54.950 13.259393
54.955 13.401553
54.960 13.824847
54.965 13.887997
54.970 13.700319
54.975 13.462163
54.980 13.655854
54.985 13.905227
54.990 13.770865
54.995 13.568704
55.000 13.553499
55.005 13.379642
55.010 13.366884
55.015 13.306705
55.020 12.698895
55.025 12.352456
55.030 11.944861
55.035 12.278164
55.040 12.354302
55.045 12.168518
55.050 12.048312
55.055 12.791299
55.060 13.219847
55.065 13.261609
55.070 12.782379
55.075 12.615507
55.080 12.499985
55.085 12.088045
55.090 12.106124
55.095 12.020055
55.100 12.378238
55.105 12.599378
55.110 13.064407
55.115 13.271014
55.120 12.978389
55.125 12.576234
55.130 12.796662
55.135 13.146019
55.140 13.309606
55.145 12.972733
55.150 13.322411
55.155 13.379853
55.160 13.086809
55.165 12.998959
55.170 12.676847
55.175 12.821063
55.180 12.98005
55.185 12.978695
55.190 13.048013
55.195 13.471839
55.200 13.48745
55.205 13.370072
55.210 13.200283
55.215 13.247578
55.220 13.466232
55.225 13.886083
55.230 13.72253
55.235 13.589879
55.240 13.638909
55.245 13.909457
55.250 14.445794
55.255 14.321211
55.260 13.669597
55.265 13.349135
55.270 13.486625
55.275 13.830683
55.280 13.916842
55.285 13.400671
55.290 12.671207
55.295 12.702393
55.300 12.619578
55.305 12.279608
55.310 11.361823
55.315 10.959428
55.320 11.29493
55.325 12.278389
55.330 12.573328
55.335 12.48343
55.340 12.240235
55.345 12.237342
55.350 11.981653
55.355 11.895326
55.360 11.923103
55.365 12.285627
55.370 12.531941
55.375 12.719856
55.380 12.668715
55.385 12.662911
55.390 12.05534
55.395 11.875166
55.400 11.734579
55.405 11.958075
55.410 12.165669
55.415 12.513339
55.420 12.461516
55.425 12.785716
55.430 12.480222
55.435 12.25096
55.440 11.907467
55.445 11.775524
55.450 11.761518
55.455 11.773708
55.460 11.66578
55.465 11.835361
55.470 11.963058
55.475 12.152341
55.480 12.562513
55.485 12.192525
55.490 12.18936
55.495 12.371494
55.500 12.396165
55.505 12.982539
55.510 13.563512
55.515 13.543818
55.520 13.648062
55.525 13.558492
55.530 13.538229
55.535 13.501421
55.540 12.968198
55.545 12.638535
55.550 12.683096
55.555 12.936211
55.560 13.268806
55.565 13.412356
55.570 12.842619
55.575 12.681722
55.580 12.791266
55.585 13.040026
55.590 13.007272
55.595 12.756454
55.600 12.519528
55.605 13.101035
55.610 13.261503
55.615 13.330342
55.620 13.149296
55.625 12.568154
55.630 12.639989
55.635 12.8546
55.640 12.737823
55.645 12.387807
55.650 12.517947
55.655 12.540689
55.660 12.693166
55.665 12.953788
55.670 12.468428
55.675 12.515991
55.680 12.786922
55.685 12.819362
55.690 13.314922
55.695 13.389876
55.700 13.540965
55.705 14.089211
55.710 14.21179
55.715 14.276775
55.720 14.583301
55.725 14.666436
55.730 14.847289
55.735 14.635327
55.740 14.294092
55.745 13.942121
55.750 13.383862
55.755 13.15165
55.760 12.901982
55.765 12.579677
55.770 12.604063
55.775 12.584529
55.780 12.768376
55.785 13.327407
55.790 13.496467
55.795 13.645543
55.800 13.598711
55.805 13.615132
55.810 13.72223
55.815 13.264174
55.820 12.829157
55.825 12.093539
55.830 12.446699
55.835 12.505969
55.840 12.39676
55.845 12.273568
55.850 12.414959
55.855 12.455344
55.860 12.911354
55.865 13.137975
55.870 13.06179
55.875 12.686061
55.880 12.798263
55.885 12.676815
55.890 12.55557
55.895 11.967244
55.900 11.876931
55.905 12.295991
55.910 12.86712
55.915 12.910966
55.920 13.635332
55.925 13.899955
55.930 14.011234
55.935 13.512032
55.940 13.249269
55.945 13.036901
55.950 12.717871
55.955 11.862936
55.960 11.631176
55.965 11.608334
55.970 11.552054
55.975 11.910018
55.980 11.956643
55.985 12.324492
55.990 12.698884
55.995 12.897261
56.000 12.823486
56.005 12.770125
56.010 12.479355
56.015 12.645156
56.020 12.888495
56.025 13.140696
56.030 13.164694
56.035 13.478909
56.040 13.627541
56.045 14.19805
56.050 14.193941
56.055 13.874935
56.060 13.833741
56.065 14.23828
56.070 14.328626
56.075 14.24275
56.080 13.573387
56.085 13.275949
56.090 13.42748
56.095 13.529516
56.100 13.213415
56.105 12.933548
56.110 12.784836
56.115 12.792204
56.120 12.616884
56.125 12.722117
56.130 12.668501
56.135 12.791373
56.140 12.576473
56.145 12.700353
56.150 13.064737
56.155 13.175057
56.160 12.882771
56.165 12.974134
56.170 13.277658
56.175 13.718947
56.180 13.682113
56.185 13.571004
56.190 13.93678
56.195 14.0419
56.200 14.288884
56.205 13.706855
56.210 13.606354
56.215 13.618731
56.220 13.816048
56.225 13.833961
56.230 13.797536
56.235 13.630845
56.240 13.870748
56.245 13.838743
56.250 14.255371
56.255 14.396716
56.260 13.97359
56.265 14.139449
56.270 14.329572
56.275 14.441101
56.280 14.862843
56.285 14.736835
56.290 15.120708
56.295 15.515067
56.300 15.16194
56.305 15.402928
56.310 16.106922
56.315 15.679494
56.320 15.533919
56.325 14.911635
56.330 14.684174
56.335 14.319598
56.340 13.799648
56.345 13.251019
56.350 12.942228
56.355 12.718838
56.360 12.780546
56.365 13.057798
56.370 13.323144
56.375 13.08688
56.380 12.552571
56.385 13.127419
56.390 13.368005
56.395 13.311533
56.400 13.34551
56.405 13.575137
56.410 13.995387
56.415 14.001562
56.420 13.447481
56.425 13.973107
56.430 14.291354
56.435 14.329028
56.440 14.093879
56.445 14.605916
56.450 14.918433
56.455 14.718139
56.460 13.871282
56.465 13.429547
56.470 13.069819
56.475 12.871754
56.480 12.800885
56.485 13.670284
56.490 13.811205
56.495 14.041971
56.500 14.248164
56.505 14.47232
56.510 14.772455
56.515 13.951865
56.520 13.526237
56.525 14.08166
56.530 13.757823
56.535 13.70639
56.540 13.876491
56.545 13.740601
56.550 13.983497
56.555 13.899678
56.560 13.71363
56.565 14.298244
56.570 14.303593
56.575 13.949996
56.580 14.127438
56.585 14.271574
56.590 14.30785
56.595 14.147996
56.600 13.683113
56.605 13.544769
56.610 14.037727
56.615 14.126965
56.620 14.502127
56.625 14.563473
56.630 14.175586
56.635 14.111054
56.640 13.909828
56.645 13.262456
56.650 12.932701
56.655 12.818483
56.660 13.051489
56.665 13.27228
56.670 13.572896
56.675 14.120269
56.680 14.867838
56.685 14.981853
56.690 14.905602
56.695 15.463433
56.700 15.752666
56.705 15.453017
56.710 15.262888
56.715 15.223361
56.720 14.967164
56.725 14.999998
56.730 14.055927
56.735 13.749811
56.740 13.558533
56.745 13.516662
56.750 13.536459
56.755 13.512277
56.760 13.873594
56.765 14.773985
56.770 15.269341
56.775 15.322448
56.780 14.821774
56.785 14.331943
56.790 14.143745
56.795 13.932845
56.800 13.803302
56.805 14.104216
56.810 14.346337
56.815 14.826326
56.820 15.151127
56.825 15.154786
56.830 14.684909
56.835 14.508684
56.840 13.97113
56.845 14.030884
56.850 13.760108
56.855 13.901051
56.860 13.924136
56.865 14.330234
56.870 14.616484
56.875 15.192823
56.880 15.405828
56.885 15.379938
56.890 15.701344
56.895 15.721707
56.900 15.640844
56.905 15.324558
56.910 15.088989
56.915 15.011427
56.920 15.459973
56.925 15.783745
56.930 16.131281
56.935 16.02849
56.940 15.628857
56.945 15.255079
56.950 14.965854
56.955 14.774384
56.960 14.650132
56.965 14.638931
56.970 14.75076
56.975 15.26889
56.980 15.562213
56.985 15.540568
56.990 15.085717
56.995 14.979276
57.000 14.590307
57.005 14.62658
57.010 14.920977
57.015 14.839745
57.020 14.877437
57.025 15.181005
57.030 15.261966
57.035 15.17083
57.040 14.424318
57.045 13.708657
57.050 13.899284
57.055 13.819767
57.060 13.179108
57.065 13.142435
57.070 13.54149
57.075 13.799183
57.080 14.266121
57.085 13.985514
57.090 13.517339
57.095 13.374203
57.100 12.937828
57.105 12.560932
57.110 12.678
57.115 12.734536
57.120 13.097712
57.125 13.562045
57.130 13.571333
57.135 13.720109
57.140 14.161544
57.145 14.604513
57.150 14.161783
57.155 14.317516
57.160 14.6899
57.165 14.664044
57.170 14.422599
57.175 14.522185
57.180 14.653184
57.185 15.11181
57.190 15.092532
57.195 15.276999
57.200 16.167976
57.205 16.79006
57.210 16.565792
57.215 16.287933
57.220 15.927686
57.225 15.570078
57.230 15.19741
57.235 14.495461
57.240 13.586438
57.245 13.325257
57.250 13.504823
57.255 13.887782
57.260 13.731489
57.265 13.619588
57.270 13.833879
57.275 14.670637
57.280 14.651829
57.285 14.518806
57.290 14.683534
57.295 15.045007
57.300 15.363771
57.305 15.648666
57.310 15.609469
57.315 16.013983
57.320 16.225042
57.325 16.818825
57.330 16.91589
57.335 17.017746
57.340 17.380526
57.345 17.123955
57.350 17.082918
57.355 17.028797
57.360 16.654425
57.365 16.970806
57.370 17.009363
57.375 17.040731
57.380 17.311197
57.385 17.181595
57.390 17.016651
57.395 16.712614
57.400 16.648712
57.405 16.02462
57.410 15.989515
57.415 15.811853
57.420 15.821484
57.425 15.434426
57.430 15.333276
57.435 15.005885
57.440 14.751701
57.445 14.538071
57.450 14.833106
57.455 15.122103
57.460 15.688351
57.465 16.134094
57.470 16.241798
57.475 16.215405
57.480 16.268858
57.485 16.053658
57.490 15.188671
57.495 14.877654
57.500 14.82911
57.505 15.108174
57.510 15.393926
57.515 15.447678
57.520 16.276567
57.525 17.044117
57.530 16.80361
57.535 16.503483
57.540 16.454781
57.545 16.514383
57.550 16.644672
57.555 15.813403
57.560 15.271458
57.565 15.385215
57.570 15.050497
57.575 15.483882
57.580 15.087354
57.585 14.912061
57.590 15.620255
57.595 15.992987
57.600 15.90114
57.605 16.271597
57.610 15.987938
57.615 15.953932
57.620 15.679221
57.625 15.85012
57.630 16.254942
57.635 16.219698
57.640 16.026386
57.645 15.931981
57.650 16.36648
57.655 16.348957
57.660 15.983974
57.665 15.578664
57.670 15.517855
57.675 15.805269
57.680 16.121517
57.685 15.779196
57.690 15.568953
57.695 15.685575
57.700 15.97628
57.705 16.356056
57.710 16.407612
57.715 16.33395
57.720 16.828512
57.725 17.454563
57.730 17.438244
57.735 17.15563
57.740 16.642834
57.745 16.68911
57.750 16.833828
57.755 16.837395
57.760 16.823715
57.765 17.300737
57.770 17.644018
57.775 17.866043
57.780 17.279062
57.785 17.034101
57.790 17.003601
57.795 16.584179
57.800 16.146652
57.805 16.245546
57.810 16.998617
57.815 17.580217
57.820 17.86594
57.825 18.027918
57.830 18.509693
57.835 18.298923
57.840 18.067083
57.845 17.987606
57.850 17.807434
57.855 17.015057
57.860 16.387676
57.865 16.481298
57.870 16.706577
57.875 16.617935
57.880 16.076784
57.885 16.06118
57.890 16.313299
57.895 16.59569
57.900 16.423298
57.905 16.550045
57.910 16.17462
57.915 16.707397
57.920 16.684759
57.925 16.496506
57.930 16.157515
57.935 15.709589
57.940 16.166069
57.945 16.609955
57.950 16.450045
57.955 16.694313
57.960 16.832815
57.965 17.573387
57.970 17.937014
57.975 17.677662
57.980 17.441881
57.985 17.782543
57.990 17.682756
57.995 17.138371
58.000 16.605364
58.005 16.191702
58.010 16.467325
58.015 16.923073
58.020 16.636713
58.025 16.824188
58.030 17.449594
58.035 18.252544
58.040 18.87331
58.045 18.531219
58.050 18.208202
58.055 17.747793
58.060 17.553978
58.065 17.237967
58.070 16.747879
58.075 16.301968
58.080 16.084049
58.085 16.14122
58.090 16.475338
58.095 16.204912
58.100 16.584764
58.105 16.852579
58.110 17.111885
58.115 17.779732
58.120 18.11236
58.125 18.339622
58.130 18.325056
58.135 17.994143
58.140 17.971083
58.145 18.345621
58.150 18.123152
58.155 18.169147
58.160 18.731581
58.165 18.812683
58.170 18.483311
58.175 18.495903
58.180 18.754736
58.185 18.689671
58.190 18.588142
58.195 18.791636
58.200 19.306911
58.205 19.841156
58.210 20.205286
58.215 19.771196
58.220 19.552349
58.225 19.362772
58.230 19.396091
58.235 18.87439
58.240 18.86878
58.245 18.881363
58.250 19.504978
58.255 19.696718
58.260 19.551741
58.265 19.195114
58.270 20.177023
58.275 20.186064
58.280 20.366026
58.285 20.612833
58.290 20.594063
58.295 20.945574
58.300 21.091124
58.305 21.086262
58.310 21.079271
58.315 20.321138
58.320 20.17502
58.325 20.432419
58.330 20.785217
58.335 21.674515
58.340 21.676058
58.345 21.880033
58.350 22.269381
58.355 23.163572
58.360 23.783854
58.365 23.586552
58.370 23.30472
58.375 23.352127
58.380 23.383665
58.385 24.429253
58.390 24.619152
58.395 24.830299
58.400 25.148687
58.405 25.381262
58.410 25.386656
58.415 25.350065
58.420 25.280382
58.425 24.836159
58.430 25.442516
58.435 25.827198
58.440 25.470327
58.445 26.051609
58.450 26.159475
58.455 26.387449
58.460 27.681324
58.465 27.667089
58.470 27.973814
58.475 28.951525
58.480 29.753851
58.485 30.519733
58.490 31.270292
58.495 30.603563
58.500 30.029676
58.505 29.998013
58.510 30.37336
58.515 30.644934
58.520 30.539036
58.525 29.641253
58.530 29.625914
58.535 30.335289
58.540 29.837286
58.545 29.400221
58.550 29.206778
58.555 29.308859
58.560 29.77759
58.565 29.981401
58.570 30.056368
58.575 30.913399
58.580 30.945797
58.585 31.419754
58.590 31.92766
58.595 32.221733
58.600 32.843319
58.605 32.235538
58.610 31.806385
58.615 31.363293
58.620 31.049644
58.625 30.636633
58.630 30.319082
58.635 30.407806
58.640 30.786676
58.645 30.583
58.650 30.519335
58.655 29.91408
58.660 30.1772
58.665 30.362051
58.670 30.170424
58.675 30.424261
58.680 30.474409
58.685 30.130426
58.690 30.270855
58.695 29.73884
58.700 29.228745
58.705 28.309807
58.710 28.051805
58.715 28.213226
58.720 29.060678
58.725 28.921597
58.730 27.917562
58.735 27.23778
58.740 27.063984
58.745 26.85918
58.750 27.191778
58.755 26.299314
58.760 26.160509
58.765 26.177944
58.770 26.331867
58.775 26.896864
58.780 27.091496
58.785 26.353279
58.790 25.763725
58.795 26.104008
58.800 26.439083
58.805 26.617191
58.810 26.057056
58.815 25.485643
58.820 25.704134
58.825 25.749475
58.830 24.986027
58.835 23.939388
58.840 23.445641
58.845 22.869596
58.850 22.730307
58.855 22.483707
58.860 22.416616
58.865 22.271425
58.870 21.877758
58.875 21.964054
58.880 21.549307
58.885 21.088299
58.890 21.073755
58.895 21.61833
58.900 21.729294
58.905 20.531794
58.910 20.225607
58.915 19.972065
58.920 19.901623
58.925 19.749817
58.930 19.693888
58.935 20.008324
58.940 21.065191
58.945 21.311293
58.950 21.348063
58.955 21.4564
58.960 21.395569
58.965 21.180166
58.970 21.097357
58.975 20.888926
58.980 20.298811
58.985 19.538307
58.990 19.259668
58.995 19.253405
59.000 18.970045
59.005 19.106131
59.010 19.299976
59.015 19.569117
59.020 19.862448
59.025 19.886387
59.030 19.542568
59.035 19.839125
59.040 19.809168
59.045 20.684669
59.050 21.384924
59.055 21.338993
59.060 20.901104
59.065 20.525171
59.070 19.954336
59.075 19.435133
59.080 18.687529
59.085 18.337229
59.090 18.787632
59.095 18.800632
59.100 18.882416
59.105 19.003241
59.110 19.048586
59.115 19.168259
59.120 19.854294
59.125 20.256271
59.130 20.158081
59.135 20.056774
59.140 20.512369
59.145 20.495386
59.150 20.08835
59.155 18.964998
59.160 18.674269
59.165 18.968948
59.170 18.522427
59.175 18.297373
59.180 17.622145
59.185 17.465834
59.190 17.767818
59.195 18.100492
59.200 18.100945
59.205 18.574961
59.210 18.203299
59.215 18.161171
59.220 18.545042
59.225 18.369246
59.230 17.752634
59.235 17.404129
59.240 17.460506
59.245 17.769945
59.250 18.128326
59.255 18.156664
59.260 18.255091
59.265 18.170578
59.270 17.906322
59.275 18.490431
59.280 18.381266
59.285 17.90309
59.290 17.598501
59.295 17.488422
59.300 17.617474
59.305 17.621874
59.310 16.427231
59.315 16.272884
59.320 16.142078
59.325 15.920493
59.330 16.182646
59.335 15.989047
59.340 15.806993
59.345 16.261761
59.350 17.034468
59.355 17.884741
59.360 18.063578
59.365 17.93935
59.370 18.597267
59.375 19.042194
59.380 18.994965
59.385 18.558119
59.390 18.976267
59.395 18.398701
59.400 18.407286
59.405 18.836121
59.410 18.884701
59.415 19.113882
59.420 18.950016
59.425 17.914228
59.430 18.069244
59.435 17.983742
59.440 17.581694
59.445 17.811644
59.450 18.116953
59.455 17.995661
59.460 18.34446
59.465 18.249876
59.470 18.246708
59.475 17.575523
59.480 17.669262
59.485 17.392351
59.490 17.435806
59.495 17.668596
59.500 18.248693
59.505 18.454479
59.510 19.037439
59.515 18.405674
59.520 18.414162
59.525 18.864485
59.530 18.816147
59.535 18.064405
59.540 17.683046
59.545 17.652887
59.550 17.507435
59.555 17.517721
59.560 17.162663
59.565 16.766022
59.570 16.79155
59.575 17.065769
59.580 16.725733
59.585 16.80596
59.590 16.46413
59.595 16.551811
59.600 16.641439
59.605 17.302023
59.610 17.474831
59.615 18.236296
59.620 18.323631
59.625 18.219791
59.630 18.569197
59.635 18.780296
59.640 18.460676
59.645 18.370792
59.650 18.029524
59.655 18.544344
59.660 18.476784
59.665 17.526257
59.670 17.353746
59.675 17.298197
59.680 17.211758
59.685 17.373415
59.690 17.252914
59.695 17.654158
59.700 18.561998
59.705 18.457458
59.710 18.19224
59.715 17.894533
59.720 17.886194
59.725 17.989002
59.730 18.248474
59.735 17.945002
59.740 18.237801
59.745 18.240723
59.750 17.990877
59.755 17.456011
59.760 17.678928
59.765 17.629587
59.770 17.407404
59.775 17.618267
59.780 17.679041
59.785 17.696911
59.790 17.737347
59.795 16.977922
59.800 17.147099
59.805 17.105949
59.810 16.99192
59.815 17.562407
59.820 17.99852
59.825 18.37545
59.830 18.597004
59.835 18.078625
59.840 17.527555
59.845 17.620815
59.850 17.599617
59.855 17.717131
59.860 17.548866
59.865 17.086454
59.870 17.248795
59.875 17.976269
59.880 17.801918
59.885 17.461058
59.890 16.753784
59.895 16.305735
59.900 16.735065
59.905 16.684965
59.910 16.301968
59.915 16.180225
59.920 16.368561
59.925 16.849087
59.930 17.7661
59.935 17.992056
59.940 18.093971
59.945 18.297903
59.950 18.242321
59.955 18.03891
59.960 17.536877
59.965 16.529448
59.970 16.504292
59.975 16.828671
59.980 16.67675
59.985 16.738464
59.990 17.222647
59.995 17.452818
60.000 18.079517
60.005 17.998352
60.010 18.12743
60.015 18.211161
60.020 18.174736
60.025 18.147919
60.030 18.135427
60.035 17.481646
60.040 17.276714
60.045 17.414587
60.050 18.215284
60.055 18.21246
60.060 17.958094
60.065 18.037394
60.070 18.148771
60.075 17.565655
60.080 16.747608
60.085 16.03669
60.090 15.847696
60.095 15.85504
60.100 15.54256
60.105 15.743105
60.110 16.366968
60.115 16.385675
60.120 16.9802
60.125 17.31531
60.130 17.437332
60.135 18.080761
60.140 18.002874
60.145 18.095322
60.150 17.997887
60.155 17.686495
60.160 16.980053
60.165 16.506035
60.170 16.775148
60.175 16.887953
60.180 17.088909
60.185 16.957239
60.190 16.707842
60.195 17.153732
60.200 17.289473
60.205 16.793444
60.210 17.166815
60.215 16.905729
60.220 16.517532
60.225 16.646458
60.230 16.647039
60.235 16.698872
60.240 16.249779
60.245 15.528661
60.250 15.354422
60.255 15.603577
60.260 15.703105
60.265 15.695626
60.270 15.737163
60.275 15.954482
60.280 16.204773
60.285 16.966927
60.290 16.969957
60.295 17.062477
60.300 17.228884
60.305 17.186304
60.310 17.629622
60.315 18.054712
60.320 17.792282
60.325 18.171148
60.330 18.133583
60.335 18.305927
60.340 18.11207
60.345 17.481421
60.350 17.14185
60.355 17.253889
60.360 17.421822
60.365 17.093502
60.370 16.933802
60.375 17.025038
60.380 16.974968
60.385 16.964958
60.390 16.513268
60.395 15.990197
60.400 16.264076
60.405 16.067558
60.410 16.17469
60.415 16.249401
60.420 16.286526
60.425 16.416245
60.430 16.296904
60.435 16.568941
60.440 17.432058
60.445 17.654428
60.450 17.585569
60.455 17.170362
60.460 17.224369
60.465 17.848974
60.470 17.651226
60.475 16.828743
60.480 16.25305
60.485 16.194967
60.490 16.314236
60.495 15.907505
60.500 15.659984
60.505 15.698264
60.510 16.023737
60.515 16.278679
60.520 16.689188
60.525 16.408836
60.530 17.053715
60.535 16.950319
60.540 17.193857
60.545 17.442965
60.550 17.530685
60.555 17.24819
60.560 17.370262
60.565 17.494905
60.570 17.505899
60.575 17.453295
60.580 17.78767
60.585 18.341984
60.590 18.792236
60.595 18.428011
60.600 17.638882
60.605 17.25386
60.610 16.462524
60.615 15.505527
60.620 14.738111
60.625 14.655349
60.630 15.176513
60.635 15.43103
60.640 15.823725
60.645 16.278931
60.650 16.347425
60.655 16.471771
60.660 16.400158
60.665 16.043104
60.670 15.703434
60.675 15.491014
60.680 15.932554
60.685 16.259857
60.690 16.365646
60.695 16.538555
60.700 17.382854
60.705 18.207485
60.710 18.607475
60.715 17.93578
60.720 17.634611
60.725 17.146221
60.730 17.067997
60.735 16.732494
60.740 15.905522
60.745 15.36518
60.750 15.992822
60.755 16.474382
60.760 16.979477
60.765 17.186239
60.770 17.306116
60.775 17.332443
60.780 16.648226
60.785 15.855695
60.790 15.773538
60.795 15.681103
60.800 15.531036
60.805 15.357861
60.810 15.510804
60.815 15.890674
60.820 16.019735
60.825 15.890187
60.830 16.035456
60.835 16.259048
60.840 15.911363
60.845 15.803501
60.850 16.500917
60.855 16.645393
60.860 16.395741
60.865 16.200382
60.870 16.381363
60.875 16.800461
60.880 16.822853
60.885 16.895609
60.890 17.14226
60.895 17.33457
60.900 17.345736
60.905 17.105392
60.910 17.458284
60.915 17.606686
60.920 16.970821
60.925 17.184855
60.930 17.795767
60.935 17.686367
60.940 17.490664
60.945 17.433344
60.950 16.821228
60.955 16.335896
60.960 15.501885
60.965 14.69377
60.970 14.890483
60.975 14.612172
60.980 14.62507
60.985 15.107944
60.990 16.048891
60.995 16.019135
61.000 16.075523
61.005 15.985947
61.010 16.224327
61.015 16.077414
61.020 16.577757
61.025 16.805296
61.030 17.559879
61.035 17.92654
61.040 17.720024
61.045 17.189526
61.050 17.506044
61.055 17.358995
61.060 17.574327
61.065 17.567997
61.070 17.340775
61.075 17.325701
61.080 17.879713
61.085 17.93891
61.090 17.977814
61.095 17.84906
61.100 17.240974
61.105 17.344427
61.110 17.364698
61.115 17.936556
61.120 17.781406
61.125 17.594547
61.130 17.276796
61.135 17.179766
61.140 17.273504
61.145 17.650322
61.150 17.113705
61.155 16.988083
61.160 16.50853
61.165 16.459417
61.170 16.439838
61.175 16.480911
61.180 16.462185
61.185 16.265078
61.190 16.051178
61.195 16.766424
61.200 17.146862
61.205 17.450041
61.210 17.289927
61.215 17.073509
61.220 17.28849
61.225 17.068411
61.230 16.915985
61.235 17.323986
61.240 17.740313
61.245 17.553955
61.250 17.559429
61.255 17.613802
61.260 17.88047
61.265 18.252865
61.270 18.619696
61.275 18.43622
61.280 18.491596
61.285 18.920124
61.290 19.014984
61.295 18.973768
61.300 18.05921
61.305 16.920759
61.310 16.957941
61.315 16.955013
61.320 16.26759
61.325 15.913136
61.330 16.284948
61.335 16.476715
61.340 16.66894
61.345 16.270559
61.350 16.042866
61.355 16.572018
61.360 16.710472
61.365 16.449669
61.370 16.265741
61.375 16.141973
61.380 16.704735
61.385 16.900225
61.390 16.582129
61.395 16.602074
61.400 16.907055
61.405 17.32201
61.410 17.221987
61.415 17.66501
61.420 18.158213
61.425 18.417425
61.430 18.139788
61.435 17.808958
61.440 17.693672
61.445 17.517754
61.450 17.310001
61.455 16.951241
61.460 16.882866
61.465 17.178986
61.470 17.44298
61.475 17.557827
61.480 18.377659
61.485 18.330912
61.490 18.200171
61.495 18.382118
61.500 18.140472
61.505 18.330225
61.510 18.438128
61.515 18.47662
61.520 18.540867
61.525 18.832165
61.530 18.624182
61.535 18.772415
61.540 18.924049
61.545 19.161854
61.550 18.5597
61.555 18.092297
61.560 17.759655
61.565 17.841183
61.570 17.595301
61.575 17.286798
61.580 17.315771
61.585 17.056494
61.590 17.174904
61.595 16.914753
61.600 16.579575
61.605 16.352943
61.610 16.01222
61.615 15.475053
61.620 15.80144
61.625 15.836043
61.630 16.039911
61.635 16.791235
61.640 17.082989
61.645 17.61021
61.650 17.909775
61.655 17.922121
61.660 18.013128
61.665 17.989889
61.670 17.375912
61.675 16.737761
61.680 15.643044
61.685 15.4431
61.690 15.182732
61.695 15.346113
61.700 15.796611
61.705 16.249153
61.710 17.38126
61.715 18.687004
61.720 19.018291
61.725 18.642385
61.730 18.117159
61.735 17.684931
61.740 17.4217
61.745 17.064701
61.750 16.392723
61.755 16.108395
61.760 16.481882
61.765 17.036591
61.770 17.157528
61.775 17.372644
61.780 17.335127
61.785 17.733143
61.790 18.050701
61.795 18.517168
61.800 18.323107
61.805 18.274157
61.810 18.303577
61.815 18.102278
61.820 18.312309
61.825 18.285585
61.830 18.134624
61.835 18.056074
61.840 18.009333
61.845 17.671911
61.850 17.539934
61.855 17.189104
61.860 17.29924
61.865 17.059065
61.870 17.0191
61.875 17.352753
61.880 18.152803
61.885 18.919144
61.890 20.042982
61.895 20.173815
61.900 20.20664
61.905 20.523512
61.910 20.620409
61.915 19.981159
61.920 19.11974
61.925 17.816029
61.930 17.197161
61.935 17.007288
61.940 16.594622
61.945 16.386986
61.950 16.673096
61.955 16.646935
61.960 16.446386
61.965 16.144096
61.970 16.10503
61.975 16.201202
61.980 15.752938
61.985 15.619761
61.990 15.767808
61.995 16.769932
62.000 17.498117
62.005 17.615808
62.010 17.414873
62.015 17.618046
62.020 17.330698
62.025 16.761633
62.030 16.067081
62.035 15.847548
62.040 16.16497
62.045 16.42672
62.050 16.727375
62.055 16.785311
62.060 17.63903
62.065 18.118937
62.070 18.289057
62.075 18.059029
62.080 18.013992
62.085 17.899111
62.090 18.220148
62.095 17.87175
62.100 17.576653
62.105 16.853895
62.110 16.944464
62.115 16.762297
62.120 16.389557
62.125 16.27387
62.130 16.396805
62.135 17.525629
62.140 18.549633
62.145 18.863861
62.150 19.254522
62.155 19.070683
62.160 18.892384
62.165 18.775547
62.170 18.751822
62.175 18.623423
62.180 18.25071
62.185 18.159372
62.190 18.576471
62.195 18.736691
62.200 18.289974
62.205 17.729103
62.210 17.813057
62.215 17.831684
62.220 17.794495
62.225 17.382174
62.230 17.319075
62.235 17.1733
62.240 16.665312
62.245 16.023476
62.250 15.103728
62.255 15.000814
62.260 15.623855
62.265 15.835361
62.270 15.86103
62.275 15.747109
62.280 16.269178
62.285 17.022612
62.290 17.209356
62.295 16.931892
62.300 16.894499
62.305 17.440491
62.310 17.502031
62.315 17.540922
62.320 17.71138
62.325 17.696053
62.330 17.430141
62.335 17.330479
62.340 16.369425
62.345 16.5924
62.350 16.292974
62.355 16.578239
62.360 16.919901
62.365 17.056852
62.370 17.257021
62.375 17.583321
62.380 17.532522
62.385 17.215673
62.390 16.501932
62.395 15.925796
62.400 16.036736
62.405 16.19215
62.410 16.531509
62.415 16.796827
62.420 16.899317
62.425 16.937502
62.430 16.938133
62.435 16.729277
62.440 16.656305
62.445 16.858177
62.450 17.558353
62.455 18.179768
62.460 18.738277
62.465 18.81439
62.470 18.479391
62.475 18.462868
62.480 18.276155
62.485 17.482784
62.490 16.943033
62.495 16.818188
62.500 17.275
62.505 17.545944
62.510 17.512459
62.515 17.720781
62.520 17.804647
62.525 17.833523
62.530 17.584631
62.535 17.112106
62.540 17.520491
62.545 17.799252
62.550 16.966843
62.555 16.537546
62.560 16.180164
62.565 16.283192
62.570 16.468441
62.575 16.06452
62.580 15.814691
62.585 16.016602
62.590 16.495853
62.595 16.975212
62.600 16.80257
62.605 17.01236
62.610 17.331602
62.615 17.262775
62.620 17.216154
62.625 17.608925
62.630 17.994776
62.635 18.271711
62.640 17.964417
62.645 17.550318
62.650 17.711256
62.655 18.209938
62.660 17.979002
62.665 17.44195
62.670 17.402275
62.675 17.608572
62.680 17.512716
62.685 17.494404
62.690 16.745684
62.695 16.470339
62.700 16.302671
62.705 16.060051
62.710 15.893302
62.715 16.054399
62.720 15.874888
62.725 16.509312
62.730 16.956802
62.735 17.614721
62.740 17.684738
62.745 17.738634
62.750 17.634295
62.755 17.477364
62.760 16.739162
62.765 16.541666
62.770 15.935199
62.775 15.771592
62.780 15.920968
62.785 16.111797
62.790 16.747644
62.795 17.663755
62.800 17.408192
62.805 17.619652
62.810 17.883011
62.815 17.560081
62.820 17.285173
62.825 17.121702
62.830 17.406145
62.835 17.545614
62.840 17.710287
62.845 17.873575
62.850 18.595493
62.855 18.952206
62.860 18.748682
62.865 18.079021
62.870 18.140524
62.875 18.047918
62.880 17.773743
62.885 17.320938
62.890 17.545069
62.895 17.440928
62.900 17.660389
62.905 17.874815
62.910 18.1262
62.915 17.867491
62.920 17.932526
62.925 17.730415
62.930 17.898825
62.935 18.203005
62.940 17.742342
62.945 17.217178
62.950 17.508808
62.955 17.954365
62.960 18.035635
62.965 17.877388
62.970 17.901766
62.975 18.425592
62.980 18.646654
62.985 18.777077
62.990 18.680222
62.995 18.986893
63.000 18.896212
63.005 19.278402
63.010 19.115793
63.015 19.106571
63.020 18.8515
63.025 18.255428
63.030 17.959562
63.035 17.899889
63.040 17.38958
63.045 17.566069
63.050 17.441175
63.055 17.590374
63.060 18.190876
63.065 18.427959
63.070 18.518021
63.075 18.43642
63.080 18.277452
63.085 18.682158
63.090 18.799177
63.095 18.741098
63.100 18.715847
63.105 19.092829
63.110 18.881578
63.115 18.603815
63.120 18.326252
63.125 17.962778
63.130 17.702398
63.135 17.708794
63.140 17.807896
63.145 17.872572
63.150 17.969248
63.155 18.03175
63.160 18.387684
63.165 18.439077
63.170 18.658232
63.175 17.797577
63.180 17.425842
63.185 17.407127
63.190 17.448591
63.195 17.318111
63.200 17.239199
63.205 16.913782
63.210 17.460009
63.215 18.085253
63.220 18.368444
63.225 18.564194
63.230 18.320211
63.235 18.40447
63.240 18.259237
63.245 18.122953
63.250 18.381367
63.255 18.240534
63.260 18.015348
63.265 18.344536
63.270 17.837582
63.275 18.443581
63.280 18.611979
63.285 18.910143
63.290 19.320745
63.295 19.272888
63.300 19.184982
63.305 19.835999
63.310 19.669661
63.315 19.716978
63.320 19.568874
63.325 19.027691
63.330 18.812515
63.335 18.609289
63.340 18.41678
63.345 18.322832
63.350 18.609035
63.355 18.242544
63.360 18.378109
63.365 19.189819
63.370 19.495777
63.375 19.093021
63.380 18.616261
63.385 18.131796
63.390 17.986763
63.395 18.143023
63.400 17.837282
63.405 17.651087
63.410 18.063923
63.415 18.667692
63.420 18.922285
63.425 19.190807
63.430 19.451571
63.435 19.400501
63.440 19.015785
63.445 18.880915
63.450 18.667683
63.455 19.010752
63.460 18.768318
63.465 19.103876
63.470 19.480686
63.475 20.230757
63.480 20.330494
63.485 20.288704
63.490 19.327248
63.495 18.777958
63.500 18.150253
63.505 17.546026
63.510 17.456942
63.515 17.592489
63.520 17.257721
63.525 18.227768
63.530 18.727196
63.535 18.873957
63.540 19.468647
63.545 19.190706
63.550 18.559891
63.555 18.76766
63.560 18.800482
63.565 18.249258
63.570 17.534685
63.575 17.370756
63.580 17.463039
63.585 17.805523
63.590 18.190878
63.595 18.054598
63.600 18.288832
63.605 18.52397
63.610 18.434193
63.615 18.571781
63.620 18.954802
63.625 18.367596
63.630 18.668543
63.635 19.052689
63.640 19.530399
63.645 19.722631
63.650 19.857162
63.655 20.006151
63.660 20.147152
63.665 20.059383
63.670 20.273022
63.675 19.477751
63.680 19.742294
63.685 19.897091
63.690 19.324375
63.695 19.191938
63.700 18.472265
63.705 18.203293
63.710 19.181149
63.715 19.149918
63.720 18.679617
63.725 19.182741
63.730 19.720661
63.735 20.795572
63.740 20.767946
63.745 20.091003
63.750 19.947172
63.755 20.109554
63.760 19.888102
63.765 19.850513
63.770 19.47724
63.775 19.372419
63.780 19.755373
63.785 19.936382
63.790 19.824749
63.795 19.642435
63.800 18.838427
63.805 18.891998
63.810 19.18733
63.815 19.490513
63.820 19.252491
63.825 19.667316
63.830 20.265194
63.835 20.971655
63.840 22.063148
63.845 22.770441
63.850 22.416845
63.855 22.48859
63.860 22.516884
63.865 22.62229
63.870 22.008034
63.875 21.041435
63.880 20.495264
63.885 20.937609
63.890 21.607294
63.895 21.877613
63.900 22.568672
63.905 23.263105
63.910 23.482971
63.915 23.817289
63.920 23.711082
63.925 23.600967
63.930 23.592937
63.935 23.301998
63.940 23.17041
63.945 23.173197
63.950 23.280205
63.955 23.778305
63.960 24.590015
63.965 24.705914
63.970 24.675987
63.975 24.716026
63.980 25.08947
63.985 24.994127
63.990 24.921791
63.995 24.70797
64.000 25.158617
64.005 25.278267
64.010 26.083363
64.015 26.811964
64.020 28.025593
64.025 28.706896
64.030 28.245289
64.035 27.443932
64.040 27.65962
64.045 27.794514
64.050 27.844051
64.055 26.918461
64.060 26.802383
64.065 27.481918
64.070 28.717316
64.075 29.267023
64.080 29.311594
64.085 29.764668
64.090 30.399082
64.095 31.239536
64.100 31.417999
64.105 30.962437
64.110 30.852442
64.115 30.611221
64.120 30.881157
64.125 30.629456
64.130 30.135166
64.135 30.832548
64.140 31.777348
64.145 31.97551
64.150 33.078423
64.155 33.806026
64.160 34.661549
64.165 34.843296
64.170 34.769138
64.175 34.456581
64.180 35.201515
64.185 35.026829
64.190 34.579025
64.195 34.332649
64.200 34.036762
64.205 34.065639
64.210 34.879089
64.215 34.153965
64.220 33.279335
64.225 33.04184
64.230 33.283279
64.235 34.362572
64.240 35.615631
64.245 36.048969
64.250 36.840782
64.255 37.945175
64.260 38.579536
64.265 38.449112
64.270 38.110161
64.275 36.17157
64.280 35.534481
64.285 36.080135
64.290 36.497555
64.295 37.25922
64.300 37.816761
64.305 37.62735
64.310 37.559231
64.315 37.688721
64.320 37.370457
64.325 36.863873
64.330 35.710495
64.335 35.402103
64.340 36.105595
64.345 36.820831
64.350 35.971375
64.355 35.631569
64.360 35.426056
64.365 35.968765
64.370 35.916748
64.375 35.392677
64.380 35.247913
64.385 35.693207
64.390 35.726131
64.395 36.056316
64.400 36.215397
64.405 36.15411
64.410 36.371395
64.415 36.613415
64.420 36.641804
64.425 36.396725
64.430 35.799629
64.435 35.717464
64.440 35.791687
64.445 35.744854
64.450 35.701756
64.455 35.795666
64.460 35.341946
64.465 34.913742
64.470 33.670509
64.475 32.432564
64.480 31.579199
64.485 31.21648
64.490 30.605835
64.495 31.050734
64.500 31.429028
64.505 32.093086
64.510 32.773327
64.515 32.765884
64.520 32.724804
64.525 32.987907
64.530 32.843983
64.535 32.688622
64.540 31.551422
64.545 30.968872
64.550 30.724709
64.555 29.994831
64.560 29.267126
64.565 28.972916
64.570 27.842506
64.575 28.246504
64.580 28.122915
64.585 27.800962
64.590 27.752552
64.595 27.571901
64.600 27.210779
64.605 27.023874
64.610 26.126902
64.615 25.808146
64.620 25.970694
64.625 26.20676
64.630 26.489714
64.635 26.27116
64.640 26.433624
64.645 26.509516
64.650 26.443367
64.655 25.954731
64.660 25.313635
64.665 24.489882
64.670 24.024448
64.675 23.63937
64.680 24.010164
64.685 24.025789
64.690 23.646393
64.695 23.052874
64.700 23.075989
64.705 23.21104
64.710 22.651377
64.715 21.714153
64.720 21.290522
64.725 21.123819
64.730 21.235172
64.735 21.090971
64.740 21.014357
64.745 21.027538
64.750 21.366581
64.755 21.425409
64.760 21.871628
64.765 22.217426
64.770 22.22122
64.775 22.077799
64.780 22.296871
64.785 22.461298
64.790 22.494438
64.795 21.816648
64.800 21.221361
64.805 21.010622
64.810 21.591873
64.815 21.585644
64.820 21.251333
64.825 21.294689
64.830 22.099424
64.835 22.691565
64.840 22.737604
64.845 22.395445
64.850 22.850414
64.855 22.946724
64.860 22.970264
64.865 22.610216
64.870 22.782265
64.875 23.682274
64.880 23.718815
64.885 23.262932
64.890 23.480438
64.895 23.395727
64.900 24.149733
64.905 24.558796
64.910 24.220436
64.915 24.202169
64.920 23.637197
64.925 23.072954
64.930 23.062569
64.935 22.570377
64.940 22.030886
64.945 21.655462
64.950 21.769819
64.955 22.256536
64.960 22.303774
64.965 22.364431
64.970 23.125406
64.975 23.612858
64.980 24.133718
64.985 25.002798
64.990 25.307688
64.995 25.842451
65.000 25.892084
65.005 25.543829
65.010 25.316019
65.015 25.376612
65.020 25.151991
65.025 24.391232
65.030 23.849043
65.035 23.628222
65.040 24.047613
65.045 24.504736
65.050 24.436434
65.055 24.49931
65.060 25.446501
65.065 26.056925
65.070 26.197445
65.075 25.370274
65.080 25.304394
65.085 25.749929
65.090 26.055197
65.095 26.174189
65.100 26.254343
65.105 26.637951
65.110 26.671978
65.115 26.132719
65.120 25.630411
65.125 25.117619
65.130 25.403322
65.135 25.628067
65.140 25.503796
65.145 25.857862
65.150 25.957159
65.155 25.721788
65.160 26.117641
65.165 26.325338
65.170 26.364553
65.175 26.130453
65.180 25.765074
65.185 25.985342
65.190 26.2164
65.195 26.491096
65.200 25.491962
65.205 25.285706
65.210 25.170599
65.215 25.246353
65.220 25.445368
65.225 25.655409
65.230 25.305115
65.235 26.529984
65.240 27.168257
65.245 27.398071
65.250 27.352444
65.255 27.671864
65.260 28.149149
65.265 28.65769
65.270 28.07999
65.275 28.052162
65.280 28.427759
65.285 28.608137
65.290 27.894888
65.295 27.661766
65.300 27.361153
65.305 27.514296
65.310 27.351501
65.315 27.154028
65.320 27.420034
65.325 27.417307
65.330 27.04674
65.335 26.554729
65.340 26.713259
65.345 26.964497
65.350 27.174063
65.355 27.210199
65.360 27.640572
65.365 28.305817
65.370 29.303209
65.375 29.692234
65.380 29.489376
65.385 29.721596
65.390 29.80228
65.395 30.131157
65.400 30.345171
65.405 30.474993
65.410 30.180029
65.415 30.387764
65.420 30.130775
65.425 30.254093
65.430 30.259216
65.435 29.438673
65.440 29.416006
65.445 29.672871
65.450 29.174225
65.455 28.986897
65.460 28.734486
65.465 29.117554
65.470 30.027708
65.475 30.115398
65.480 30.539598
65.485 31.286131
65.490 31.757183
65.495 32.041763
65.500 31.885239
65.505 32.109413
65.510 32.998173
65.515 33.289837
65.520 33.900288
65.525 34.301167
65.530 34.219555
65.535 34.138718
65.540 34.123028
65.545 33.701447
65.550 34.073524
65.555 33.784374
65.560 32.958126
65.565 32.926388
65.570 32.767727
65.575 32.944721
65.580 33.456978
65.585 33.247471
65.590 33.531635
65.595 33.979866
65.600 34.520885
65.605 34.995026
65.610 35.523602
65.615 35.474865
65.620 35.933426
65.625 36.492542
65.630 37.114174
65.635 36.987026
65.640 36.585674
65.645 36.782558
65.650 37.031834
65.655 36.399639
65.660 36.047157
65.665 35.736637
65.670 36.209812
65.675 37.227909
65.680 37.208897
65.685 37.516403
65.690 38.420975
65.695 38.331615
65.700 37.958523
65.705 37.564049
65.710 36.732059
65.715 35.768543
65.720 34.68256
65.725 34.247143
65.730 34.795284
65.735 35.735668
65.740 35.483162
65.745 35.28756
65.750 35.658592
65.755 36.398804
65.760 36.104626
65.765 35.869678
65.770 35.061443
65.775 35.698174
65.780 36.116707
65.785 36.205284
65.790 35.854557
65.795 35.951244
65.800 35.795113
65.805 36.487915
65.810 36.438862
65.815 37.024853
65.820 37.057663
65.825 37.280876
65.830 36.927902
65.835 36.864979
65.840 36.762875
65.845 36.392326
65.850 36.20219
65.855 36.02243
65.860 35.734997
65.865 36.293228
65.870 35.779263
65.875 35.366756
65.880 34.764458
65.885 34.314152
65.890 33.916306
65.895 33.900978
65.900 33.736164
65.905 33.874573
65.910 33.782585
65.915 33.535614
65.920 33.606632
65.925 33.781639
65.930 33.398666
65.935 32.88102
65.940 32.969925
65.945 32.964054
65.950 32.770042
65.955 32.795586
65.960 32.747173
65.965 33.070831
65.970 33.408543
65.975 33.043652
65.980 33.442612
65.985 33.911957
65.990 34.092159
65.995 34.292782
66.000 34.996063
66.005 35.741562
66.010 35.786144
66.015 35.560322
66.020 36.174927
66.025 35.462082
66.030 34.621162
66.035 33.481186
66.040 33.118587
66.045 33.465206
66.050 33.346367
66.055 32.875473
66.060 32.913395
66.065 32.483036
66.070 31.547533
66.075 30.906662
66.080 31.381893
66.085 31.274204
66.090 31.169113
66.095 30.736097
66.100 31.692614
66.105 32.29459
66.110 32.259628
66.115 31.851856
66.120 31.565346
66.125 32.071053
66.130 32.611767
66.135 32.516663
66.140 32.255257
66.145 32.123344
66.150 31.792994
66.155 31.988775
66.160 31.120295
66.165 30.714079
66.170 30.464388
66.175 30.601488
66.180 31.234432
66.185 31.698257
66.190 31.735559
66.195 32.358295
66.200 31.369308
66.205 31.013426
66.210 31.064606
66.215 30.172167
66.220 29.719353
66.225 28.899668
66.230 28.413773
66.235 28.552347
66.240 28.721701
66.245 29.228167
66.250 29.76462
66.255 30.060553
66.260 30.370567
66.265 30.408537
66.270 30.725285
66.275 30.297638
66.280 29.263029
66.285 29.086077
66.290 28.779436
66.295 28.358267
66.300 28.113493
66.305 27.74563
66.310 27.708841
66.315 27.562483
66.320 27.193048
66.325 27.575033
66.330 27.409294
66.335 27.171528
66.340 27.106405
66.345 27.396687
66.350 26.944744
66.355 27.115103
66.360 25.943996
66.365 25.936659
66.370 26.160715
66.375 26.55061
66.380 26.564745
66.385 27.027943
66.390 27.00186
66.395 27.792231
66.400 28.166822
66.405 29.073326
66.410 28.947092
66.415 29.095358
66.420 29.110489
66.425 28.744812
66.430 28.447048
66.435 27.814791
66.440 27.054394
66.445 26.400194
66.450 25.647955
66.455 25.157022
66.460 24.706358
66.465 25.127182
66.470 25.913101
66.475 25.30612
66.480 25.571262
66.485 25.256607
66.490 25.044533
66.495 24.929344
66.500 24.369818
66.505 23.560175
66.510 23.828016
66.515 23.533682
66.520 23.556141
66.525 23.334679
66.530 23.591637
66.535 23.497663
66.540 23.734461
66.545 23.438213
66.550 23.752062
66.555 23.866312
66.560 23.586617
66.565 23.507498
66.570 23.851944
66.575 23.958292
66.580 23.762812
66.585 22.873001
66.590 23.094448
66.595 23.594334
66.600 23.80196
66.605 23.716425
66.610 23.72687
66.615 23.864786
66.620 24.162741
66.625 24.08979
66.630 22.990461
66.635 21.810295
66.640 20.993721
66.645 20.223297
66.650 19.791901
66.655 19.392714
66.660 18.814615
66.665 19.376503
66.670 19.924744
66.675 19.927979
66.680 20.741896
66.685 20.981434
66.690 21.02894
66.695 21.44838
66.700 21.767309
66.705 22.23789
66.710 22.771082
66.715 22.322138
66.720 21.999123
66.725 22.127741
66.730 21.391083
66.735 20.846912
66.740 20.803486
66.745 20.693556
66.750 21.301992
66.755 21.984716
66.760 22.255669
66.765 22.388193
66.770 22.810814
66.775 22.149597
66.780 21.849457
66.785 21.240635
66.790 20.706371
66.795 20.268213
66.800 20.290077
66.805 19.521435
66.810 19.606466
66.815 19.630781
66.820 19.691664
66.825 20.088173
66.830 19.860483
66.835 19.998785
66.840 19.867737
66.845 19.574507
66.850 19.364542
66.855 18.561911
66.860 18.058622
66.865 17.981867
66.870 17.695583
66.875 17.769827
66.880 17.373363
66.885 17.396051
66.890 17.853657
66.895 17.546844
66.900 17.385782
66.905 17.404835
66.910 17.704195
66.915 18.335339
66.920 18.865284
66.925 19.317987
66.930 19.639332
66.935 20.153536
66.940 20.715227
66.945 21.090668
66.950 21.614193
66.955 21.390594
66.960 20.998486
66.965 21.374966
66.970 21.039612
66.975 20.863209
66.980 20.615782
66.985 20.263456
66.990 20.312115
66.995 20.663132
67.000 20.535109
67.005 20.409395
67.010 20.214474
67.015 20.854525
67.020 20.621168
67.025 20.358225
67.030 20.482279
67.035 20.581078
67.040 20.88081
67.045 20.68992
67.050 19.780962
67.055 20.058487
67.060 20.481947
67.065 20.390472
67.070 20.621689
67.075 21.221762
67.080 22.11079
67.085 22.350813
67.090 21.807913
67.095 21.261337
67.100 20.901533
67.105 19.912159
67.110 19.362478
67.115 18.540298
67.120 18.478712
67.125 19.188513
67.130 19.345303
67.135 19.291777
67.140 19.975178
67.145 20.401937
67.150 20.416815
67.155 20.4708
67.160 20.131815
67.165 20.478506
67.170 20.998262
67.175 20.803259
67.180 20.829353
67.185 21.127241
67.190 21.051155
67.195 21.276484
67.200 21.036974
67.205 21.311598
67.210 21.992443
67.215 21.700727
67.220 21.795027
67.225 21.8305
67.230 21.225748
67.235 20.825357
67.240 20.757553
67.245 20.32811
67.250 20.3298
67.255 20.304728
67.260 20.621014
67.265 20.872591
67.270 20.68404
67.275 19.837633
67.280 19.581924
67.285 19.078421
67.290 19.198263
67.295 18.868063
67.300 19.063505
67.305 19.328167
67.310 19.715574
67.315 19.537107
67.320 19.889622
67.325 19.124708
67.330 18.816082
67.335 18.457586
67.340 18.724361
67.345 18.886955
67.350 18.462461
67.355 18.702061
67.360 19.377373
67.365 20.232838
67.370 20.40596
67.375 20.840199
67.380 20.649324
67.385 20.570536
67.390 20.637583
67.395 20.084345
67.400 19.727358
67.405 19.329321
67.410 18.629635
67.415 18.698874
67.420 19.330465
67.425 19.302988
67.430 19.057419
67.435 18.808336
67.440 18.744144
67.445 18.741316
67.450 19.407869
67.455 19.014214
67.460 18.908222
67.465 19.44894
67.470 19.733452
67.475 20.029144
67.480 20.300938
67.485 20.576866
67.490 20.873323
67.495 20.811165
67.500 21.11298
67.505 21.082792
67.510 21.099026
67.515 20.800592
67.520 20.232885
67.525 20.090635
67.530 19.821594
67.535 19.584702
67.540 19.853077
67.545 19.509975
67.550 19.869009
67.555 19.697016
67.560 19.71768
67.565 19.389681
67.570 19.23554
67.575 19.315672
67.580 19.146475
67.585 18.799734
67.590 18.823193
67.595 18.701719
67.600 18.719355
67.605 18.720728
67.610 18.850739
67.615 19.066866
67.620 19.416431
67.625 19.707571
67.630 20.496031
67.635 20.856087
67.640 20.885241
67.645 20.040977
67.650 19.831562
67.655 19.44253
67.660 19.066965
67.665 19.152935
67.670 18.56834
67.675 18.554424
67.680 19.325481
67.685 19.485807
67.690 19.111406
67.695 19.304688
67.700 19.305992
67.705 19.871536
67.710 19.334087
67.715 19.02808
67.720 19.213999
67.725 20.040257
67.730 20.168987
67.735 20.170664
67.740 20.195171
67.745 20.864429
67.750 21.143894
67.755 20.779842
67.760 20.546522
67.765 20.627337
67.770 20.460304
67.775 20.424973
67.780 20.103472
67.785 20.0735
67.790 20.597052
67.795 20.202871
67.800 19.880165
67.805 19.741198
67.810 20.550253
67.815 20.797064
67.820 20.700592
67.825 20.283484
67.830 20.283543
67.835 20.028841
67.840 20.336285
67.845 19.786972
67.850 19.413342
67.855 19.682655
67.860 20.283056
67.865 20.41766
67.870 20.948645
67.875 20.52005
67.880 19.979155
67.885 20.208008
67.890 19.686487
67.895 19.100231
67.900 19.241665
67.905 18.64583
67.910 18.899849
67.915 19.725311
67.920 19.583336
67.925 19.824738
67.930 20.194479
67.935 20.450785
67.940 20.661057
67.945 20.448879
67.950 19.675886
67.955 19.844734
67.960 19.928986
67.965 19.376799
67.970 18.807112
67.975 19.262526
67.980 19.58654
67.985 20.104977
67.990 19.725462
67.995 19.816746
68.000 20.242603
68.005 20.242559
68.010 20.160709
68.015 20.188011
68.020 19.952343
68.025 20.19523
68.030 19.579445
68.035 19.476076
68.040 19.415588
68.045 18.542255
68.050 18.426407
68.055 18.461809
68.060 18.531677
68.065 18.54615
68.070 18.65683
68.075 19.475924
68.080 20.419563
68.085 20.512564
68.090 20.56811
68.095 20.371183
68.100 20.63648
68.105 20.627266
68.110 19.825588
68.115 19.290237
68.120 19.388483
68.125 19.358459
68.130 19.833082
68.135 19.852816
68.140 19.592375
68.145 19.983892
68.150 20.099079
68.155 20.085146
68.160 19.928997
68.165 19.734821
68.170 19.782452
68.175 20.145239
68.180 19.823887
68.185 19.764324
68.190 20.242353
68.195 20.475504
68.200 20.34837
68.205 20.326485
68.210 20.693146
68.215 21.079765
68.220 21.048994
68.225 21.196901
68.230 20.93432
68.235 20.245224
68.240 19.622128
68.245 19.28546
68.250 19.764982
68.255 19.720366
68.260 19.762758
68.265 20.566044
68.270 21.428368
68.275 21.832129
68.280 21.715723
68.285 21.665892
68.290 22.089073
68.295 21.558435
68.300 20.978182
68.305 20.966492
68.310 20.990303
68.315 21.286848
68.320 21.324997
68.325 21.413834
68.330 21.633512
68.335 22.214491
68.340 22.404694
68.345 23.186813
68.350 23.023138
68.355 22.42116
68.360 22.3041
68.365 22.744165
68.370 22.81534
68.375 22.804117
68.380 22.023018
68.385 21.792847
68.390 21.936537
68.395 21.543795
68.400 21.660568
68.405 21.886106
68.410 21.821117
68.415 22.036329
68.420 22.623993
68.425 23.201366
68.430 23.37771
68.435 23.305634
68.440 23.296255
68.445 23.098007
68.450 23.266186
68.455 23.097412
68.460 23.258047
68.465 23.374886
68.470 23.676929
68.475 23.900803
68.480 24.405609
68.485 24.411751
68.490 24.937445
68.495 25.003056
68.500 24.932087
68.505 24.82942
68.510 24.594221
68.515 24.09396
68.520 24.251221
68.525 23.903221
68.530 24.15633
68.535 24.271132
68.540 24.074753
68.545 24.47842
68.550 25.357864
68.555 26.183275
68.560 26.630548
68.565 26.261635
68.570 26.133081
68.575 25.775873
68.580 25.989927
68.585 26.059311
68.590 25.658718
68.595 25.809872
68.600 26.625854
68.605 27.186832
68.610 27.729137
68.615 27.694515
68.620 27.131706
68.625 27.559414
68.630 27.912691
68.635 28.088678
68.640 28.162743
68.645 28.024015
68.650 28.131247
68.655 28.936583
68.660 28.316452
68.665 27.72739
68.670 27.296003
68.675 27.182339
68.680 27.449272
68.685 27.839321
68.690 28.185549
68.695 28.561625
68.700 28.434559
68.705 28.182852
68.710 27.762756
68.715 27.45311
68.720 27.242363
68.725 26.617212
68.730 26.878366
68.735 27.043375
68.740 27.512453
68.745 28.352829
68.750 28.578856
68.755 27.894777
68.760 28.13991
68.765 28.154205
68.770 27.654682
68.775 27.638952
68.780 27.327469
68.785 27.44248
68.790 28.353701
68.795 28.756088
68.800 29.86968
68.805 31.122612
68.810 31.171377
68.815 31.741261
68.820 32.051037
68.825 31.600164
68.830 31.303135
68.835 31.206863
68.840 30.413988
68.845 30.50832
68.850 30.455664
68.855 30.628386
68.860 30.625902
68.865 30.972759
68.870 30.471092
68.875 29.932379
68.880 29.654533
68.885 28.830912
68.890 28.499243
68.895 29.019148
68.900 28.978346
68.905 29.925489
68.910 30.4459
68.915 30.74708
68.920 31.513069
68.925 31.826815
68.930 31.760036
68.935 31.051975
68.940 30.451197
68.945 30.761934
68.950 31.023262
68.955 30.868481
68.960 30.447598
68.965 30.547995
68.970 31.022455
68.975 31.339254
68.980 30.998941
68.985 30.883556
68.990 30.886036
68.995 31.379129
69.000 31.632038
69.005 31.825142
69.010 31.892754
69.015 32.006134
69.020 32.309757
69.025 32.873859
69.030 32.264435
69.035 32.320755
69.040 32.243305
69.045 32.378254
69.050 32.303535
69.055 31.803934
69.060 31.408876
69.065 31.166906
69.070 30.675856
69.075 30.326645
69.080 30.045441
69.085 29.6712
69.090 29.812866
69.095 30.964468
69.100 31.724949
69.105 31.989809
69.110 32.385605
69.115 32.720875
69.120 32.802456
69.125 32.127766
69.130 30.911694
69.135 30.602707
69.140 30.817299
69.145 30.825232
69.150 30.429834
69.155 30.410404
69.160 29.755987
69.165 29.656574
69.170 29.516228
69.175 29.714697
69.180 30.038559
69.185 30.047287
69.190 30.078663
69.195 30.426479
69.200 30.883396
69.205 30.43965
69.210 30.897583
69.215 30.415262
69.220 30.473978
69.225 30.471184
69.230 31.417761
69.235 31.490108
69.240 30.66987
69.245 29.655323
69.250 29.950323
69.255 30.246958
69.260 30.292789
69.265 30.002899
69.270 30.379831
69.275 30.433996
69.280 30.170347
69.285 29.642115
69.290 29.145933
69.295 28.52861
69.300 27.601891
69.305 27.096384
69.310 28.40131
69.315 28.213781
69.320 28.676535
69.325 28.849129
69.330 29.073549
69.335 29.018286
69.340 28.223278
69.345 27.381443
69.350 27.094755
69.355 27.067247
69.360 26.776167
69.365 26.554131
69.370 27.261919
69.375 27.862402
69.380 27.518068
69.385 27.398438
69.390 27.480516
69.395 27.589777
69.400 27.723711
69.405 27.477406
69.410 26.968199
69.415 26.865408
69.420 27.208975
69.425 26.77512
69.430 27.330471
69.435 27.559666
69.440 27.55195
69.445 28.436596
69.450 28.943241
69.455 28.353075
69.460 28.761278
69.465 27.800253
69.470 27.866909
69.475 27.752512
69.480 27.346222
69.485 26.900156
69.490 27.132336
69.495 26.724024
69.500 26.669313
69.505 26.397051
69.510 26.643213
69.515 26.52437
69.520 26.910336
69.525 26.603912
69.530 26.47801
69.535 26.477255
69.540 26.555603
69.545 26.0119
69.550 25.602591
69.555 25.542776
69.560 25.644604
69.565 25.324694
69.570 25.334454
69.575 25.825785
69.580 25.74058
69.585 25.387745
69.590 24.938288
69.595 24.594385
69.600 24.619087
69.605 24.176579
69.610 23.753868
69.615 24.183395
69.620 23.622612
69.625 23.916111
69.630 24.806555
69.635 25.456524
69.640 25.793842
69.645 25.732365
69.650 25.681108
69.655 25.995752
69.660 25.743711
69.665 25.185642
69.670 25.29364
69.675 25.481133
69.680 24.965902
69.685 24.971876
69.690 24.777128
69.695 25.044529
69.700 24.999767
69.705 24.498663
69.710 24.282698
69.715 24.728775
69.720 24.656631
69.725 24.422997
69.730 24.118372
69.735 24.017433
69.740 23.732622
69.745 24.035759
69.750 23.58713
69.755 23.644152
69.760 23.343416
69.765 22.999834
69.770 23.432987
69.775 23.622932
69.780 22.965191
69.785 23.180527
69.790 23.633968
69.795 24.132168
69.800 24.036137
69.805 23.087982
69.810 22.811565
69.815 23.013821
69.820 22.594826
69.825 21.807194
69.830 21.44331
69.835 21.938501
69.840 22.164082
69.845 22.102245
69.850 21.946243
69.855 22.037872
69.860 21.982748
69.865 21.629681
69.870 21.592041
69.875 21.763193
69.880 21.822538
69.885 21.916157
69.890 21.976486
69.895 22.837809
69.900 23.196127
69.905 23.106726
69.910 23.065393
69.915 23.073721
69.920 23.216372
69.925 22.806463
69.930 22.261654
69.935 22.237122
69.940 22.443293
69.945 22.108397
69.950 21.115059
69.955 21.409342
69.960 21.40074
69.965 21.265923
69.970 20.375265
69.975 19.770205
69.980 19.995943
69.985 20.149893
69.990 19.7721
69.995 19.400522
70.000 19.158609
70.005 18.973848
70.010 18.707785
70.015 18.927528
70.020 19.415743
70.025 19.643295
70.030 19.697613
70.035 20.251846
70.040 20.650532
70.045 20.756519
70.050 21.032393
70.055 20.840767
70.060 20.417532
70.065 20.245405
70.070 20.130116
70.075 20.02891
70.080 19.935631
70.085 19.752296
70.090 20.192236
70.095 20.689629
70.100 20.898951
70.105 20.511377
70.110 20.234663
70.115 20.4849
70.120 19.92602
70.125 19.454792
70.130 19.30625
70.135 19.232891
70.140 19.06992
70.145 19.48148
70.150 19.130287
70.155 18.989664
70.160 18.734673
70.165 18.89185
70.170 19.293119
70.175 19.426512
70.180 19.269346
70.185 19.732594
70.190 20.260149
70.195 20.670527
70.200 20.393618
70.205 20.631742
70.210 21.027958
70.215 20.792404
70.220 20.246708
70.225 19.984285
70.230 19.372541
70.235 18.879963
70.240 18.26281
70.245 18.201963
70.250 18.401756
70.255 18.532578
70.260 18.056372
70.265 18.372234
70.270 18.57667
70.275 18.548203
70.280 18.13991
70.285 17.784348
70.290 18.223074
70.295 18.688528
70.300 18.572008
70.305 18.865808
70.310 19.005722
70.315 19.446625
70.320 19.378145
70.325 18.574247
70.330 18.521631
70.335 18.279705
70.340 17.938694
70.345 17.522457
70.350 16.9555
70.355 17.207798
70.360 17.980692
70.365 18.359581
70.370 18.788792
70.375 20.016113
70.380 20.628036
70.385 21.349819
70.390 21.551586
70.395 21.366688
70.400 20.797577
70.405 20.128807
70.410 19.385061
70.415 19.424908
70.420 19.342319
70.425 19.245867
70.430 19.491947
70.435 19.886944
70.440 20.268299
70.445 19.626783
70.450 18.987492
70.455 18.746578
70.460 18.561182
70.465 18.37322
70.470 18.486298
70.475 18.724434
70.480 19.229658
70.485 19.097589
70.490 19.078838
70.495 19.674435
70.500 20.169044
70.505 20.650539
70.510 20.952852
70.515 21.599113
70.520 22.191202
70.525 21.680634
70.530 21.262444
70.535 21.021788
70.540 20.653385
70.545 20.244419
70.550 19.730848
70.555 19.244398
70.560 19.774849
70.565 19.718184
70.570 19.981379
70.575 20.129452
70.580 19.651051
70.585 19.650324
70.590 19.794617
70.595 19.263191
70.600 19.40242
70.605 19.346872
70.610 19.768766
70.615 20.243231
70.620 20.497309
70.625 20.681957
70.630 20.283506
70.635 20.140059
70.640 20.056881
70.645 19.901739
70.650 20.056883
70.655 19.647282
70.660 19.895193
70.665 20.022444
70.670 20.016367
70.675 19.507124
70.680 19.094646
70.685 18.653841
70.690 18.568903
70.695 18.60281
70.700 18.773043
70.705 18.48019
70.710 18.824123
70.715 18.442158
70.720 18.401489
70.725 18.591959
70.730 18.551617
70.735 18.548672
70.740 18.254868
70.745 17.883392
70.750 17.858547
70.755 17.965422
70.760 17.58164
70.765 17.397762
70.770 17.132505
70.775 16.850668
70.780 17.50927
70.785 17.567842
70.790 17.801834
70.795 18.001131
70.800 18.181587
70.805 18.355724
70.810 18.418182
70.815 17.658308
70.820 17.632637
70.825 17.68841
70.830 17.893206
70.835 18.218317
70.840 18.380983
70.845 18.7717
70.850 19.339104
70.855 18.990793
70.860 18.869524
70.865 18.77265
70.870 18.349646
70.875 18.272106
70.880 18.422348
70.885 18.803261
70.890 19.083809
70.895 19.106314
70.900 19.559313
70.905 19.630173
70.910 19.627192
70.915 19.280445
70.920 18.908518
70.925 18.826548
70.930 18.327728
70.935 18.0732
70.940 18.169569
70.945 18.412409
70.950 18.884789
70.955 18.567781
70.960 18.739155
70.965 18.566681
70.970 18.659845
70.975 19.130362
70.980 18.784479
70.985 18.442301
70.990 18.963219
70.995 18.896282
71.000 18.794949
71.005 19.004347
71.010 18.481882
71.015 18.438652
71.020 18.590796
71.025 19.083427
71.030 19.269121
71.035 19.270752
71.040 19.277332
71.045 19.969431
71.050 20.264923
71.055 20.396957
71.060 19.875608
71.065 20.157616
71.070 20.022186
71.075 19.757961
71.080 19.081856
71.085 19.004112
71.090 18.693621
71.095 18.565504
71.100 18.502083
71.105 18.385118
71.110 18.259506
71.115 18.234829
71.120 18.25588
71.125 18.659611
71.130 18.397312
71.135 17.789459
71.140 17.257919
71.145 17.560347
71.150 17.811769
71.155 18.360697
71.160 18.015699
71.165 18.399502
71.170 19.363201
71.175 19.979233
71.180 19.925007
71.185 19.421965
71.190 18.88385
71.195 19.139437
71.200 18.798082
71.205 18.549753
71.210 18.293825
71.215 18.304569
71.220 18.76512
71.225 18.610514
71.230 18.563808
71.235 18.619747
71.240 18.914452
71.245 19.318094
71.250 19.479858
71.255 19.874784
71.260 19.977329
71.265 20.495203
71.270 20.630928
71.275 20.208736
71.280 19.606085
71.285 19.362291
71.290 18.839689
71.295 18.764847
71.300 18.38657
71.305 18.231985
71.310 18.392479
71.315 18.762657
71.320 18.817884
71.325 18.777649
71.330 18.59672
71.335 19.001745
71.340 19.48122
71.345 19.491976
71.350 18.901777
71.355 19.09733
71.360 19.619576
71.365 19.57122
71.370 19.144554
71.375 18.980589
71.380 19.004745
71.385 19.341288
71.390 18.820389
71.395 18.787901
71.400 19.528008
71.405 20.070097
71.410 20.416401
71.415 20.707689
71.420 20.643732
71.425 20.711222
71.430 20.373365
71.435 19.28162
71.440 19.15254
71.445 18.860542
71.450 18.969687
71.455 19.19331
71.460 19.28367
71.465 19.527044
71.470 19.949242
71.475 19.81003
71.480 20.206467
71.485 20.069027
71.490 20.091259
71.495 20.523056
71.500 19.951984
71.505 18.950275
71.510 18.324408
71.515 18.093723
71.520 18.243427
71.525 17.883886
71.530 17.59391
71.535 18.15769
71.540 19.268038
71.545 19.866493
71.550 19.984888
71.555 19.405342
71.560 19.369141
71.565 19.3654
71.570 19.256622
71.575 18.413536
71.580 17.863874
71.585 17.91292
71.590 18.340054
71.595 19.283367
71.600 19.26129
71.605 19.485455
71.610 19.632647
71.615 19.339943
71.620 19.521542
71.625 19.185831
71.630 19.473804
71.635 19.884871
71.640 19.958395
71.645 19.769907
71.650 19.803293
71.655 19.461809
71.660 18.960432
71.665 18.464394
71.670 18.563751
71.675 18.840454
71.680 19.459408
71.685 19.401497
71.690 19.289122
71.695 19.637119
71.700 19.385784
71.705 19.932392
71.710 19.548254
71.715 19.560625
71.720 20.196661
71.725 20.274633
71.730 20.284281
71.735 19.946386
71.740 19.477856
71.745 19.533897
71.750 18.829311
71.755 18.315933
71.760 18.24065
71.765 17.558556
71.770 17.036196
71.775 17.045038
71.780 17.158543
71.785 17.760641
71.790 17.698063
71.795 17.676439
71.800 18.383795
71.805 19.18384
71.810 19.446564
71.815 19.301279
71.820 19.222832
71.825 19.2442
71.830 19.334785
71.835 18.504616
71.840 18.490782
71.845 19.226931
71.850 19.79508
71.855 19.591778
71.860 20.0488
71.865 20.368036
71.870 20.522593
71.875 20.614006
71.880 19.842419
71.885 19.80558
71.890 20.27762
71.895 20.44072
71.900 20.472759
71.905 20.077759
71.910 20.219378
71.915 20.112465
71.920 20.086887
71.925 19.828415
71.930 19.102064
71.935 18.958935
71.940 18.594542
71.945 17.942194
71.950 18.157774
71.955 17.806799
71.960 17.389469
71.965 17.372873
71.970 18.066858
71.975 17.97419
71.980 17.895245
71.985 17.872534
71.990 17.874166
71.995 18.02648
72.000 17.938868
72.005 17.484888
72.010 18.272043
72.015 18.365782
72.020 17.640768
72.025 17.955547
72.030 17.644039
72.035 17.992428
72.040 18.308168
72.045 17.700693
72.050 18.239645
72.055 18.841311
72.060 18.90019
72.065 18.800558
72.070 18.391211
72.075 17.828627
72.080 17.615404
72.085 17.147947
72.090 17.102573
72.095 17.277811
72.100 17.021896
72.105 16.974081
72.110 17.449339
72.115 18.319187
72.120 17.832577
72.125 18.02339
72.130 17.916492
72.135 18.198095
72.140 18.253723
72.145 17.741806
72.150 17.239496
72.155 16.987228
72.160 16.700756
72.165 17.083139
72.170 17.618538
72.175 17.629435
72.180 17.822096
72.185 17.89629
72.190 17.820745
72.195 17.936047
72.200 17.611488
72.205 17.208477
72.210 17.205362
72.215 17.496752
72.220 17.894215
72.225 17.995136
72.230 18.298204
72.235 18.487623
72.240 18.740063
72.245 18.920626
72.250 19.402529
72.255 19.555906
72.260 19.648561
72.265 19.682409
72.270 19.392014
72.275 19.576262
72.280 18.887577
72.285 17.701256
72.290 17.627802
72.295 17.28347
72.300 18.067392
72.305 18.648504
72.310 18.972466
72.315 19.597178
72.320 20.015671
72.325 19.752794
72.330 19.304956
72.335 18.971928
72.340 18.598091
72.345 18.491043
72.350 18.751911
72.355 19.242641
72.360 20.106926
72.365 19.962976
72.370 19.955351
72.375 20.137268
72.380 19.562372
72.385 20.014421
72.390 19.241903
72.395 18.52186
72.400 17.974712
72.405 17.872047
72.410 18.364382
72.415 18.634388
72.420 17.823111
72.425 18.134041
72.430 18.551649
72.435 18.968157
72.440 18.808428
72.445 18.308239
72.450 18.467112
72.455 18.925459
72.460 19.177591
72.465 18.985783
72.470 18.489935
72.475 18.750099
72.480 19.049543
72.485 18.996441
72.490 18.599007
72.495 18.518099
72.500 18.578762
72.505 18.907543
72.510 18.689497
72.515 18.149771
72.520 17.803061
72.525 18.03511
72.530 18.165735
72.535 18.737741
72.540 18.738922
72.545 18.480364
72.550 18.288868
72.555 18.343229
72.560 18.548
72.565 18.41486
72.570 17.735264
72.575 17.587002
72.580 17.71813
72.585 18.549856
72.590 18.814411
72.595 18.911003
72.600 19.371904
72.605 19.798925
72.610 19.936197
72.615 19.453518
72.620 19.449787
72.625 19.528225
72.630 19.188747
72.635 18.609211
72.640 18.134163
72.645 17.798315
72.650 17.547184
72.655 17.423113
72.660 17.974464
72.665 17.634529
72.670 17.756849
72.675 17.835974
72.680 18.697578
72.685 18.961573
72.690 18.314661
72.695 18.196169
72.700 18.881903
72.705 19.479525
72.710 19.77055
72.715 19.223461
72.720 19.202072
72.725 18.982302
72.730 18.629684
72.735 18.045454
72.740 17.70789
72.745 17.459002
72.750 17.330362
72.755 17.230766
72.760 17.120918
72.765 17.447746
72.770 17.299809
72.775 17.011909
72.780 17.28611
72.785 16.915533
72.790 16.95665
72.795 16.934557
72.800 16.977545
72.805 16.863672
72.810 16.878069
72.815 16.746103
72.820 16.631323
72.825 16.783472
72.830 16.86532
72.835 16.690426
72.840 16.913269
72.845 16.580189
72.850 16.924858
72.855 16.770576
72.860 16.496883
72.865 16.358042
72.870 16.73156
72.875 16.856256
72.880 16.936966
72.885 16.968979
72.890 17.520329
72.895 17.553434
72.900 16.823215
72.905 16.601538
72.910 16.828445
72.915 16.554775
72.920 16.225285
72.925 16.409582
72.930 16.772444
72.935 17.098637
72.940 16.742378
72.945 16.672821
72.950 16.823467
72.955 17.230013
72.960 16.894222
72.965 16.917995
72.970 16.845943
72.975 16.974327
72.980 17.388523
72.985 17.437859
72.990 17.162128
72.995 16.799816
73.000 16.815174
