!@!!GADDS PLOTSO FILE: Chi integration type
!@!!Title/SampleName: map-6
!@!!Comment: ?
!@!!User: Bruker Instrument Administrator
!@!!Site: University of Illinois Chicago
!@!!Frame: map-6_01_000.gfrm
!@!!Wavelengths    1.54184   1.54056   1.54439
!@!!Frame angles: 2Theta: 63.000 Omega: 50.000 Phi: 0.000 Chi: 90.000
!@!!Integration range: 2Theta: 53.000 to 73.000  Gamma: -105.000 to -75.000
!@!!Integration method: bin normalized
!@!N
!@!SS
!@!M
!@!L 0.0 0.0 0.0 0.0
!@!XDegrees
!@!YCounts
53.000 8.00635
53.005 7.952911
53.010 7.737375
53.015 7.55437
53.020 7.77766
53.025 7.742126
53.030 7.942564
53.035 7.918512
53.040 7.840391
53.045 7.783991
53.050 7.740491
53.055 7.949703
53.060 7.526175
53.065 7.302258
53.070 7.133865
53.075 7.194824
53.080 7.383903
53.085 7.494462
53.090 7.689754
53.095 8.004186
53.100 8.323361
53.105 8.331961
53.110 8.409399
53.115 8.708444
53.120 8.748263
53.125 8.729486
53.130 8.544238
53.135 8.448861
53.140 8.898601
53.145 8.930125
53.150 8.701777
53.155 8.757058
53.160 8.996425
53.165 9.601295
53.170 9.592747
53.175 9.417932
53.180 9.151286
53.185 8.97441
53.190 8.935757
53.195 8.399144
53.200 8.260529
53.205 8.14009
53.210 8.085679
53.215 8.293634
53.220 8.60544
53.225 8.914932
53.230 9.030484
53.235 9.069491
53.240 9.305483
53.245 9.615637
53.250 9.320498
53.255 9.16225
53.260 9.06539
53.265 9.294914
53.270 9.2441
53.275 9.264843
53.280 9.145266
53.285 8.978426
53.290 8.633252
53.295 8.224712
53.300 8.035236
53.305 7.998438
53.310 7.713683
53.315 7.794615
53.320 7.988841
53.325 7.921381
53.330 8.242225
53.335 8.430031
53.340 8.376256
53.345 8.120921
53.350 7.984839
53.355 8.137768
53.360 7.958284
53.365 7.585557
53.370 7.504909
53.375 7.589245
53.380 7.78248
53.385 7.719892
53.390 7.795152
53.395 8.43652
53.400 8.535898
53.405 8.058318
53.410 7.925431
53.415 7.949871
53.420 7.983329
53.425 7.907903
53.430 7.404716
53.435 7.491444
53.440 7.982921
53.445 8.147785
53.450 8.532793
53.455 9.118349
53.460 9.16741
53.465 9.388828
53.470 9.403875
53.475 9.16044
53.480 9.361493
53.485 9.305202
53.490 9.379494
53.495 9.363356
53.500 9.531605
53.505 9.759445
53.510 9.865123
53.515 9.6535
53.520 9.147801
53.525 8.948048
53.530 8.800189
53.535 8.288892
53.540 7.76814
53.545 7.569108
53.550 7.898582
53.555 7.646414
53.560 7.628085
53.565 7.733567
53.570 8.380105
53.575 8.689656
53.580 9.022618
53.585 9.173565
53.590 9.800989
53.595 10.035619
53.600 9.975922
53.605 9.792497
53.610 9.703584
53.615 9.445432
53.620 9.105724
53.625 9.165476
53.630 9.480523
53.635 9.923918
53.640 10.249044
53.645 10.221273
53.650 10.295021
53.655 9.941272
53.660 9.639021
53.665 9.421977
53.670 9.116347
53.675 9.298937
53.680 9.774723
53.685 9.842927
53.690 10.165215
53.695 10.019977
53.700 10.057037
53.705 9.874435
53.710 9.458084
53.715 9.184056
53.720 8.726119
53.725 8.314553
53.730 8.535803
53.735 8.41369
53.740 8.376023
53.745 8.326792
53.750 8.154208
53.755 8.568197
53.760 8.884234
53.765 8.832622
53.770 8.507995
53.775 8.468547
53.780 8.656952
53.785 8.761913
53.790 8.839036
53.795 8.749635
53.800 9.046831
53.805 9.535718
53.810 9.576156
53.815 9.40297
53.820 9.315423
53.825 9.215779
53.830 9.427212
53.835 9.599407
53.840 9.417237
53.845 9.506249
53.850 9.366002
53.855 9.306
53.860 9.268778
53.865 8.880259
53.870 8.88726
53.875 9.442642
53.880 9.410717
53.885 9.696577
53.890 9.708116
53.895 10.024644
53.900 9.949146
53.905 9.715322
53.910 9.465143
53.915 9.362804
53.920 9.357778
53.925 9.533741
53.930 9.659301
53.935 9.797031
53.940 9.894487
53.945 10.015622
53.950 10.141674
53.955 10.230422
53.960 10.14176
53.965 9.73243
53.970 9.481517
53.975 9.258028
53.980 9.296344
53.985 8.963073
53.990 8.603795
53.995 8.152669
54.000 8.244558
54.005 8.203823
54.010 7.957018
54.015 8.331722
54.020 8.559735
54.025 8.690582
54.030 9.270708
54.035 9.57024
54.040 10.000318
54.045 10.118694
54.050 9.775129
54.055 9.925904
54.060 9.769321
54.065 9.650669
54.070 9.750984
54.075 9.714075
54.080 9.815732
54.085 9.529806
54.090 9.535758
54.095 9.799671
54.100 9.763512
54.105 9.415902
54.110 9.135386
54.115 9.132855
54.120 9.2188
54.125 9.093459
54.130 8.915144
54.135 8.471888
54.140 8.622323
54.145 8.55545
54.150 8.565304
54.155 8.629653
54.160 8.580592
54.165 8.464471
54.170 8.814614
54.175 9.024388
54.180 9.446346
54.185 9.394212
54.190 9.586411
54.195 9.957404
54.200 10.587602
54.205 10.982054
54.210 11.137328
54.215 11.102141
54.220 11.006361
54.225 11.220874
54.230 11.220009
54.235 10.915442
54.240 10.774325
54.245 10.198771
54.250 9.916581
54.255 9.860407
54.260 9.491995
54.265 9.157012
54.270 9.044348
54.275 8.699553
54.280 9.057345
54.285 9.556571
54.290 9.47188
54.295 9.797381
54.300 10.065641
54.305 10.183423
54.310 10.499308
54.315 10.569056
54.320 10.437461
54.325 10.209128
54.330 9.82636
54.335 9.833049
54.340 9.960645
54.345 9.582086
54.350 9.211761
54.355 9.436135
54.360 9.242834
54.365 9.058938
54.370 8.799397
54.375 8.69785
54.380 8.905468
54.385 9.344434
54.390 9.687015
54.395 9.873339
54.400 10.206392
54.405 10.465544
54.410 10.406416
54.415 10.135512
54.420 9.696789
54.425 9.989699
54.430 10.177402
54.435 9.756625
54.440 9.161318
54.445 9.61178
54.450 10.058255
54.455 10.192056
54.460 10.274201
54.465 10.334309
54.470 10.682783
54.475 10.646626
54.480 10.437205
54.485 9.981226
54.490 9.488067
54.495 9.396509
54.500 9.406218
54.505 9.461721
54.510 9.823092
54.515 9.880839
54.520 9.968311
54.525 10.188379
54.530 9.965391
54.535 10.161317
54.540 10.187121
54.545 9.899878
54.550 10.353689
54.555 10.358086
54.560 10.360936
54.565 10.477736
54.570 10.789542
54.575 11.246675
54.580 10.829115
54.585 10.657161
54.590 10.375696
54.595 10.244481
54.600 9.819915
54.605 9.553772
54.610 9.507615
54.615 9.886157
54.620 9.844866
54.625 10.141716
54.630 10.335007
54.635 11.047001
54.640 10.70546
54.645 10.213112
54.650 10.875145
54.655 10.949046
54.660 10.894515
54.665 10.60334
54.670 10.255918
54.675 10.413422
54.680 10.411178
54.685 10.398708
54.690 10.741151
54.695 11.357466
54.700 11.361014
54.705 11.184644
54.710 10.825457
54.715 10.866621
54.720 10.244586
54.725 9.739889
54.730 9.220613
54.735 9.02
54.740 9.384439
54.745 10.100494
54.750 9.841722
54.755 10.027903
54.760 10.295385
54.765 10.490718
54.770 10.550968
54.775 10.465199
54.780 10.219846
54.785 10.366433
54.790 10.224983
54.795 9.991526
54.800 10.260124
54.805 10.336185
54.810 10.189633
54.815 9.72813
54.820 9.552528
54.825 9.37357
54.830 9.118026
54.835 8.842208
54.840 9.068838
54.845 9.076113
54.850 9.620047
54.855 10.014438
54.860 10.330956
54.865 10.190527
54.870 10.072467
54.875 10.09379
54.880 10.046147
54.885 10.245179
54.890 10.088093
54.895 9.825262
54.900 10.162958
54.905 10.254972
54.910 9.778741
54.915 9.542104
54.920 9.375649
54.925 9.335548
54.930 9.508303
54.935 9.316685
54.940 9.266226
54.945 9.724126
54.950 10.139886
54.955 9.949315
54.960 10.137853
54.965 10.257327
54.970 10.167788
54.975 10.594011
54.980 10.623955
54.985 10.580075
54.990 10.620064
54.995 10.926654
55.000 10.993797
55.005 10.791902
55.010 10.284969
55.015 10.152469
55.020 10.276261
55.025 10.288754
55.030 10.182923
55.035 10.15349
55.040 10.37468
55.045 10.729106
55.050 11.139231
55.055 11.134303
55.060 11.160682
55.065 10.986341
55.070 10.804933
55.075 10.800833
55.080 10.496502
55.085 9.76554
55.090 10.051745
55.095 10.615344
55.100 10.773688
55.105 10.928616
55.110 10.688761
55.115 11.177912
55.120 11.644226
55.125 10.873262
55.130 10.68388
55.135 11.19362
55.140 11.591346
55.145 11.564725
55.150 11.180015
55.155 10.668659
55.160 10.069773
55.165 9.813231
55.170 9.349765
55.175 9.469602
55.180 9.935563
55.185 10.313114
55.190 11.109621
55.195 11.815295
55.200 11.872192
55.205 12.027844
55.210 11.975377
55.215 11.578739
55.220 11.210992
55.225 10.929927
55.230 10.784799
55.235 10.753716
55.240 10.786005
55.245 10.823206
55.250 11.147394
55.255 11.012748
55.260 11.25776
55.265 11.202145
55.270 11.460373
55.275 11.341536
55.280 11.067664
55.285 11.059726
55.290 11.563913
55.295 11.907537
55.300 12.241869
55.305 12.245991
55.310 12.274358
55.315 12.699834
55.320 12.471928
55.325 12.179311
55.330 11.755965
55.335 11.368796
55.340 10.947447
55.345 10.791758
55.350 10.606522
55.355 10.486562
55.360 10.882772
55.365 11.106205
55.370 11.036931
55.375 11.481119
55.380 11.915047
55.385 11.710264
55.390 12.08885
55.395 11.814799
55.400 11.563861
55.405 11.71765
55.410 11.634355
55.415 11.53511
55.420 11.412141
55.425 10.919662
55.430 11.191638
55.435 11.941495
55.440 11.678738
55.445 12.079618
55.450 12.260962
55.455 12.540574
55.460 12.323484
55.465 11.764287
55.470 11.033797
55.475 10.920988
55.480 10.455863
55.485 10.125668
55.490 10.356088
55.495 11.280148
55.500 11.89714
55.505 11.95605
55.510 12.094418
55.515 11.808025
55.520 11.974238
55.525 11.575262
55.530 11.265468
55.535 11.615038
55.540 11.416798
55.545 11.317693
55.550 11.428569
55.555 11.288318
55.560 11.099969
55.565 10.460582
55.570 9.679214
55.575 10.038165
55.580 10.472238
55.585 10.837484
55.590 10.973962
55.595 10.999124
55.600 11.33515
55.605 11.508717
55.610 11.018629
55.615 10.622724
55.620 10.467125
55.625 10.29485
55.630 10.139126
55.635 10.012961
55.640 10.472681
55.645 10.843518
55.650 11.249402
55.655 11.45452
55.660 11.398333
55.665 12.03936
55.670 12.117468
55.675 12.069782
55.680 11.95894
55.685 11.782429
55.690 12.076555
55.695 12.577809
55.700 12.175323
55.705 12.335754
55.710 12.343243
55.715 12.56426
55.720 12.291084
55.725 12.090211
55.730 12.352064
55.735 12.742541
55.740 12.483975
55.745 12.388128
55.750 12.005932
55.755 11.960221
55.760 11.646504
55.765 11.383229
55.770 11.099706
55.775 10.957113
55.780 10.800266
55.785 10.923051
55.790 11.069855
55.795 11.028964
55.800 10.567375
55.805 10.413542
55.810 10.791719
55.815 11.14061
55.820 11.396007
55.825 11.586623
55.830 11.767705
55.835 12.649388
55.840 13.026328
55.845 13.081553
55.850 13.225741
55.855 13.160378
55.860 13.154337
55.865 12.789517
55.870 12.098203
55.875 11.783782
55.880 12.031195
55.885 12.233815
55.890 12.606438
55.895 12.770924
55.900 12.775548
55.905 12.559166
55.910 12.78322
55.915 12.44641
55.920 11.98313
55.925 11.655155
55.930 11.682376
55.935 11.362777
55.940 11.669527
55.945 11.306327
55.950 11.092953
55.955 11.0435
55.960 11.020504
55.965 11.100063
55.970 11.589005
55.975 11.784468
55.980 11.856791
55.985 12.143303
55.990 12.290943
55.995 12.264964
56.000 11.798548
56.005 11.514006
56.010 11.175524
56.015 10.990298
56.020 10.684356
56.025 10.982416
56.030 10.803544
56.035 11.107285
56.040 11.132565
56.045 10.755198
56.050 10.564306
56.055 10.781471
56.060 10.780865
56.065 11.357682
56.070 11.78802
56.075 12.342024
56.080 13.107915
56.085 13.294849
56.090 12.732317
56.095 12.180652
56.100 11.673233
56.105 11.121408
56.110 11.233145
56.115 11.623362
56.120 11.528008
56.125 11.734747
56.130 11.855965
56.135 12.124132
56.140 12.396725
56.145 11.925401
56.150 11.434156
56.155 11.973703
56.160 12.209546
56.165 12.184702
56.170 12.52317
56.175 12.363663
56.180 12.229711
56.185 12.802818
56.190 12.729384
56.195 12.647974
56.200 12.957039
56.205 12.79454
56.210 12.833763
56.215 12.416932
56.220 11.805912
56.225 11.771525
56.230 11.994399
56.235 11.749028
56.240 11.425046
56.245 11.676069
56.250 12.058227
56.255 12.096828
56.260 11.829692
56.265 11.427752
56.270 11.632539
56.275 11.632484
56.280 11.407866
56.285 11.510503
56.290 12.022124
56.295 12.010199
56.300 11.953358
56.305 12.066768
56.310 11.993392
56.315 11.770131
56.320 11.219709
56.325 11.124191
56.330 11.383627
56.335 11.628747
56.340 11.148183
56.345 11.441472
56.350 11.731532
56.355 12.187407
56.360 11.955438
56.365 12.32335
56.370 12.332314
56.375 12.928102
56.380 12.792608
56.385 12.530551
56.390 12.445208
56.395 12.600641
56.400 12.51762
56.405 12.606623
56.410 12.422883
56.415 12.321605
56.420 12.006191
56.425 11.690726
56.430 11.616481
56.435 11.237535
56.440 10.757622
56.445 11.247422
56.450 11.460317
56.455 12.057269
56.460 12.76263
56.465 12.880065
56.470 12.820782
56.475 13.192805
56.480 12.72679
56.485 12.921492
56.490 13.359484
56.495 12.583085
56.500 12.348117
56.505 12.686545
56.510 12.461063
56.515 12.302865
56.520 12.192391
56.525 11.656177
56.530 11.67114
56.535 12.181794
56.540 12.216028
56.545 12.328604
56.550 12.468751
56.555 12.461711
56.560 12.498017
56.565 12.423954
56.570 12.42097
56.575 12.70846
56.580 13.084696
56.585 13.383476
56.590 13.298845
56.595 13.20731
56.600 13.208976
56.605 12.904829
56.610 12.619338
56.615 12.36661
56.620 12.075891
56.625 12.081002
56.630 12.10615
56.635 11.909643
56.640 11.502424
56.645 11.190386
56.650 11.11827
56.655 11.011062
56.660 11.250962
56.665 11.014921
56.670 10.96264
56.675 10.941973
56.680 10.878687
56.685 11.308879
56.690 11.617173
56.695 11.387487
56.700 11.708295
56.705 11.844505
56.710 12.22948
56.715 12.893767
56.720 13.329098
56.725 13.190181
56.730 13.731979
56.735 13.927988
56.740 13.85809
56.745 13.938215
56.750 13.472581
56.755 13.073525
56.760 13.0725
56.765 13.029672
56.770 13.30004
56.775 13.883999
56.780 14.138306
56.785 14.440564
56.790 14.698803
56.795 14.709314
56.800 14.116231
56.805 13.691378
56.810 13.174246
56.815 12.869595
56.820 12.290462
56.825 12.088588
56.830 11.936337
56.835 12.231074
56.840 12.290226
56.845 11.930069
56.850 11.959765
56.855 12.064458
56.860 11.924443
56.865 12.512367
56.870 12.854534
56.875 13.501251
56.880 14.123518
56.885 14.3147
56.890 14.325395
56.895 14.73083
56.900 14.949992
56.905 15.413153
56.910 14.731072
56.915 14.117449
56.920 13.960166
56.925 14.067521
56.930 13.605895
56.935 12.912884
56.940 12.575258
56.945 13.168996
56.950 13.382332
56.955 12.803803
56.960 12.860156
56.965 13.119835
56.970 13.024453
56.975 12.905858
56.980 12.775983
56.985 13.007743
56.990 13.90379
56.995 14.003554
57.000 13.951331
57.005 14.086157
57.010 13.935407
57.015 13.717566
57.020 13.833364
57.025 13.840843
57.030 13.866301
57.035 14.104582
57.040 13.883982
57.045 13.697207
57.050 13.813317
57.055 13.4981
57.060 13.097227
57.065 12.653642
57.070 12.281734
57.075 12.805674
57.080 12.98938
57.085 13.126074
57.090 13.343833
57.095 13.425918
57.100 13.735867
57.105 13.986155
57.110 13.964458
57.115 14.196495
57.120 14.336223
57.125 13.851397
57.130 13.28925
57.135 13.327009
57.140 13.032649
57.145 12.733425
57.150 12.425532
57.155 11.868795
57.160 12.090181
57.165 12.172204
57.170 11.703654
57.175 11.580069
57.180 11.53001
57.185 11.426064
57.190 11.766313
57.195 12.198224
57.200 12.417099
57.205 12.564671
57.210 12.505083
57.215 12.474214
57.220 12.41332
57.225 12.322908
57.230 12.103465
57.235 12.525472
57.240 12.86648
57.245 12.751832
57.250 13.167828
57.255 13.696101
57.260 13.518752
57.265 13.252314
57.270 13.327972
57.275 13.504547
57.280 13.873339
57.285 13.254852
57.290 12.994202
57.295 13.389337
57.300 13.402551
57.305 12.909801
57.310 12.839547
57.315 13.35282
57.320 13.539463
57.325 13.421966
57.330 13.606657
57.335 13.749328
57.340 13.790028
57.345 13.297791
57.350 12.739774
57.355 13.374322
57.360 13.962012
57.365 13.767283
57.370 13.953128
57.375 14.113354
57.380 14.357276
57.385 14.583019
57.390 14.248129
57.395 13.605716
57.400 13.355024
57.405 12.871163
57.410 12.828628
57.415 12.634539
57.420 12.335214
57.425 12.998577
57.430 13.314514
57.435 13.117085
57.440 13.522978
57.445 13.374153
57.450 13.445106
57.455 13.020812
57.460 12.178528
57.465 11.906466
57.470 11.78061
57.475 11.840934
57.480 12.288142
57.485 12.423812
57.490 12.574438
57.495 12.796232
57.500 13.09033
57.505 13.276841
57.510 12.991639
57.515 12.743217
57.520 12.619507
57.525 12.637317
57.530 12.458873
57.535 12.72927
57.540 13.236906
57.545 13.013296
57.550 13.28524
57.555 14.123507
57.560 14.761186
57.565 15.419671
57.570 15.088666
57.575 14.786516
57.580 14.852346
57.585 14.729625
57.590 14.450631
57.595 13.683671
57.600 13.76619
57.605 14.297542
57.610 14.470494
57.615 14.564465
57.620 13.983522
57.625 13.74961
57.630 13.81924
57.635 13.374615
57.640 13.112496
57.645 12.907219
57.650 12.782887
57.655 13.154902
57.660 13.40593
57.665 13.204787
57.670 13.103424
57.675 13.534707
57.680 13.843882
57.685 14.531429
57.690 14.774145
57.695 14.562451
57.700 14.463401
57.705 14.185223
57.710 13.710466
57.715 13.464895
57.720 13.286332
57.725 13.232282
57.730 13.87105
57.735 14.840972
57.740 15.053333
57.745 15.047007
57.750 15.345017
57.755 14.960805
57.760 14.695814
57.765 14.437687
57.770 14.087803
57.775 14.293997
57.780 13.90226
57.785 13.735147
57.790 13.780316
57.795 13.765008
57.800 13.066027
57.805 13.184777
57.810 13.843317
57.815 14.116469
57.820 13.947146
57.825 14.034424
57.830 13.601308
57.835 13.927303
57.840 13.796393
57.845 13.40232
57.850 13.382196
57.855 13.209088
57.860 13.017539
57.865 13.14393
57.870 13.228806
57.875 12.780372
57.880 12.60006
57.885 13.043136
57.890 13.235366
57.895 13.485363
57.900 13.318228
57.905 13.885685
57.910 14.031565
57.915 13.63995
57.920 13.25306
57.925 13.351081
57.930 13.564271
57.935 13.724554
57.940 13.474104
57.945 13.375741
57.950 13.583181
57.955 13.816713
57.960 13.855039
57.965 13.879187
57.970 14.472428
57.975 14.487601
57.980 14.888227
57.985 14.850453
57.990 14.848164
57.995 14.603137
58.000 14.44004
58.005 14.124743
58.010 13.838293
58.015 13.937671
58.020 13.750112
58.025 13.568418
58.030 13.763042
58.035 13.905167
58.040 13.894196
58.045 14.00658
58.050 13.947661
58.055 14.347158
58.060 14.823009
58.065 14.734985
58.070 14.553431
58.075 14.602644
58.080 14.450201
58.085 15.138891
58.090 15.13198
58.095 14.602032
58.100 14.928369
58.105 15.215619
58.110 15.293758
58.115 14.77542
58.120 14.016582
58.125 14.046888
58.130 14.096274
58.135 13.568717
58.140 13.47007
58.145 14.059817
58.150 14.45606
58.155 14.23826
58.160 14.057412
58.165 14.299508
58.170 14.950511
58.175 15.136471
58.180 14.446271
58.185 14.392688
58.190 14.614066
58.195 14.680676
58.200 14.73059
58.205 13.981151
58.210 13.266441
58.215 13.146327
58.220 13.625439
58.225 14.017415
58.230 13.838295
58.235 13.423188
58.240 13.313317
58.245 13.055878
58.250 12.975682
58.255 12.510319
58.260 11.9705
58.265 12.090187
58.270 12.838086
58.275 13.052208
58.280 13.244893
58.285 13.40968
58.290 13.729125
58.295 14.007664
58.300 13.711941
58.305 13.741778
58.310 13.822559
58.315 14.563305
58.320 14.850727
58.325 14.504062
58.330 14.142108
58.335 14.009077
58.340 14.142381
58.345 14.393942
58.350 14.109032
58.355 13.793069
58.360 13.892632
58.365 14.205112
58.370 14.178974
58.375 13.608041
58.380 14.016521
58.385 14.14102
58.390 13.742332
58.395 13.792412
58.400 13.802797
58.405 13.941047
58.410 13.833104
58.415 13.457838
58.420 12.811506
58.425 13.264524
58.430 13.292237
58.435 13.486917
58.440 14.123908
58.445 14.337286
58.450 14.366503
58.455 15.196432
58.460 15.513672
58.465 15.680117
58.470 15.250715
58.475 14.808599
58.480 15.022327
58.485 15.3027
58.490 14.894575
58.495 14.517606
58.500 14.561262
58.505 14.653599
58.510 14.37499
58.515 13.628311
58.520 13.338272
58.525 13.353922
58.530 13.327477
58.535 13.342833
58.540 13.800456
58.545 14.251217
58.550 14.778601
58.555 15.362715
58.560 15.968615
58.565 16.498821
58.570 16.438473
58.575 16.294863
58.580 15.951001
58.585 15.562701
58.590 14.869675
58.595 14.530619
58.600 14.036679
58.605 13.655638
58.610 13.91489
58.615 13.905439
58.620 13.90842
58.625 13.810169
58.630 14.210888
58.635 14.503658
58.640 14.984004
58.645 14.306741
58.650 14.905166
58.655 15.203482
58.660 15.14989
58.665 14.85608
58.670 14.657455
58.675 14.900424
58.680 15.223166
58.685 15.281474
58.690 15.278146
58.695 14.92313
58.700 14.969279
58.705 15.096961
58.710 14.904382
58.715 14.556139
58.720 14.215417
58.725 14.30673
58.730 14.665382
58.735 14.824418
58.740 14.946694
58.745 14.983916
58.750 14.94264
58.755 14.757655
58.760 14.717151
58.765 15.140128
58.770 14.952958
58.775 14.66929
58.780 14.661074
58.785 15.063056
58.790 15.03925
58.795 14.7711
58.800 14.560959
58.805 14.154756
58.810 13.977372
58.815 13.610298
58.820 13.480618
58.825 14.071891
58.830 14.076763
58.835 13.624253
58.840 13.944503
58.845 14.225566
58.850 14.435284
58.855 14.393202
58.860 14.069536
58.865 14.463223
58.870 14.790079
58.875 14.800173
58.880 14.952818
58.885 15.565588
58.890 15.073064
58.895 14.974338
58.900 14.617326
58.905 14.632388
58.910 14.502835
58.915 14.063663
58.920 13.843251
58.925 14.124223
58.930 14.188664
58.935 14.880165
58.940 15.403266
58.945 15.705332
58.950 15.875646
58.955 15.639165
58.960 15.847428
58.965 15.717996
58.970 15.057731
58.975 14.662867
58.980 14.751493
58.985 14.793788
58.990 14.694867
58.995 14.680785
59.000 14.896193
59.005 15.140873
59.010 15.293585
59.015 15.021279
59.020 15.002399
59.025 14.868067
59.030 14.378931
59.035 14.507015
59.040 14.926391
59.045 15.519631
59.050 16.094206
59.055 16.887323
59.060 17.541569
59.065 18.172955
59.070 18.242704
59.075 18.316757
59.080 17.80884
59.085 17.680655
59.090 16.65085
59.095 16.709808
59.100 16.403412
59.105 16.142838
59.110 15.564084
59.115 15.23899
59.120 15.01159
59.125 15.759903
59.130 15.663642
59.135 15.837722
59.140 15.996688
59.145 16.231865
59.150 16.966665
59.155 17.389654
59.160 17.17285
59.165 16.966627
59.170 16.936146
59.175 17.183046
59.180 17.161795
59.185 16.531092
59.190 15.650631
59.195 15.473522
59.200 15.177725
59.205 14.928968
59.210 14.578885
59.215 15.023837
59.220 15.482247
59.225 15.696139
59.230 15.745101
59.235 16.024504
59.240 15.908807
59.245 15.908604
59.250 15.798668
59.255 15.235941
59.260 15.213113
59.265 15.502781
59.270 15.52323
59.275 15.797697
59.280 15.642624
59.285 15.50089
59.290 16.215384
59.295 16.311296
59.300 15.681795
59.305 15.665393
59.310 15.451285
59.315 15.085598
59.320 14.579545
59.325 14.175595
59.330 14.274471
59.335 14.875727
59.340 15.164668
59.345 15.3943
59.350 15.333992
59.355 15.430892
59.360 15.717505
59.365 15.545609
59.370 15.03771
59.375 14.859829
59.380 15.00569
59.385 15.635908
59.390 15.796206
59.395 15.83167
59.400 16.13088
59.405 15.819396
59.410 15.662719
59.415 15.288919
59.420 15.395073
59.425 15.408727
59.430 15.282735
59.435 15.790999
59.440 16.435349
59.445 16.403784
59.450 16.372423
59.455 16.636698
59.460 17.527569
59.465 17.840551
59.470 17.934879
59.475 18.16024
59.480 18.3864
59.485 18.289724
59.490 18.126255
59.495 17.640032
59.500 17.570387
59.505 17.626675
59.510 17.696856
59.515 17.469885
59.520 17.74312
59.525 17.4191
59.530 17.221613
59.535 17.191284
59.540 16.682718
59.545 16.643726
59.550 16.8319
59.555 16.823896
59.560 17.051619
59.565 17.176458
59.570 16.990053
59.575 17.260073
59.580 16.85367
59.585 16.844332
59.590 16.75812
59.595 16.958199
59.600 16.787519
59.605 16.85667
59.610 16.790897
59.615 17.058683
59.620 16.708
59.625 16.60537
59.630 17.213516
59.635 17.892702
59.640 17.992121
59.645 17.945042
59.650 18.278273
59.655 18.702425
59.660 18.673199
59.665 17.802296
59.670 16.937012
59.675 16.437525
59.680 16.599264
59.685 16.92922
59.690 16.805012
59.695 16.141762
59.700 16.541674
59.705 17.557497
59.710 17.973766
59.715 17.433937
59.720 16.770874
59.725 16.79949
59.730 17.392668
59.735 17.192892
59.740 16.896894
59.745 16.714647
59.750 17.300829
59.755 17.400457
59.760 17.456081
59.765 17.703108
59.770 17.387928
59.775 16.652189
59.780 16.880806
59.785 16.461065
59.790 16.75308
59.795 16.899584
59.800 16.657261
59.805 17.339638
59.810 18.125965
59.815 18.359756
59.820 18.711208
59.825 19.232819
59.830 19.572109
59.835 19.173182
59.840 18.978786
59.845 18.597193
59.850 18.593475
59.855 18.697674
59.860 18.305687
59.865 18.396963
59.870 18.616646
59.875 19.079384
59.880 19.50071
59.885 18.996731
59.890 18.622311
59.895 18.620646
59.900 18.570971
59.905 18.451511
59.910 17.163237
59.915 17.019577
59.920 17.50066
59.925 17.743565
59.930 17.635096
59.935 17.611397
59.940 17.810431
59.945 18.248821
59.950 17.698341
59.955 17.241152
59.960 17.078302
59.965 16.855349
59.970 16.367039
59.975 16.454239
59.980 16.960491
59.985 17.446388
59.990 17.726452
59.995 17.596512
60.000 18.604286
60.005 19.825214
60.010 19.82542
60.015 19.9568
60.020 19.498276
60.025 19.90807
60.030 20.191793
60.035 19.488907
60.040 19.238235
60.045 20.134062
60.050 20.320324
60.055 20.451664
60.060 20.387194
60.065 20.46563
60.070 20.912773
60.075 20.781588
60.080 20.242609
60.085 20.43804
60.090 21.15855
60.095 20.936316
60.100 20.463516
60.105 19.753704
60.110 19.475723
60.115 19.274149
60.120 19.076195
60.125 18.885767
60.130 18.848042
60.135 18.851709
60.140 18.667292
60.145 18.85323
60.150 18.909668
60.155 19.475065
60.160 19.832903
60.165 19.617373
60.170 19.746458
60.175 20.337612
60.180 20.013542
60.185 19.637983
60.190 19.199116
60.195 19.684719
60.200 20.840742
60.205 21.058365
60.210 21.335348
60.215 21.597223
60.220 22.358652
60.225 22.80887
60.230 22.42024
60.235 22.080507
60.240 22.335211
60.245 22.066013
60.250 22.147413
60.255 21.756409
60.260 21.350338
60.265 21.186827
60.270 21.589066
60.275 21.603292
60.280 21.625278
60.285 21.781084
60.290 21.9758
60.295 21.233652
60.300 21.240536
60.305 20.569752
60.310 20.255678
60.315 19.826067
60.320 19.138094
60.325 18.479988
60.330 19.26264
60.335 19.660254
60.340 19.915474
60.345 19.709124
60.350 20.591354
60.355 20.800489
60.360 20.737843
60.365 20.186148
60.370 19.611963
60.375 20.202526
60.380 20.601866
60.385 20.292126
60.390 20.272329
60.395 20.524956
60.400 21.087805
60.405 20.938019
60.410 20.942963
60.415 20.800001
60.420 21.193007
60.425 21.751734
60.430 21.311018
60.435 21.141321
60.440 21.138735
60.445 20.674822
60.450 20.542608
60.455 19.930416
60.460 19.446136
60.465 19.75592
60.470 19.837536
60.475 20.076984
60.480 20.152142
60.485 19.757675
60.490 20.125565
60.495 21.006989
60.500 20.829231
60.505 20.641989
60.510 20.378489
60.515 20.177164
60.520 20.266754
60.525 20.153505
60.530 19.632879
60.535 19.273697
60.540 19.207491
60.545 19.069366
60.550 18.925991
60.555 19.103064
60.560 19.024067
60.565 19.171543
60.570 19.387314
60.575 19.432821
60.580 19.487925
60.585 19.862865
60.590 19.982611
60.595 19.557951
60.600 19.154634
60.605 18.751934
60.610 18.169525
60.615 18.490591
60.620 18.343943
60.625 18.141123
60.630 18.701204
60.635 19.020811
60.640 19.659029
60.645 20.737579
60.650 21.359076
60.655 21.14193
60.660 21.176905
60.665 21.344202
60.670 21.39695
60.675 21.127577
60.680 19.910263
60.685 19.01193
60.690 18.970869
60.695 18.70162
60.700 18.678566
60.705 19.226549
60.710 19.326918
60.715 19.721773
60.720 19.464079
60.725 19.428375
60.730 18.999966
60.735 18.621651
60.740 18.571432
60.745 18.250414
60.750 18.35726
60.755 19.191431
60.760 19.925896
60.765 20.65958
60.770 20.934702
60.775 20.384209
60.780 20.017056
60.785 19.350609
60.790 18.665377
60.795 18.439407
60.800 18.28454
60.805 18.138262
60.810 18.543537
60.815 19.238071
60.820 19.494875
60.825 19.863495
60.830 19.895737
60.835 19.791004
60.840 19.609468
60.845 19.133163
60.850 19.480442
60.855 19.9011
60.860 19.544746
60.865 18.844828
60.870 18.556519
60.875 18.517796
60.880 19.00243
60.885 18.64674
60.890 18.386013
60.895 18.70347
60.900 19.12764
60.905 18.85984
60.910 18.360964
60.915 16.976376
60.920 16.850262
60.925 16.679953
60.930 16.702169
60.935 16.495722
60.940 16.559635
60.945 17.414783
60.950 17.766937
60.955 17.762846
60.960 17.753502
60.965 17.533857
60.970 18.055397
60.975 18.122528
60.980 17.715212
60.985 18.400648
60.990 18.462168
60.995 18.600372
61.000 18.095284
61.005 17.780884
61.010 17.593842
61.015 17.56332
61.020 16.861801
61.025 16.409683
61.030 16.667315
61.035 17.269848
61.040 17.193489
61.045 17.178333
61.050 17.17672
61.055 17.010071
61.060 17.259653
61.065 16.844107
61.070 17.104635
61.075 17.365482
61.080 17.70853
61.085 17.934063
61.090 18.592594
61.095 17.872059
61.100 17.785854
61.105 17.458504
61.110 17.555593
61.115 17.905407
61.120 17.612936
61.125 17.644325
61.130 18.153273
61.135 17.551878
61.140 17.483488
61.145 17.652073
61.150 17.124735
61.155 17.286257
61.160 16.699329
61.165 16.743948
61.170 16.839077
61.175 16.925102
61.180 16.747122
61.185 16.567928
61.190 16.347551
61.195 16.584007
61.200 16.932657
61.205 17.880461
61.210 18.031727
61.215 17.33445
61.220 17.931112
61.225 18.632282
61.230 18.97854
61.235 18.680365
61.240 18.065426
61.245 17.913702
61.250 18.475752
61.255 17.73616
61.260 17.752148
61.265 18.049204
61.270 18.529562
61.275 18.049675
61.280 17.727818
61.285 17.45178
61.290 17.54104
61.295 17.070522
61.300 16.789307
61.305 16.909777
61.310 17.31431
61.315 17.870424
61.320 18.005487
61.325 18.137733
61.330 18.213169
61.335 17.737152
61.340 17.09049
61.345 16.726925
61.350 16.036478
61.355 16.417425
61.360 17.186863
61.365 17.111382
61.370 17.42565
61.375 17.112402
61.380 17.051874
61.385 17.434481
61.390 17.313932
61.395 16.637939
61.400 16.558733
61.405 16.273991
61.410 17.007065
61.415 17.277639
61.420 16.852692
61.425 16.274422
61.430 15.504064
61.435 15.314915
61.440 15.988981
61.445 15.600031
61.450 15.853001
61.455 16.304939
61.460 16.523178
61.465 17.576197
61.470 17.90308
61.475 17.407959
61.480 17.319801
61.485 17.061672
61.490 16.733541
61.495 16.404713
61.500 16.440912
61.505 16.079527
61.510 16.064726
61.515 16.065794
61.520 15.788566
61.525 15.92251
61.530 16.15386
61.535 15.734729
61.540 15.593216
61.545 15.683973
61.550 16.117851
61.555 16.556162
61.560 16.894518
61.565 16.75511
61.570 17.30941
61.575 18.038313
61.580 17.755756
61.585 17.788763
61.590 17.345848
61.595 17.114899
61.600 17.313982
61.605 17.184608
61.610 16.690521
61.615 17.105247
61.620 17.144661
61.625 17.605421
61.630 17.741909
61.635 17.630413
61.640 17.489416
61.645 18.263887
61.650 17.760952
61.655 17.800409
61.660 17.677029
61.665 17.000994
61.670 16.408121
61.675 15.930498
61.680 15.409384
61.685 15.628226
61.690 15.274282
61.695 15.252477
61.700 16.154377
61.705 16.908096
61.710 17.346642
61.715 17.419645
61.720 17.183451
61.725 17.752239
61.730 17.935045
61.735 17.357624
61.740 17.022802
61.745 16.648113
61.750 17.191898
61.755 17.491034
61.760 17.357958
61.765 17.637922
61.770 17.724632
61.775 17.725229
61.780 17.811466
61.785 17.473259
61.790 17.641115
61.795 17.352533
61.800 16.853027
61.805 16.926134
61.810 17.275236
61.815 17.436026
61.820 17.152941
61.825 17.148792
61.830 17.303246
61.835 17.400969
61.840 16.953066
61.845 16.603434
61.850 16.476561
61.855 16.729103
61.860 17.25176
61.865 17.685564
61.870 17.972305
61.875 18.295271
61.880 19.00042
61.885 19.664396
61.890 20.118773
61.895 19.461044
61.900 19.266716
61.905 19.288523
61.910 19.52253
61.915 19.052599
61.920 18.607006
61.925 17.358372
61.930 17.282003
61.935 17.25104
61.940 17.269583
61.945 17.028419
61.950 16.684755
61.955 16.130934
61.960 15.79121
61.965 15.499928
61.970 15.47372
61.975 15.601035
61.980 15.680728
61.985 16.122044
61.990 16.561113
61.995 17.415209
62.000 17.03751
62.005 16.772121
62.010 16.677765
62.015 16.496046
62.020 16.782801
62.025 17.074991
62.030 16.859604
62.035 17.076204
62.040 17.30793
62.045 17.536898
62.050 17.526157
62.055 17.023891
62.060 16.881849
62.065 17.079
62.070 17.018044
62.075 16.590078
62.080 15.957815
62.085 16.456541
62.090 16.972483
62.095 17.147186
62.100 17.122307
62.105 17.343508
62.110 17.763033
62.115 18.122866
62.120 18.061436
62.125 17.944939
62.130 17.933266
62.135 17.955631
62.140 18.074022
62.145 17.428738
62.150 17.04472
62.155 16.228405
62.160 15.343812
62.165 15.182285
62.170 15.944475
62.175 15.759177
62.180 16.42119
62.185 16.661047
62.190 17.440474
62.195 17.493225
62.200 16.680315
62.205 15.934734
62.210 15.65055
62.215 15.535387
62.220 15.521703
62.225 15.335276
62.230 15.113174
62.235 15.947653
62.240 15.946011
62.245 16.17149
62.250 16.612679
62.255 16.214144
62.260 15.714559
62.265 16.094322
62.270 15.671397
62.275 15.457997
62.280 15.499766
62.285 15.879511
62.290 16.699158
62.295 17.013853
62.300 16.688465
62.305 16.872587
62.310 16.817385
62.315 16.514671
62.320 15.970575
62.325 15.825354
62.330 16.411657
62.335 16.829533
62.340 16.794697
62.345 16.656607
62.350 16.164825
62.355 16.16777
62.360 16.286419
62.365 16.402441
62.370 16.570705
62.375 16.574865
62.380 17.290472
62.385 17.746283
62.390 17.526108
62.395 17.323107
62.400 16.973476
62.405 16.563803
62.410 16.819338
62.415 16.339457
62.420 16.814068
62.425 17.221991
62.430 17.488558
62.435 17.651436
62.440 17.588205
62.445 17.114471
62.450 17.635817
62.455 17.566151
62.460 17.022335
62.465 16.867344
62.470 16.476089
62.475 16.713379
62.480 16.847597
62.485 16.722961
62.490 16.491606
62.495 16.938469
62.500 17.606125
62.505 18.206533
62.510 18.275835
62.515 18.48399
62.520 18.092863
62.525 18.416817
62.530 18.414146
62.535 17.600225
62.540 17.2033
62.545 16.782045
62.550 16.489145
62.555 16.63768
62.560 16.230566
62.565 15.714015
62.570 15.366929
62.575 15.588527
62.580 16.051205
62.585 15.832004
62.590 16.00329
62.595 16.29781
62.600 16.54694
62.605 17.019129
62.610 17.032408
62.615 17.163879
62.620 17.373777
62.625 16.854061
62.630 16.716856
62.635 16.858782
62.640 17.028189
62.645 16.802727
62.650 16.688021
62.655 16.662361
62.660 17.21995
62.665 17.377426
62.670 17.366495
62.675 17.617086
62.680 17.67387
62.685 17.461924
62.690 18.124292
62.695 17.811649
62.700 17.484194
62.705 17.942402
62.710 18.004086
62.715 18.328135
62.720 18.359531
62.725 18.486626
62.730 18.67676
62.735 18.498644
62.740 17.459509
62.745 17.203098
62.750 17.579918
62.755 18.075258
62.760 18.021223
62.765 18.289341
62.770 18.537832
62.775 18.891285
62.780 18.376545
62.785 18.255934
62.790 17.80308
62.795 17.536573
62.800 17.628544
62.805 17.471613
62.810 17.621006
62.815 17.901859
62.820 17.601604
62.825 17.53619
62.830 16.71316
62.835 16.420574
62.840 16.196653
62.845 16.087551
62.850 16.114477
62.855 16.712078
62.860 16.869097
62.865 17.0075
62.870 16.573463
62.875 16.58979
62.880 16.87932
62.885 16.871468
62.890 16.026371
62.895 16.118202
62.900 16.587645
62.905 17.108473
62.910 17.201672
62.915 16.831316
62.920 16.544621
62.925 16.77911
62.930 16.601421
62.935 16.237644
62.940 16.202936
62.945 16.418219
62.950 16.741222
62.955 16.954765
62.960 16.705997
62.965 16.482903
62.970 17.341803
62.975 17.458334
62.980 17.60124
62.985 17.680092
62.990 18.115215
62.995 18.663088
63.000 18.493845
63.005 17.862513
63.010 17.861036
63.015 17.779888
63.020 17.300407
63.025 16.391008
63.030 16.198565
63.035 16.307873
63.040 15.967254
63.045 15.927249
63.050 16.078201
63.055 16.754587
63.060 17.15666
63.065 17.084946
63.070 17.090179
63.075 17.486088
63.080 17.260477
63.085 16.927637
63.090 16.839542
63.095 17.067963
63.100 17.59211
63.105 17.931013
63.110 18.057676
63.115 18.378647
63.120 18.281343
63.125 17.742565
63.130 17.332687
63.135 17.220114
63.140 16.583635
63.145 15.869915
63.150 15.768436
63.155 15.95102
63.160 17.311733
63.165 17.4146
63.170 17.006153
63.175 17.368456
63.180 17.748955
63.185 17.537214
63.190 18.012159
63.195 17.364857
63.200 17.434462
63.205 17.750473
63.210 18.243195
63.215 18.154226
63.220 17.690825
63.225 17.432201
63.230 17.589945
63.235 17.820681
63.240 17.98778
63.245 17.648481
63.250 17.925188
63.255 18.057463
63.260 17.226131
63.265 17.120216
63.270 16.480074
63.275 15.833383
63.280 16.059322
63.285 16.502474
63.290 16.931431
63.295 17.18873
63.300 17.366831
63.305 17.880013
63.310 18.192888
63.315 17.899244
63.320 17.635262
63.325 17.673119
63.330 17.840635
63.335 16.980497
63.340 16.847996
63.345 17.031609
63.350 16.947412
63.355 16.721739
63.360 16.730507
63.365 16.541056
63.370 16.869259
63.375 16.562338
63.380 16.674124
63.385 16.648653
63.390 16.80904
63.395 16.637718
63.400 16.227215
63.405 16.283724
63.410 16.174532
63.415 15.847688
63.420 16.07283
63.425 16.645815
63.430 16.797129
63.435 16.973349
63.440 17.449215
63.445 17.852432
63.450 18.215128
63.455 17.812656
63.460 16.988007
63.465 16.990683
63.470 17.856737
63.475 17.794371
63.480 17.2211
63.485 16.957563
63.490 17.136847
63.495 17.428228
63.500 17.571215
63.505 16.839972
63.510 17.049122
63.515 17.855217
63.520 17.560541
63.525 17.34709
63.530 17.948097
63.535 18.26767
63.540 18.515676
63.545 18.278625
63.550 17.796225
63.555 17.676329
63.560 17.103949
63.565 16.381138
63.570 15.842145
63.575 15.727258
63.580 15.887732
63.585 16.132078
63.590 16.806232
63.595 17.363529
63.600 17.674345
63.605 17.888613
63.610 18.145538
63.615 18.03137
63.620 18.091425
63.625 17.8909
63.630 17.922705
63.635 17.544775
63.640 17.002153
63.645 16.601667
63.650 16.423201
63.655 16.362246
63.660 16.612906
63.665 16.800207
63.670 16.957624
63.675 17.686741
63.680 18.079775
63.685 18.390892
63.690 18.529739
63.695 19.129427
63.700 19.091124
63.705 19.698778
63.710 20.475782
63.715 20.506081
63.720 20.313837
63.725 20.467684
63.730 20.441811
63.735 20.676338
63.740 20.646118
63.745 19.54372
63.750 18.958115
63.755 18.654165
63.760 18.162361
63.765 17.636028
63.770 16.697647
63.775 16.006256
63.780 16.619396
63.785 16.609196
63.790 17.020451
63.795 17.302034
63.800 17.351912
63.805 17.894787
63.810 17.588907
63.815 17.218674
63.820 17.377224
63.825 16.90451
63.830 16.826002
63.835 16.758181
63.840 16.787607
63.845 17.212549
63.850 16.95681
63.855 16.545155
63.860 16.960522
63.865 17.113832
63.870 17.244129
63.875 17.634466
63.880 17.142786
63.885 17.19858
63.890 18.019196
63.895 18.277313
63.900 18.096088
63.905 18.149401
63.910 17.851385
63.915 18.050823
63.920 18.483753
63.925 18.126938
63.930 18.182375
63.935 18.077978
63.940 18.154428
63.945 18.579138
63.950 19.149733
63.955 19.199953
63.960 19.362101
63.965 19.071152
63.970 19.148634
63.975 19.38492
63.980 19.380487
63.985 19.454399
63.990 19.368998
63.995 19.134995
64.000 19.480951
64.005 19.852922
64.010 19.849026
64.015 20.161055
64.020 20.060556
64.025 20.260065
64.030 20.593277
64.035 20.686163
64.040 20.339153
64.045 20.320265
64.050 20.190161
64.055 19.528076
64.060 18.604424
64.065 18.40159
64.070 17.879364
64.075 17.509436
64.080 17.05739
64.085 16.942678
64.090 17.54673
64.095 17.80673
64.100 17.472591
64.105 17.25452
64.110 17.272881
64.115 17.206535
64.120 17.300545
64.125 17.329905
64.130 17.418894
64.135 17.711678
64.140 18.057705
64.145 18.213905
64.150 17.763815
64.155 16.674416
64.160 16.434788
64.165 16.516872
64.170 16.43844
64.175 16.088617
64.180 15.852069
64.185 15.968518
64.190 16.941401
64.195 16.98275
64.200 17.055088
64.205 17.101023
64.210 17.363148
64.215 17.058212
64.220 17.742205
64.225 17.505653
64.230 17.972387
64.235 18.014641
64.240 18.017298
64.245 18.570562
64.250 18.6297
64.255 17.753185
64.260 17.557434
64.265 17.328316
64.270 17.58746
64.275 17.921185
64.280 17.578894
64.285 17.752838
64.290 17.915403
64.295 17.654314
64.300 17.429064
64.305 16.773432
64.310 16.719255
64.315 17.537451
64.320 17.374125
64.325 18.128111
64.330 18.593266
64.335 18.817039
64.340 19.412683
64.345 19.393732
64.350 19.285538
64.355 19.824438
64.360 19.336815
64.365 18.673607
64.370 18.411982
64.375 18.184862
64.380 18.235561
64.385 17.878799
64.390 17.646732
64.395 17.759995
64.400 18.417349
64.405 19.011539
64.410 18.837854
64.415 19.245745
64.420 19.498755
64.425 19.65967
64.430 19.906013
64.435 20.159803
64.440 19.863806
64.445 19.817154
64.450 19.319532
64.455 19.433298
64.460 19.465031
64.465 19.806732
64.470 19.630718
64.475 19.722054
64.480 19.591063
64.485 19.542341
64.490 19.366037
64.495 19.282721
64.500 19.061344
64.505 19.374052
64.510 19.763908
64.515 19.782877
64.520 19.814404
64.525 19.766582
64.530 19.675982
64.535 19.699064
64.540 19.509029
64.545 19.01498
64.550 18.897314
64.555 18.979584
64.560 18.410952
64.565 18.393139
64.570 17.59264
64.575 17.188076
64.580 17.525019
64.585 17.96048
64.590 18.119305
64.595 18.051319
64.600 17.996126
64.605 18.251673
64.610 18.433718
64.615 18.352312
64.620 18.017624
64.625 17.725708
64.630 17.913252
64.635 17.918369
64.640 18.271826
64.645 17.887405
64.650 17.923487
64.655 18.400101
64.660 18.846533
64.665 18.79368
64.670 18.31394
64.675 17.943468
64.680 18.422134
64.685 18.333612
64.690 18.034225
64.695 18.233944
64.700 18.258902
64.705 18.554661
64.710 18.79487
64.715 18.453707
64.720 18.317904
64.725 18.593178
64.730 18.65605
64.735 19.16161
64.740 19.106146
64.745 18.838032
64.750 19.522081
64.755 19.398569
64.760 18.755861
64.765 18.698294
64.770 18.827017
64.775 19.442177
64.780 19.303083
64.785 18.999027
64.790 19.74707
64.795 20.323978
64.800 19.511415
64.805 19.458038
64.810 19.662205
64.815 19.516384
64.820 19.573109
64.825 19.057709
64.830 18.91951
64.835 19.375263
64.840 19.387318
64.845 19.756256
64.850 19.883696
64.855 20.095516
64.860 19.959581
64.865 19.600885
64.870 19.559423
64.875 19.453691
64.880 19.47122
64.885 19.494759
64.890 19.244789
64.895 19.545271
64.900 20.001348
64.905 20.219128
64.910 19.894827
64.915 19.915649
64.920 20.815514
64.925 20.97328
64.930 21.163517
64.935 21.436445
64.940 21.975351
64.945 22.335289
64.950 22.314632
64.955 21.748549
64.960 21.888535
64.965 21.878561
64.970 21.542765
64.975 21.061968
64.980 20.868805
64.985 21.110043
64.990 21.26193
64.995 21.235855
65.000 20.829439
65.005 21.113089
65.010 20.692852
65.015 20.76005
65.020 20.547773
65.025 21.520737
65.030 21.416794
65.035 21.499941
65.040 21.695215
65.045 22.282701
65.050 22.133007
65.055 21.884125
65.060 21.513479
65.065 21.995148
65.070 21.741083
65.075 21.278107
65.080 21.687149
65.085 22.127771
65.090 22.397223
65.095 22.082895
65.100 21.772696
65.105 22.59201
65.110 23.287117
65.115 23.235903
65.120 23.049488
65.125 22.298767
65.130 22.44451
65.135 22.818586
65.140 22.616827
65.145 22.065605
65.150 21.511068
65.155 21.543379
65.160 21.478638
65.165 21.031004
65.170 20.819092
65.175 20.672628
65.180 20.592644
65.185 20.614014
65.190 20.859573
65.195 21.552582
65.200 21.905397
65.205 22.162462
65.210 22.498734
65.215 22.603546
65.220 23.121845
65.225 23.392422
65.230 23.566904
65.235 24.335241
65.240 24.259649
65.245 24.245119
65.250 24.376377
65.255 23.493349
65.260 23.29501
65.265 22.957771
65.270 22.319475
65.275 22.326435
65.280 22.281685
65.285 22.39123
65.290 23.048592
65.295 23.092394
65.300 23.444984
65.305 23.382784
65.310 22.972353
65.315 22.351521
65.320 22.276201
65.325 22.095001
65.330 21.808605
65.335 21.275551
65.340 21.257793
65.345 21.786318
65.350 22.345795
65.355 22.404421
65.360 22.729744
65.365 23.026999
65.370 24.075455
65.375 24.382637
65.380 24.078564
65.385 24.220198
65.390 24.599342
65.395 24.781563
65.400 24.803343
65.405 23.945395
65.410 23.71451
65.415 24.128902
65.420 23.961643
65.425 23.221535
65.430 22.472805
65.435 21.927734
65.440 21.900864
65.445 22.028688
65.450 21.971827
65.455 22.127192
65.460 23.352304
65.465 23.93018
65.470 24.276979
65.475 24.566544
65.480 24.726879
65.485 24.692827
65.490 24.947117
65.495 24.907183
65.500 25.061428
65.505 25.200998
65.510 25.423996
65.515 25.673368
65.520 25.936291
65.525 26.113602
65.530 26.09119
65.535 26.174042
65.540 26.288654
65.545 26.903002
65.550 26.79258
65.555 26.948408
65.560 27.2437
65.565 27.217724
65.570 27.98892
65.575 28.826954
65.580 28.206936
65.585 28.491816
65.590 28.585634
65.595 28.505384
65.600 29.240465
65.605 29.073799
65.610 28.689648
65.615 29.207647
65.620 29.41576
65.625 29.193354
65.630 29.194592
65.635 28.748142
65.640 28.866913
65.645 30.159288
65.650 30.199619
65.655 29.808563
65.660 29.951101
65.665 29.986036
65.670 30.068701
65.675 30.546581
65.680 30.401272
65.685 30.982698
65.690 31.858259
65.695 31.5401
65.700 31.072838
65.705 30.596636
65.710 29.870188
65.715 29.500559
65.720 29.076632
65.725 28.670712
65.730 29.397898
65.735 30.208099
65.740 30.794634
65.745 32.004524
65.750 32.796722
65.755 33.626003
65.760 34.899105
65.765 34.692883
65.770 34.97813
65.775 35.420872
65.780 34.986126
65.785 34.976891
65.790 35.248154
65.795 34.406147
65.800 35.125961
65.805 35.708015
65.810 35.530293
65.815 35.45636
65.820 35.088615
65.825 35.741631
65.830 36.291954
65.835 35.773762
65.840 35.722263
65.845 36.350872
65.850 36.673466
65.855 36.972298
65.860 37.532162
65.865 38.196926
65.870 38.463413
65.875 38.577
65.880 37.828465
65.885 37.717556
65.890 37.985966
65.895 37.314087
65.900 37.563107
65.905 37.780926
65.910 37.09655
65.915 37.206623
65.920 37.841003
65.925 37.472691
65.930 36.484184
65.935 36.344601
65.940 35.937344
65.945 36.445805
65.950 37.426083
65.955 37.178429
65.960 37.552563
65.965 38.004509
65.970 38.195171
65.975 38.373066
65.980 38.703117
65.985 37.320274
65.990 36.599205
65.995 36.467964
66.000 36.314281
66.005 35.400181
66.010 35.515442
66.015 34.909931
66.020 35.64225
66.025 36.110477
66.030 36.137398
66.035 35.872292
66.040 35.888947
66.045 35.88752
66.050 36.618118
66.055 36.766117
66.060 36.766407
66.065 36.209629
66.070 35.932659
66.075 36.284519
66.080 36.152092
66.085 35.433922
66.090 35.218014
66.095 34.760506
66.100 35.513203
66.105 35.960285
66.110 35.606495
66.115 35.680027
66.120 35.465733
66.125 35.294048
66.130 34.766132
66.135 33.880604
66.140 33.843292
66.145 33.322453
66.150 32.826206
66.155 32.940819
66.160 33.158176
66.165 33.258034
66.170 33.26955
66.175 33.544842
66.180 34.222973
66.185 34.567535
66.190 34.429161
66.195 34.175789
66.200 34.107464
66.205 33.529243
66.210 32.973045
66.215 32.473335
66.220 31.306856
66.225 30.841347
66.230 31.481678
66.235 32.069675
66.240 32.096912
66.245 32.370445
66.250 33.043316
66.255 33.692181
66.260 33.125172
66.265 32.698254
66.270 32.31456
66.275 32.133701
66.280 31.807816
66.285 31.212692
66.290 31.410717
66.295 31.994904
66.300 31.81481
66.305 32.011028
66.310 32.631966
66.315 33.439629
66.320 33.422745
66.325 32.886311
66.330 32.372856
66.335 31.469469
66.340 30.25716
66.345 28.809771
66.350 27.803324
66.355 28.487143
66.360 28.416397
66.365 28.087646
66.370 28.565601
66.375 28.971306
66.380 29.170399
66.385 29.09281
66.390 28.521433
66.395 28.709848
66.400 29.25316
66.405 29.76582
66.410 30.098923
66.415 30.00948
66.420 29.720938
66.425 29.285028
66.430 29.431997
66.435 29.379154
66.440 28.47971
66.445 27.687107
66.450 27.422232
66.455 27.180262
66.460 26.854712
66.465 26.095093
66.470 26.271797
66.475 27.030985
66.480 27.458666
66.485 27.615143
66.490 28.225838
66.495 28.842197
66.500 29.599241
66.505 28.921774
66.510 28.071533
66.515 28.118526
66.520 28.062819
66.525 27.885269
66.530 27.376574
66.535 26.962685
66.540 26.896074
66.545 27.548203
66.550 27.269182
66.555 26.919838
66.560 26.487206
66.565 26.319637
66.570 26.176134
66.575 26.359583
66.580 25.722254
66.585 25.754942
66.590 25.433399
66.595 25.745815
66.600 26.003654
66.605 25.946165
66.610 26.421694
66.615 26.875263
66.620 26.287518
66.625 26.71426
66.630 26.467882
66.635 26.144915
66.640 25.980612
66.645 25.745554
66.650 25.899673
66.655 26.724325
66.660 27.033602
66.665 27.12126
66.670 27.422422
66.675 27.024765
66.680 26.29426
66.685 25.927397
66.690 25.192869
66.695 24.037434
66.700 23.470762
66.705 23.207565
66.710 23.38242
66.715 23.803328
66.720 24.338388
66.725 25.487783
66.730 26.171005
66.735 25.632975
66.740 25.285929
66.745 25.525166
66.750 25.716282
66.755 25.334291
66.760 24.342194
66.765 24.566841
66.770 25.368935
66.775 25.448652
66.780 25.547747
66.785 24.747911
66.790 23.917311
66.795 23.259193
66.800 23.163139
66.805 23.45977
66.810 23.612692
66.815 23.056324
66.820 23.223347
66.825 24.011324
66.830 24.274641
66.835 24.04664
66.840 23.51001
66.845 23.326794
66.850 24.123205
66.855 24.091377
66.860 24.286049
66.865 25.018089
66.870 24.839834
66.875 24.864641
66.880 24.434475
66.885 23.603848
66.890 23.918867
66.895 23.895088
66.900 23.312643
66.905 23.523151
66.910 23.351637
66.915 23.621302
66.920 23.859951
66.925 23.36438
66.930 23.130302
66.935 23.061356
66.940 23.431973
66.945 23.911863
66.950 24.115505
66.955 24.165873
66.960 24.10334
66.965 24.428558
66.970 24.549147
66.975 24.032209
66.980 24.109707
66.985 24.159477
66.990 24.49925
66.995 24.339148
67.000 23.579727
67.005 22.863508
67.010 22.908512
67.015 23.013895
67.020 22.343452
67.025 21.915222
67.030 21.709114
67.035 21.907196
67.040 22.748018
67.045 22.934494
67.050 22.760382
67.055 23.296911
67.060 23.358789
67.065 23.946842
67.070 24.302179
67.075 23.640194
67.080 23.428783
67.085 23.370119
67.090 23.196032
67.095 23.155636
67.100 23.424932
67.105 22.926504
67.110 22.538057
67.115 22.51898
67.120 22.539478
67.125 22.392731
67.130 21.86326
67.135 20.995853
67.140 20.845589
67.145 22.127668
67.150 22.194874
67.155 22.02029
67.160 21.886843
67.165 22.005411
67.170 22.489639
67.175 22.502619
67.180 21.879269
67.185 21.505081
67.190 21.454548
67.195 21.643169
67.200 21.9067
67.205 22.665728
67.210 22.755764
67.215 22.912142
67.220 23.562214
67.225 23.984278
67.230 24.164125
67.235 23.912367
67.240 23.336481
67.245 23.004553
67.250 22.268686
67.255 21.860823
67.260 21.056099
67.265 20.993954
67.270 20.588705
67.275 19.683786
67.280 19.971256
67.285 20.042013
67.290 19.939606
67.295 20.188465
67.300 20.333805
67.305 20.773001
67.310 21.225128
67.315 21.156265
67.320 21.529446
67.325 21.742243
67.330 21.668846
67.335 21.616629
67.340 21.760458
67.345 21.937601
67.350 21.983397
67.355 22.313187
67.360 22.006319
67.365 22.462383
67.370 22.719219
67.375 22.654863
67.380 22.625362
67.385 22.438963
67.390 22.59837
67.395 22.750448
67.400 22.206158
67.405 22.13648
67.410 22.175194
67.415 22.284981
67.420 21.845184
67.425 21.22423
67.430 21.376637
67.435 21.627186
67.440 21.248209
67.445 21.13706
67.450 20.655445
67.455 20.652895
67.460 20.606911
67.465 20.413486
67.470 20.353678
67.475 20.297728
67.480 21.312805
67.485 22.158775
67.490 22.8433
67.495 23.518034
67.500 24.083639
67.505 24.190741
67.510 24.198654
67.515 23.660915
67.520 23.175697
67.525 23.091751
67.530 22.987806
67.535 22.608377
67.540 22.675289
67.545 22.33186
67.550 21.968554
67.555 22.165285
67.560 21.233263
67.565 20.765415
67.570 20.658463
67.575 20.425827
67.580 20.941351
67.585 21.322279
67.590 21.138073
67.595 21.607204
67.600 21.432066
67.605 20.990034
67.610 21.281355
67.615 20.574741
67.620 20.588381
67.625 20.823511
67.630 21.24538
67.635 22.174566
67.640 22.605234
67.645 22.614017
67.650 23.273968
67.655 22.631769
67.660 22.467899
67.665 21.941359
67.670 21.46731
67.675 21.507263
67.680 21.664206
67.685 22.038256
67.690 22.860342
67.695 22.953823
67.700 22.997934
67.705 23.09409
67.710 22.837078
67.715 22.846794
67.720 22.569382
67.725 22.204391
67.730 22.428127
67.735 22.187317
67.740 21.308617
67.745 20.795498
67.750 20.376251
67.755 19.947754
67.760 20.52483
67.765 19.974735
67.770 20.601337
67.775 20.906775
67.780 20.907578
67.785 21.111553
67.790 21.149565
67.795 19.591717
67.800 19.511446
67.805 19.316414
67.810 19.894104
67.815 20.305264
67.820 20.496258
67.825 20.162184
67.830 20.752537
67.835 20.598848
67.840 20.106144
67.845 20.091942
67.850 20.112272
67.855 20.041388
67.860 20.19359
67.865 20.627575
67.870 20.748323
67.875 21.133043
67.880 21.422218
67.885 21.413828
67.890 21.512665
67.895 21.506622
67.900 21.871622
67.905 22.156269
67.910 22.032452
67.915 21.440992
67.920 20.942696
67.925 20.975246
67.930 21.591862
67.935 20.957317
67.940 20.83103
67.945 21.392141
67.950 21.460518
67.955 21.655712
67.960 21.904228
67.965 21.758049
67.970 21.601629
67.975 21.813091
67.980 21.677246
67.985 21.74918
67.990 21.932215
67.995 21.81591
68.000 21.455589
68.005 21.02865
68.010 20.612288
68.015 20.623226
68.020 20.677286
68.025 20.03554
68.030 19.63114
68.035 20.333002
68.040 21.589611
68.045 22.076866
68.050 21.747425
68.055 21.925394
68.060 22.310915
68.065 22.343912
68.070 22.383186
68.075 22.415751
68.080 23.078159
68.085 23.173395
68.090 23.424498
68.095 23.198885
68.100 23.344069
68.105 22.483633
68.110 21.815716
68.115 21.091976
68.120 21.183908
68.125 21.079105
68.130 21.392273
68.135 21.527462
68.140 21.429602
68.145 21.587349
68.150 21.286711
68.155 21.017595
68.160 20.823278
68.165 21.117687
68.170 20.944283
68.175 20.615265
68.180 20.593758
68.185 20.642525
68.190 21.074938
68.195 20.820702
68.200 19.762783
68.205 19.527576
68.210 19.759375
68.215 20.115574
68.220 20.423992
68.225 20.400084
68.230 21.008051
68.235 22.112221
68.240 21.930054
68.245 22.185169
68.250 22.037079
68.255 22.369373
68.260 22.657335
68.265 22.531027
68.270 22.926643
68.275 23.633913
68.280 22.838448
68.285 22.428503
68.290 21.668402
68.295 20.927025
68.300 20.505043
68.305 19.896889
68.310 19.845284
68.315 20.684769
68.320 20.702307
68.325 20.609512
68.330 20.915995
68.335 21.06201
68.340 21.077751
68.345 20.756844
68.350 20.973921
68.355 21.93623
68.360 22.031504
68.365 21.776016
68.370 22.243361
68.375 22.095648
68.380 22.386169
68.385 21.694719
68.390 21.587337
68.395 22.250471
68.400 22.684114
68.405 22.186785
68.410 22.505806
68.415 22.768608
68.420 23.23069
68.425 22.92046
68.430 22.825026
68.435 21.986542
68.440 21.772587
68.445 21.659945
68.450 21.293947
68.455 21.460506
68.460 21.669018
68.465 21.874044
68.470 21.910589
68.475 21.718935
68.480 21.677803
68.485 21.58256
68.490 21.176098
68.495 20.33477
68.500 19.823465
68.505 20.249485
68.510 20.689541
68.515 20.610102
68.520 20.278809
68.525 20.404396
68.530 20.96242
68.535 21.023762
68.540 21.125748
68.545 21.42952
68.550 21.631739
68.555 21.965082
68.560 21.786489
68.565 21.952904
68.570 21.790665
68.575 21.504848
68.580 20.832775
68.585 20.451233
68.590 20.302046
68.595 20.132042
68.600 20.38658
68.605 20.512039
68.610 20.865
68.615 21.572283
68.620 22.261362
68.625 22.866734
68.630 22.45875
68.635 21.815924
68.640 21.932709
68.645 22.032091
68.650 22.006489
68.655 22.152262
68.660 21.812887
68.665 22.304594
68.670 22.106859
68.675 22.102205
68.680 21.875099
68.685 21.589098
68.690 21.275879
68.695 21.475956
68.700 21.325129
68.705 21.657192
68.710 21.754183
68.715 21.856644
68.720 21.650995
68.725 21.775923
68.730 22.136621
68.735 22.571316
68.740 23.126144
68.745 22.808233
68.750 22.4821
68.755 22.360731
68.760 21.438755
68.765 21.078211
68.770 21.117397
68.775 20.572575
68.780 20.492954
68.785 21.186781
68.790 21.462315
68.795 21.996294
68.800 22.513666
68.805 22.589062
68.810 23.473854
68.815 23.718723
68.820 23.170759
68.825 23.199406
68.830 23.266287
68.835 23.507988
68.840 23.380266
68.845 23.42741
68.850 23.725327
68.855 23.760332
68.860 23.678879
68.865 23.307619
68.870 23.038849
68.875 23.135572
68.880 22.720356
68.885 22.342875
68.890 22.865898
68.895 23.080551
68.900 23.44265
68.905 23.595682
68.910 23.267653
68.915 23.450756
68.920 23.693899
68.925 24.0744
68.930 24.021811
68.935 22.660557
68.940 22.755178
68.945 22.254387
68.950 22.327681
68.955 21.637688
68.960 21.084612
68.965 21.641539
68.970 22.880344
68.975 23.310905
68.980 23.708025
68.985 23.593769
68.990 23.642876
68.995 23.6108
69.000 23.972488
69.005 23.735373
69.010 23.385477
69.015 23.584606
69.020 24.330614
69.025 25.06588
69.030 24.91131
69.035 23.97142
69.040 23.748434
69.045 23.229832
69.050 22.988159
69.055 22.894407
69.060 22.65703
69.065 22.416784
69.070 22.600739
69.075 22.955498
69.080 23.456724
69.085 24.041613
69.090 24.49296
69.095 24.616394
69.100 25.521839
69.105 25.661718
69.110 25.687561
69.115 25.94681
69.120 25.608059
69.125 24.938698
69.130 25.310808
69.135 25.141279
69.140 25.677496
69.145 25.760038
69.150 25.62677
69.155 25.598656
69.160 25.905813
69.165 25.154772
69.170 24.900909
69.175 25.074303
69.180 25.053671
69.185 25.719301
69.190 26.168179
69.195 25.960779
69.200 26.353191
69.205 26.236172
69.210 25.59465
69.215 25.668289
69.220 24.759487
69.225 24.832581
69.230 24.626387
69.235 24.824503
69.240 24.952181
69.245 25.319996
69.250 25.454243
69.255 25.805094
69.260 25.292776
69.265 25.688938
69.270 25.72646
69.275 26.046947
69.280 25.812792
69.285 25.630882
69.290 26.297932
69.295 26.609278
69.300 26.742586
69.305 26.820156
69.310 26.791876
69.315 27.05953
69.320 26.597485
69.325 25.876625
69.330 26.107046
69.335 26.262642
69.340 26.887938
69.345 27.391464
69.350 28.408733
69.355 29.634848
69.360 30.193857
69.365 30.13311
69.370 29.794655
69.375 29.63467
69.380 29.858477
69.385 29.482485
69.390 29.424917
69.395 29.269737
69.400 29.808992
69.405 30.540318
69.410 30.405186
69.415 30.165974
69.420 30.024317
69.425 29.32045
69.430 29.677916
69.435 29.706087
69.440 29.449459
69.445 29.180325
69.450 29.205368
69.455 29.246307
69.460 29.39607
69.465 29.765724
69.470 29.580246
69.475 28.806152
69.480 28.597689
69.485 28.038218
69.490 27.901354
69.495 27.967861
69.500 27.106443
69.505 27.318018
69.510 28.115152
69.515 27.62225
69.520 27.740772
69.525 26.944464
69.530 26.561766
69.535 26.840708
69.540 26.429253
69.545 26.890614
69.550 28.716105
69.555 29.621508
69.560 29.973125
69.565 29.848761
69.570 30.367476
69.575 30.936172
69.580 30.566713
69.585 29.129412
69.590 28.221561
69.595 28.176695
69.600 28.296003
69.605 27.817703
69.610 27.014851
69.615 26.283562
69.620 26.310879
69.625 26.432117
69.630 26.390629
69.635 26.260759
69.640 26.534353
69.645 26.515226
69.650 26.265581
69.655 26.692507
69.660 27.096489
69.665 27.318605
69.670 26.840729
69.675 26.355581
69.680 26.704691
69.685 27.244637
69.690 27.767178
69.695 27.953171
69.700 27.971083
69.705 28.391825
69.710 28.126932
69.715 28.204441
69.720 28.085829
69.725 28.116211
69.730 27.948563
69.735 28.29113
69.740 28.804035
69.745 29.197985
69.750 28.894817
69.755 28.679895
69.760 27.556026
69.765 27.371498
69.770 26.367041
69.775 25.760939
69.780 25.409985
69.785 25.428961
69.790 24.959175
69.795 24.631685
69.800 24.615122
69.805 24.485035
69.810 24.826357
69.815 24.659529
69.820 24.709871
69.825 24.770771
69.830 24.530672
69.835 24.60495
69.840 24.227015
69.845 24.072573
69.850 23.928019
69.855 24.066763
69.860 24.184971
69.865 24.295828
69.870 24.738266
69.875 24.840315
69.880 24.267637
69.885 24.136532
69.890 23.693804
69.895 24.028219
69.900 23.81777
69.905 23.340668
69.910 23.674889
69.915 23.646336
69.920 23.759472
69.925 23.642389
69.930 23.321556
69.935 23.90201
69.940 23.530731
69.945 22.877022
69.950 23.024029
69.955 23.172087
69.960 22.98518
69.965 22.762901
69.970 22.646936
69.975 22.591736
69.980 22.572096
69.985 22.194
69.990 22.344687
69.995 22.654018
70.000 22.938
70.005 22.685152
70.010 22.443733
70.015 22.232893
70.020 22.331905
70.025 22.548645
70.030 21.890493
70.035 20.934002
70.040 20.685297
70.045 20.780575
70.050 21.116703
70.055 20.880919
70.060 20.446943
70.065 20.189754
70.070 20.53204
70.075 20.633308
70.080 20.99432
70.085 21.259398
70.090 21.236832
70.095 21.21652
70.100 21.571875
70.105 21.928051
70.110 21.872126
70.115 21.568863
70.120 21.183094
70.125 20.867786
70.130 21.303066
70.135 21.579332
70.140 20.90539
70.145 21.21002
70.150 21.3496
70.155 21.350891
70.160 21.193405
70.165 20.493389
70.170 19.46513
70.175 19.64443
70.180 19.054628
70.185 19.104662
70.190 19.132929
70.195 19.864294
70.200 20.27347
70.205 21.088852
70.210 21.127964
70.215 21.346138
70.220 20.79673
70.225 20.474077
70.230 19.933893
70.235 20.568392
70.240 20.015207
70.245 19.865669
70.250 20.438602
70.255 20.699051
70.260 21.146185
70.265 20.603991
70.270 19.956663
70.275 20.417871
70.280 20.298162
70.285 20.129822
70.290 20.034603
70.295 20.041378
70.300 19.918985
70.305 19.989832
70.310 19.500996
70.315 19.485441
70.320 19.357483
70.325 19.226961
70.330 19.341597
70.335 19.427399
70.340 19.210333
70.345 19.081059
70.350 19.161148
70.355 18.883209
70.360 18.729767
70.365 18.507914
70.370 18.843794
70.375 19.54208
70.380 19.828941
70.385 19.608339
70.390 20.011526
70.395 19.932463
70.400 19.835148
70.405 19.769646
70.410 19.601763
70.415 19.267302
70.420 19.829947
70.425 20.143255
70.430 20.781773
70.435 20.550007
70.440 19.796055
70.445 19.593199
70.450 19.509085
70.455 18.982426
70.460 19.262386
70.465 19.373964
70.470 19.620441
70.475 20.194227
70.480 20.556126
70.485 20.591063
70.490 20.180363
70.495 19.794325
70.500 20.359474
70.505 20.700941
70.510 19.673147
70.515 19.474493
70.520 19.980352
70.525 20.245184
70.530 20.263954
70.535 19.859726
70.540 19.590818
70.545 20.242695
70.550 20.948231
70.555 20.770187
70.560 20.644386
70.565 21.092054
70.570 21.266268
70.575 21.7819
70.580 22.373615
70.585 21.71657
70.590 21.207258
70.595 20.243177
70.600 19.385313
70.605 18.837975
70.610 18.346794
70.615 18.165199
70.620 18.226627
70.625 18.523947
70.630 18.877811
70.635 19.338446
70.640 19.951309
70.645 19.668327
70.650 19.177944
70.655 19.557924
70.660 19.810749
70.665 19.927578
70.670 19.724701
70.675 19.957951
70.680 20.069067
70.685 20.379919
70.690 20.514412
70.695 20.639923
70.700 20.418274
70.705 19.823931
70.710 19.178797
70.715 19.348467
70.720 18.94323
70.725 18.323414
70.730 18.50066
70.735 18.359674
70.740 18.325691
70.745 18.497099
70.750 18.653282
70.755 18.999565
70.760 19.042595
70.765 18.756405
70.770 19.420824
70.775 19.539612
70.780 19.311226
70.785 18.513657
70.790 18.251068
70.795 18.497454
70.800 18.465269
70.805 18.405613
70.810 18.776001
70.815 18.988253
70.820 19.412312
70.825 19.823914
70.830 19.842682
70.835 19.513298
70.840 19.154585
70.845 18.654404
70.850 18.733799
70.855 18.371967
70.860 18.243757
70.865 18.183052
70.870 18.303669
70.875 18.159803
70.880 18.326122
70.885 18.570009
70.890 18.838861
70.895 18.502295
70.900 18.214037
70.905 17.98645
70.910 18.599945
70.915 18.658529
70.920 18.347359
70.925 18.062483
70.930 18.531525
70.935 19.017658
70.940 19.356518
70.945 19.570566
70.950 19.731329
70.955 19.697893
70.960 19.706034
70.965 19.208578
70.970 18.97052
70.975 18.664686
70.980 17.99468
70.985 17.433786
70.990 17.315069
70.995 17.540249
71.000 17.794189
71.005 17.791981
71.010 18.456425
71.015 19.092258
71.020 19.260004
71.025 18.81674
71.030 18.534994
71.035 18.144949
71.040 17.836813
71.045 16.807882
71.050 16.354361
71.055 16.638834
71.060 17.267365
71.065 17.480253
71.070 17.610088
71.075 18.290283
71.080 18.397707
71.085 18.217428
71.090 18.267191
71.095 18.160444
71.100 17.945402
71.105 17.780071
71.110 17.895737
71.115 18.050787
71.120 18.366619
71.125 18.299072
71.130 18.700998
71.135 18.931286
71.140 19.468864
71.145 19.399235
71.150 19.265512
71.155 19.253254
71.160 19.53857
71.165 19.562811
71.170 19.822073
71.175 19.249638
71.180 19.205393
71.185 18.823532
71.190 18.944431
71.195 18.759798
71.200 18.462921
71.205 18.405342
71.210 18.886679
71.215 19.65592
71.220 19.621775
71.225 19.465504
71.230 19.611551
71.235 19.656601
71.240 19.685068
71.245 19.845936
71.250 19.266901
71.255 19.662338
71.260 19.675884
71.265 20.105673
71.270 20.024603
71.275 20.108967
71.280 19.518656
71.285 19.790377
71.290 19.290176
71.295 19.539925
71.300 19.474964
71.305 19.679865
71.310 19.34376
71.315 19.251532
71.320 18.928366
71.325 19.404053
71.330 19.444796
71.335 19.035421
71.340 19.547695
71.345 19.778978
71.350 20.24024
71.355 20.174179
71.360 19.85681
71.365 19.709845
71.370 19.363852
71.375 19.058786
71.380 18.763674
71.385 19.110527
71.390 18.96036
71.395 18.838652
71.400 18.641489
71.405 19.347321
71.410 19.291876
71.415 19.150455
71.420 18.747856
71.425 18.672379
71.430 18.55039
71.435 17.675322
71.440 16.851246
71.445 16.68457
71.450 17.149355
71.455 17.637506
71.460 18.005285
71.465 17.954872
71.470 18.706408
71.475 18.778187
71.480 19.210155
71.485 19.049864
71.490 18.843256
71.495 18.663368
71.500 19.065891
71.505 19.040224
71.510 19.411715
71.515 18.988255
71.520 18.81641
71.525 18.797714
71.530 18.689667
71.535 19.124615
71.540 19.17074
71.545 19.110069
71.550 19.554558
71.555 19.882013
71.560 19.541405
71.565 19.601254
71.570 19.07917
71.575 19.024075
71.580 18.802433
71.585 18.676369
71.590 18.390444
71.595 18.765734
71.600 18.815134
71.605 18.411793
71.610 18.796293
71.615 18.730461
71.620 18.161613
71.625 17.583241
71.630 17.191181
71.635 17.252686
71.640 17.367573
71.645 16.963823
71.650 17.23525
71.655 17.742695
71.660 18.080051
71.665 18.187544
71.670 18.539345
71.675 19.020643
71.680 19.250456
71.685 19.207539
71.690 19.287386
71.695 20.057905
71.700 19.978361
71.705 19.82917
71.710 18.770996
71.715 18.202421
71.720 18.671789
71.725 19.005117
71.730 18.603397
71.735 18.729136
71.740 18.929817
71.745 19.011896
71.750 18.95433
71.755 18.508369
71.760 18.189987
71.765 17.973112
71.770 17.56102
71.775 17.710558
71.780 18.15012
71.785 18.04929
71.790 17.963152
71.795 18.012785
71.800 18.234816
71.805 18.252029
71.810 18.177656
71.815 18.594469
71.820 19.292398
71.825 18.991737
71.830 18.534533
71.835 18.803101
71.840 18.790768
71.845 18.521379
71.850 17.783381
71.855 17.639633
71.860 17.891518
71.865 18.192852
71.870 17.980799
71.875 18.236809
71.880 18.972025
71.885 19.058556
71.890 18.726376
71.895 18.850418
71.900 18.912945
71.905 19.248392
71.910 19.044992
71.915 18.565763
71.920 18.52569
71.925 18.790735
71.930 18.505789
71.935 18.237175
71.940 17.878857
71.945 18.420965
71.950 18.561768
71.955 18.613388
71.960 18.417152
71.965 19.099972
71.970 19.652195
71.975 19.198021
71.980 18.747791
71.985 19.338713
71.990 19.5186
71.995 19.664791
72.000 19.090734
72.005 19.012699
72.010 19.935614
72.015 19.544727
72.020 18.514761
72.025 18.585625
72.030 18.59174
72.035 18.56097
72.040 18.083813
72.045 18.167488
72.050 18.233208
72.055 18.644392
72.060 18.727392
72.065 19.110968
72.070 19.911024
72.075 19.944311
72.080 19.674683
72.085 20.200861
72.090 20.065128
72.095 19.996964
72.100 19.010748
72.105 18.759586
72.110 18.896917
72.115 18.740334
72.120 18.422647
72.125 18.827406
72.130 18.770111
72.135 18.743963
72.140 18.796911
72.145 18.386755
72.150 18.516687
72.155 18.596531
72.160 18.053034
72.165 17.908266
72.170 17.993835
72.175 17.763515
72.180 17.513241
72.185 16.945116
72.190 16.440092
72.195 16.513988
72.200 16.772284
72.205 16.565842
72.210 16.991848
72.215 17.172707
72.220 17.681183
72.225 18.642265
72.230 18.700058
72.235 19.029455
72.240 19.214426
72.245 18.832415
72.250 18.821983
72.255 18.392857
72.260 18.236103
72.265 17.477634
72.270 17.219076
72.275 17.676235
72.280 18.32889
72.285 18.001036
72.290 18.27602
72.295 17.725718
72.300 18.158133
72.305 18.063419
72.310 18.056293
72.315 17.887886
72.320 17.629164
72.325 16.929972
72.330 17.262911
72.335 17.733459
72.340 17.468985
72.345 17.220623
72.350 17.139971
72.355 17.65099
72.360 18.731482
72.365 18.067677
72.370 18.028715
72.375 18.043646
72.380 18.068176
72.385 17.681396
72.390 17.542906
72.395 17.285601
72.400 17.218056
72.405 17.125856
72.410 16.672028
72.415 16.953627
72.420 17.284037
72.425 17.127653
72.430 18.06399
72.435 18.081604
72.440 18.284883
72.445 18.671328
72.450 18.664118
72.455 18.963055
72.460 19.397417
72.465 18.870707
72.470 18.92952
72.475 19.03912
72.480 19.569529
72.485 19.396406
72.490 18.763771
72.495 19.240795
72.500 19.692417
72.505 19.211239
72.510 18.468676
72.515 17.98686
72.520 18.312199
72.525 18.398441
72.530 17.648016
72.535 17.667063
72.540 17.971245
72.545 18.358501
72.550 18.57267
72.555 18.351238
72.560 18.001925
72.565 18.087971
72.570 18.073307
72.575 17.782698
72.580 18.158297
72.585 17.920492
72.590 18.408766
72.595 18.295719
72.600 18.182812
72.605 18.546515
72.610 18.575705
72.615 18.272017
72.620 18.384977
72.625 18.826473
72.630 18.87838
72.635 19.178963
72.640 19.536083
72.645 19.422571
72.650 18.945562
72.655 18.092045
72.660 17.617817
72.665 17.420078
72.670 17.214939
72.675 16.514242
72.680 16.671335
72.685 16.94812
72.690 17.239754
72.695 18.166418
72.700 18.045238
72.705 18.06098
72.710 18.43861
72.715 18.000542
72.720 18.347126
72.725 18.303482
72.730 18.234764
72.735 18.183908
72.740 17.885122
72.745 17.552826
72.750 17.791071
72.755 17.692989
72.760 17.303955
72.765 17.116934
72.770 17.04196
72.775 17.329908
72.780 17.423681
72.785 17.167761
72.790 16.958027
72.795 16.653467
72.800 16.725563
72.805 15.986998
72.810 15.674058
72.815 15.668541
72.820 15.864734
72.825 15.116459
72.830 14.768217
72.835 14.975264
72.840 15.466636
72.845 15.935614
72.850 16.283836
72.855 16.852102
72.860 17.16107
72.865 17.315338
72.870 17.136585
72.875 17.061663
72.880 17.051193
72.885 16.570621
72.890 17.171366
72.895 17.988413
72.900 18.405125
72.905 18.593561
72.910 18.89588
72.915 18.473106
72.920 17.94426
72.925 17.208458
72.930 17.013357
72.935 17.299452
72.940 17.587696
72.945 17.419218
72.950 17.736483
72.955 17.691364
72.960 17.742771
72.965 17.02244
72.970 16.947289
72.975 16.537565
72.980 16.443659
72.985 16.504536
72.990 16.224005
72.995 16.246483
73.000 16.144661
