!@!!GADDS PLOTSO FILE: Chi integration type
!@!!Title/SampleName: map-14e
!@!!Comment: ?
!@!!User: Bruker Instrument Administrator
!@!!Site: University of Illinois Chicago
!@!!Frame: map-14e_01_000.gfrm
!@!!Wavelengths    1.54184   1.54056   1.54439
!@!!Frame angles: 2Theta: 63.000 Omega: 50.000 Phi: 0.000 Chi: 90.000
!@!!Integration range: 2Theta: 53.000 to 73.000  Gamma: -105.000 to -75.000
!@!!Integration method: bin normalized
!@!N
!@!SS
!@!M
!@!L 0.0 0.0 0.0 0.0
!@!XDegrees
!@!YCounts
53.000 9.290241
53.005 9.50338
53.010 9.529534
53.015 9.831809
53.020 9.804113
53.025 9.668572
53.030 9.347688
53.035 9.403813
53.040 9.334779
53.045 9.331136
53.050 8.952931
53.055 8.650696
53.060 9.006421
53.065 8.83058
53.070 8.572158
53.075 8.594839
53.080 8.565883
53.085 9.083532
53.090 9.310705
53.095 9.001846
53.100 8.932199
53.105 9.0198
53.110 8.89315
53.115 8.743418
53.120 8.425991
53.125 8.534224
53.130 8.744277
53.135 8.885313
53.140 8.869308
53.145 9.154062
53.150 8.796139
53.155 8.587224
53.160 8.063334
53.165 8.326604
53.170 8.087677
53.175 7.650002
53.180 7.904707
53.185 8.223288
53.190 8.328371
53.195 8.386254
53.200 8.2922
53.205 8.549721
53.210 8.845346
53.215 8.701989
53.220 8.527345
53.225 8.720359
53.230 8.527767
53.235 8.446887
53.240 8.26342
53.245 7.987112
53.250 8.117165
53.255 8.298101
53.260 8.048125
53.265 7.687982
53.270 7.79129
53.275 7.885762
53.280 8.003236
53.285 7.799882
53.290 7.624261
53.295 8.187428
53.300 8.661172
53.305 8.75361
53.310 8.729306
53.315 8.739761
53.320 8.901523
53.325 9.216882
53.330 9.600392
53.335 9.25423
53.340 9.579911
53.345 10.334572
53.350 10.616447
53.355 10.653446
53.360 10.056527
53.365 9.378676
53.370 9.221025
53.375 8.595075
53.380 8.014349
53.385 7.839835
53.390 8.078489
53.395 8.138266
53.400 8.465418
53.405 8.776352
53.410 8.74203
53.415 8.768798
53.420 8.777551
53.425 8.900869
53.430 8.878668
53.435 8.713956
53.440 8.577024
53.445 8.452431
53.450 8.51965
53.455 8.562964
53.460 8.43332
53.465 8.822928
53.470 8.844754
53.475 9.047132
53.480 9.399152
53.485 9.860924
53.490 9.852381
53.495 9.492208
53.500 9.145135
53.505 9.317554
53.510 9.517927
53.515 9.143968
53.520 8.193971
53.525 7.794477
53.530 8.077744
53.535 7.683141
53.540 7.557572
53.545 7.303608
53.550 7.523101
53.555 7.882952
53.560 8.224499
53.565 8.21117
53.570 8.455894
53.575 8.435502
53.580 8.344567
53.585 8.11305
53.590 8.098098
53.595 7.885598
53.600 8.217729
53.605 8.428981
53.610 8.357625
53.615 8.652517
53.620 9.003473
53.625 9.321628
53.630 9.244834
53.635 9.341147
53.640 9.073705
53.645 9.035526
53.650 9.176974
53.655 9.192803
53.660 9.557972
53.665 9.620529
53.670 9.936529
53.675 9.971479
53.680 10.103398
53.685 9.717861
53.690 9.439187
53.695 9.344955
53.700 9.260538
53.705 9.29349
53.710 9.764172
53.715 9.636932
53.720 9.841515
53.725 9.772612
53.730 9.842348
53.735 9.680572
53.740 9.058087
53.745 8.769555
53.750 8.914854
53.755 8.873055
53.760 9.024878
53.765 8.817734
53.770 8.941936
53.775 8.971612
53.780 8.875676
53.785 8.87136
53.790 8.97415
53.795 9.141722
53.800 9.175852
53.805 8.952883
53.810 8.95076
53.815 9.091122
53.820 9.007524
53.825 8.695866
53.830 8.595834
53.835 8.429046
53.840 8.509539
53.845 8.89365
53.850 9.0927
53.855 8.96051
53.860 8.741658
53.865 8.48579
53.870 8.679433
53.875 8.471416
53.880 8.200732
53.885 7.85408
53.890 8.023953
53.895 8.076607
53.900 8.452265
53.905 8.774631
53.910 8.863653
53.915 8.901732
53.920 9.000355
53.925 9.054882
53.930 8.637572
53.935 8.199431
53.940 8.511414
53.945 8.460031
53.950 7.768801
53.955 7.679416
53.960 7.741351
53.965 8.022244
53.970 7.739404
53.975 7.549404
53.980 8.050495
53.985 8.482642
53.990 8.812802
53.995 9.059406
54.000 9.171382
54.005 9.123956
54.010 8.85535
54.015 8.92471
54.020 9.026883
54.025 9.010465
54.030 8.861065
54.035 8.676873
54.040 8.623897
54.045 8.402831
54.050 8.18055
54.055 8.279587
54.060 8.458936
54.065 8.559935
54.070 8.515047
54.075 8.905618
54.080 8.945624
54.085 8.976881
54.090 8.539248
54.095 8.49297
54.100 8.781133
54.105 8.50858
54.110 8.380755
54.115 8.008895
54.120 8.437122
54.125 8.50637
54.130 8.386436
54.135 8.778045
54.140 9.362177
54.145 9.507386
54.150 9.787679
54.155 9.575915
54.160 9.771708
54.165 10.144699
54.170 10.114835
54.175 10.171907
54.180 10.177655
54.185 9.816059
54.190 9.951988
54.195 9.584097
54.200 9.151849
54.205 8.847433
54.210 8.975413
54.215 9.191976
54.220 9.265465
54.225 9.417658
54.230 9.342331
54.235 9.439561
54.240 9.245625
54.245 8.833913
54.250 8.718274
54.255 8.774675
54.260 8.618335
54.265 8.709988
54.270 8.893339
54.275 8.967752
54.280 8.988464
54.285 8.861718
54.290 8.601301
54.295 8.367151
54.300 8.319968
54.305 8.533745
54.310 8.813414
54.315 8.866761
54.320 8.755727
54.325 8.860526
54.330 9.12656
54.335 8.679652
54.340 8.34234
54.345 8.172293
54.350 8.217353
54.355 8.483624
54.360 8.485391
54.365 8.373714
54.370 8.470423
54.375 8.936252
54.380 8.965016
54.385 8.918566
54.390 8.494966
54.395 8.73898
54.400 8.733855
54.405 8.71709
54.410 8.690687
54.415 8.988933
54.420 9.375471
54.425 9.69353
54.430 9.590691
54.435 9.768009
54.440 9.907868
54.445 9.864483
54.450 9.854401
54.455 9.88486
54.460 9.892623
54.465 9.920376
54.470 9.812665
54.475 9.142314
54.480 8.845337
54.485 8.632577
54.490 8.531081
54.495 8.418917
54.500 8.625323
54.505 8.431528
54.510 8.612668
54.515 8.718135
54.520 8.775419
54.525 9.264054
54.530 9.115548
54.535 9.029684
54.540 9.106036
54.545 9.37148
54.550 9.331885
54.555 9.396161
54.560 8.986856
54.565 9.048266
54.570 9.020551
54.575 8.804034
54.580 8.605037
54.585 8.480781
54.590 8.067769
54.595 7.885002
54.600 7.714196
54.605 7.576616
54.610 7.235929
54.615 6.878359
54.620 6.916966
54.625 6.776781
54.630 7.187754
54.635 7.749753
54.640 8.462053
54.645 9.388746
54.650 9.845265
54.655 10.034476
54.660 10.342884
54.665 10.22013
54.670 9.92449
54.675 9.73023
54.680 9.312624
54.685 9.066942
54.690 9.137081
54.695 8.784148
54.700 8.379497
54.705 8.372416
54.710 8.605525
54.715 8.665489
54.720 8.870732
54.725 9.191151
54.730 9.746002
54.735 10.132053
54.740 10.016796
54.745 10.030617
54.750 10.078084
54.755 9.959767
54.760 9.430723
54.765 9.229921
54.770 9.051565
54.775 8.947489
54.780 8.928252
54.785 9.142304
54.790 8.780785
54.795 9.16856
54.800 9.167757
54.805 9.488584
54.810 9.523774
54.815 9.388412
54.820 9.57151
54.825 9.952375
54.830 9.875175
54.835 9.762755
54.840 9.691183
54.845 9.382403
54.850 9.07467
54.855 8.678364
54.860 8.700394
54.865 8.856906
54.870 9.278104
54.875 9.120095
54.880 9.141995
54.885 9.248856
54.890 9.129394
54.895 9.060917
54.900 8.922622
54.905 8.786152
54.910 9.122922
54.915 9.536784
54.920 9.546927
54.925 9.95821
54.930 9.666371
54.935 9.755895
54.940 9.876762
54.945 9.71543
54.950 9.666429
54.955 9.846425
54.960 9.743856
54.965 9.77098
54.970 9.415315
54.975 9.179724
54.980 9.101955
54.985 8.871255
54.990 8.85414
54.995 9.114554
55.000 9.25556
55.005 9.050061
55.010 8.987947
55.015 8.975973
55.020 8.724835
55.025 8.997471
55.030 9.11834
55.035 9.237663
55.040 9.026525
55.045 9.247531
55.050 9.674149
55.055 10.064886
55.060 10.011295
55.065 9.777549
55.070 9.941765
55.075 10.326156
55.080 10.320453
55.085 9.899814
55.090 9.518656
55.095 9.289268
55.100 9.217512
55.105 9.192703
55.110 9.132238
55.115 8.933689
55.120 9.15788
55.125 9.526978
55.130 9.47533
55.135 9.445307
55.140 9.285578
55.145 9.577695
55.150 9.503176
55.155 9.422675
55.160 9.32626
55.165 8.979594
55.170 9.125175
55.175 9.274704
55.180 9.286505
55.185 9.738604
55.190 9.924029
55.195 10.393806
55.200 10.541228
55.205 10.349524
55.210 10.344307
55.215 10.516661
55.220 10.032073
55.225 9.602437
55.230 9.307073
55.235 9.266101
55.240 9.560376
55.245 9.727268
55.250 9.197064
55.255 9.190227
55.260 8.607376
55.265 8.496498
55.270 8.813369
55.275 8.494603
55.280 8.512934
55.285 9.050049
55.290 9.06075
55.295 9.033891
55.300 9.059766
55.305 9.079972
55.310 8.815673
55.315 8.208917
55.320 8.130013
55.325 8.627736
55.330 9.014198
55.335 9.036321
55.340 9.02227
55.345 8.957945
55.350 8.973574
55.355 9.072504
55.360 8.896762
55.365 9.035852
55.370 8.753169
55.375 8.452349
55.380 8.610332
55.385 8.368059
55.390 8.164821
55.395 8.194091
55.400 8.366546
55.405 8.709815
55.410 9.041631
55.415 9.203842
55.420 10.110718
55.425 10.343412
55.430 10.281988
55.435 10.051558
55.440 10.048175
55.445 10.562936
55.450 11.089839
55.455 10.568085
55.460 9.631867
55.465 9.530578
55.470 9.823708
55.475 10.239994
55.480 9.801626
55.485 9.17926
55.490 9.239621
55.495 9.890096
55.500 9.778578
55.505 9.194289
55.510 8.629566
55.515 8.721566
55.520 9.267635
55.525 9.206062
55.530 9.666031
55.535 10.144761
55.540 10.267757
55.545 10.390581
55.550 10.322277
55.555 10.134838
55.560 10.049668
55.565 9.239397
55.570 9.036203
55.575 8.933608
55.580 8.835979
55.585 8.935094
55.590 9.005607
55.595 9.319944
55.600 9.550031
55.605 9.602634
55.610 9.546042
55.615 9.104484
55.620 9.034285
55.625 9.243488
55.630 9.205233
55.635 9.1578
55.640 9.341397
55.645 9.461213
55.650 9.974031
55.655 9.750927
55.660 9.506975
55.665 9.526535
55.670 9.52355
55.675 9.461432
55.680 9.452875
55.685 9.403799
55.690 9.618667
55.695 9.645067
55.700 9.390302
55.705 9.664586
55.710 9.483988
55.715 9.289942
55.720 9.158739
55.725 8.622415
55.730 8.654683
55.735 8.86979
55.740 8.602062
55.745 8.922408
55.750 9.186444
55.755 8.932014
55.760 8.89823
55.765 8.96461
55.770 9.496103
55.775 9.938528
55.780 9.426092
55.785 9.336053
55.790 9.66996
55.795 9.701302
55.800 9.51788
55.805 9.072423
55.810 8.587088
55.815 8.514925
55.820 8.513055
55.825 8.830127
55.830 8.896981
55.835 8.776716
55.840 8.6297
55.845 9.340852
55.850 9.866041
55.855 9.851325
55.860 9.673309
55.865 10.104406
55.870 9.680008
55.875 9.675161
55.880 9.655262
55.885 9.872502
55.890 9.830297
55.895 9.6387
55.900 9.606668
55.905 10.076695
55.910 9.747432
55.915 8.943152
55.920 8.67018
55.925 8.932771
55.930 8.594944
55.935 8.641621
55.940 8.930054
55.945 9.228344
55.950 9.774157
55.955 10.100405
55.960 10.041687
55.965 10.508775
55.970 10.107755
55.975 9.742569
55.980 10.025018
55.985 9.680484
55.990 9.402719
55.995 9.586325
56.000 9.77388
56.005 9.986778
56.010 10.439568
56.015 10.099826
56.020 10.154929
56.025 10.129124
56.030 10.012645
56.035 9.991732
56.040 9.985855
56.045 10.001962
56.050 10.3984
56.055 10.018691
56.060 9.513091
56.065 9.189372
56.070 8.986813
56.075 8.492231
56.080 8.593285
56.085 8.334288
56.090 8.483629
56.095 9.000033
56.100 9.178086
56.105 9.229239
56.110 9.184026
56.115 8.833321
56.120 9.356558
56.125 9.761595
56.130 9.701084
56.135 9.712921
56.140 9.686959
56.145 9.516375
56.150 9.353495
56.155 8.956717
56.160 8.946397
56.165 8.937619
56.170 9.433423
56.175 9.794761
56.180 10.20206
56.185 10.198442
56.190 10.85834
56.195 10.298329
56.200 9.963328
56.205 9.958041
56.210 9.881104
56.215 9.735782
56.220 9.8279
56.225 9.453085
56.230 10.074749
56.235 10.320559
56.240 10.179172
56.245 10.538454
56.250 10.4259
56.255 10.235937
56.260 10.035157
56.265 9.856521
56.270 9.553021
56.275 9.303527
56.280 9.1554
56.285 9.653243
56.290 9.604341
56.295 9.449471
56.300 9.268093
56.305 9.584818
56.310 9.367464
56.315 9.129025
56.320 8.797513
56.325 9.154015
56.330 9.3381
56.335 9.784144
56.340 9.435483
56.345 9.403501
56.350 9.240171
56.355 9.383021
56.360 9.387317
56.365 9.371755
56.370 9.21266
56.375 9.577882
56.380 9.759496
56.385 9.872705
56.390 9.527646
56.395 9.373661
56.400 9.739557
56.405 9.74125
56.410 9.758801
56.415 9.358394
56.420 9.531031
56.425 10.095016
56.430 10.244965
56.435 9.579771
56.440 9.435246
56.445 9.546601
56.450 9.813725
56.455 9.508569
56.460 9.175006
56.465 8.851515
56.470 8.960122
56.475 9.022403
56.480 8.917871
56.485 8.907402
56.490 9.317459
56.495 9.676978
56.500 9.914959
56.505 10.164872
56.510 10.443617
56.515 10.415471
56.520 10.483878
56.525 10.031706
56.530 9.811982
56.535 9.95031
56.540 9.865735
56.545 9.663605
56.550 10.004681
56.555 10.215356
56.560 10.275395
56.565 10.535707
56.570 10.559144
56.575 10.575856
56.580 10.72573
56.585 10.628675
56.590 10.466215
56.595 10.089014
56.600 9.803851
56.605 9.653257
56.610 10.088567
56.615 10.377126
56.620 10.593881
56.625 11.007998
56.630 11.543653
56.635 11.928102
56.640 11.730989
56.645 11.174257
56.650 10.863581
56.655 10.510079
56.660 10.387641
56.665 9.975718
56.670 9.487336
56.675 9.874645
56.680 10.03385
56.685 9.77459
56.690 9.722381
56.695 9.501939
56.700 9.996531
56.705 10.17233
56.710 10.064415
56.715 9.955034
56.720 10.115687
56.725 10.032649
56.730 9.916654
56.735 10.025386
56.740 10.034479
56.745 9.97206
56.750 10.019923
56.755 10.089408
56.760 10.263247
56.765 10.403091
56.770 10.271001
56.775 10.214387
56.780 10.213416
56.785 10.394648
56.790 10.235694
56.795 9.975386
56.800 9.831052
56.805 9.712778
56.810 9.763579
56.815 9.370568
56.820 8.976284
56.825 9.633827
56.830 9.44665
56.835 9.218383
56.840 9.370621
56.845 9.424687
56.850 9.359204
56.855 9.713384
56.860 9.707277
56.865 10.420392
56.870 10.352776
56.875 9.548098
56.880 9.153507
56.885 9.482038
56.890 9.351383
56.895 9.317129
56.900 9.137904
56.905 9.475193
56.910 9.821566
56.915 10.020097
56.920 9.948558
56.925 9.641171
56.930 9.252449
56.935 9.238592
56.940 8.871202
56.945 8.807275
56.950 8.641911
56.955 8.591129
56.960 8.464494
56.965 8.456049
56.970 8.452352
56.975 8.802981
56.980 9.193134
56.985 9.388914
56.990 9.71192
56.995 9.98474
57.000 9.976665
57.005 10.427078
57.010 10.651467
57.015 10.803673
57.020 10.545976
57.025 10.345512
57.030 10.197944
57.035 10.125742
57.040 10.115482
57.045 9.874329
57.050 9.632368
57.055 9.681033
57.060 9.68894
57.065 9.703542
57.070 9.746019
57.075 9.856337
57.080 9.765494
57.085 9.402498
57.090 9.746297
57.095 9.57628
57.100 9.496685
57.105 9.144359
57.110 8.887705
57.115 8.767139
57.120 8.895667
57.125 8.578134
57.130 8.973589
57.135 9.587085
57.140 9.561595
57.145 9.54515
57.150 10.021887
57.155 10.133759
57.160 10.329669
57.165 10.121252
57.170 9.674251
57.175 9.460063
57.180 9.26832
57.185 9.244653
57.190 9.261775
57.195 8.790398
57.200 9.10917
57.205 9.876655
57.210 11.128491
57.215 11.526678
57.220 11.334589
57.225 11.469931
57.230 11.64986
57.235 11.198606
57.240 10.469837
57.245 9.141277
57.250 8.787589
57.255 8.54069
57.260 8.758709
57.265 8.863367
57.270 8.911821
57.275 9.495127
57.280 10.323004
57.285 10.284807
57.290 10.317669
57.295 10.257638
57.300 10.400408
57.305 10.475368
57.310 10.316856
57.315 10.156163
57.320 10.487063
57.325 10.868525
57.330 10.601219
57.335 10.596733
57.340 10.842542
57.345 10.517859
57.350 10.671887
57.355 10.529492
57.360 10.60116
57.365 10.80095
57.370 10.70004
57.375 10.769244
57.380 10.676321
57.385 9.855165
57.390 9.499253
57.395 9.170172
57.400 8.775888
57.405 8.37906
57.410 7.837107
57.415 7.665873
57.420 7.940409
57.425 8.11619
57.430 8.475189
57.435 8.914906
57.440 9.279552
57.445 9.334949
57.450 9.648845
57.455 10.295371
57.460 10.771423
57.465 10.550569
57.470 10.746138
57.475 10.979373
57.480 11.776285
57.485 11.959088
57.490 12.008089
57.495 11.790865
57.500 11.678171
57.505 11.507735
57.510 11.327394
57.515 11.21258
57.520 11.233332
57.525 10.670929
57.530 10.717529
57.535 10.561972
57.540 10.08798
57.545 9.513916
57.550 9.408791
57.555 9.254248
57.560 9.160541
57.565 8.999669
57.570 8.902563
57.575 9.193314
57.580 9.297938
57.585 8.695945
57.590 8.880123
57.595 9.170967
57.600 8.852811
57.605 8.899084
57.610 8.896485
57.615 9.090793
57.620 9.724851
57.625 10.104542
57.630 10.30896
57.635 10.732456
57.640 11.120776
57.645 11.094927
57.650 11.360804
57.655 10.898214
57.660 10.723653
57.665 10.392931
57.670 10.268227
57.675 10.220984
57.680 10.073535
57.685 9.743065
57.690 9.552483
57.695 9.201465
57.700 9.155383
57.705 9.326536
57.710 9.373315
57.715 9.587353
57.720 10.144437
57.725 10.739103
57.730 10.63011
57.735 10.739049
57.740 10.622453
57.745 10.32922
57.750 10.349321
57.755 9.899122
57.760 10.082707
57.765 10.233615
57.770 10.014707
57.775 9.933433
57.780 10.13159
57.785 10.31375
57.790 10.151188
57.795 9.726609
57.800 9.551064
57.805 9.740321
57.810 9.93165
57.815 9.898244
57.820 10.039175
57.825 10.047184
57.830 10.269999
57.835 10.334273
57.840 10.664355
57.845 10.524302
57.850 10.467555
57.855 10.116188
57.860 9.96524
57.865 9.962223
57.870 10.227079
57.875 10.051757
57.880 9.898741
57.885 9.959487
57.890 10.156543
57.895 10.393853
57.900 10.403135
57.905 10.219492
57.910 9.883098
57.915 9.672495
57.920 9.746355
57.925 9.351433
57.930 8.951977
57.935 8.632497
57.940 8.367883
57.945 8.397252
57.950 8.624583
57.955 8.652267
57.960 8.687787
57.965 9.250081
57.970 9.716275
57.975 10.257834
57.980 11.140084
57.985 11.263184
57.990 11.262182
57.995 11.641797
58.000 11.328128
58.005 11.002003
58.010 10.925479
58.015 10.635739
58.020 10.639722
58.025 10.601522
58.030 10.472939
58.035 10.903
58.040 11.395687
58.045 11.24964
58.050 10.903771
58.055 10.964096
58.060 10.994051
58.065 10.882518
58.070 10.486603
58.075 9.999159
58.080 10.026926
58.085 9.861709
58.090 9.902355
58.095 9.70977
58.100 9.478458
58.105 9.545088
58.110 9.572112
58.115 9.571949
58.120 9.696318
58.125 9.374784
58.130 9.433202
58.135 9.503415
58.140 9.277368
58.145 9.382698
58.150 9.442502
58.155 9.362396
58.160 9.248149
58.165 9.399136
58.170 9.617372
58.175 9.783357
58.180 9.804316
58.185 9.745573
58.190 9.600618
58.195 10.119938
58.200 10.597215
58.205 10.44313
58.210 10.210909
58.215 10.033852
58.220 10.100245
58.225 10.454313
58.230 10.092474
58.235 9.625014
58.240 9.522941
58.245 10.167196
58.250 10.435386
58.255 10.512341
58.260 10.792916
58.265 10.882361
58.270 11.034507
58.275 10.972665
58.280 10.922818
58.285 11.325832
58.290 11.169519
58.295 10.945317
58.300 11.073385
58.305 11.390683
58.310 11.241722
58.315 10.58987
58.320 10.419999
58.325 10.955973
58.330 10.884213
58.335 10.742182
58.340 10.74951
58.345 11.232045
58.350 11.127968
58.355 10.912144
58.360 10.703222
58.365 10.553235
58.370 10.50366
58.375 10.153852
58.380 10.131369
58.385 10.268294
58.390 10.5639
58.395 10.78199
58.400 10.877172
58.405 10.786816
58.410 11.448215
58.415 11.868567
58.420 12.400284
58.425 11.909174
58.430 11.942549
58.435 12.162514
58.440 12.392964
58.445 12.380507
58.450 11.934126
58.455 11.815019
58.460 11.84547
58.465 11.7232
58.470 11.615657
58.475 10.815204
58.480 11.136471
58.485 11.268813
58.490 10.902717
58.495 11.019696
58.500 11.257324
58.505 11.623254
58.510 12.18599
58.515 11.630931
58.520 11.426764
58.525 11.9884
58.530 12.357228
58.535 11.847974
58.540 11.684802
58.545 11.510099
58.550 11.581476
58.555 11.994106
58.560 11.783933
58.565 11.474432
58.570 11.733751
58.575 11.697563
58.580 11.836427
58.585 11.544759
58.590 11.246052
58.595 11.227181
58.600 10.890005
58.605 10.767947
58.610 11.057379
58.615 10.965255
58.620 11.590298
58.625 11.59719
58.630 12.26195
58.635 12.517651
58.640 12.199395
58.645 11.527671
58.650 11.575177
58.655 11.718605
58.660 12.131562
58.665 11.753942
58.670 11.593408
58.675 11.890747
58.680 12.175326
58.685 12.06565
58.690 11.942138
58.695 11.711825
58.700 11.205749
58.705 11.108283
58.710 10.80557
58.715 10.641858
58.720 10.24663
58.725 9.877687
58.730 9.858543
58.735 10.643364
58.740 11.192453
58.745 11.900495
58.750 12.235052
58.755 12.488057
58.760 12.487725
58.765 12.326101
58.770 12.189629
58.775 12.066646
58.780 11.93929
58.785 11.649107
58.790 11.536235
58.795 11.455089
58.800 11.182248
58.805 11.229735
58.810 10.881677
58.815 10.632434
58.820 10.194301
58.825 10.115622
58.830 10.047729
58.835 10.003988
58.840 9.56988
58.845 9.529642
58.850 9.483763
58.855 10.052214
58.860 10.242575
58.865 10.570934
58.870 10.84424
58.875 11.350172
58.880 11.828633
58.885 12.282049
58.890 12.21624
58.895 11.977453
58.900 11.66131
58.905 11.726525
58.910 11.944795
58.915 11.713687
58.920 11.487646
58.925 10.769614
58.930 10.972574
58.935 11.185962
58.940 10.687039
58.945 10.314633
58.950 10.185034
58.955 10.667381
58.960 11.590462
58.965 11.859801
58.970 11.645125
58.975 11.811721
58.980 11.538387
58.985 11.239854
58.990 11.052631
58.995 10.681649
59.000 10.57583
59.005 10.999269
59.010 11.266039
59.015 11.929813
59.020 12.29952
59.025 12.272213
59.030 12.442205
59.035 12.281842
59.040 12.633703
59.045 12.820395
59.050 12.39751
59.055 12.260177
59.060 12.318045
59.065 11.972342
59.070 12.085695
59.075 11.624031
59.080 11.29079
59.085 10.966074
59.090 10.869582
59.095 10.678432
59.100 11.025035
59.105 10.770373
59.110 10.736728
59.115 10.419758
59.120 10.754972
59.125 10.811576
59.130 10.765138
59.135 10.362444
59.140 10.469363
59.145 10.466328
59.150 10.644375
59.155 10.800015
59.160 10.601269
59.165 10.61556
59.170 11.080934
59.175 10.704268
59.180 10.277592
59.185 10.458503
59.190 10.862086
59.195 11.471558
59.200 11.704309
59.205 11.568853
59.210 11.774879
59.215 12.090261
59.220 11.82608
59.225 11.270838
59.230 11.01234
59.235 11.269614
59.240 11.871932
59.245 11.863294
59.250 11.756917
59.255 11.746634
59.260 12.004642
59.265 11.631802
59.270 11.610947
59.275 11.328079
59.280 11.859124
59.285 12.135485
59.290 12.248671
59.295 12.176269
59.300 11.935158
59.305 11.105993
59.310 10.658472
59.315 10.292899
59.320 9.804022
59.325 9.664941
59.330 9.770035
59.335 10.180039
59.340 10.680506
59.345 10.926726
59.350 10.671968
59.355 10.49845
59.360 10.368783
59.365 10.087249
59.370 10.350081
59.375 10.511521
59.380 10.41866
59.385 10.731653
59.390 11.287158
59.395 11.615256
59.400 11.861777
59.405 11.496131
59.410 11.219713
59.415 11.648842
59.420 11.68515
59.425 11.478384
59.430 11.257768
59.435 11.207101
59.440 11.086084
59.445 10.856506
59.450 10.811377
59.455 10.508066
59.460 10.605529
59.465 10.988717
59.470 11.023292
59.475 11.564793
59.480 12.160501
59.485 12.050967
59.490 12.50516
59.495 12.843271
59.500 12.852887
59.505 12.877138
59.510 12.711946
59.515 12.674771
59.520 13.07884
59.525 13.322289
59.530 12.79083
59.535 12.38265
59.540 11.894481
59.545 11.77167
59.550 11.607265
59.555 11.427448
59.560 10.99955
59.565 10.906302
59.570 10.983722
59.575 11.063893
59.580 10.928118
59.585 10.842937
59.590 10.766737
59.595 10.796974
59.600 11.209571
59.605 11.520391
59.610 12.183214
59.615 12.337686
59.620 11.860828
59.625 11.689345
59.630 12.375382
59.635 12.704063
59.640 12.405522
59.645 11.756526
59.650 11.860743
59.655 11.951458
59.660 11.858953
59.665 11.569971
59.670 11.358336
59.675 11.2578
59.680 11.008922
59.685 10.95671
59.690 11.451537
59.695 10.983269
59.700 11.273811
59.705 11.104686
59.710 11.317007
59.715 11.943198
59.720 11.95733
59.725 11.8693
59.730 12.213166
59.735 12.465158
59.740 13.115335
59.745 13.318705
59.750 13.371899
59.755 13.170447
59.760 13.692064
59.765 14.162247
59.770 13.15195
59.775 12.701613
59.780 12.876801
59.785 12.796271
59.790 13.026267
59.795 12.955482
59.800 12.648357
59.805 12.792716
59.810 12.711602
59.815 12.769082
59.820 12.912519
59.825 12.741596
59.830 12.23036
59.835 12.101865
59.840 12.500177
59.845 12.358095
59.850 11.983158
59.855 11.870338
59.860 11.742694
59.865 11.924465
59.870 11.840938
59.875 10.727688
59.880 10.268401
59.885 10.236471
59.890 10.351605
59.895 10.66321
59.900 10.85685
59.905 11.29278
59.910 12.183922
59.915 12.53929
59.920 12.364111
59.925 12.399557
59.930 12.027313
59.935 11.97255
59.940 11.596531
59.945 11.190106
59.950 11.614627
59.955 12.009697
59.960 11.447476
59.965 11.087914
59.970 10.811349
59.975 10.842462
59.980 11.032598
59.985 10.726412
59.990 10.993098
59.995 11.703891
60.000 12.216422
60.005 12.366735
60.010 12.56609
60.015 13.071012
60.020 13.441546
60.025 12.703444
60.030 12.1197
60.035 12.394517
60.040 12.501294
60.045 12.577876
60.050 12.077353
60.055 11.660177
60.060 11.997186
60.065 12.086584
60.070 11.779975
60.075 11.473086
60.080 10.955281
60.085 10.727185
60.090 10.663064
60.095 10.690944
60.100 10.364385
60.105 10.160946
60.110 10.277914
60.115 10.355909
60.120 9.895573
60.125 9.841762
60.130 9.476236
60.135 10.017107
60.140 10.379187
60.145 10.306915
60.150 10.893229
60.155 11.381036
60.160 11.824399
60.165 12.06951
60.170 11.687325
60.175 11.644631
60.180 11.872161
60.185 11.900421
60.190 12.069554
60.195 11.714823
60.200 11.750507
60.205 11.673573
60.210 11.488827
60.215 11.603743
60.220 11.441575
60.225 11.368754
60.230 11.505409
60.235 11.45686
60.240 11.432711
60.245 11.392443
60.250 10.998421
60.255 10.830156
60.260 11.093621
60.265 11.307564
60.270 11.173466
60.275 11.304087
60.280 11.270532
60.285 11.03743
60.290 11.023965
60.295 10.884768
60.300 10.887984
60.305 11.922878
60.310 11.997206
60.315 12.181091
60.320 12.641356
60.325 12.784375
60.330 12.321525
60.335 11.825739
60.340 11.292996
60.345 11.214526
60.350 11.262272
60.355 10.826324
60.360 10.54326
60.365 10.885319
60.370 10.948985
60.375 10.652473
60.380 10.720716
60.385 10.570043
60.390 10.72068
60.395 10.722816
60.400 10.464976
60.405 10.327859
60.410 10.112409
60.415 9.9185
60.420 9.938848
60.425 10.009742
60.430 9.881185
60.435 10.099469
60.440 10.66279
60.445 10.795065
60.450 11.052761
60.455 11.024955
60.460 11.242616
60.465 11.108007
60.470 10.927893
60.475 10.469433
60.480 10.329669
60.485 10.228796
60.490 10.596198
60.495 10.675921
60.500 10.902827
60.505 10.877695
60.510 11.162548
60.515 11.133316
60.520 11.075564
60.525 10.692204
60.530 10.452176
60.535 10.408497
60.540 10.499001
60.545 10.363251
60.550 10.215869
60.555 10.158149
60.560 10.208336
60.565 10.593828
60.570 10.574135
60.575 10.426221
60.580 10.745109
60.585 11.059544
60.590 11.309536
60.595 11.326581
60.600 11.190331
60.605 11.195806
60.610 11.11829
60.615 11.120563
60.620 11.380981
60.625 11.399837
60.630 11.197746
60.635 11.372234
60.640 11.627125
60.645 11.736592
60.650 11.949822
60.655 11.904211
60.660 11.700653
60.665 11.835045
60.670 11.620136
60.675 11.274167
60.680 10.773724
60.685 10.205405
60.690 9.995468
60.695 10.192389
60.700 10.494153
60.705 10.835763
60.710 10.934718
60.715 11.17882
60.720 11.266843
60.725 10.899607
60.730 10.985338
60.735 11.014071
60.740 11.148859
60.745 11.483519
60.750 11.888368
60.755 12.170209
60.760 12.583431
60.765 12.40246
60.770 11.806363
60.775 11.376848
60.780 11.019535
60.785 10.513891
60.790 10.261806
60.795 10.397965
60.800 10.795835
60.805 11.022581
60.810 11.162457
60.815 11.044236
60.820 11.031461
60.825 10.871236
60.830 10.591523
60.835 10.419885
60.840 10.376021
60.845 10.103953
60.850 10.70788
60.855 10.993849
60.860 11.279825
60.865 11.480642
60.870 11.667618
60.875 11.655841
60.880 11.897954
60.885 11.549947
60.890 11.51646
60.895 10.951693
60.900 10.69244
60.905 10.238173
60.910 10.391147
60.915 10.341749
60.920 9.929477
60.925 9.713197
60.930 9.653044
60.935 9.775699
60.940 10.034446
60.945 9.764684
60.950 9.930343
60.955 10.17863
60.960 10.558276
60.965 10.865713
60.970 10.659703
60.975 10.47464
60.980 10.602382
60.985 10.12562
60.990 9.632699
60.995 9.498488
61.000 9.596265
61.005 9.496021
61.010 9.549104
61.015 9.378178
61.020 9.555584
61.025 9.643992
61.030 9.318028
61.035 9.076682
61.040 9.224221
61.045 9.333778
61.050 9.716687
61.055 9.852953
61.060 10.166474
61.065 10.645796
61.070 11.399127
61.075 11.883637
61.080 11.737883
61.085 11.551334
61.090 11.7822
61.095 11.972657
61.100 11.882753
61.105 11.245156
61.110 11.031679
61.115 11.493505
61.120 11.596025
61.125 11.370948
61.130 11.461771
61.135 11.309909
61.140 11.484092
61.145 11.526341
61.150 11.176815
61.155 10.872202
61.160 11.193237
61.165 11.186414
61.170 11.014641
61.175 10.532363
61.180 9.839563
61.185 9.923349
61.190 10.099636
61.195 9.869836
61.200 9.616486
61.205 9.917133
61.210 10.354087
61.215 10.458288
61.220 10.550034
61.225 10.665627
61.230 10.573881
61.235 10.549779
61.240 10.362484
61.245 10.435796
61.250 10.793942
61.255 10.709938
61.260 10.618275
61.265 10.716547
61.270 10.406386
61.275 10.288961
61.280 10.027083
61.285 10.439482
61.290 10.646822
61.295 10.826487
61.300 10.639347
61.305 10.773126
61.310 10.78713
61.315 10.796304
61.320 10.647424
61.325 10.368106
61.330 10.035084
61.335 9.866163
61.340 9.314122
61.345 9.210487
61.350 8.835542
61.355 8.345641
61.360 8.563564
61.365 8.846507
61.370 9.444768
61.375 10.350381
61.380 10.713332
61.385 11.2471
61.390 11.451766
61.395 11.529111
61.400 11.142904
61.405 10.897593
61.410 11.135776
61.415 10.791221
61.420 10.47176
61.425 10.397388
61.430 10.109345
61.435 10.318097
61.440 10.04482
61.445 9.757513
61.450 10.007779
61.455 10.095332
61.460 10.14608
61.465 10.571858
61.470 10.567539
61.475 10.853112
61.480 11.016315
61.485 10.905966
61.490 10.693602
61.495 10.552425
61.500 10.675058
61.505 10.704164
61.510 10.794358
61.515 10.196538
61.520 10.250685
61.525 10.389566
61.530 10.154219
61.535 9.7429
61.540 9.730904
61.545 9.838868
61.550 10.193767
61.555 10.344165
61.560 10.540282
61.565 10.852699
61.570 10.716956
61.575 10.933422
61.580 11.108949
61.585 11.053283
61.590 11.136151
61.595 11.053173
61.600 10.587104
61.605 10.668888
61.610 10.610849
61.615 10.436638
61.620 10.392396
61.625 10.171124
61.630 10.034841
61.635 10.15643
61.640 10.292302
61.645 9.95448
61.650 9.482666
61.655 9.606437
61.660 9.87617
61.665 10.341175
61.670 10.601944
61.675 10.95225
61.680 11.074815
61.685 11.367287
61.690 11.547826
61.695 11.284697
61.700 11.023055
61.705 10.866355
61.710 10.439491
61.715 10.114977
61.720 9.833017
61.725 9.468035
61.730 9.63663
61.735 10.063353
61.740 10.417231
61.745 10.461152
61.750 10.792292
61.755 11.169366
61.760 11.539138
61.765 11.30926
61.770 11.036612
61.775 11.01574
61.780 11.323524
61.785 11.296783
61.790 10.922803
61.795 10.948408
61.800 11.56906
61.805 11.808303
61.810 11.986071
61.815 12.142501
61.820 12.036145
61.825 12.614931
61.830 12.263373
61.835 11.729207
61.840 11.981077
61.845 12.090768
61.850 11.88974
61.855 12.35477
61.860 12.288597
61.865 12.092778
61.870 12.213422
61.875 11.580773
61.880 11.465238
61.885 11.315257
61.890 11.148959
61.895 11.382488
61.900 11.627863
61.905 11.487975
61.910 11.499268
61.915 11.332665
61.920 11.447209
61.925 11.403735
61.930 10.607416
61.935 10.425264
61.940 10.45936
61.945 10.671856
61.950 10.475064
61.955 9.849081
61.960 9.523378
61.965 9.659721
61.970 9.708747
61.975 9.485118
61.980 9.168468
61.985 9.26603
61.990 9.555688
61.995 9.831212
62.000 9.975883
62.005 10.042079
62.010 10.193051
62.015 10.182083
62.020 10.672821
62.025 11.10792
62.030 11.125036
62.035 10.985569
62.040 11.004085
62.045 11.189115
62.050 11.468078
62.055 11.282661
62.060 11.162987
62.065 11.0712
62.070 11.505598
62.075 11.770345
62.080 11.460902
62.085 11.471434
62.090 11.563272
62.095 11.652821
62.100 12.072249
62.105 11.831054
62.110 11.707848
62.115 11.935207
62.120 11.604864
62.125 11.803448
62.130 11.671758
62.135 11.539224
62.140 11.617832
62.145 11.712605
62.150 11.543818
62.155 11.347914
62.160 10.952315
62.165 10.965692
62.170 11.183043
62.175 11.367333
62.180 11.035627
62.185 10.862565
62.190 11.308334
62.195 11.600013
62.200 11.630054
62.205 11.383305
62.210 10.865316
62.215 11.190547
62.220 11.361545
62.225 11.022931
62.230 10.859233
62.235 10.750587
62.240 10.67769
62.245 10.946645
62.250 10.666149
62.255 10.563589
62.260 10.328979
62.265 9.83864
62.270 9.570393
62.275 9.754428
62.280 9.857746
62.285 9.705974
62.290 9.915419
62.295 10.417116
62.300 11.070181
62.305 10.702857
62.310 10.13615
62.315 9.936855
62.320 10.060638
62.325 9.787435
62.330 9.697613
62.335 9.640308
62.340 10.175729
62.345 10.546389
62.350 10.386657
62.355 10.365282
62.360 10.696008
62.365 10.448408
62.370 10.252451
62.375 10.402176
62.380 10.187843
62.385 10.009236
62.390 10.483797
62.395 10.673519
62.400 10.708231
62.405 10.724763
62.410 11.163178
62.415 11.96782
62.420 12.623862
62.425 12.061096
62.430 11.809014
62.435 12.149904
62.440 11.845034
62.445 11.8324
62.450 11.548995
62.455 11.19226
62.460 11.425343
62.465 11.709244
62.470 11.644148
62.475 11.952159
62.480 12.107343
62.485 11.803819
62.490 11.906743
62.495 11.752421
62.500 11.695305
62.505 11.507822
62.510 11.352561
62.515 10.997641
62.520 11.076337
62.525 10.986866
62.530 11.034585
62.535 11.061463
62.540 11.289907
62.545 11.328134
62.550 11.722538
62.555 11.813093
62.560 12.484112
62.565 12.735927
62.570 12.75255
62.575 12.593152
62.580 12.110439
62.585 12.250899
62.590 12.718415
62.595 12.598616
62.600 12.390657
62.605 12.162497
62.610 12.443609
62.615 12.747899
62.620 11.850877
62.625 11.162413
62.630 10.816176
62.635 10.593031
62.640 10.486733
62.645 10.103993
62.650 10.271754
62.655 10.388806
62.660 10.508249
62.665 10.679246
62.670 11.220524
62.675 11.149612
62.680 11.226654
62.685 11.230191
62.690 11.685497
62.695 11.745868
62.700 11.347748
62.705 11.415312
62.710 12.291353
62.715 12.815239
62.720 12.419691
62.725 12.041245
62.730 12.29575
62.735 12.557251
62.740 12.309487
62.745 11.414342
62.750 11.144972
62.755 11.585348
62.760 11.750417
62.765 11.792611
62.770 11.771169
62.775 12.101232
62.780 12.239411
62.785 12.16227
62.790 12.285388
62.795 12.954859
62.800 13.704271
62.805 14.049414
62.810 13.612509
62.815 13.951278
62.820 13.997149
62.825 13.991264
62.830 13.740343
62.835 13.469662
62.840 13.524636
62.845 13.797577
62.850 14.013695
62.855 14.133569
62.860 14.111215
62.865 13.694664
62.870 13.197795
62.875 12.655441
62.880 12.211884
62.885 11.332118
62.890 10.977728
62.895 10.585199
62.900 10.114697
62.905 10.114414
62.910 10.222412
62.915 10.537116
62.920 10.742448
62.925 10.607221
62.930 10.635896
62.935 10.92945
62.940 10.68404
62.945 10.672757
62.950 10.293714
62.955 10.630339
62.960 11.610865
62.965 12.178023
62.970 12.560553
62.975 12.682387
62.980 12.544349
62.985 12.673616
62.990 12.594675
62.995 11.913019
63.000 11.427626
63.005 11.482922
63.010 11.760564
63.015 12.035816
63.020 11.794017
63.025 11.605673
63.030 11.401716
63.035 11.172124
63.040 10.909549
63.045 10.348961
63.050 10.544163
63.055 11.17568
63.060 11.285392
63.065 11.701987
63.070 11.593694
63.075 11.443629
63.080 11.786529
63.085 11.315136
63.090 10.923776
63.095 10.749518
63.100 10.591504
63.105 10.818909
63.110 11.408389
63.115 11.637213
63.120 11.643743
63.125 11.499334
63.130 11.292192
63.135 11.445412
63.140 11.191035
63.145 10.402313
63.150 9.95724
63.155 10.360543
63.160 10.565686
63.165 10.519599
63.170 10.421402
63.175 10.086803
63.180 10.306194
63.185 10.716169
63.190 11.015643
63.195 11.200823
63.200 11.398529
63.205 11.790176
63.210 12.283257
63.215 12.367902
63.220 12.406292
63.225 11.842186
63.230 11.304443
63.235 10.980574
63.240 10.450988
63.245 10.230704
63.250 10.194583
63.255 10.333915
63.260 10.634506
63.265 11.136653
63.270 11.033463
63.275 11.275952
63.280 11.64067
63.285 11.585963
63.290 11.447671
63.295 11.509889
63.300 11.810933
63.305 12.197214
63.310 12.189112
63.315 11.739724
63.320 11.843569
63.325 12.09201
63.330 11.764528
63.335 11.399693
63.340 11.643361
63.345 11.297338
63.350 11.359859
63.355 11.315998
63.360 11.3911
63.365 11.963631
63.370 11.841473
63.375 11.287189
63.380 11.323775
63.385 11.556554
63.390 11.653114
63.395 11.163341
63.400 10.883092
63.405 11.393442
63.410 11.63033
63.415 11.953347
63.420 12.226089
63.425 12.105944
63.430 12.605767
63.435 12.334615
63.440 11.920934
63.445 12.2176
63.450 12.096449
63.455 11.678865
63.460 11.829845
63.465 11.776792
63.470 11.526587
63.475 11.24903
63.480 10.907867
63.485 11.030242
63.490 11.224179
63.495 11.144297
63.500 10.719169
63.505 10.877865
63.510 11.374084
63.515 11.613585
63.520 11.410882
63.525 11.172144
63.530 11.023169
63.535 11.418238
63.540 11.665194
63.545 11.156573
63.550 10.918477
63.555 11.315411
63.560 11.474444
63.565 11.288513
63.570 11.017052
63.575 11.036891
63.580 11.650496
63.585 11.769674
63.590 11.744508
63.595 11.880783
63.600 11.625693
63.605 11.764052
63.610 11.327664
63.615 10.884147
63.620 10.84993
63.625 10.500572
63.630 10.205205
63.635 10.440516
63.640 10.245135
63.645 10.904283
63.650 11.129075
63.655 11.140485
63.660 11.092045
63.665 10.941823
63.670 10.873306
63.675 11.071246
63.680 11.093792
63.685 10.971602
63.690 11.055723
63.695 11.279128
63.700 11.132293
63.705 11.01548
63.710 11.035375
63.715 10.786071
63.720 10.874611
63.725 11.028635
63.730 11.070751
63.735 11.807715
63.740 12.358767
63.745 12.685472
63.750 12.846206
63.755 13.064601
63.760 12.717776
63.765 12.408194
63.770 12.259272
63.775 12.186941
63.780 11.572827
63.785 10.936623
63.790 10.804695
63.795 10.854123
63.800 10.955968
63.805 10.767499
63.810 10.529116
63.815 10.800603
63.820 10.762773
63.825 10.589301
63.830 10.688413
63.835 10.914259
63.840 10.810443
63.845 10.578443
63.850 10.913604
63.855 11.369376
63.860 11.424189
63.865 11.41587
63.870 11.212417
63.875 11.442099
63.880 11.615531
63.885 11.317751
63.890 11.146897
63.895 11.478643
63.900 11.934878
63.905 11.972728
63.910 12.181108
63.915 12.158521
63.920 12.385177
63.925 12.266256
63.930 11.866206
63.935 11.712042
63.940 11.518641
63.945 11.24409
63.950 11.367196
63.955 11.311336
63.960 11.579539
63.965 11.913781
63.970 12.159998
63.975 12.779588
63.980 12.987839
63.985 12.87854
63.990 12.949007
63.995 12.953086
64.000 12.783592
64.005 13.04723
64.010 13.223077
64.015 13.412807
64.020 13.807012
64.025 13.935995
64.030 14.232813
64.035 13.894731
64.040 13.565067
64.045 13.191706
64.050 13.008226
64.055 12.472731
64.060 12.314765
64.065 12.163061
64.070 12.181532
64.075 11.840192
64.080 11.580107
64.085 11.195379
64.090 10.919735
64.095 10.941945
64.100 10.661872
64.105 11.022468
64.110 11.108782
64.115 11.283356
64.120 11.385303
64.125 11.545975
64.130 11.863381
64.135 12.246519
64.140 12.26877
64.145 12.259079
64.150 12.222543
64.155 12.512619
64.160 12.512603
64.165 12.130381
64.170 12.443694
64.175 11.79712
64.180 11.719438
64.185 11.841871
64.190 11.763912
64.195 11.30807
64.200 10.95957
64.205 10.752259
64.210 11.100912
64.215 10.896129
64.220 10.795979
64.225 10.743281
64.230 11.163935
64.235 11.827213
64.240 11.765965
64.245 11.717122
64.250 11.797084
64.255 11.84815
64.260 11.803632
64.265 11.755504
64.270 11.213861
64.275 11.070955
64.280 11.169636
64.285 11.642787
64.290 11.744581
64.295 11.569511
64.300 11.658426
64.305 11.753626
64.310 12.388807
64.315 12.713099
64.320 12.371877
64.325 12.517196
64.330 12.579637
64.335 12.378399
64.340 12.077552
64.345 11.389405
64.350 11.243169
64.355 11.587332
64.360 11.423288
64.365 11.815009
64.370 12.072182
64.375 12.159466
64.380 12.362559
64.385 12.105361
64.390 11.829626
64.395 12.252403
64.400 12.429212
64.405 12.581782
64.410 12.655945
64.415 12.722025
64.420 12.736513
64.425 12.616245
64.430 12.117191
64.435 12.014577
64.440 12.001143
64.445 12.208718
64.450 12.015762
64.455 12.40152
64.460 12.806415
64.465 13.41342
64.470 13.480961
64.475 13.247268
64.480 13.091643
64.485 13.026338
64.490 13.244201
64.495 13.754295
64.500 13.159776
64.505 13.354315
64.510 13.607608
64.515 13.727698
64.520 14.27747
64.525 14.148288
64.530 13.882346
64.535 14.246211
64.540 13.832913
64.545 14.017439
64.550 13.796851
64.555 13.494315
64.560 13.021276
64.565 12.520179
64.570 12.717568
64.575 12.827599
64.580 12.664316
64.585 12.787146
64.590 13.084323
64.595 13.356088
64.600 13.108952
64.605 12.757504
64.610 12.949893
64.615 13.187262
64.620 13.134138
64.625 12.817772
64.630 12.918885
64.635 13.155876
64.640 13.123502
64.645 13.12204
64.650 13.229731
64.655 13.39874
64.660 13.506232
64.665 13.463093
64.670 13.798953
64.675 13.670389
64.680 13.717634
64.685 13.465206
64.690 13.458621
64.695 13.110248
64.700 12.429345
64.705 12.126884
64.710 12.489245
64.715 12.748411
64.720 12.801686
64.725 12.859413
64.730 13.514373
64.735 14.309926
64.740 14.534787
64.745 14.41118
64.750 14.305833
64.755 14.342313
64.760 14.120102
64.765 13.936403
64.770 13.47473
64.775 13.87467
64.780 14.198595
64.785 14.338674
64.790 14.079966
64.795 14.335711
64.800 14.134874
64.805 14.27458
64.810 14.602605
64.815 14.927285
64.820 14.873102
64.825 15.388786
64.830 15.751724
64.835 16.033875
64.840 15.653199
64.845 15.440149
64.850 15.062846
64.855 15.139772
64.860 14.558517
64.865 14.401593
64.870 14.401366
64.875 14.970403
64.880 15.219112
64.885 15.223677
64.890 15.046987
64.895 14.98881
64.900 15.230488
64.905 15.706685
64.910 15.508738
64.915 15.240202
64.920 15.554299
64.925 16.174305
64.930 16.635813
64.935 16.776289
64.940 17.223236
64.945 17.320663
64.950 17.786646
64.955 18.098022
64.960 18.787102
64.965 19.360004
64.970 19.932827
64.975 20.084127
64.980 20.58037
64.985 21.191984
64.990 21.670076
64.995 21.253796
65.000 20.784277
65.005 20.881422
65.010 20.989372
65.015 20.89485
65.020 20.670443
65.025 20.376402
65.030 20.903555
65.035 21.275311
65.040 20.500015
65.045 20.154758
65.050 20.361397
65.055 20.274544
65.060 20.815325
65.065 20.237638
65.070 19.973467
65.075 20.674097
65.080 20.498358
65.085 20.025688
65.090 19.859945
65.095 19.189503
65.100 19.51885
65.105 19.68487
65.110 19.266756
65.115 19.318195
65.120 19.782196
65.125 19.973501
65.130 20.057093
65.135 19.713444
65.140 19.280104
65.145 19.528547
65.150 19.986839
65.155 19.875916
65.160 19.812136
65.165 19.879108
65.170 19.620951
65.175 19.69313
65.180 19.564461
65.185 19.154547
65.190 18.864365
65.195 18.481083
65.200 18.223112
65.205 18.06743
65.210 18.530697
65.215 18.391911
65.220 18.188133
65.225 18.338152
65.230 17.957012
65.235 17.933924
65.240 18.25054
65.245 17.670528
65.250 17.444704
65.255 17.330986
65.260 16.945768
65.265 17.050447
65.270 17.063353
65.275 16.774338
65.280 16.426538
65.285 16.373987
65.290 16.505348
65.295 16.236223
65.300 16.458466
65.305 16.229361
65.310 15.895779
65.315 15.499717
65.320 15.63341
65.325 15.570196
65.330 15.416101
65.335 15.420176
65.340 15.723529
65.345 16.475435
65.350 16.964113
65.355 16.222075
65.360 15.954308
65.365 15.867381
65.370 15.057549
65.375 14.310788
65.380 14.064919
65.385 13.795271
65.390 14.039531
65.395 14.037026
65.400 14.221529
65.405 14.616586
65.410 15.102002
65.415 15.028786
65.420 15.085848
65.425 15.09219
65.430 14.86525
65.435 15.163092
65.440 15.228574
65.445 14.756216
65.450 14.189971
65.455 14.426157
65.460 14.054825
65.465 14.56653
65.470 14.080619
65.475 13.527237
65.480 14.184344
65.485 14.551138
65.490 14.039429
65.495 14.574291
65.500 14.463594
65.505 14.646794
65.510 15.028811
65.515 14.626751
65.520 14.912964
65.525 14.871309
65.530 14.436973
65.535 14.275864
65.540 14.410086
65.545 14.273744
65.550 14.422728
65.555 14.810218
65.560 15.271417
65.565 15.646961
65.570 15.693285
65.575 15.442039
65.580 15.392111
65.585 15.232285
65.590 15.215529
65.595 15.431717
65.600 15.581798
65.605 15.587435
65.610 15.65833
65.615 15.748333
65.620 15.992311
65.625 15.441443
65.630 14.679004
65.635 14.509991
65.640 14.488075
65.645 14.817814
65.650 14.415777
65.655 13.659451
65.660 14.235318
65.665 14.766563
65.670 14.835074
65.675 14.961474
65.680 14.776974
65.685 15.366755
65.690 15.848025
65.695 15.831617
65.700 15.777119
65.705 15.495088
65.710 15.509882
65.715 15.297615
65.720 14.863841
65.725 14.825438
65.730 14.589187
65.735 14.628704
65.740 14.603165
65.745 14.751815
65.750 14.882285
65.755 14.818857
65.760 14.54281
65.765 14.657163
65.770 14.634873
65.775 14.365962
65.780 14.017671
65.785 14.599055
65.790 14.916996
65.795 14.946206
65.800 14.787323
65.805 15.271004
65.810 15.567659
65.815 15.724875
65.820 15.565578
65.825 16.003399
65.830 16.235376
65.835 16.654394
65.840 16.406588
65.845 16.438341
65.850 15.908004
65.855 15.836041
65.860 15.663391
65.865 15.575338
65.870 15.348619
65.875 15.68964
65.880 16.166576
65.885 16.431616
65.890 16.242718
65.895 17.188002
65.900 17.665321
65.905 17.2369
65.910 17.177515
65.915 17.118011
65.920 17.379004
65.925 17.320248
65.930 16.980934
65.935 17.273247
65.940 17.606516
65.945 17.362377
65.950 17.784161
65.955 17.898335
65.960 17.929363
65.965 17.944595
65.970 18.175241
65.975 18.191166
65.980 18.516869
65.985 18.141096
65.990 17.926088
65.995 18.300194
66.000 17.583261
66.005 17.064112
66.010 17.122263
66.015 17.353819
66.020 17.586111
66.025 17.647381
66.030 17.568293
66.035 17.475128
66.040 17.141922
66.045 16.975271
66.050 16.782959
66.055 16.598394
66.060 15.98733
66.065 15.786264
66.070 16.172554
66.075 16.579937
66.080 16.862326
66.085 16.618401
66.090 16.713221
66.095 17.360155
66.100 17.531963
66.105 17.827513
66.110 18.39562
66.115 18.736063
66.120 18.321831
66.125 18.720268
66.130 18.667784
66.135 19.196875
66.140 19.199945
66.145 18.50305
66.150 18.076981
66.155 18.721088
66.160 18.514635
66.165 18.286367
66.170 17.703413
66.175 17.482502
66.180 17.564093
66.185 17.202671
66.190 16.953569
66.195 17.238331
66.200 17.045801
66.205 16.916397
66.210 16.670317
66.215 17.110052
66.220 17.999975
66.225 17.873144
66.230 17.614563
66.235 18.127867
66.240 17.826345
66.245 17.635717
66.250 17.237736
66.255 16.884531
66.260 16.636885
66.265 16.340204
66.270 15.72696
66.275 15.981541
66.280 16.278215
66.285 16.005131
66.290 16.000828
66.295 16.182947
66.300 16.437958
66.305 16.760866
66.310 17.081694
66.315 17.015455
66.320 17.204243
66.325 17.435255
66.330 17.353315
66.335 17.139151
66.340 16.988205
66.345 16.57568
66.350 16.800306
66.355 16.903454
66.360 16.524107
66.365 16.611677
66.370 16.679529
66.375 16.21233
66.380 16.278637
66.385 16.251785
66.390 15.5186
66.395 15.292824
66.400 14.966383
66.405 15.120823
66.410 15.587067
66.415 15.165739
66.420 14.71499
66.425 15.069262
66.430 15.169579
66.435 15.443583
66.440 14.936373
66.445 15.290554
66.450 14.7419
66.455 15.131521
66.460 15.669801
66.465 15.632731
66.470 15.795763
66.475 16.112549
66.480 15.885984
66.485 16.340208
66.490 16.160826
66.495 15.767836
66.500 15.745734
66.505 15.558346
66.510 15.731481
66.515 15.541315
66.520 14.882537
66.525 14.852932
66.530 14.849964
66.535 15.007181
66.540 14.962218
66.545 14.58126
66.550 14.810229
66.555 15.236446
66.560 14.954825
66.565 15.048671
66.570 14.869186
66.575 14.62605
66.580 14.762246
66.585 14.175057
66.590 13.692258
66.595 13.748254
66.600 13.261802
66.605 13.251023
66.610 12.876412
66.615 12.421094
66.620 12.653036
66.625 12.734939
66.630 12.622147
66.635 12.675419
66.640 12.434598
66.645 12.635064
66.650 12.215229
66.655 11.824087
66.660 12.367006
66.665 12.469526
66.670 12.637668
66.675 12.791688
66.680 13.446325
66.685 13.467921
66.690 13.103689
66.695 12.402774
66.700 11.932721
66.705 12.034884
66.710 11.842022
66.715 11.649648
66.720 12.297331
66.725 13.158476
66.730 13.48167
66.735 13.906068
66.740 13.628026
66.745 13.478244
66.750 13.146134
66.755 13.331745
66.760 13.207273
66.765 12.86355
66.770 12.871455
66.775 12.776997
66.780 12.631992
66.785 12.890376
66.790 12.483295
66.795 12.372805
66.800 12.507074
66.805 12.286854
66.810 11.922391
66.815 11.845561
66.820 11.900771
66.825 11.812413
66.830 11.767104
66.835 11.818486
66.840 12.050141
66.845 12.653371
66.850 12.679754
66.855 12.25442
66.860 12.334639
66.865 12.753525
66.870 12.476439
66.875 12.305449
66.880 12.260706
66.885 12.304232
66.890 12.469726
66.895 12.222835
66.900 11.865644
66.905 12.102353
66.910 11.96741
66.915 11.974597
66.920 12.36654
66.925 12.453058
66.930 12.383491
66.935 12.242177
66.940 12.348782
66.945 12.716019
66.950 13.299589
66.955 12.835339
66.960 12.83009
66.965 13.329976
66.970 13.538658
66.975 13.266829
66.980 12.943616
66.985 12.296849
66.990 11.936757
66.995 11.562234
67.000 11.175793
67.005 11.584693
67.010 11.695724
67.015 11.904372
67.020 12.420477
67.025 13.277265
67.030 13.908523
67.035 13.463848
67.040 13.050452
67.045 12.461728
67.050 12.433599
67.055 12.404885
67.060 12.0317
67.065 11.403097
67.070 11.666828
67.075 11.788417
67.080 12.182132
67.085 12.008402
67.090 11.88874
67.095 12.015234
67.100 12.615098
67.105 12.720256
67.110 12.689219
67.115 12.458283
67.120 12.502483
67.125 12.320599
67.130 12.108156
67.135 11.881674
67.140 11.939243
67.145 11.707162
67.150 12.345827
67.155 12.36672
67.160 12.385733
67.165 12.117417
67.170 11.886868
67.175 11.738471
67.180 11.649406
67.185 11.000664
67.190 11.061867
67.195 11.09122
67.200 11.222941
67.205 11.392424
67.210 11.508814
67.215 11.485855
67.220 11.463565
67.225 11.334749
67.230 11.450467
67.235 11.408695
67.240 11.408362
67.245 11.782575
67.250 12.2499
67.255 12.067223
67.260 11.647532
67.265 11.529533
67.270 11.944456
67.275 11.981829
67.280 11.796431
67.285 11.765819
67.290 11.986531
67.295 12.364702
67.300 12.701805
67.305 12.54942
67.310 12.602977
67.315 12.501146
67.320 12.64105
67.325 12.792532
67.330 12.794046
67.335 12.462304
67.340 12.048713
67.345 11.972966
67.350 11.953279
67.355 11.366614
67.360 11.678671
67.365 11.421778
67.370 11.397562
67.375 11.784135
67.380 11.714182
67.385 11.593948
67.390 11.687642
67.395 11.193967
67.400 11.387836
67.405 11.536392
67.410 12.00531
67.415 12.310864
67.420 12.371751
67.425 12.289932
67.430 12.419054
67.435 12.277863
67.440 12.240214
67.445 11.675419
67.450 11.178761
67.455 11.552315
67.460 12.032489
67.465 12.061537
67.470 12.636676
67.475 12.827859
67.480 13.289671
67.485 14.035771
67.490 13.906575
67.495 14.011949
67.500 13.894591
67.505 13.974689
67.510 14.144356
67.515 13.723026
67.520 13.408567
67.525 13.259419
67.530 13.256903
67.535 13.485072
67.540 12.952678
67.545 12.656683
67.550 12.698324
67.555 12.386718
67.560 12.828148
67.565 12.523882
67.570 12.354671
67.575 12.352437
67.580 12.330017
67.585 12.221395
67.590 12.118
67.595 11.558331
67.600 11.844234
67.605 12.030332
67.610 12.243044
67.615 12.60482
67.620 12.740615
67.625 12.906984
67.630 13.124227
67.635 12.610731
67.640 12.170018
67.645 12.13652
67.650 11.800017
67.655 12.060354
67.660 12.487235
67.665 12.585376
67.670 12.794328
67.675 12.776053
67.680 12.336512
67.685 12.457035
67.690 12.133458
67.695 11.483009
67.700 11.405841
67.705 11.689726
67.710 11.807535
67.715 11.936996
67.720 12.279404
67.725 12.411538
67.730 12.474741
67.735 11.951814
67.740 11.554283
67.745 11.726893
67.750 11.650128
67.755 11.399239
67.760 11.655464
67.765 11.439461
67.770 12.240361
67.775 12.661694
67.780 12.970542
67.785 13.368423
67.790 13.324249
67.795 12.95445
67.800 13.475252
67.805 13.072216
67.810 13.163607
67.815 13.080621
67.820 12.938055
67.825 12.720865
67.830 12.905222
67.835 12.806729
67.840 12.835367
67.845 12.490598
67.850 12.455637
67.855 12.357606
67.860 11.943691
67.865 11.737796
67.870 11.154346
67.875 11.101173
67.880 11.19783
67.885 11.406361
67.890 11.347369
67.895 11.755858
67.900 11.949572
67.905 12.414787
67.910 12.392323
67.915 12.555838
67.920 12.115252
67.925 12.307504
67.930 12.500513
67.935 12.456646
67.940 12.011881
67.945 12.237792
67.950 12.287081
67.955 12.232847
67.960 11.988261
67.965 11.943486
67.970 11.920202
67.975 12.090695
67.980 11.904485
67.985 11.821796
67.990 12.398173
67.995 12.670177
68.000 12.668279
68.005 12.375071
68.010 11.836119
68.015 11.99789
68.020 11.655998
68.025 11.601093
68.030 11.439365
68.035 11.326661
68.040 12.096491
68.045 12.631667
68.050 12.199815
68.055 12.077826
68.060 11.837758
68.065 11.574903
68.070 12.03618
68.075 12.06895
68.080 12.081944
68.085 12.413067
68.090 12.692427
68.095 12.804645
68.100 12.938048
68.105 13.034575
68.110 12.586651
68.115 12.324894
68.120 12.091994
68.125 11.866195
68.130 11.922078
68.135 11.857001
68.140 11.575772
68.145 11.916265
68.150 11.995083
68.155 12.165038
68.160 12.344666
68.165 12.006527
68.170 12.406819
68.175 12.437979
68.180 12.452794
68.185 12.50872
68.190 12.36061
68.195 12.209586
68.200 12.048907
68.205 11.094446
68.210 10.415867
68.215 9.865568
68.220 9.698924
68.225 9.951536
68.230 10.153219
68.235 10.509116
68.240 10.910858
68.245 11.196632
68.250 11.669931
68.255 11.445656
68.260 11.275107
68.265 11.378806
68.270 11.167809
68.275 11.530542
68.280 12.424644
68.285 12.46933
68.290 12.723941
68.295 12.432616
68.300 12.080651
68.305 12.172364
68.310 12.19122
68.315 11.866516
68.320 11.837617
68.325 11.771354
68.330 12.313691
68.335 12.604775
68.340 12.568837
68.345 12.340863
68.350 12.388008
68.355 12.563841
68.360 12.508613
68.365 12.039474
68.370 12.355613
68.375 12.222631
68.380 11.993706
68.385 11.767537
68.390 11.658507
68.395 12.017268
68.400 12.359691
68.405 11.86727
68.410 12.12248
68.415 12.087831
68.420 12.142123
68.425 12.326027
68.430 12.351516
68.435 12.346536
68.440 12.599081
68.445 12.367197
68.450 12.960293
68.455 13.664178
68.460 13.159243
68.465 12.723826
68.470 12.127227
68.475 11.943245
68.480 11.933363
68.485 10.945196
68.490 10.784971
68.495 11.201337
68.500 11.260454
68.505 11.808609
68.510 11.765656
68.515 12.205373
68.520 12.421493
68.525 11.843681
68.530 11.86828
68.535 11.920693
68.540 11.631023
68.545 11.924253
68.550 11.530199
68.555 11.291909
68.560 11.735929
68.565 11.505143
68.570 11.679559
68.575 11.701392
68.580 11.660593
68.585 11.802359
68.590 12.057259
68.595 11.673812
68.600 12.02975
68.605 12.098695
68.610 12.30128
68.615 12.001555
68.620 12.316077
68.625 12.626888
68.630 13.037139
68.635 13.148996
68.640 13.207482
68.645 13.08697
68.650 13.303451
68.655 12.875895
68.660 12.221208
68.665 11.90408
68.670 11.86175
68.675 11.880914
68.680 11.80927
68.685 12.073256
68.690 12.325554
68.695 12.735986
68.700 12.723971
68.705 12.613593
68.710 12.393847
68.715 12.526005
68.720 12.545595
68.725 12.796131
68.730 12.738613
68.735 12.777241
68.740 12.587195
68.745 12.750783
68.750 12.494943
68.755 12.289383
68.760 12.298779
68.765 12.420299
68.770 12.573537
68.775 12.936561
68.780 13.532793
68.785 13.98935
68.790 13.778901
68.795 13.311083
68.800 13.01737
68.805 12.316986
68.810 11.84209
68.815 11.161307
68.820 11.068638
68.825 11.626683
68.830 12.291577
68.835 12.992877
68.840 13.68364
68.845 13.537266
68.850 13.154387
68.855 12.946033
68.860 12.407146
68.865 12.080225
68.870 11.981171
68.875 11.877548
68.880 12.573047
68.885 12.81018
68.890 13.163706
68.895 13.431606
68.900 13.798875
68.905 13.917959
68.910 14.040191
68.915 13.735843
68.920 13.649838
68.925 13.433042
68.930 13.49131
68.935 13.435781
68.940 13.03941
68.945 12.74102
68.950 12.29952
68.955 12.345705
68.960 12.055349
68.965 12.020494
68.970 12.024274
68.975 12.155997
68.980 12.056932
68.985 12.379994
68.990 12.328933
68.995 12.685554
69.000 12.710608
69.005 12.97229
69.010 13.829231
69.015 14.437514
69.020 14.884986
69.025 15.36377
69.030 15.173603
69.035 15.470659
69.040 15.242739
69.045 14.555299
69.050 14.29106
69.055 13.881222
69.060 13.532262
69.065 13.883907
69.070 13.092269
69.075 12.59904
69.080 12.670753
69.085 12.859672
69.090 13.128005
69.095 12.909002
69.100 13.025748
69.105 13.545801
69.110 14.108854
69.115 14.594577
69.120 14.780744
69.125 14.783132
69.130 14.754959
69.135 14.26982
69.140 14.139665
69.145 13.722738
69.150 13.17961
69.155 12.822241
69.160 13.071592
69.165 13.138598
69.170 13.272942
69.175 13.323554
69.180 13.429626
69.185 13.634475
69.190 13.51007
69.195 13.425344
69.200 13.602805
69.205 13.803987
69.210 14.413524
69.215 14.51811
69.220 14.617217
69.225 15.546635
69.230 15.72166
69.235 15.919941
69.240 16.215281
69.245 15.931492
69.250 16.492474
69.255 16.863176
69.260 16.153076
69.265 15.446042
69.270 15.28959
69.275 15.032219
69.280 14.618414
69.285 14.502115
69.290 14.482613
69.295 15.269094
69.300 15.800413
69.305 16.080875
69.310 16.832359
69.315 17.284084
69.320 16.722273
69.325 16.018387
69.330 15.452228
69.335 15.190299
69.340 14.996167
69.345 14.489563
69.350 14.398467
69.355 14.856654
69.360 15.255568
69.365 15.505274
69.370 15.589003
69.375 15.638889
69.380 15.863134
69.385 15.45026
69.390 15.52294
69.395 15.110237
69.400 14.704883
69.405 14.918575
69.410 14.607475
69.415 14.259019
69.420 14.559231
69.425 14.363607
69.430 14.924076
69.435 15.342566
69.440 14.865137
69.445 15.196326
69.450 15.716177
69.455 15.789812
69.460 15.481807
69.465 15.276589
69.470 15.137042
69.475 15.363098
69.480 15.380846
69.485 14.909616
69.490 14.972815
69.495 15.614826
69.500 15.589568
69.505 15.985868
69.510 15.548186
69.515 15.42357
69.520 16.253492
69.525 16.514269
69.530 16.424536
69.535 16.454071
69.540 16.447336
69.545 17.17495
69.550 16.940657
69.555 16.05398
69.560 15.949471
69.565 16.299187
69.570 16.366922
69.575 16.827393
69.580 17.208548
69.585 17.268866
69.590 17.680296
69.595 17.68331
69.600 17.348866
69.605 17.044634
69.610 16.41338
69.615 15.764635
69.620 15.715627
69.625 15.182254
69.630 15.250646
69.635 14.915361
69.640 15.121848
69.645 15.009583
69.650 14.969254
69.655 15.133868
69.660 15.40845
69.665 14.978356
69.670 15.455294
69.675 15.517001
69.680 15.489573
69.685 15.472394
69.690 15.667774
69.695 16.099642
69.700 16.444391
69.705 16.385874
69.710 16.668364
69.715 16.621656
69.720 16.784758
69.725 16.437525
69.730 16.266623
69.735 16.298332
69.740 16.113184
69.745 16.006096
69.750 16.104103
69.755 15.503349
69.760 15.014439
69.765 14.998069
69.770 15.185172
69.775 14.959215
69.780 14.903052
69.785 15.237411
69.790 15.693901
69.795 16.013247
69.800 15.735973
69.805 15.112504
69.810 14.550231
69.815 14.299676
69.820 14.247938
69.825 14.863041
69.830 14.180668
69.835 14.238824
69.840 14.126357
69.845 14.194339
69.850 13.617045
69.855 13.125804
69.860 12.262231
69.865 12.484708
69.870 12.479112
69.875 13.05914
69.880 12.811009
69.885 12.529356
69.890 12.396628
69.895 12.453969
69.900 12.085226
69.905 12.309938
69.910 12.283199
69.915 13.022723
69.920 13.288351
69.925 13.029225
69.930 13.354077
69.935 13.448743
69.940 13.175785
69.945 12.859434
69.950 12.520252
69.955 12.639398
69.960 13.365745
69.965 12.960858
69.970 12.566283
69.975 12.420826
69.980 12.790374
69.985 13.579514
69.990 13.727412
69.995 13.51737
70.000 13.996132
70.005 14.044668
70.010 14.276616
70.015 14.124234
70.020 13.884758
70.025 13.568384
70.030 12.784215
70.035 12.040054
70.040 11.861989
70.045 11.119893
70.050 10.499689
70.055 10.274135
70.060 10.759398
70.065 11.264026
70.070 11.49953
70.075 11.726528
70.080 12.252138
70.085 12.147611
70.090 11.759291
70.095 12.23976
70.100 12.306257
70.105 12.745422
70.110 12.763542
70.115 12.673571
70.120 13.051299
70.125 13.273174
70.130 12.847804
70.135 13.123094
70.140 12.861418
70.145 12.874259
70.150 13.138569
70.155 13.892028
70.160 14.092425
70.165 14.143591
70.170 14.50396
70.175 14.770509
70.180 14.807968
70.185 14.768661
70.190 14.258541
70.195 13.902723
70.200 13.798067
70.205 13.42866
70.210 13.340114
70.215 13.272428
70.220 12.511121
70.225 12.355837
70.230 12.36779
70.235 12.068514
70.240 11.637403
70.245 12.041302
70.250 12.331729
70.255 12.865045
70.260 12.426041
70.265 12.406309
70.270 12.154881
70.275 11.944178
70.280 11.600473
70.285 11.645941
70.290 11.582038
70.295 11.819728
70.300 12.111471
70.305 12.718118
70.310 13.084223
70.315 12.669053
70.320 12.390691
70.325 12.25712
70.330 12.396764
70.335 12.035992
70.340 11.461009
70.345 10.943518
70.350 11.100607
70.355 10.713691
70.360 10.571128
70.365 10.348536
70.370 10.911485
70.375 11.459013
70.380 11.786815
70.385 11.919652
70.390 12.511979
70.395 12.770089
70.400 13.118096
70.405 13.118361
70.410 12.831015
70.415 12.583775
70.420 12.688859
70.425 12.41103
70.430 12.100521
70.435 11.73577
70.440 12.018272
70.445 12.192016
70.450 12.553421
70.455 12.537973
70.460 12.489137
70.465 12.712193
70.470 12.210441
70.475 11.865241
70.480 11.409972
70.485 10.889208
70.490 10.797439
70.495 10.671103
70.500 10.893697
70.505 11.543171
70.510 12.118437
70.515 12.662733
70.520 12.823268
70.525 13.066705
70.530 13.443714
70.535 13.359985
70.540 13.255134
70.545 12.880788
70.550 12.556959
70.555 12.8897
70.560 12.778548
70.565 12.676071
70.570 12.405528
70.575 12.264308
70.580 12.618417
70.585 12.658295
70.590 12.348607
70.595 12.032636
70.600 12.057667
70.605 12.400388
70.610 12.273602
70.615 12.515041
70.620 13.14509
70.625 13.413405
70.630 13.825777
70.635 13.658257
70.640 13.797562
70.645 13.510066
70.650 12.744361
70.655 12.644784
70.660 13.000091
70.665 12.80508
70.670 12.294285
70.675 12.070326
70.680 12.37639
70.685 12.536654
70.690 12.358586
70.695 12.040729
70.700 12.262741
70.705 12.511789
70.710 12.165954
70.715 11.756853
70.720 11.565411
70.725 11.446641
70.730 11.239295
70.735 10.602102
70.740 10.734762
70.745 11.004497
70.750 11.806896
70.755 12.630231
70.760 12.881342
70.765 12.945784
70.770 13.169449
70.775 13.103022
70.780 13.260311
70.785 13.014948
70.790 12.762398
70.795 12.674398
70.800 13.141268
70.805 13.196679
70.810 13.032542
70.815 12.754092
70.820 13.174575
70.825 12.949409
70.830 13.082379
70.835 12.530483
70.840 12.316374
70.845 12.288473
70.850 12.108055
70.855 11.720204
70.860 12.128987
70.865 12.11571
70.870 12.1727
70.875 12.298813
70.880 12.525484
70.885 12.64802
70.890 12.053899
70.895 11.372596
70.900 11.587558
70.905 11.45635
70.910 10.974066
70.915 10.776516
70.920 10.403894
70.925 10.333982
70.930 10.131986
70.935 9.814492
70.940 10.352363
70.945 10.928691
70.950 10.728161
70.955 10.863299
70.960 11.032158
70.965 11.808646
70.970 12.019162
70.975 11.762018
70.980 11.781051
70.985 11.95143
70.990 11.963664
70.995 11.841401
71.000 11.352668
71.005 11.466436
71.010 11.358976
71.015 11.448955
71.020 11.849081
71.025 12.036891
71.030 12.23697
71.035 12.13006
71.040 11.965105
71.045 12.041546
71.050 11.792321
71.055 11.862228
71.060 12.024026
71.065 11.412333
71.070 11.294647
71.075 11.375683
71.080 11.072579
71.085 10.813533
71.090 11.00428
71.095 11.484788
71.100 11.986559
71.105 11.988796
71.110 12.091133
71.115 12.137779
71.120 11.951977
71.125 10.872473
71.130 10.422054
71.135 10.576064
71.140 10.573528
71.145 10.640224
71.150 11.012419
71.155 10.829523
71.160 10.823303
71.165 10.492475
71.170 10.619271
71.175 10.522128
71.180 9.932733
71.185 10.170469
71.190 10.68265
71.195 10.717089
71.200 10.868515
71.205 10.680518
71.210 11.028185
71.215 11.424659
71.220 11.399375
71.225 11.512662
71.230 11.61662
71.235 12.125279
71.240 12.594916
71.245 12.795997
71.250 12.434498
71.255 12.183593
71.260 12.217413
71.265 12.721758
71.270 12.345679
71.275 12.0071
71.280 12.123957
71.285 12.294144
71.290 12.665954
71.295 12.527906
71.300 12.225789
71.305 12.129269
71.310 11.940399
71.315 11.658734
71.320 11.620744
71.325 11.24207
71.330 11.156215
71.335 10.800593
71.340 10.906373
71.345 11.164509
71.350 11.167062
71.355 11.114325
71.360 11.110859
71.365 11.007599
71.370 11.172753
71.375 11.145378
71.380 11.054358
71.385 11.385229
71.390 11.328908
71.395 11.392579
71.400 11.941664
71.405 11.832549
71.410 12.453613
71.415 12.646237
71.420 12.346825
71.425 12.300664
71.430 11.949224
71.435 11.359475
71.440 10.880362
71.445 10.326696
71.450 10.18627
71.455 10.607615
71.460 11.123798
71.465 11.616808
71.470 12.261465
71.475 12.509133
71.480 12.153691
71.485 12.071571
71.490 11.559384
71.495 11.118482
71.500 11.277107
71.505 10.885969
71.510 11.189186
71.515 11.356575
71.520 11.561784
71.525 12.391727
71.530 12.742981
71.535 12.404981
71.540 12.421544
71.545 12.665065
71.550 12.962411
71.555 12.972485
71.560 12.631032
71.565 12.173785
71.570 11.807916
71.575 11.274681
71.580 11.095106
71.585 10.963186
71.590 10.464265
71.595 10.143072
71.600 10.157376
71.605 10.708526
71.610 11.28803
71.615 11.530022
71.620 11.677911
71.625 12.086418
71.630 12.248639
71.635 12.707972
71.640 13.011308
71.645 13.069804
71.650 12.962294
71.655 12.609012
71.660 12.472111
71.665 12.601961
71.670 12.405405
71.675 12.075052
71.680 11.744968
71.685 11.570718
71.690 11.401099
71.695 11.176373
71.700 11.504432
71.705 11.37945
71.710 11.495141
71.715 11.414565
71.720 11.206375
71.725 11.63211
71.730 11.60939
71.735 11.621346
71.740 11.793515
71.745 11.705759
71.750 11.812552
71.755 12.161064
71.760 12.457811
71.765 12.315929
71.770 11.991423
71.775 11.814512
71.780 11.994363
71.785 12.072876
71.790 11.458831
71.795 11.247364
71.800 11.745528
71.805 12.112909
71.810 11.729804
71.815 11.570077
71.820 11.567456
71.825 11.530524
71.830 11.366795
71.835 10.883855
71.840 10.565788
71.845 10.937767
71.850 10.911963
71.855 11.21927
71.860 11.339474
71.865 11.624228
71.870 11.764953
71.875 12.327353
71.880 12.266149
71.885 12.247857
71.890 12.087999
71.895 11.86614
71.900 11.597519
71.905 11.410626
71.910 11.406523
71.915 11.399088
71.920 11.73754
71.925 11.764074
71.930 12.059917
71.935 12.324762
71.940 12.351394
71.945 12.465196
71.950 12.304858
71.955 12.270855
71.960 12.685295
71.965 12.833099
71.970 13.230703
71.975 13.201218
71.980 13.303477
71.985 13.26101
71.990 13.559999
71.995 13.184917
72.000 12.705726
72.005 12.380552
72.010 12.005347
72.015 11.923945
72.020 11.649724
72.025 10.967502
72.030 11.050284
72.035 10.883822
72.040 11.384473
72.045 12.459474
72.050 12.644174
72.055 12.558515
72.060 12.938732
72.065 13.417788
72.070 13.632579
72.075 13.022729
72.080 11.812468
72.085 11.464927
72.090 11.351218
72.095 10.928202
72.100 10.450142
72.105 10.109788
72.110 10.189681
72.115 10.54707
72.120 10.634607
72.125 10.843652
72.130 10.997511
72.135 11.337229
72.140 11.404825
72.145 11.018072
72.150 11.384357
72.155 11.693905
72.160 12.097867
72.165 12.142057
72.170 12.174169
72.175 12.423064
72.180 12.837111
72.185 12.686695
72.190 12.143711
72.195 11.809718
72.200 11.685615
72.205 11.232669
72.210 10.978258
72.215 10.565708
72.220 10.558134
72.225 10.60922
72.230 10.50611
72.235 10.467445
72.240 10.337606
72.245 10.45235
72.250 10.482345
72.255 10.765459
72.260 10.992472
72.265 11.238137
72.270 11.54096
72.275 11.854922
72.280 11.970308
72.285 11.675788
72.290 11.541421
72.295 11.490756
72.300 11.364724
72.305 11.314906
72.310 11.289109
72.315 12.171232
72.320 13.033566
72.325 12.941806
72.330 13.456821
72.335 13.675627
72.340 13.443635
72.345 13.115388
72.350 11.941409
72.355 11.428102
72.360 11.075859
72.365 10.323763
72.370 10.342011
72.375 10.676838
72.380 10.905121
72.385 11.243853
72.390 11.361876
72.395 11.582926
72.400 11.50984
72.405 11.157273
72.410 11.010686
72.415 10.640379
72.420 10.36383
72.425 10.075004
72.430 10.313273
72.435 10.24041
72.440 10.503131
72.445 10.587705
72.450 10.937007
72.455 11.052872
72.460 10.97202
72.465 10.676256
72.470 10.47354
72.475 10.852069
72.480 10.936024
72.485 11.27598
72.490 11.130712
72.495 11.245882
72.500 11.034836
72.505 11.172486
72.510 10.32465
72.515 10.183006
72.520 9.959662
72.525 10.656712
72.530 11.023344
72.535 11.650553
72.540 11.952806
72.545 12.543107
72.550 12.635951
72.555 12.62765
72.560 12.246603
72.565 12.330431
72.570 12.307418
72.575 11.942999
72.580 11.844928
72.585 12.390868
72.590 12.313993
72.595 11.825881
72.600 11.322628
72.605 11.344257
72.610 11.614421
72.615 10.982906
72.620 10.977893
72.625 11.429842
72.630 11.71246
72.635 11.891627
72.640 11.857329
72.645 12.015501
72.650 11.71657
72.655 11.622684
72.660 11.641426
72.665 11.73516
72.670 11.610253
72.675 11.408731
72.680 11.461784
72.685 11.526292
72.690 11.085824
72.695 11.33887
72.700 11.790938
72.705 11.893901
72.710 12.149996
72.715 12.380193
72.720 12.60305
72.725 12.99832
72.730 12.607046
72.735 12.48568
72.740 12.17557
72.745 12.028277
72.750 12.188607
72.755 12.01639
72.760 11.396255
72.765 11.407414
72.770 11.441362
72.775 11.645715
72.780 11.525618
72.785 11.324837
72.790 11.192279
72.795 11.412751
72.800 11.628072
72.805 11.682485
72.810 11.526728
72.815 11.052065
72.820 10.947108
72.825 11.16571
72.830 10.82882
72.835 10.40165
72.840 10.296953
72.845 10.441358
72.850 10.510159
72.855 10.382656
72.860 10.647797
72.865 10.679891
72.870 10.897057
72.875 11.052087
72.880 11.169379
72.885 11.343491
72.890 11.357466
72.895 11.001696
72.900 10.797638
72.905 10.826558
72.910 10.790404
72.915 10.762416
72.920 10.792723
72.925 11.260036
72.930 11.645516
72.935 11.513154
72.940 11.199966
72.945 11.105279
72.950 11.309495
72.955 11.057525
72.960 10.975578
72.965 10.808092
72.970 10.851506
72.975 10.73348
72.980 11.009843
72.985 10.921544
72.990 10.723311
72.995 10.204471
73.000 10.144825
